Data from aluminium_surface_pro_back_FLMS001491_00032.txt Node
Date: Wed Feb 08 15:33:58 GMT 2017
User: dcchb
Spectrometer: FLMS00149
Trigger mode: 0
Integration Time (sec): 2.000000E-2
Scans to average: 10
Electric dark correction enabled: true
Nonlinearity correction enabled: false
Boxcar width: 0
XAxis mode: Wavelengths
Number of Pixels in Spectrum: 2048
>>>>>Begin Spectral Data<<<<<
341.393	-2.33
341.776	-2.33
342.16	-2.33
342.543	-49.79
342.927	-64.25
343.31	-83.91
343.693	-50.01
344.077	-59.5
344.46	-62.22
344.843	-73.74
345.226	-26.74
345.61	-2.33
345.993	-24.25
346.376	2.42
346.759	13.71
347.142	21.17
347.525	30.44
347.908	53.71
348.291	76.31
348.674	79.93
349.057	105.01
349.44	112.02
349.823	130.77
350.206	182.07
350.588	223.2
350.971	200.83
351.354	246.02
351.737	241.73
352.119	286.93
352.502	270.2
352.884	297.55
353.267	299.58
353.65	306.36
354.032	317.21
354.414	361.05
354.797	336.19
355.179	356.53
355.562	351.56
355.944	337.77
356.326	342.52
356.709	366.7
357.091	375.06
357.473	355.63
357.855	354.95
358.238	375.51
358.62	365.57
359.002	352.24
359.384	363.99
359.766	360.6
360.148	372.12
360.53	366.93
360.912	364.21
361.294	387.26
361.676	353.14
362.057	350.88
362.439	366.47
362.821	368.06
363.203	376.19
363.584	375.29
363.966	377.09
364.348	357.43
364.729	346.81
365.111	349.3
365.493	356.98
365.874	357.66
366.256	370.77
366.637	352.24
367.019	333.25
367.4	352.69
367.781	347.04
368.163	371.22
368.544	380.26
368.925	371.45
369.306	373.48
369.688	365.12
370.069	367.38
370.45	378.68
370.831	367.6
371.212	379.35
371.593	365.34
371.974	389.98
372.355	399.69
372.736	361.5
373.117	368.06
373.498	372.35
373.879	387.94
374.26	394.27
374.641	356.08
375.021	394.04
375.402	376.64
375.783	402.86
376.163	397.21
376.544	392.01
376.925	407.38
377.305	418.22
377.686	392.91
378.066	398.56
378.447	439.47
378.827	427.94
379.208	422.07
379.588	426.58
379.968	393.59
380.349	425.68
380.729	422.29
381.109	390.43
381.489	413.03
381.87	450.99
382.25	437.88
382.63	451.67
383.01	461.61
383.39	454.61
383.77	461.61
384.15	449.18
384.53	480.14
384.91	455.28
385.29	469.75
385.67	480.37
386.049	489.63
386.429	494.83
386.809	475.62
387.189	504.32
387.568	488.28
387.948	508.39
388.328	500.03
388.707	509.97
389.087	508.39
389.466	514.94
389.846	524.89
390.225	532.8
390.605	547.03
390.984	568.95
391.363	559.46
391.743	565.56
392.122	589.07
392.501	566.24
392.881	579.8
393.26	558.33
393.639	589.74
394.018	581.16
394.397	582.74
394.776	601.95
395.155	592.91
395.534	630.42
395.913	611.89
396.292	615.05
396.671	637.65
397.05	641.49
397.429	673.58
397.808	623.87
398.186	667.71
398.565	668.16
398.944	672.23
399.323	690.08
399.701	677.2
400.08	673.58
400.458	689.63
400.837	717.42
401.215	719.46
401.594	734.6
401.972	752.68
402.351	728.72
402.729	750.87
403.107	748.16
403.486	765.33
403.864	785.9
404.242	764.43
404.62	782.96
404.999	791.1
405.377	808.5
405.755	832
406.133	815.28
406.511	817.31
406.889	869.74
407.267	867.48
407.645	882.17
408.023	896.85
408.401	895.95
408.779	926.23
409.156	912.22
409.534	935.5
409.912	935.5
410.29	982.28
410.667	976.17
411.045	982.73
411.422	996.29
411.8	982.28
412.178	992.45
412.555	1040.58
412.933	1054.14
413.31	1062.5
413.687	1090.52
414.065	1082.84
414.442	1089.62
414.819	1116.74
415.197	1121.26
415.574	1133.46
415.951	1149.28
416.328	1143.63
416.705	1173.91
417.082	1172.78
417.46	1198.77
417.837	1201.71
418.214	1221.14
418.591	1225.43
418.967	1222.72
419.344	1225.21
419.721	1264.75
420.098	1258.2
420.475	1299.78
420.852	1294.13
421.228	1342.94
421.605	1322.15
421.982	1363.96
422.358	1333.68
422.735	1368.25
423.111	1354.7
423.488	1409.38
423.864	1448.7
424.241	1430.63
424.617	1445.77
424.994	1449.83
425.37	1472.21
425.746	1484.86
426.123	1496.39
426.499	1522.38
426.875	1493.45
427.251	1556.5
427.627	1605.54
428.003	1607.34
428.379	1601.24
428.756	1617.29
429.132	1651.64
429.507	1689.38
429.883	1714.69
430.259	1729.15
430.635	1758.98
431.011	1770.96
431.387	1811.86
431.763	1864.74
432.138	1827.45
432.514	1877.62
432.89	1898.64
433.265	1914.46
433.641	1973.89
434.016	1992.19
434.392	1999.2
434.767	2036.26
435.143	2010.05
435.518	2076.94
435.894	2071.97
436.269	2134.79
436.644	2158.74
437.02	2128.91
437.395	2170.49
437.77	2189.93
438.145	2207.78
438.52	2249.81
438.895	2283.03
439.271	2292.3
439.646	2339.98
440.021	2353.09
440.395	2380.66
440.77	2361
441.145	2380.66
441.52	2413.88
441.895	2436.7
442.27	2452.07
442.645	2455.91
443.019	2524.38
443.394	2489.81
443.769	2544.72
444.143	2540.2
444.518	2590.37
444.892	2606.19
445.267	2600.31
445.641	2617.49
446.016	2603.02
446.39	2673.31
446.764	2680.54
447.139	2664.04
447.513	2731.83
447.887	2700.42
448.262	2744.94
448.636	2785.39
449.01	2788.56
449.384	2861.1
449.758	2837.37
450.132	2912.85
450.506	2893.19
450.88	2883.24
451.254	2918.04
451.628	2939.51
452.002	3029.91
452.376	3019.74
452.75	3050.24
453.123	3053.63
453.497	3154.42
453.871	3141.77
454.244	3245.27
454.618	3268.09
454.992	3336.34
455.365	3305.83
455.739	3415.88
456.112	3399.84
456.486	3474.87
456.859	3497.69
457.232	3547.18
457.606	3570.68
457.979	3614.98
458.352	3715.76
458.725	3735.65
459.099	3735.88
459.472	3820.85
459.845	3866.49
460.218	3922.54
460.591	3935.42
460.964	3932.71
461.337	4044.57
461.71	4152.36
462.083	4175.64
462.456	4189.42
462.829	4211.34
463.201	4291.79
463.574	4324.56
463.947	4370.21
464.32	4478.46
464.692	4523.88
465.065	4509.42
465.438	4605.68
465.81	4668.96
466.183	4713.93
466.555	4814.49
466.928	4859.69
467.3	4862.63
467.672	4961.61
468.045	5050.19
468.417	5110.08
468.789	5110.76
469.161	5236.4
469.534	5281.37
469.906	5397.08
470.278	5454.25
470.65	5478.66
471.022	5606.11
471.394	5693.56
471.766	5752.32
472.138	5850.17
472.51	5918.19
472.882	6030.28
473.253	6064.18
473.625	6168.35
473.997	6334
474.369	6345.98
474.74	6429.82
475.112	6514.33
475.484	6702.35
475.855	6784.38
476.227	6871.16
476.598	7074.09
476.97	7096.92
477.341	7243.35
477.713	7409.68
478.084	7458.72
478.455	7627.07
478.827	7706.39
479.198	7980.28
479.569	7950.91
479.94	8155.65
480.311	8252.14
480.682	8422.98
481.053	8636.31
481.424	8776.65
481.795	8855.29
482.166	9006.92
482.537	9094.83
482.908	9323.98
483.279	9410.08
483.65	9639.9
484.021	9837.41
484.391	9886.22
484.762	9953.11
485.133	10093.22
485.503	10226.1
485.874	10390.16
486.244	10548.8
486.615	10730.27
486.985	10888.23
487.356	11063.82
487.726	11158.96
488.097	11398.73
488.467	11483.02
488.837	11607.31
489.207	11840.97
489.578	11918.26
489.948	12103.11
490.318	12304.01
490.688	12404.8
491.058	12576.55
491.428	12709.43
491.798	12825.13
492.168	13097.66
492.538	13161.62
492.908	13356.64
493.278	13532
493.648	13555.51
494.017	13713.24
494.387	13860.13
494.757	13949.39
495.126	14077.07
495.496	14223.28
495.866	14338.08
496.235	14480.45
496.605	14663.05
496.974	14748.24
497.344	14864.62
497.713	14975.13
498.082	15046.54
498.452	15235.24
498.821	15286.31
499.19	15327.89
499.559	15517.49
499.928	15625.51
500.298	15801.77
500.667	15840.87
501.036	15957.7
501.405	16081.99
501.774	16081.77
502.143	16238.37
502.512	16385.26
502.88	16590.68
503.249	16634.75
503.618	16763.33
503.987	16808.75
504.356	16954.96
504.724	17089.42
505.093	17209.87
505.462	17242.64
505.83	17352.69
506.199	17596.53
506.567	17772.34
506.936	17853.47
507.304	18048.27
507.672	18180.24
508.041	18303.18
508.409	18355.15
508.777	18540.46
509.145	18676.73
509.514	18667.24
509.882	18890.96
510.25	18917.62
510.618	19091.18
510.986	19144.51
511.354	19411.17
511.722	19555.57
512.09	19700.65
512.458	19775.68
512.826	20056.35
513.193	20034.2
513.561	20118.27
513.929	20221.77
514.297	20432.84
514.664	20642.78
515.032	20854.75
515.4	21003.22
515.767	21022.2
516.135	21147.62
516.502	21102.43
516.869	21544
517.237	21622.86
517.604	21627.84
517.972	21932.01
518.339	22186.24
518.706	22217.88
519.073	22351.21
519.44	22538.32
519.808	22907.35
520.175	22881.59
520.542	23308.7
520.909	23373.55
521.276	23439.99
521.643	23615.35
522.009	23865.29
522.376	24067.32
522.743	24237.94
523.11	24482.45
523.477	24708.66
523.843	24711.14
524.21	25153.39
524.577	25246.27
524.943	25401.3
525.31	25601.06
525.676	25853.71
526.043	25938.23
526.409	26125.34
526.776	26320.14
527.142	26429.52
527.508	26647.59
527.874	26915.38
528.241	27037.41
528.607	27115.15
528.973	27438.3
529.339	27399.89
529.705	27770.95
530.071	27912.64
530.437	28088
530.803	28269.92
531.169	28529.35
531.535	28443.7
531.901	28701.32
532.267	28762.56
532.632	28927.98
532.998	29117.58
533.364	29296.79
533.73	29334.07
534.095	29570.45
534.461	29704.69
534.826	29885.47
535.192	30099.25
535.557	30263.09
535.923	30284.56
536.288	30451.78
536.653	30637.77
537.019	30652
537.384	30776.3
537.749	30901.49
538.114	30903.98
538.479	31166.57
538.845	31271.2
539.21	31284.08
539.575	31456.5
539.94	31585.99
540.305	31743.05
540.67	31692.2
541.034	31859.2
541.399	32045.41
541.764	32043.38
542.129	32239.76
542.494	32224.62
542.858	32455.35
543.223	32585.51
543.587	32804.94
543.952	32725.62
544.316	32976.46
544.681	32866.64
545.045	33189.34
545.41	33284.7
545.774	33493.74
546.138	33491.03
546.503	33557.47
546.867	33664.81
547.231	33913.39
547.595	33897.34
547.959	34092.59
548.324	34139.14
548.688	34037.9
549.052	34360.61
549.416	34468.4
549.779	34523.54
550.143	34601.28
550.507	34874.49
550.871	34997.43
551.235	35030.19
551.599	35222.28
551.962	35319.9
552.326	35507.02
552.689	35620.69
553.053	35552.21
553.417	35655.72
553.78	36234
554.143	36019.32
554.507	36323.04
554.87	36416.6
555.234	36823.82
555.597	36711.51
555.96	36721.22
556.323	37005.96
556.686	37255.22
557.05	37458.15
557.413	37578.15
557.776	37618.83
558.139	37831.7
558.502	37883.23
558.865	38093.39
559.228	38197.57
559.59	38327.96
559.953	38433.72
560.316	38889.08
560.679	38954.84
561.041	39087.49
561.404	39323.42
561.767	39463.52
562.129	39408.16
562.492	40020.57
562.854	39777.64
563.217	39900.12
563.579	40165.65
563.941	40474.12
564.304	40625.08
564.666	40882.7
565.028	41042.47
565.39	41359.52
565.753	41485.39
566.115	41473.19
566.477	41750.47
566.839	41853.07
567.201	42199.5
567.563	42280.63
567.925	42479.94
568.287	42637.68
568.648	42790.44
569.01	43031.11
569.372	43253.26
569.734	43223.2
570.095	43545.9
570.457	43799.46
570.819	43916.74
571.18	44034.48
571.542	44327.58
571.903	44431.53
572.265	44647.57
572.626	44768.92
572.987	44852.54
573.349	45110.83
573.71	45312.64
574.071	45216.14
574.432	45418.62
574.794	45662.91
575.155	45776.13
575.516	45610.71
575.877	45836.24
576.238	45951.72
576.599	46145.38
576.96	46149.68
577.32	46139.06
577.681	46320.52
578.042	46484.36
578.403	46623.79
578.763	46631.02
579.124	46693.16
579.485	46875.53
579.845	46980.61
580.206	46931.58
580.566	47001.18
580.927	47065.81
581.287	47181.29
581.648	47083.66
582.008	47356.88
582.368	47279.82
582.728	47332.24
583.089	47257.67
583.449	47360.27
583.809	47511.9
584.169	47486.59
584.529	47390.55
584.889	47827.82
585.249	47627.6
585.609	47531.33
585.969	47675.51
586.329	47607.27
586.688	47645.46
587.048	47564.1
587.408	47545.12
587.768	47567.94
588.127	47620.37
588.487	47547.83
588.846	47883.87
589.206	47681.39
589.565	47662.86
589.925	47743.08
590.284	47716.87
590.643	47645
591.003	47803.42
591.362	47919.8
591.721	47844.1
592.08	47847.71
592.44	47903.08
592.799	47935.17
593.158	47838.45
593.517	47873.02
593.876	48029.17
594.235	47869.18
594.593	47913.25
594.952	47987.82
595.311	47978.78
595.67	47906.47
596.029	48202.5
596.387	48267.81
596.746	48266
597.104	48043.64
597.463	48108.49
597.822	48269.85
598.18	48100.36
598.538	48149.62
598.897	48280.69
599.255	48042.73
599.613	48586.67
599.972	48344.19
600.33	48484.76
600.688	48272.11
601.046	48375.61
601.404	48558.65
601.762	48551.2
602.12	48711.64
602.478	48713.45
602.836	48692.89
603.194	48643.17
603.552	48613.11
603.91	48616.28
604.268	48637.75
604.625	48582.61
604.983	48839.32
605.341	48710.96
605.698	48841.58
606.056	48868.7
606.413	48715.71
606.771	48841.36
607.128	48860.11
607.485	48788.48
607.843	48917.51
608.2	49107.11
608.557	49150.5
608.914	48944.63
609.272	49168.35
609.629	49237.5
609.986	49497.38
610.343	49040
610.7	49391.63
611.057	49295.81
611.414	49284.74
611.771	49259.65
612.127	49285.19
612.484	49367.67
612.841	49503.26
613.198	49425.3
613.554	49479.53
613.911	49728.57
614.267	49841.33
614.624	49729.7
614.98	49901.67
615.337	49965.85
615.693	49966.98
616.05	49979.18
616.406	50230.25
616.762	49994.77
617.118	49964.27
617.475	50051.04
617.831	50059.86
618.187	50086.07
618.543	50110.48
618.899	50285.84
619.255	50228.67
619.611	50270.02
619.967	50458.26
620.323	50394.08
620.678	50337.36
621.034	50300.75
621.39	50185.28
621.746	50203.36
622.101	50595.21
622.457	50288.32
622.812	50368.1
623.168	50382.79
623.523	50264.14
623.879	50416.23
624.234	50220.3
624.589	50290.58
624.945	50367.19
625.3	50337.59
625.655	50375.33
626.01	50337.59
626.365	50327.65
626.72	50319.74
627.075	50133.3
627.43	50292.17
627.785	50227.76
628.14	50329.23
628.495	50339.62
628.85	50335.33
629.205	50182.34
629.559	50451.48
629.914	50117.48
630.269	50140.31
630.623	50140.08
630.978	50127.2
631.332	50197.93
631.687	50305.5
632.041	49953.87
632.396	50008.56
632.75	49990.93
633.104	50049.23
633.459	49875.23
633.813	49806.53
634.167	49722.69
634.521	49781.45
634.875	49808.56
635.229	49740.09
635.583	49539.87
635.937	49645.63
636.291	49441.57
636.645	49519.31
636.999	49488.57
637.352	49596.82
637.706	49348.01
638.06	49446.54
638.413	49413.55
638.767	49210.84
639.121	49294.9
639.474	49081.8
639.828	49080.67
640.181	49005.42
640.534	49122.48
640.888	48920.9
641.241	48745.54
641.594	48721.59
641.947	48746.22
642.301	48738.08
642.654	48738.99
643.007	48685.65
643.36	48502.61
643.713	48460.58
644.066	48542.38
644.419	48323.63
644.771	48026.24
645.124	47665.12
645.477	47694.27
645.83	47286.14
646.182	47220.38
646.535	47092.48
646.888	47184.68
647.24	46974.74
647.593	47210.21
647.945	47081.63
648.298	46712.15
648.65	46768.42
649.002	46705.82
649.355	46797.12
649.707	46726.84
650.059	47004.34
650.411	47340.61
650.763	47273.04
651.115	47771.55
651.467	47581.28
651.819	47378.34
652.171	47456.08
652.523	47294.73
652.875	47357.1
653.227	47152.14
653.578	47445.91
653.93	47306.93
654.282	47126.83
654.633	46909.88
654.985	47145.81
655.337	47086.6
655.688	47000.05
656.039	47159.14
656.391	46844.8
656.742	46909.43
657.094	46918.7
657.445	46966.6
657.796	46737.68
658.147	46762.99
658.498	46795.99
658.849	46819.94
659.2	46802.77
659.551	46628.08
659.902	46821.52
660.253	46678.7
660.604	46762.77
660.955	46493.62
661.306	46757.57
661.656	46486.62
662.007	46504.24
662.358	46483.9
662.708	46532.49
663.059	46508.76
663.409	46212.05
663.76	46574.52
664.11	46473.51
664.461	46609.78
664.811	46574.75
665.161	46351.25
665.511	46301.31
665.862	46503.57
666.212	46481.87
666.562	46544.92
666.912	46460.85
667.262	46423.57
667.612	46267.64
667.962	46287.98
668.312	46173.86
668.662	46409.1
669.011	46323.68
669.361	46034.65
669.711	46027.65
670.06	45974.77
670.41	45992.39
670.76	45997.14
671.109	46175.44
671.459	46030.13
671.808	46056.8
672.157	46087.98
672.507	45798.95
672.856	45828.78
673.205	45916.91
673.554	46034.43
673.904	45838.5
674.253	45969.12
674.602	45791.72
674.951	45293.88
675.3	45171.62
675.649	45669.24
675.998	45547.66
676.346	45760.31
676.695	45722.79
677.044	45537.04
677.393	45355.35
677.741	45602.57
678.09	45372.3
678.438	45205.52
678.787	45387.44
679.135	45381.79
679.484	45132.08
679.832	45233.54
680.181	45058.18
680.529	45241.23
680.877	45136.82
681.225	45084.17
681.573	45211.4
681.922	44918.07
682.27	44722.6
682.618	44675.59
682.966	44734.12
683.314	44748.36
683.661	44594.46
684.009	44392.89
684.357	44323.74
684.705	44249.61
685.053	44220.46
685.4	44116.51
685.748	43923.75
686.095	43775.05
686.443	43610.76
686.79	43711.1
687.138	43755.16
687.485	43711.32
687.832	43553.36
688.18	43392.69
688.527	43324.21
688.874	43340.71
689.221	43264.1
689.568	43164.22
689.915	42860.05
690.262	43048.29
690.609	42885.81
690.956	42757.45
691.303	42778.01
691.65	42617.79
691.997	42514.97
692.344	42311.36
692.69	42234.75
693.037	42303
693.383	42002.67
693.73	42118.6
694.077	41830.02
694.423	41896.23
694.769	41740.53
695.116	41686.06
695.462	41569.68
695.808	41555.22
696.155	41605.16
696.501	41140.09
696.847	41177.15
697.193	40837.95
697.539	41164.04
697.885	40634.79
698.231	40668.92
698.577	40590.73
698.923	40527
699.269	40261.24
699.614	40138.54
699.96	40198.65
700.306	40144.41
700.651	39862.16
700.997	39716.17
701.342	39737.42
701.688	39591.2
702.033	39555.95
702.379	39254.04
702.724	39266.69
703.069	39267.15
703.415	38975.85
703.76	39007.94
704.105	38940.83
704.45	38736.54
704.795	38485.7
705.14	38419.03
705.485	38384.68
705.83	38110.34
706.175	38279.15
706.52	38140.85
706.865	38021.3
707.209	38004.35
707.554	37790.12
707.899	37940.63
708.243	37707.86
708.588	37679.84
708.932	37477.36
709.277	37485.05
709.621	37266.75
709.966	37187.2
710.31	37335.22
710.654	37010.26
710.998	37106.75
711.342	37022.68
711.687	36991.73
712.031	36819.75
712.375	36707.21
712.719	36784.95
713.063	36521
713.407	36677.38
713.75	36392.64
714.094	36399.42
714.438	36180.45
714.782	36251.86
715.125	36073.33
715.469	36047.8
715.812	35981.58
716.156	35833.34
716.499	35744.3
716.843	35762.83
717.186	35671.99
717.53	35812.1
717.873	35776.62
718.216	35660.46
718.559	35316.74
718.902	35174.6
719.246	35154.49
719.589	35200.13
719.932	35089.85
720.275	34964.89
720.617	34971.89
720.96	34785.68
721.303	34964.21
721.646	34885.57
721.989	34669.75
722.331	34825.23
722.674	34519.25
723.016	34554.05
723.359	34445.8
723.701	34444.9
724.044	34293.26
724.386	34053.95
724.729	34237.9
725.071	34155.19
725.413	33960.17
725.755	33942.09
726.097	33729.89
726.439	33555.43
726.782	33649.21
727.124	33754.75
727.465	33511.36
727.807	33574.19
728.149	33495.32
728.491	33329.45
728.833	33331.93
729.175	33186.18
729.516	33234.76
729.858	33171.49
730.199	33132.17
730.541	33036.57
730.882	33017.37
731.224	33100.98
731.565	32805.17
731.906	32888.78
732.248	32927.2
732.589	32724.04
732.93	32550.49
733.271	32723.59
733.612	32614.44
733.953	32620.99
734.294	32410.6
734.635	32402.92
734.976	32604.27
735.317	32230.72
735.658	32269.59
735.999	32153.66
736.339	31936.94
736.68	32135.36
737.021	32079.99
737.361	31964.51
737.702	31972.87
738.042	31880.67
738.383	31821.69
738.723	31722.71
739.063	31627.8
739.404	31603.17
739.744	31604.52
740.084	31420.12
740.424	31508.71
740.764	31532.21
741.104	31578.31
741.444	31308.71
741.784	31233.01
742.124	31247.24
742.464	31248.15
742.804	31250.41
743.143	31160.92
743.483	31162.73
743.823	30868.95
744.162	30878.44
744.502	30921.38
744.841	30794.37
745.181	30933.35
745.52	30685.45
745.86	30832.79
746.199	30796.41
746.538	30580.37
746.877	30706.47
747.216	30571.78
747.556	30563.19
747.895	30478
748.234	30462.18
748.573	30268.74
748.911	30230.55
749.25	30280.94
749.589	30066.03
749.928	30018.8
750.267	30135.63
750.605	30003.89
750.944	29829.43
751.283	29627.4
751.621	29721.41
751.96	29578.13
752.298	29609.77
752.636	29544.01
752.975	29193.51
753.313	29301.08
753.651	29437.12
753.989	29219.95
754.327	29202.78
754.666	29053.85
755.004	29056.11
755.342	28990.81
755.679	29002.1
756.017	28795.1
756.355	28794.2
756.693	28730.25
757.031	28711.94
757.368	28603.02
757.706	28622
758.044	28486.41
758.381	28260.66
758.719	28376.58
759.056	28457.26
759.394	28238.51
759.731	28009.36
760.068	27934.56
760.405	27973.66
760.743	27775.24
761.08	27865.41
761.417	27534.12
761.754	27640.33
762.091	27442.15
762.428	27284.18
762.765	27149.72
763.102	27309.95
763.438	27071.76
763.775	26951.76
764.112	26985.89
764.449	26924.65
764.785	26799
765.122	26692.56
765.458	26582.06
765.795	26574.6
766.131	26525.56
766.467	26362.17
766.804	26131.45
767.14	26050.32
767.476	26081.5
767.812	26067.27
768.148	26085.35
768.485	25726.03
768.821	25554.51
769.157	25569.88
769.492	25600.16
769.828	25528.98
770.164	25253.95
770.5	25231.81
770.836	25134.86
771.171	25080.17
771.507	24919.27
771.842	24740.07
772.178	24790.92
772.513	24620.52
772.849	24615.1
773.184	24386.18
773.519	24422.79
773.855	24371.72
774.19	24242
774.525	24205.85
774.86	24080.88
775.195	24096.7
775.53	23973.08
775.865	23781
776.2	23589.37
776.535	23405.87
776.87	23426.21
777.205	23237.74
777.539	23295.81
777.874	23312.54
778.209	23022.83
778.543	23086.78
778.878	22840.91
779.212	22807.01
779.547	22729.05
779.881	22802.72
780.215	22665.1
780.55	22631.2
780.884	22520.92
781.218	22520.47
781.552	22384.2
781.886	22296.52
782.22	22159.35
782.554	22013.36
782.888	21806.59
783.222	21775.18
783.556	21665.35
783.889	21718.45
784.223	21473.04
784.557	21565.24
784.89	21464.68
785.224	21389.2
785.557	21304.23
785.891	21212.93
786.224	21109.88
786.558	21083.22
786.891	20872.6
787.224	20762.77
787.557	20839.38
787.891	20813.85
788.224	20679.61
788.557	20715.54
788.89	20566.62
789.223	20525.04
789.556	20334.08
789.888	20291.37
790.221	20311.49
790.554	20097.25
790.887	20251.83
791.219	20112.17
791.552	19987.65
791.884	19856.13
792.217	19935.68
792.549	19809.13
792.882	19664.05
793.214	19501.56
793.546	19579.3
793.879	19456.37
794.211	19389.93
794.543	19386.76
794.875	19232.87
795.207	19252.98
795.539	19174.79
795.871	19054.57
796.203	18991.75
796.535	18801.92
796.867	18906.32
797.198	18761.7
797.53	18843.28
797.862	18640.12
798.193	18669.27
798.525	18490.97
798.856	18610.97
799.188	18370.07
799.519	18330.29
799.85	18179.56
800.182	18223.86
800.513	18065.44
800.844	18054.6
801.175	18145.89
801.506	18092.34
801.837	17898.44
802.168	17939.34
802.499	17846.01
802.83	17688.28
803.161	17637.88
803.491	17716.75
803.822	17632.23
804.153	17455.97
804.483	17434.73
804.814	17379.81
805.145	17372.35
805.475	17354.95
805.805	17260.94
806.136	17143.43
806.466	17257.55
806.796	17163.32
807.126	16929.2
807.457	16881.75
807.787	16912.25
808.117	16741.64
808.447	16754.74
808.777	16791.35
809.107	16733.05
809.436	16678.13
809.766	16646.05
810.096	16584.13
810.426	16616.67
810.755	16430.01
811.085	16502.32
811.414	16455.09
811.744	16268.65
812.073	16246.73
812.403	16241.54
812.732	16264.36
813.061	16210.35
813.39	16178.49
813.719	16096.68
814.049	16117.25
814.378	15979.85
814.707	15914.09
815.036	15953.86
815.365	15901.66
815.693	15744.83
816.022	15678.61
816.351	15655.79
816.68	15579.63
817.008	15590.03
817.337	15500.54
817.665	15434.78
817.994	15576.69
818.322	15576.24
818.651	15416.93
818.979	15421.67
819.307	15379.86
819.636	15308.45
819.964	15221.22
820.292	15272.3
820.62	15229.81
820.948	15201.56
821.276	15262.58
821.604	15133.09
821.932	15253.54
822.259	15298.06
822.587	15207.89
822.915	15145.75
823.243	15268.91
823.57	15191.17
823.898	15156.14
824.225	15150.04
824.553	15102.81
824.88	15123.6
825.207	15149.36
825.535	15057.61
825.862	15143.03
826.189	15100.32
826.516	15184.61
826.843	15212.86
827.17	15156.14
827.497	15244.5
827.824	15203.82
828.151	15218.51
828.478	15090.15
828.805	15182.58
829.131	15111.62
829.458	15108.68
829.785	14969.48
830.111	15121.79
830.438	15181.45
830.764	15099.87
831.09	15134.22
831.417	14973.32
831.743	15050.83
832.069	15102.58
832.395	14968.58
832.722	15112.53
833.048	14964.73
833.374	14971.74
833.7	14915.92
834.026	14893.1
834.351	14976.26
834.677	14970.38
835.003	14966.99
835.329	15032.53
835.654	14933.77
835.98	14766.32
836.306	14814
836.631	14825.53
836.956	14930.16
837.282	14828.47
837.607	14817.39
837.932	14698.3
838.258	14734.01
838.583	14754.34
838.908	14682.93
839.233	14679.54
839.558	14635.02
839.883	14644.97
840.208	14584.63
840.533	14572.43
840.858	14565.65
841.182	14536.5
841.507	14572.43
841.832	14514.8
842.156	14477.29
842.481	14524.29
842.805	14440.91
843.13	14447.69
843.454	14386.9
843.778	14329.95
844.103	14291.08
844.427	14250.18
844.751	14298.99
845.075	14261.02
845.399	14295.82
845.723	14169.5
846.047	14106.9
846.371	13998.21
846.695	13950.97
847.019	13887.25
847.343	13874.59
847.666	13833.69
847.99	13750.53
848.313	13715.73
848.637	13652.68
848.96	13533.13
849.284	13656.75
849.607	13465.34
849.931	13406.58
850.254	13293.14
850.577	13235.51
850.9	13138.57
851.223	13217.66
851.546	13120.49
851.869	12993.03
852.192	13092.01
852.515	12933.15
852.838	12971.34
853.161	12981.96
853.483	12869.65
853.806	12756.66
854.129	12818.8
854.451	12743.55
854.774	12660.39
855.096	12640.5
855.419	12635.08
855.741	12634.17
856.063	12530.45
856.385	12480.51
856.708	12481.41
857.03	12466.72
857.352	12459.71
857.674	12428.98
857.996	12440.05
858.318	12253.84
858.64	12276.22
858.961	12266.95
859.283	12172.04
859.605	12225.6
859.926	12261.08
860.248	12094.07
860.57	12082.78
860.891	12140.85
861.212	12160.29
861.534	12043.68
861.855	12046.84
862.176	12021.76
862.498	12040.06
862.819	12017.01
863.14	11970.24
863.461	11946.96
863.782	11899.5
864.103	11967.75
864.424	11861.99
864.745	11924.36
865.065	11808.21
865.386	11857.24
865.707	11786.06
866.027	11830.8
866.348	11788.77
866.668	11754.42
866.989	11758.94
867.309	11647.98
867.63	11665.84
867.95	11633.3
868.27	11608.21
868.59	11591.49
868.91	11577.7
869.23	11595.1
869.55	11539.74
869.87	11593.52
870.19	11591.26
870.51	11457.48
870.83	11574.99
871.15	11489.8
871.469	11484.6
871.789	11464.71
872.109	11462
872.428	11330.25
872.748	11432.62
873.067	11400.99
873.386	11426.97
873.706	11379.74
874.025	11344.04
874.344	11370.03
874.663	11353.08
874.982	11288.45
875.301	11234.21
875.62	11251.61
875.939	11202.57
876.258	11324.15
876.577	11229.92
876.896	11122.57
877.214	11219.52
877.533	11119.86
877.852	11270.37
878.17	11176.58
878.489	11159.64
878.807	11202.12
879.125	11149.01
879.444	11172.97
879.762	11041.67
880.08	11107.21
880.398	11035.35
880.716	11116.25
881.034	11055.23
881.352	10994.22
881.67	10949.02
881.988	10969.81
882.306	10928.91
882.624	10897.72
882.941	10898.4
883.259	10825.18
883.577	10878.06
883.894	10870.38
884.212	10883.71
884.529	10896.37
884.846	10785.86
885.164	10804.84
885.481	10761
885.798	10745.64
886.115	10732.98
886.432	10701.12
886.75	10740.21
887.067	10693.89
887.383	10619.76
887.7	10671.06
888.017	10624.06
888.334	10662.02
888.651	10583.83
888.967	10527.34
889.284	10455.25
889.6	10473.78
889.917	10429.71
890.233	10407.79
890.55	10368.02
890.866	10392.2
891.182	10344.06
891.498	10325.99
891.815	10314.01
892.131	10297.06
892.447	10208.02
892.763	10266.1
893.079	10182.03
893.395	10093.68
893.71	10173.9
894.026	10115.82
894.342	10073.56
894.657	9963.74
894.973	10070.17
895.289	10090.96
895.604	10088.03
895.92	9978.65
896.235	9940.46
896.55	9874.92
896.865	9886.45
897.181	9817.75
897.496	9777.98
897.811	9751.76
898.126	9660.92
898.441	9694.36
898.756	9631.54
899.071	9589.96
899.386	9631.54
899.7	9538.89
900.015	9544.99
900.33	9488.27
900.644	9413.24
900.959	9464.99
901.273	9358.78
901.588	9375.28
901.902	9308.84
902.216	9278.78
902.531	9290.76
902.845	9308.16
903.159	9241.95
903.473	9223.19
903.787	9155.62
904.101	9075.85
904.415	9176.19
904.729	9136.19
905.042	9031.78
905.356	9040.37
905.67	9099.58
905.984	8992.91
906.297	8993.37
906.611	8881.73
906.924	8902.75
907.237	8867.27
907.551	8794.5
907.864	8760.15
908.177	8763.54
908.491	8773.26
908.804	8719.7
909.117	8669.76
909.43	8591.57
909.743	8542.53
910.056	8601.74
910.368	8530.33
910.681	8456.66
910.994	8488.75
911.307	8412.14
911.619	8341.63
911.932	8381.18
912.244	8317.45
912.557	8314.96
912.869	8275.64
913.181	8205.59
913.494	8184.8
913.806	8139.83
914.118	8093.5
914.43	8042.43
914.742	8009.21
915.054	8032.71
915.366	8041.98
915.678	7930.57
915.99	7978.93
916.302	7937.57
916.613	7825.49
916.925	7827.97
917.236	7812.15
917.548	7785.26
917.859	7762.21
918.171	7676.11
918.482	7634.08
918.794	7650.12
919.105	7550.01
919.416	7602.22
919.727	7562.22
920.038	7540.07
920.349	7481.09
920.66	7445.16
920.971	7475.21
921.282	7520.41
921.593	7401.54
921.903	7365.61
922.214	7373.07
922.525	7367.19
922.835	7320.19
923.146	7256.46
923.456	7233.64
923.767	7229.8
924.077	7274.31
924.387	7209.91
924.697	7102.57
925.008	7076.13
925.318	7021.21
925.628	7017.37
925.938	7029.58
926.248	6968.79
926.558	6945.74
926.867	6917.49
927.177	6890.82
927.487	6898.96
927.796	6820.09
928.106	6856.47
928.416	6844.95
928.725	6760.88
929.034	6679.75
929.344	6751.62
929.653	6700.32
929.962	6664.39
930.271	6676.82
930.581	6606.99
930.89	6574.67
931.199	6579.19
931.508	6606.31
931.817	6507.33
932.125	6524.96
932.434	6467.56
932.743	6436.14
933.051	6435.69
933.36	6383.49
933.669	6341.68
933.977	6360.89
934.286	6351.85
934.594	6287.22
934.902	6197.96
935.21	6191.41
935.519	6217.39
935.827	6217.39
936.135	6129.49
936.443	6105.31
936.751	6056.49
937.059	6065.76
937.367	6042.26
937.674	5969.04
937.982	6036.15
938.29	5980.34
938.597	5938.08
938.905	5887.01
939.213	5846.33
939.52	5840.68
939.827	5871.87
940.135	5866.22
940.442	5732.89
940.749	5790.51
941.056	5785.77
941.363	5705.99
941.67	5742.6
941.977	5634.36
942.284	5643.17
942.591	5623.96
942.898	5620.8
943.205	5615.83
943.511	5591.87
943.818	5595.49
944.125	5477.75
944.431	5447.47
944.738	5516.17
945.044	5487.47
945.35	5465.55
945.657	5360.47
945.963	5426.68
946.269	5373.35
946.575	5360.24
946.881	5291.77
947.187	5316.85
947.493	5292.22
947.799	5311.65
948.105	5289.28
948.41	5244.76
948.716	5215.39
949.022	5185.56
949.327	5183.52
949.633	5071.21
949.938	5140.13
950.244	5130.42
950.549	5068.95
950.854	5059.23
951.16	4981.04
951.465	4997.76
951.77	4967.48
952.075	4982.17
952.38	4939.01
952.685	4921.83
952.99	4864.21
953.294	4853.14
953.599	4838.67
953.904	4856.52
954.209	4783.08
954.513	4795.06
954.818	4746.7
955.122	4750.76
955.426	4722.74
955.731	4741.5
956.035	4686.36
956.339	4717.32
956.643	4673.7
956.948	4674.16
957.252	4664.44
957.556	4633.25
957.86	4600.49
958.163	4601.84
958.467	4613.82
958.771	4481.17
959.075	4495.4
959.378	4497.66
959.682	4521.17
959.985	4498.57
960.289	4440.26
960.592	4408.63
960.896	4414.5
961.199	4388.97
961.502	4367.95
961.805	4355.97
962.108	4323.66
962.411	4297.22
962.714	4304
963.017	4265.35
963.32	4269.87
963.623	4223.77
963.926	4193.04
964.228	4227.61
964.531	4172.25
964.833	4214.51
965.136	4122.98
965.438	4180.84
965.741	4152.14
966.043	4127.05
966.345	4079.37
966.648	4044.79
966.95	4065.59
967.252	4061.07
967.554	4014.97
967.856	4006.15
968.158	3946.27
968.46	4035.98
968.761	3989.43
969.063	3936.55
969.365	3958.02
969.666	3937.68
969.968	3891.35
970.269	3890
970.571	3859.94
970.872	3891.35
971.174	3866.27
971.475	3838.47
971.776	3791.92
972.077	3799.83
972.378	3764.58
972.679	3772.71
972.98	3753.95
973.281	3756.21
973.582	3721.19
973.883	3674.41
974.183	3649.78
974.484	3628.31
974.785	3637.12
975.085	3615.65
975.386	3634.86
975.686	3613.39
975.986	3615.65
976.287	3618.82
976.587	3534.98
976.887	3576.33
977.187	3500.18
977.487	3491.14
977.787	3511.7
978.087	3454.3
978.387	3477.13
978.687	3504.24
978.987	3436.22
979.286	3428.54
979.586	3393.29
979.885	3406.85
980.185	3394.42
980.484	3349.67
980.784	3314.19
981.083	3375.21
981.382	3292.95
981.682	3316.9
981.981	3312.84
982.28	3259.5
982.579	3263.35
982.878	3284.81
983.177	3258.6
983.475	3259.28
983.774	3179.05
984.073	3215.89
984.372	3186.96
984.67	3142.45
984.969	3169.34
985.267	3130.24
985.566	3127.3
985.864	3076.01
986.162	3080.98
986.461	3100.19
986.759	3079.17
987.057	3041.21
987.355	3036.01
987.653	3031.71
987.951	3010.92
988.249	2982.68
988.547	2989.46
988.844	2958.72
989.142	2951.26
989.44	2944.26
989.737	2923.92
990.035	2924.82
990.332	2913.98
990.63	2891.15
990.927	2890.02
991.224	2845.73
991.521	2866.52
991.819	2860.42
992.116	2820.65
992.413	2831.49
992.71	2814.54
993.006	2776.13
993.303	2792.85
993.6	2741.78
993.897	2710.59
994.193	2737.71
994.49	2720.08
994.787	2729.12
995.083	2691.38
995.379	2688.67
995.676	2682.34
995.972	2666.75
996.268	2645.51
996.565	2621.33
996.861	2637.83
997.157	2609.58
997.453	2630.59
997.749	2581.33
998.044	2557.15
998.34	2570.26
998.636	2514.21
998.932	2502.91
999.227	2510.6
999.523	2518.73
999.818	2474.89
1000.114	2483.71
1000.409	2434.44
1000.704	2461.56
1001	2456.59
1001.295	2435.35
1001.59	2406.19
1001.885	2386.76
1002.18	2398.51
1002.475	2361.45
1002.77	2377.27
1003.065	2326.87
1003.359	2335.46
1003.654	2313.99
1003.949	2342.47
1004.243	2313.31
1004.538	2276.71
1004.832	2254.33
1005.127	2271.06
1005.421	2281.68
1005.715	2222.92
1006.009	2231.96
1006.304	2222.47
1006.598	2229.93
1006.892	2185.18
1007.186	2177.95
1007.48	2168.23
1007.773	2131.62
1008.067	2172.08
1008.361	2127.78
1008.655	2126.88
1008.948	2099.99
1009.242	2104.96
1009.535	2101.12
1009.829	2090.27
1010.122	2052.53
1010.415	2059.08
1010.708	2034
1011.001	2035.58
1011.295	2019.54
1011.588	2021.57
1011.881	1993.32
1012.173	1969.14
1012.466	1982.7
1012.759	1993.78
1013.052	1966.88
1013.344	1946.09
1013.637	1932.99
1013.93	1933.89
1014.222	1901.35
1014.514	1888.47
1014.807	1863.84
1015.099	1849.37
1015.391	1864.74
1015.683	1853.44
1015.976	1858.64
1016.268	1826.77
1016.56	1814.34
1016.851	1807.57
1017.143	1793.33
1017.435	1777.96
1017.727	1756.72
1018.018	1779.77
1018.31	1769.83
1018.602	1737.74
1018.893	1705.87
1019.185	1743.84
1019.476	1689.6
1019.767	1697.29
1020.058	1692.09
1020.35	1665.2
1020.641	1656.61
1020.932	1634.69
1021.223	1651.64
1021.514	1610.06
1021.804	1604.41
1022.095	1624.52
1022.386	1598.08
1022.677	1587.01
1022.967	1582.71
1023.258	1555.37
1023.548	1560.79
1023.839	1554.69
1024.129	1533.9
1024.419	1520.12
1024.709	1512.43
1025	1510.17
1025.29	1497.29
1025.58	1499.55
1025.87	1495.48
1026.16	1449.61
1026.449	1470.63
1026.739	1436.05
1027.029	1441.93
1027.319	1407.12
1027.608	1420.23
1027.898	1420.23
1028.187	1388.59
1028.477	1385.43
1028.766	1377.07
1029.055	1367.13
1029.344	1359.89
1029.634	1376.62
1029.923	1348.37
1030.212	1352.44
1030.501	1333.23
1030.79	1354.24
1031.078	1304.3
1031.367	1305.66
1031.656	1279.44
1031.945	1288.03
1032.233	1280.8
1032.522	1269.5
1032.81	1290.97
1033.099	1256.85
1033.387	1232.21
1033.675	1225.21
1033.963	1227.69
1034.251	1215.49
1034.54	1199.67
1034.828	1205.55
1035.116	1183.18
1035.403	1149.73
1035.691	1156.96
1035.979	1191.54
1036.267	1165.55
1036.554	1147.47
1036.842	1151.76
1037.129	1122.39
1037.417	1123.06
1037.704	1108.83
1037.992	1101.37
1038.279	1101.6
1038.566	1098.43
1038.853	1098.43
1039.14	1098.43
