Data from aluminium_macbook_case_FLMS001491_055.txt Node
Date: Tue Feb 07 10:43:50 GMT 2017
User: dcchb
Spectrometer: FLMS00149
Trigger mode: 0
Integration Time (sec): 2.000000E-2
Scans to average: 10
Electric dark correction enabled: true
Nonlinearity correction enabled: false
Boxcar width: 0
XAxis mode: Wavelengths
Number of Pixels in Spectrum: 2048
>>>>>Begin Spectral Data<<<<<
341.393	-7.92
341.776	-7.92
342.16	-7.92
342.543	-62.16
342.927	-77.3
343.31	-69.62
343.693	-75.94
344.077	-59
344.46	-64.87
344.843	-56.51
345.226	-56.28
345.61	-35.95
345.993	-16.51
346.376	0.44
346.759	10.83
347.142	46.09
347.525	48.35
347.908	49.7
348.291	78.85
348.674	88.8
349.057	111.62
349.44	116.14
349.823	155.91
350.206	178.74
350.588	247.44
350.971	262.35
351.354	282.01
351.737	294.22
352.119	325.4
352.502	333.54
352.884	307.32
353.267	361.78
353.65	358.62
354.032	370.37
354.414	383.7
354.797	366.98
355.179	382.35
355.562	384.61
355.944	388
356.326	417.38
356.709	407.66
357.091	385.96
357.473	418.73
357.855	419.41
358.238	428
358.62	425.74
359.002	424.38
359.384	419.86
359.766	441.56
360.148	422.57
360.53	442.01
360.912	434.55
361.294	410.14
361.676	410.37
362.057	432.97
362.439	432.97
362.821	407.66
363.203	417.6
363.584	437.94
363.966	421.44
364.348	438.39
364.729	437.04
365.111	435.45
365.493	444.27
365.874	418.73
366.256	434.55
366.637	430.93
367.019	441.56
367.4	425.96
367.781	462.12
368.163	456.25
368.544	453.53
368.925	432.29
369.306	465.96
369.688	438.84
370.069	445.85
370.45	473.65
370.831	447.88
371.212	456.7
371.593	469.35
371.974	451.73
372.355	461.44
372.736	479.3
373.117	497.37
373.498	473.87
373.879	484.27
374.26	466.41
374.641	476.58
375.021	449.24
375.402	489.46
375.783	486.53
376.163	526.75
376.544	523.81
376.925	522.68
377.305	533.08
377.686	525.17
378.066	559.07
378.447	526.75
378.827	553.87
379.208	535.34
379.588	565.17
379.968	561.33
380.349	564.04
380.729	589.8
381.109	576.47
381.489	562
381.87	569.01
382.25	583.25
382.63	592.06
383.01	592.74
383.39	625.51
383.77	616.69
384.15	616.24
384.53	618.73
384.91	659.63
385.29	635.22
385.67	673.64
386.049	691.72
386.429	651.27
386.809	655.56
387.189	720.42
387.568	703.24
387.948	695.79
388.328	719.06
388.707	716.8
389.087	747.99
389.466	729.91
389.846	751.15
390.225	763.13
390.605	771.72
390.984	791.38
391.363	767.42
391.743	789.12
392.122	820.76
392.501	818.72
392.881	834.09
393.26	840.42
393.639	860.75
394.018	857.36
394.397	875.67
394.776	880.41
395.155	894.2
395.534	879.06
395.913	905.5
396.292	918.61
396.671	930.81
397.05	943.01
397.429	940.53
397.808	953.86
398.186	952.5
398.565	989.34
398.944	988.89
399.323	987.76
399.701	997.02
400.08	1006.51
400.458	1042.9
400.837	1077.47
401.215	1054.87
401.594	1040.41
401.972	1096.23
402.351	1082.44
402.729	1122.89
403.107	1103.69
403.486	1126.28
403.864	1129
404.242	1147.53
404.62	1178.03
404.999	1186.85
405.377	1207.86
405.755	1189.56
406.133	1216.45
406.511	1255.32
406.889	1260.29
407.267	1297.58
407.645	1320.86
408.023	1318.14
408.401	1354.3
408.779	1355.66
409.156	1393.17
409.534	1397.24
409.912	1414.19
410.29	1438.59
410.667	1467.29
411.045	1476.11
411.422	1499.16
411.8	1538.7
412.178	1521.75
412.555	1579.38
412.933	1604.46
413.31	1615.99
413.687	1654.18
414.065	1688.98
414.442	1671.35
414.819	1692.37
415.197	1706.61
415.574	1772.14
415.951	1759.26
416.328	1799.49
416.705	1834.51
417.082	1826.15
417.46	1856.43
417.837	1855.08
418.214	1871.12
418.591	1908.64
418.967	1939.6
419.344	1964.91
419.721	1955.87
420.098	1983.89
420.475	2057.56
420.852	2019.37
421.228	2077.22
421.605	2079.48
421.982	2112.02
422.358	2175.97
422.735	2224.11
423.111	2173.94
423.488	2240.6
423.864	2244.67
424.241	2257.33
424.617	2291.9
424.994	2345.91
425.37	2328.74
425.746	2369.42
426.123	2394.95
426.499	2435.18
426.875	2469.98
427.251	2492.8
427.627	2549.52
428.003	2580.26
428.379	2603.53
428.756	2654.15
429.132	2700.93
429.507	2715.39
429.883	2754.26
430.259	2822.28
430.635	2799.01
431.011	2864.32
431.387	2936.63
431.763	3013.92
432.138	3020.02
432.514	3101.83
432.89	3093.69
433.265	3160.81
433.641	3160.35
434.016	3211.65
434.392	3296.62
434.767	3372.1
435.143	3346.79
435.518	3359.9
435.894	3466.34
436.269	3457.3
436.644	3539.55
437.02	3604.86
437.395	3597.41
437.77	3689.38
438.145	3694.8
438.52	3734.12
438.895	3778.64
439.271	3779.77
439.646	3873.56
440.021	3923.95
440.395	3960.11
440.77	3899.54
441.145	3982.25
441.52	4097.05
441.895	4055.02
442.27	4149.26
442.645	4104.74
443.019	4168.01
443.394	4201.68
443.769	4267.22
444.143	4215.02
444.518	4322.13
444.892	4350.15
445.267	4390.83
445.641	4392.41
446.016	4427.44
446.39	4488.68
446.764	4488
447.139	4513.31
447.513	4593.09
447.887	4575.23
448.262	4643.03
448.636	4670.82
449.01	4737.49
449.384	4785.62
449.758	4821.33
450.132	4937.03
450.506	4916.47
450.88	4975.9
451.254	4974.54
451.628	5070.36
452.002	5076.91
452.376	5163.47
452.75	5224.26
453.123	5276.23
453.497	5343.35
453.871	5350.81
454.244	5517.35
454.618	5532.95
454.992	5618.82
455.365	5632.61
455.739	5826.05
456.112	5873.5
456.486	5920.06
456.859	5961.64
457.232	6156.89
457.606	6093.84
457.979	6177.68
458.352	6317.11
458.725	6407.5
459.099	6446.6
459.472	6570.43
459.845	6638.91
460.218	6721.62
460.591	6800.94
460.964	6845
461.337	7024.66
461.71	7087.03
462.083	7237.08
462.456	7212
462.829	7283.41
463.201	7397.98
463.574	7436.85
463.947	7527.02
464.32	7757.97
464.692	7836.84
465.065	7928.59
465.438	8082.26
465.81	8143.95
466.183	8241.35
466.555	8433.66
466.928	8495.36
467.3	8497.62
467.672	8616.71
468.045	8916.59
468.417	8917.27
468.789	8976.25
469.161	9088.33
469.534	9263.47
469.906	9445.84
470.278	9515.67
470.65	9645.83
471.022	9851.93
471.394	10078.59
471.766	10042.66
472.138	10291.01
472.51	10449.88
472.882	10639.48
473.253	10770.32
473.625	10921.73
473.997	11201.05
474.369	11227.04
474.74	11369.63
475.112	11632.67
475.484	11748.15
475.855	12046.9
476.227	12130.97
476.598	12510.84
476.97	12643.27
477.341	12945.41
477.713	13193.99
478.084	13231.05
478.455	13551.72
478.827	13654.99
479.198	14123
479.569	14069.67
479.94	14579.26
480.311	14610.22
480.682	15001.17
481.053	15354.16
481.424	15597.32
481.795	15727.71
482.166	15971.54
482.537	16259.45
482.908	16586.44
483.279	16722.94
483.65	17053.77
484.021	17367.21
484.391	17541.67
484.762	17742.34
485.133	18041.09
485.503	18221.65
485.874	18710
486.244	18824.35
486.615	19221.63
486.985	19358.8
487.356	19768.96
487.726	19988.84
488.097	20355.83
488.467	20428.6
488.837	20947.46
489.207	21255.02
489.578	21509.7
489.948	21699.3
490.318	21991.05
490.688	22101.33
491.058	22392.39
491.428	22745.6
491.798	22998.7
492.168	23463.32
492.538	23453.38
492.908	23756.65
493.278	24143.76
493.648	24163.87
494.017	24393.69
494.387	24788.71
494.757	24944.41
495.126	25317.74
495.496	25439.99
495.866	25534.23
496.235	25916.82
496.605	26108.23
496.974	26296.47
497.344	26574.2
497.713	26559.06
498.082	26930.35
498.452	27330.79
498.821	27367.63
499.19	27494.4
499.559	27799.48
499.928	27935.97
500.298	28206.25
500.667	28389.52
501.036	28387.71
501.405	28798.32
501.774	28874.93
502.143	29084.42
502.512	29090.52
502.88	29584.07
503.249	29632.2
503.618	29826.77
503.987	29949.25
504.356	30184.95
504.724	30286.65
505.093	30511.27
505.462	30724.15
505.83	31012.5
506.199	31178.38
506.567	31791.01
506.936	31613.84
507.304	32021.52
507.672	32149.87
508.041	32435.74
508.409	32656.53
508.777	32895.84
509.145	33260.58
509.514	33265.33
509.882	33550.06
510.25	33561.59
510.618	34009.49
510.986	34075.7
511.354	34406.54
511.722	34741.45
512.09	35033.41
512.458	35009.46
512.826	35481.99
513.193	35579.16
513.561	35685.6
513.929	36045.82
514.297	36350.44
514.664	36441.51
515.032	36777.32
515.4	37072.46
515.767	37181.16
516.135	37485.1
516.502	37392.67
516.869	37956.5
517.237	38026.33
517.604	38110.85
517.972	38625.86
518.339	38775.69
518.706	39080.54
519.073	39332.96
519.44	39634.2
519.808	40014.3
520.175	40033.51
520.542	40576.32
520.909	40837.78
521.276	40793.94
521.643	41335.17
522.009	41696.06
522.376	42012.44
522.743	42268.7
523.11	42500.56
523.477	43084.5
523.843	43229.58
524.21	43632.96
524.577	43973.07
524.943	44071.6
525.31	44479.72
525.676	44725.82
526.043	45022.76
526.409	45221.62
526.776	45661.61
527.142	45709.52
527.508	45865.45
527.874	46136.4
528.241	46273.35
528.607	46642.38
528.973	46816.16
529.339	46889.6
529.705	47314.22
530.071	47807.77
530.437	47833.08
530.803	48113.98
531.169	48272.39
531.535	48504.25
531.901	48652.04
532.267	48890.9
532.632	49075.98
532.998	49353.49
533.364	49450.44
533.73	49601.85
534.095	49918.22
534.461	49937.66
534.826	50250.42
535.192	50412.22
535.557	50564.98
535.923	50632.78
536.288	50961.81
536.653	51056.04
537.019	50910.06
537.384	51138.98
537.749	51318.41
538.114	51453.32
538.479	51488.8
538.845	51751.85
539.21	51736.7
539.575	51705.07
539.94	51972.86
540.305	52049.69
540.67	52098.73
541.034	52143.02
541.399	52337.37
541.764	52376.91
542.129	52494.88
542.494	52599.05
542.858	52732.84
543.223	52865.71
543.587	52941.64
543.952	53009.44
544.316	53150.9
544.681	53240.62
545.045	53412.37
545.41	53568.52
545.774	53737.33
546.138	53723.55
546.503	53839.7
546.867	53870.43
547.231	54146.13
547.595	54195.17
547.959	54242.4
548.324	54342.51
548.688	54367.6
549.052	54554.03
549.416	54668.83
549.779	54763.29
550.143	54830.63
550.507	55003.06
550.871	55149.27
551.235	55141.13
551.599	55333.9
551.962	55427.91
552.326	55496.15
552.689	55603.5
553.053	55522.59
553.417	55617.73
553.78	55803.04
554.143	55805.98
554.507	55920.55
554.87	56054.11
555.234	56270.37
555.597	56067.66
555.96	56240.09
556.323	56430.59
556.686	56418.84
557.05	56617.71
557.413	56726.86
557.776	56732.51
558.139	57036.9
558.502	57064.7
558.865	57087.52
559.228	57335.2
559.59	57419.27
559.953	57461.53
560.316	57742.2
560.679	57754.4
561.041	57953.72
561.404	58091.34
561.767	58288.17
562.129	58151.9
562.492	58419.92
562.854	58481.16
563.217	58514.61
563.579	58615.39
563.941	58710.76
564.304	58823.75
564.666	58947.36
565.028	59018.55
565.39	59151.88
565.753	59283.62
566.115	59374.7
566.477	59560.45
566.839	59578.08
567.201	59707.12
567.563	59695.59
567.925	59896.72
568.287	59881.35
568.648	59918.41
569.01	60065.98
569.372	60203.15
569.734	60101.68
570.095	60252.86
570.457	60348
570.819	60375.57
571.18	60392.97
571.542	60516.81
571.903	60586.64
572.265	60702.34
572.626	60732.4
572.987	60788.22
573.349	60856.92
573.71	61011.04
574.071	61060.75
574.432	61141.2
574.794	61274.76
575.155	61267.98
575.516	61206.74
575.877	61345.49
576.238	61379.61
576.599	61472.49
576.96	61500.74
577.32	61513.62
577.681	61624.58
578.042	61684.69
578.403	61672.49
578.763	61723.79
579.124	61761.3
579.485	61832.94
579.845	61899.6
580.206	61779.15
580.566	61801.52
580.927	61914.97
581.287	61976.44
581.648	61902.54
582.008	61937.57
582.368	61980.05
582.728	61986.6
583.089	61966.72
583.449	61957
583.809	61998.36
584.169	62017.56
584.529	61975.98
584.889	62147.05
585.249	61963.55
585.609	61919.26
585.969	62071.35
586.329	61919.71
586.688	61991.12
587.048	61954.52
587.408	61986.38
587.768	62034.29
588.127	61973.95
588.487	61952.26
588.846	62104.34
589.206	62017.34
589.565	62002.42
589.925	62081.74
590.284	62049.2
590.643	62120.16
591.003	62203.55
591.362	62196.99
591.721	62169.42
592.08	62158.8
592.44	62250.33
592.799	62213.72
593.158	62179.14
593.517	62187.73
593.876	62251.46
594.235	62167.16
594.593	62223.66
594.952	62279.48
595.311	62168.75
595.67	62293.94
596.029	62339.82
596.387	62381.17
596.746	62414.39
597.104	62286.03
597.463	62327.16
597.822	62427.95
598.18	62359.02
598.538	62326.48
598.897	62466.59
599.255	62246.26
599.613	62580.71
599.972	62439.25
600.33	62413.03
600.688	62356.54
601.046	62431.56
601.404	62487.38
601.762	62483.31
602.12	62577.32
602.478	62528.06
602.836	62495.74
603.194	62393.83
603.552	62464.33
603.91	62413.71
604.268	62517.44
604.625	62448.97
604.983	62621.39
605.341	62510.43
605.698	62617.77
606.056	62740.48
606.413	62706.13
606.771	62763.99
607.128	62800.59
607.485	62693.93
607.843	62635.18
608.2	62854.6
608.557	62840.59
608.914	62807.6
609.272	62954.26
609.629	63009.85
609.986	63056.63
610.343	63020.48
610.7	63138.21
611.057	63118.33
611.414	63074.03
611.771	63121.04
612.127	63161.26
612.484	63116.07
612.841	63177.53
613.198	63153.58
613.554	63159.91
613.911	63194.93
614.267	63195.16
614.624	63182.05
614.98	63195.61
615.337	63195.84
615.693	63189.96
616.05	63195.84
616.406	63195.84
616.762	63195.84
617.118	63195.84
617.475	63195.84
617.831	63195.84
618.187	63195.84
618.543	63195.84
618.899	63195.84
619.255	63195.84
619.611	63195.84
619.967	63195.84
620.323	63195.84
620.678	63195.84
621.034	63195.84
621.39	63194.26
621.746	63195.84
622.101	63195.84
622.457	63195.84
622.812	63195.84
623.168	63195.84
623.523	63195.84
623.879	63195.84
624.234	63195.84
624.589	63195.84
624.945	63195.84
625.3	63195.84
625.655	63195.84
626.01	63195.84
626.365	63195.84
626.72	63195.84
627.075	63195.84
627.43	63195.84
627.785	63195.84
628.14	63195.84
628.495	63195.84
628.85	63195.84
629.205	63195.84
629.559	63195.84
629.914	63195.84
630.269	63195.84
630.623	63195.84
630.978	63195.84
631.332	63195.84
631.687	63195.84
632.041	63195.61
632.396	63195.84
632.75	63195.84
633.104	63195.84
633.459	63151.09
633.813	63166.91
634.167	63161.94
634.521	63076.75
634.875	63119.91
635.229	63016.63
635.583	62943.19
635.937	62914.04
636.291	62865.45
636.645	62904.09
636.999	62859.35
637.352	62821.16
637.706	62709.52
638.06	62795.4
638.413	62754.04
638.767	62637.66
639.121	62703.2
639.474	62556.53
639.828	62553.6
640.181	62633.82
640.534	62567.83
640.888	62576.65
641.241	62505.91
641.594	62506.36
641.947	62544.56
642.301	62415.07
642.654	62442.19
643.007	62429.3
643.36	62459.13
643.713	62377.33
644.066	62491
644.419	62353.6
644.771	62211.91
645.124	61935.76
645.477	61935.53
645.83	61798.59
646.182	61702.77
646.535	61608.54
646.888	61578.71
647.24	61386.17
647.593	61519.05
647.945	61528.31
648.298	61431.36
648.65	61376.23
649.002	61262.33
649.355	61423.23
649.707	61389.33
650.059	61488.31
650.411	61757.23
650.763	61773.05
651.115	61986.15
651.467	61833.84
651.819	61859.15
652.171	61784.58
652.523	61741.87
652.875	61739.83
653.227	61583.23
653.578	61694.63
653.93	61646.73
654.282	61504.81
654.633	61496.22
654.985	61506.62
655.337	61458.93
655.688	61458.26
656.039	61494.19
656.391	61234.31
656.742	61322.67
657.094	61302.1
657.445	61363.12
657.796	61290.8
658.147	61270.47
658.498	61222.56
658.849	61192.05
659.2	61217.81
659.551	61093.07
659.902	61238.83
660.253	61187.08
660.604	61220.75
660.955	61091.71
661.306	61147.3
661.656	61166.51
662.007	61141.88
662.358	61140.3
662.708	61165.16
663.059	61110.24
663.409	61011.04
663.76	61179.39
664.11	61140.75
664.461	61204.93
664.811	61172.84
665.161	61130.81
665.511	61078.61
665.862	61020.08
666.212	61094.2
666.562	61073.18
666.912	61049.68
667.262	60983.69
667.612	61018.95
667.962	60990.7
668.312	60900.98
668.662	61096.68
669.011	61044.93
669.361	60923.81
669.711	60877.26
670.06	60925.39
670.41	60870.93
670.76	60837.93
671.109	60842
671.459	60814.21
671.808	60800.65
672.157	60830.25
672.507	60668.67
672.856	60669.35
673.205	60685.85
673.554	60755.22
673.904	60609.69
674.253	60688.33
674.602	60568.34
674.951	60149.36
675.3	60004.51
675.649	60355.46
675.998	60348
676.346	60353.43
676.695	60432.07
677.044	60223.49
677.393	60302.58
677.741	60330.6
678.09	60207.89
678.438	60156.82
678.787	60274.11
679.135	60247.44
679.484	60064.4
679.832	60144.62
680.181	60072.76
680.529	60182.81
680.877	60128.57
681.225	60036.37
681.573	60195.24
681.922	59980.78
682.27	59956.83
682.618	59971.29
682.966	59913.21
683.314	59952.08
683.661	59913.89
684.009	59758.19
684.357	59715.03
684.705	59695.14
685.053	59677.06
685.4	59754.8
685.748	59585.76
686.095	59579.89
686.443	59501.02
686.79	59397.29
687.138	59550.96
687.485	59448.37
687.832	59317.3
688.18	59419.21
688.527	59269.84
688.874	59239.56
689.221	59170.86
689.568	59134.02
689.915	59021.48
690.262	59020.35
690.609	58940.81
690.956	58906.91
691.303	58810.87
691.65	58647.26
691.997	58672.79
692.344	58460.14
692.69	58456.3
693.037	58421.73
693.383	58218.79
693.73	58310.54
694.077	58151.23
694.423	58050.21
694.769	57981.51
695.116	57923.89
695.462	57860.84
695.808	57706.94
696.155	57734.74
696.501	57523.22
696.847	57524.8
697.193	57352.6
697.539	57410.45
697.885	57235.77
698.231	57127.98
698.577	57108.99
698.923	56969.79
699.269	56901.54
699.614	56803.24
699.96	56727.31
700.306	56817.02
700.651	56672.85
700.997	56572.74
701.342	56516.47
701.688	56603.7
702.033	56352.63
702.379	56395.11
702.724	56316.92
703.069	56395.57
703.415	56023.82
703.76	56118.28
704.105	56128.45
704.45	56088.68
704.795	55922.58
705.14	55934.79
705.485	55807.78
705.83	55693.21
706.175	55776.37
706.52	55743.6
706.865	55560.33
707.209	55657.28
707.554	55438.53
707.899	55535.02
708.243	55314.69
708.588	55378.19
708.932	55025.21
709.277	55076.73
709.621	55076.28
709.966	54824.31
710.31	55002.38
710.654	54646.01
710.998	54690.07
711.342	54732.11
711.687	54663.63
712.031	54495.28
712.375	54490.98
712.719	54531.43
713.063	54418.89
713.407	54467.71
713.75	54210.09
714.094	54266.36
714.438	54085.12
714.782	54156.3
715.125	53887.16
715.469	54032.69
715.812	53877.67
716.156	53714.73
716.499	53721.29
716.843	53741.4
717.186	53419.37
717.53	53486.94
717.873	53530.33
718.216	53407.17
718.559	53247.17
718.902	53060.06
719.246	53093.96
719.589	52981.87
719.932	52848.31
720.275	52825.72
720.617	52812.83
720.96	52803.57
721.303	52630.24
721.646	52661.65
721.989	52329.91
722.331	52377.14
722.674	52418.72
723.016	52458.04
723.359	52308.67
723.701	52301.89
724.044	52082.46
724.386	51900.54
724.729	52112.97
725.071	52031.61
725.413	51977.6
725.755	51835.23
726.097	51794.78
726.439	51622.13
726.782	51630.94
727.124	51899.41
727.465	51644.28
727.807	51630.27
728.149	51666.65
728.491	51662.13
728.833	51528.12
729.175	51428.24
729.516	51436.6
729.858	51236.38
730.199	51282.71
730.541	51167.45
730.882	51267.79
731.224	51308.02
731.565	51080.9
731.906	51098.98
732.248	51065.08
732.589	50922.04
732.93	50816.28
733.271	50776.5
733.612	50847.69
733.953	50710.97
734.294	50589.62
734.635	50634.59
734.976	50744.64
735.317	50545.1
735.658	50586.45
735.999	50390.07
736.339	50390.3
736.68	50347.59
737.021	50153.47
737.361	50002.29
737.702	50287.25
738.042	49911.89
738.383	49802.52
738.723	49941.5
739.063	49741.95
739.404	49899.69
739.744	49647.49
740.084	49481.62
740.424	49557.55
740.764	49448.18
741.104	49493.83
741.444	49270.78
741.784	49073.95
742.124	49193.72
742.464	48948.76
742.804	48865.59
743.143	48738.59
743.483	48908.08
743.823	48636
744.162	48543.79
744.502	48602.1
744.841	48281.2
745.181	48387.41
745.52	48281.2
745.86	48245.72
746.199	48117.82
746.538	47951.95
746.877	48121.43
747.216	48074.65
747.556	47904.94
747.895	48014.32
748.234	47737.71
748.573	47630.6
748.911	47602.35
749.25	47491.39
749.589	47383.37
749.928	47311.74
750.267	47496.36
750.605	47345.41
750.944	47297.05
751.283	47159.65
751.621	47142.48
751.96	46933.22
752.298	46916.94
752.636	47016.83
752.975	46853.22
753.313	46645.54
753.651	46838.98
753.989	46648.25
754.327	46569.38
754.666	46362.61
755.004	46457.75
755.342	46369.61
755.679	46228.37
756.017	46135.04
756.355	46190.41
756.693	45939.34
757.031	46071.77
757.368	45824.54
757.706	45683.98
758.044	45401.5
758.381	45524.21
758.719	45190.44
759.056	45437.21
759.394	45170.55
759.731	44954.06
760.068	44881.29
760.405	44694.63
760.743	44528.98
761.08	44644.69
761.417	44160.18
761.754	44091.48
762.091	44142.33
762.428	44147.53
762.765	43893.75
763.102	44026.17
763.438	43726.52
763.775	43372.4
764.112	43450.14
764.449	43393.87
764.785	43133.32
765.122	42719.99
765.458	42814.45
765.795	42596.38
766.131	42502.6
766.467	42428.47
766.804	42161.14
767.14	41923.18
767.476	41922.27
767.812	41678.66
768.148	41706.01
768.485	41472.34
768.821	41075.52
769.157	41157.1
769.492	40972.47
769.828	40715.53
770.164	40424.23
770.5	40456.55
770.836	40412.93
771.171	40170.23
771.507	39938.37
771.842	39758.71
772.178	39746.96
772.513	39650.02
772.849	39590.58
773.184	39216.81
773.519	39346.97
773.855	39046.87
774.19	38898.17
774.525	38611.63
774.86	38728.23
775.195	38486.66
775.53	38280.56
775.865	38037.86
776.2	37942.49
776.535	37746.79
776.87	37728.03
777.205	37641.48
777.539	37524.87
777.874	37655.49
778.209	37381.15
778.543	37290.98
778.878	36930.09
779.212	37071.1
779.547	36828.85
779.881	37093.47
780.215	36650.1
780.55	36796.53
780.884	36548.18
781.218	36485.58
781.552	36405.13
781.886	36191.35
782.22	36044.46
782.554	36054.18
782.888	35668.65
783.222	35640.63
783.556	35450.58
783.889	35430.69
784.223	35188.67
784.557	35324.03
784.89	35197.03
785.224	35041.78
785.557	34754.1
785.891	34788.68
786.224	34627.1
786.558	34505.97
786.891	34153.66
787.224	34131.97
787.557	33986.89
787.891	34030.73
788.224	33878.42
788.557	33872.32
788.89	33725.43
789.223	33624.86
789.556	33241.82
789.888	33206.8
790.221	33255.61
790.554	32950.98
790.887	32874.15
791.219	32720.03
791.552	32663.31
791.884	32493.82
792.217	32379.93
792.549	32175.19
792.882	32046.83
793.214	31879.83
793.546	31938.13
793.879	31678.93
794.211	31414.53
794.543	31479.38
794.875	31393.96
795.207	31375.66
795.539	31207.07
795.871	31081.2
796.203	30785.62
796.535	30602.35
796.867	30472.63
797.198	30405.06
797.53	30374.1
797.862	30129.36
798.193	30274.22
798.525	29887.34
798.856	30062.02
799.188	29550.4
799.519	29596.04
799.85	29450.74
800.182	29369.84
800.513	29458.19
800.844	29050.97
801.175	29324.64
801.506	29233.57
801.837	28998.77
802.168	28981.37
802.499	28779.57
802.83	28653.24
803.161	28615.5
803.491	28546.58
803.822	28493.47
804.153	28330.54
804.483	28159.92
804.814	28096.2
805.145	28017.33
805.475	28019.14
805.805	27900.04
806.136	27914.51
806.466	28062.52
806.796	27862.3
807.126	27709.54
807.457	27630.9
807.787	27718.35
808.117	27584.35
808.447	27442.2
808.777	27494.18
809.107	27397.68
809.436	27309.55
809.766	27378.25
810.096	27276.56
810.426	27107.97
810.755	27218.25
811.085	27112.95
811.414	27034.3
811.744	26947.98
812.073	26842.44
812.403	26863.23
812.732	26746.4
813.061	26565.84
813.39	26602.68
813.719	26465.5
814.049	26563.36
814.378	26405.62
814.707	26413.08
815.036	26341.44
815.365	26182.12
815.693	25896.71
816.022	26049.7
816.351	25901.9
816.68	25814.9
817.008	25885.41
817.337	25585.53
817.665	25632.53
817.994	25702.13
818.322	25699.42
818.651	25575.58
818.979	25498.75
819.307	25479.99
819.636	25362.03
819.964	25178.31
820.292	25264.63
820.62	25209.27
820.948	25159.55
821.276	25207.46
821.604	25185.09
821.932	25110.06
822.259	25109.61
822.587	25148.25
822.915	25042.04
823.243	25082.26
823.57	24955.94
823.898	24995.26
824.225	24806.57
824.553	24813.12
824.88	24934.02
825.207	24840.46
825.535	24872.78
825.862	24847.47
826.189	24791.42
826.516	24872.55
826.843	24874.81
827.17	24729.05
827.497	24767.24
827.824	24748.49
828.151	24841.37
828.478	24769.05
828.805	24749.17
829.131	24728.83
829.458	24630.75
829.785	24365.45
830.111	24571.09
830.438	24609.96
830.764	24492.45
831.09	24489.29
831.417	24353.02
831.743	24546.46
832.069	24426.01
832.395	24484.99
832.722	24527.48
833.048	24279.12
833.374	24337.43
833.7	24340.59
834.026	24215.39
834.351	24310.53
834.677	24150.99
835.003	24249.74
835.329	24242.06
835.654	24252.68
835.98	24144.44
836.306	24160.93
836.631	24148.28
836.956	24205.68
837.282	24171.33
837.607	24135.17
837.932	24044.78
838.258	24071.44
838.583	24021.95
838.908	23931.56
839.233	23964.33
839.558	24015.4
839.883	23855.86
840.208	23931.79
840.533	23940.15
840.858	23797.33
841.182	23999.13
841.507	23912.58
841.832	23801.39
842.156	23828.74
842.481	23786.93
842.805	23821.51
843.13	23671.91
843.454	23771.11
843.778	23647.95
844.103	23545.13
844.427	23398.01
844.751	23519.14
845.075	23448.18
845.399	23422.87
845.723	23181.75
846.047	23264.91
846.371	23115.54
846.695	23156.89
847.019	23008.19
847.343	22977.23
847.666	22715.32
847.99	22691.37
848.313	22728.65
848.637	22516.23
848.96	22465.61
849.284	22443.92
849.607	22222
849.931	22365.5
850.254	22101.78
850.577	21905.62
850.9	21852.74
851.223	21862.91
851.546	21737.27
851.869	21534.56
852.192	21735.91
852.515	21356.03
852.838	21401.46
853.161	21333.21
853.483	21166.66
853.806	21148.13
854.129	21101.13
854.451	21065.87
854.774	20928.48
855.096	20785.2
855.419	20757.18
855.741	20779.1
856.063	20603.74
856.385	20533.01
856.708	20369.85
857.03	20369.62
857.352	20440.35
857.674	20230.64
857.996	20201.04
858.318	20197.42
858.64	20115.62
858.961	20003.3
859.283	19976.18
859.605	19884.21
859.926	19862.97
860.248	19796.75
860.57	19732.57
860.891	19613.93
861.212	19636.53
861.534	19426.14
861.855	19442.41
862.176	19422.98
862.498	19317.22
862.819	19227.5
863.14	19255.07
863.461	19195.19
863.782	19129.43
864.103	19129.65
864.424	19074.51
864.745	19131.46
865.065	18954.29
865.386	18916.55
865.707	18977.11
866.027	18927.85
866.348	18851.92
866.668	18805.14
866.989	18806.27
867.309	18641.08
867.63	18708.19
867.95	18781.19
868.27	18521.98
868.59	18670
868.91	18713.17
869.23	18686.95
869.55	18571.93
869.87	18668.87
870.19	18529.67
870.51	18535.32
870.83	18613.06
871.15	18409.9
871.469	18601.3
871.789	18592.49
872.109	18572.38
872.428	18423.91
872.748	18580.29
873.067	18491.7
873.386	18511.36
873.706	18512.04
874.025	18440.86
874.344	18427.52
874.663	18498.03
874.982	18377.81
875.301	18421.65
875.62	18428.43
875.939	18293.74
876.258	18222.11
876.577	18311.14
876.896	18192.73
877.214	18255.55
877.533	18248.77
877.852	18322.22
878.17	18258.26
878.489	18358.6
878.807	18224.14
879.125	18310.92
879.444	18249.9
879.762	18207.64
880.08	18235.44
880.398	18074.99
880.716	18126.74
881.034	17945.73
881.352	18150.47
881.67	17978.04
881.988	18017.59
882.306	17956.8
882.624	17935.11
882.941	17899.4
883.259	17795.68
883.577	17881.1
883.894	17718.39
884.212	17755.68
884.529	17739.41
884.846	17672.29
885.164	17641.33
885.481	17558.62
885.798	17602.01
886.115	17598.62
886.432	17498.73
886.75	17487.44
887.067	17536.93
887.383	17338.51
887.7	17343.03
888.017	17221
888.334	17244.96
888.651	17154.11
888.967	17185.75
889.284	17030.95
889.6	16988.24
889.917	16875.47
890.233	16913.44
890.55	16758.87
890.866	16772.88
891.182	16642.26
891.498	16710.96
891.815	16548.48
892.131	16550.74
892.447	16497.41
892.763	16418.99
893.079	16434.81
893.395	16291.99
893.71	16208.83
894.026	16153.69
894.342	16199.33
894.657	16045.21
894.973	16005.67
895.289	16016.97
895.604	15951.43
895.92	15800.47
896.235	15848.61
896.55	15726.35
896.865	15709.4
897.181	15659.01
897.496	15639.8
897.811	15475.06
898.126	15469.64
898.441	15388.28
898.756	15385.8
899.071	15297.66
899.386	15324.33
899.7	15111
900.015	15092.02
900.33	14971.8
900.644	14973.83
900.959	14990.55
901.273	14887.96
901.588	14793.04
901.902	14807.28
902.216	14743.1
902.531	14640.5
902.845	14695.42
903.159	14523.9
903.473	14427.4
903.787	14474.63
904.101	14377.91
904.415	14431.24
904.729	14360.29
905.042	14297.69
905.356	14243.23
905.67	14213.85
905.984	14215.21
906.297	14173.17
906.611	14000.3
906.924	14016.57
907.237	13962.33
907.551	13980.18
907.864	13885.27
908.177	13853.18
908.491	13804.59
908.804	13725.73
909.117	13680.98
909.43	13680.53
909.743	13544.04
910.056	13559.63
910.368	13520.08
910.681	13487.09
910.994	13449.35
911.307	13363.7
911.619	13281.67
911.932	13318.05
912.244	13245.06
912.557	13238.28
912.869	13197.83
913.181	13161.45
913.494	13079.87
913.806	13068.12
914.118	13038.74
914.43	12970.49
914.742	12894.56
915.054	12820.44
915.366	12807.33
915.678	12821.12
915.99	12738.86
916.302	12708.35
916.613	12719.43
916.925	12641.46
917.236	12667.9
917.548	12540.9
917.859	12568.92
918.171	12471.75
918.482	12403.73
918.794	12366.67
919.105	12391.98
919.416	12262.94
919.727	12241.7
920.038	12271.98
920.349	12261.81
920.66	12071.31
920.971	12025.43
921.282	11992.66
921.593	12038.31
921.903	11891.42
922.214	11881.48
922.525	11869.5
922.835	11757.87
923.146	11681.71
923.456	11617.08
923.767	11613.24
924.077	11653.46
924.387	11486.01
924.697	11427.03
925.008	11385.68
925.318	11402.17
925.628	11345.68
925.938	11231.33
926.248	11178.9
926.558	11130.99
926.867	11082.18
927.177	11073.59
927.487	11021.84
927.796	10853.49
928.106	10870.66
928.416	10848.29
928.725	10911.34
929.034	10732.13
929.344	10730.1
929.653	10718.35
929.962	10600.61
930.271	10542.08
930.581	10540.5
930.89	10425.47
931.199	10331.69
931.508	10371.01
931.817	10356.32
932.125	10224.35
932.434	10221.86
932.743	10051.25
933.051	10039.27
933.36	10036.56
933.669	9955.66
933.977	9898.71
934.286	9877.69
934.594	9877.01
934.902	9738.71
935.21	9766.73
935.519	9722.44
935.827	9729.45
936.135	9624.14
936.443	9513.63
936.751	9463.01
937.059	9443.58
937.367	9389.57
937.674	9398.61
937.982	9430.7
938.29	9299.85
938.597	9236.58
938.905	9164.49
939.213	9133.53
939.52	9085.62
939.827	9129.24
940.135	9079.3
940.442	9019.86
940.749	8904.38
941.056	8961.56
941.363	8870.04
941.67	8834.33
941.977	8765.86
942.284	8759.76
942.591	8717.5
942.898	8684.96
943.205	8671.17
943.511	8627.56
943.818	8606.77
944.125	8478.86
944.431	8503.27
944.738	8456.26
945.044	8401.57
945.35	8385.3
945.657	8348.01
945.963	8321.8
946.269	8335.81
946.575	8259.43
946.881	8172.2
947.187	8200
947.493	8166.55
947.799	8094.24
948.105	8078.87
948.41	8065.99
948.716	8045.2
949.022	7974.69
949.327	7960.91
949.633	7889.27
949.938	7894.24
950.244	7912.32
950.549	7832.32
950.854	7814.92
951.16	7820.12
951.465	7827.8
951.77	7801.14
952.075	7762.27
952.38	7683.4
952.685	7670.29
952.99	7615.6
953.294	7592.78
953.599	7590.97
953.904	7588.49
954.209	7470.52
954.513	7563.63
954.818	7458.09
955.122	7498.55
955.426	7431.65
955.731	7363.41
956.035	7303.3
956.339	7329.28
956.643	7334.26
956.948	7242.73
957.252	7218.1
957.556	7159.57
957.86	7245.67
958.163	7197.31
958.467	7176.29
958.771	7114.15
959.075	7113.47
959.378	7089.07
959.682	7036.64
959.985	6968.84
960.289	6950.76
960.592	6964.1
960.896	6921.39
961.199	6882.06
961.502	6843.65
961.805	6797.77
962.108	6782.86
962.411	6783.99
962.714	6696.98
963.017	6673.26
963.32	6716.65
963.623	6648.17
963.926	6618.34
964.228	6627.16
964.531	6525.46
964.833	6540.15
965.136	6477.78
965.438	6469.65
965.741	6479.36
966.043	6435.3
966.345	6378.58
966.648	6352.59
966.95	6299.71
967.252	6269.65
967.554	6273.49
967.856	6207.51
968.158	6125.02
968.46	6144.46
968.761	6101.52
969.063	6119.37
969.365	6045.25
969.666	6036.89
969.968	6011.35
970.269	5944.01
970.571	5976.33
970.872	5902.43
971.174	5910.79
971.475	5858.14
971.776	5853.39
972.077	5803.68
972.378	5796.9
972.679	5750.57
972.98	5745.82
973.281	5662.21
973.582	5661.08
973.883	5636.67
974.183	5593.74
974.484	5592.38
974.785	5590.12
975.085	5530.69
975.386	5530.69
975.686	5430.35
975.986	5464.25
976.287	5445.94
976.587	5382.22
976.887	5363.69
977.187	5366.85
977.487	5325.27
977.787	5252.73
978.087	5279.4
978.387	5196.69
978.687	5244.82
978.987	5164.14
979.286	5152.84
979.586	5144.94
979.885	5112.39
980.185	5064.94
980.484	5033.98
980.784	5030.36
981.083	5016.58
981.382	4968.67
981.682	4952.62
981.981	4877.15
982.28	4952.62
982.579	4875.11
982.878	4910.59
983.177	4836.47
983.475	4815.23
983.774	4743.59
984.073	4813.19
984.372	4733.87
984.67	4701.78
984.969	4679.64
985.267	4667.89
985.566	4664.95
985.864	4587.21
986.162	4577.72
986.461	4592.41
986.759	4570.71
987.057	4521.45
987.355	4520.09
987.653	4502.24
987.951	4491.17
988.249	4478.74
988.547	4455.01
988.844	4439.64
989.142	4418.85
989.44	4414.56
989.737	4374.79
990.035	4328.01
990.332	4314.9
990.63	4291.85
990.927	4297.5
991.224	4273.32
991.521	4242.13
991.819	4241
992.116	4187.45
992.413	4191.51
992.71	4125.53
993.006	4180.67
993.303	4198.75
993.6	4118.3
993.897	4103.61
994.193	4132.76
994.49	4074.23
994.787	4037.85
995.083	4039.65
995.379	4002.37
995.676	3981.35
995.972	4017.51
996.268	3975.02
996.565	3935.48
996.861	3931.63
997.157	3916.72
997.453	3895.93
997.749	3883.5
998.044	3870.84
998.34	3878.98
998.636	3785.88
998.932	3797.63
999.227	3783.84
999.523	3753.79
999.818	3728.93
1000.114	3704.97
1000.409	3696.16
1000.704	3674.24
1001	3709.27
1001.295	3664.52
1001.59	3656.61
1001.885	3610.06
1002.18	3580.23
1002.475	3565.77
1002.77	3562.38
1003.065	3525.32
1003.359	3487.58
1003.654	3512.89
1003.949	3480.12
1004.243	3482.38
1004.538	3416.39
1004.832	3417.3
1005.127	3417.07
1005.421	3385.43
1005.715	3388.37
1006.009	3318.54
1006.304	3300.01
1006.598	3279
1006.892	3289.84
1007.186	3298.2
1007.48	3270.41
1007.773	3215.95
1008.067	3214.59
1008.361	3158.32
1008.655	3163.29
1008.948	3144.54
1009.242	3130.75
1009.535	3082.39
1009.829	3091.66
1010.122	3065.22
1010.415	3071.32
1010.708	3034.03
1011.001	3017.76
1011.295	2994.94
1011.588	3010.98
1011.881	2944.99
1012.173	2906.35
1012.466	2917.2
1012.759	2859.8
1013.052	2896.86
1013.344	2842.4
1013.637	2830.87
1013.93	2806.01
1014.222	2778.67
1014.514	2753.59
1014.807	2791.1
1015.099	2759.69
1015.391	2703.87
1015.683	2682.18
1015.976	2675.85
1016.268	2679.01
1016.56	2655.06
1016.851	2608.28
1017.143	2611.89
1017.435	2570.54
1017.727	2566.47
1018.018	2557.88
1018.31	2546.59
1018.602	2538.45
1018.893	2487.15
1019.185	2482.18
1019.476	2466.59
1019.767	2482.63
1020.058	2424.55
1020.35	2409.19
1020.641	2407.83
1020.932	2380.71
1021.223	2370.32
1021.514	2329.64
1021.804	2332.81
1022.095	2282.19
1022.386	2252.58
1022.677	2288.51
1022.967	2244.22
1023.258	2235.86
1023.548	2178.91
1023.839	2199.48
1024.129	2181.17
1024.419	2163.09
1024.709	2172.36
1025	2135.75
1025.29	2123.32
1025.58	2077.22
1025.87	2109.99
1026.16	2106.82
1026.449	2056.43
1026.739	2033.15
1027.029	2032.93
1027.319	2036.32
1027.608	1972.14
1027.898	1993.38
1028.187	1962.19
1028.477	1964.45
1028.766	1960.61
1029.055	1893.04
1029.344	1902.08
1029.634	1878.13
1029.923	1880.61
1030.212	1880.39
1030.501	1856.43
1030.79	1828.41
1031.078	1845.14
1031.367	1806.04
1031.656	1800.39
1031.945	1787.51
1032.233	1775.53
1032.522	1762.65
1032.81	1739.83
1033.099	1741.18
1033.387	1717.45
1033.675	1695.31
1033.963	1678.81
1034.251	1688.53
1034.54	1658.02
1034.828	1629.55
1035.116	1635.65
1035.403	1619.15
1035.691	1620.51
1035.979	1579.15
1036.267	1575.99
1036.554	1596.1
1036.842	1551.36
1037.129	1594.97
1037.417	1540.51
1037.704	1546.61
1037.992	1512.94
1038.279	1503.68
1038.566	1532.15
1038.853	1532.15
1039.14	1532.15
