Data from aluminium_macbook_case_FLMS001491_076.txt Node
Date: Tue Feb 07 10:44:12 GMT 2017
User: dcchb
Spectrometer: FLMS00149
Trigger mode: 0
Integration Time (sec): 2.000000E-2
Scans to average: 10
Electric dark correction enabled: true
Nonlinearity correction enabled: false
Boxcar width: 0
XAxis mode: Wavelengths
Number of Pixels in Spectrum: 2048
>>>>>Begin Spectral Data<<<<<
341.393	6.61
341.776	6.61
342.16	6.61
342.543	-81.52
342.927	-72.48
343.31	-51.02
343.693	-56.21
344.077	-55.08
344.46	-62.77
344.843	-72.03
345.226	-46.5
345.61	-33.39
345.993	-9.43
346.376	-14.86
346.759	16.33
347.142	24.69
347.525	32.15
347.908	66.27
348.291	63.56
348.674	88.19
349.057	110.11
349.44	119.38
349.823	161.18
350.206	177.9
350.588	238.47
350.971	264.91
351.354	279.15
351.737	285.25
352.119	297
352.502	327.96
352.884	330.9
353.267	321.4
353.65	352.14
354.032	376.54
354.414	378.58
354.797	383.78
355.179	390.55
355.562	374.96
355.944	400.05
356.326	401.63
356.709	410.44
357.091	378.35
357.473	409.09
357.855	413.38
358.238	421.06
358.62	408.63
359.002	441.4
359.384	428.29
359.766	428.52
360.148	433.72
360.53	419.03
360.912	429.88
361.294	415.41
361.676	401.4
362.057	425.13
362.439	432.59
362.821	411.12
363.203	414.51
363.584	433.94
363.966	426.71
364.348	424.9
364.729	418.8
365.111	426.94
365.493	414.06
365.874	423.77
366.256	431.91
366.637	436.43
367.019	430.78
367.4	438.92
367.781	439.82
368.163	435.75
368.544	439.82
368.925	460.38
369.306	463.32
369.688	454.96
370.069	426.26
370.45	462.64
370.831	451.57
371.212	459.48
371.593	466.71
371.974	463.77
372.355	464
372.736	487.28
373.117	480.72
373.498	466.26
373.879	459.71
374.26	470.1
374.641	476.88
375.021	459.03
375.402	487.05
375.783	517.33
376.163	534.05
376.544	521.62
376.925	532.47
377.305	509.2
377.686	540.61
378.066	546.71
378.447	528.63
378.827	553.94
379.208	542.64
379.588	567.05
379.968	523.43
380.349	545.13
380.729	529.76
381.109	569.31
381.489	586.93
381.87	594.39
382.25	594.39
382.63	576.54
383.01	630.32
383.39	591.91
383.77	619.48
384.15	615.41
384.53	638.23
384.91	637.1
385.29	662.86
385.67	635.07
386.049	661.28
386.429	671.45
386.809	677.55
387.189	691.79
387.568	695.18
387.948	709.64
388.328	727.49
388.707	708.51
389.087	721.17
389.466	735.18
389.846	747.83
390.225	756.19
390.605	751
390.984	741.28
391.363	759.13
391.743	798
392.122	786.02
392.501	816.31
392.881	811.11
393.26	818.57
393.639	818.11
394.018	838.45
394.397	862.18
394.776	854.72
395.155	861.5
395.534	885.23
395.913	888.39
396.292	897.66
396.671	898.11
397.05	903.76
397.429	924.1
397.808	915.74
398.186	958.22
398.565	951.22
398.944	976.3
399.323	964.32
399.701	985.57
400.08	1016.53
400.458	1022.85
400.837	1022.18
401.215	1038.22
401.594	1075.28
401.972	1055.4
402.351	1081.38
402.729	1086.36
403.107	1120.48
403.486	1091.1
403.864	1091.1
404.242	1130.65
404.62	1122.74
404.999	1155.96
405.377	1179.69
405.755	1217.88
406.133	1196.41
406.511	1206.13
406.889	1224.43
407.267	1252.9
407.645	1299.23
408.023	1330.19
408.401	1343.75
408.779	1335.84
409.156	1355.05
409.534	1372.68
409.912	1378.1
410.29	1399.12
410.667	1443.86
411.045	1459.23
411.422	1459.45
411.8	1476.4
412.178	1521.15
412.555	1530.64
412.933	1551.65
413.31	1584.42
413.687	1601.6
414.065	1644.08
414.442	1631.43
414.819	1657.64
415.197	1671.2
415.574	1699.9
415.951	1748.26
416.328	1731.54
416.705	1744.64
417.082	1779.44
417.46	1768.15
417.837	1831.87
418.214	1821.25
418.591	1878.65
418.967	1889.5
419.344	1873.68
419.721	1917.97
420.098	1947.12
420.475	1953.45
420.852	1975.82
421.228	2017.4
421.605	2035.26
421.982	2042.94
422.358	2044.97
422.735	2092.2
423.111	2123.39
423.488	2142.37
423.864	2166.55
424.241	2198.19
424.617	2260.11
424.994	2243.16
425.37	2254.01
425.746	2294.23
426.123	2350.28
426.499	2336.94
426.875	2371.29
427.251	2390.73
427.627	2484.96
428.003	2470.05
428.379	2524.96
428.756	2552.08
429.132	2606.54
429.507	2591.85
429.883	2682.02
430.259	2677.73
430.635	2746.2
431.011	2773.77
431.387	2848.34
431.763	2888.79
432.138	2939.41
432.514	2987.32
432.89	2985.06
433.265	3050.15
433.641	3080.88
434.016	3132.4
434.392	3180.09
434.767	3222.34
435.143	3277.03
435.518	3288.78
435.894	3286.07
436.269	3367.88
436.644	3443.13
437.02	3417.59
437.395	3446.29
437.77	3520.42
438.145	3580.3
438.52	3575.33
438.895	3653.52
439.271	3707.98
439.646	3740.75
440.021	3763.35
440.395	3813.52
440.77	3742.1
441.145	3828.2
441.52	3932.16
441.895	3921.76
442.27	4018.48
442.645	3941.42
443.019	4035.66
443.394	4033.85
443.769	4073.4
444.143	4059.16
444.518	4135.99
444.892	4155.2
445.267	4194.3
445.641	4230.68
446.016	4256.67
446.39	4282.88
446.764	4358.13
447.139	4367.17
447.513	4405.14
447.887	4440.62
448.262	4465.48
448.636	4486.94
449.01	4549.99
449.384	4603.55
449.758	4620.27
450.132	4718.35
450.506	4772.36
450.88	4808.29
451.254	4764.68
451.628	4837.44
452.002	4906.14
452.376	4948.63
452.75	5027.72
453.123	5064.33
453.497	5106.36
453.871	5186.13
454.244	5294.15
454.618	5269.97
454.992	5389.75
455.365	5438.78
455.739	5550.42
456.112	5617.76
456.486	5695.05
456.859	5709.28
457.232	5844.42
457.606	5840.58
457.979	5929.84
458.352	6085.55
458.725	6145.66
459.099	6162.61
459.472	6316.05
459.845	6392.66
460.218	6420
460.591	6461.36
460.964	6533.67
461.337	6654.8
461.71	6841.91
462.083	6893.66
462.456	6948.35
462.829	6966.2
463.201	7094.33
463.574	7100.43
463.947	7244.84
464.32	7392.18
464.692	7488.22
465.065	7525.06
465.438	7616.35
465.81	7753.98
466.183	7834.88
466.555	8003.24
466.928	8010.69
467.3	8087.98
467.672	8299.5
468.045	8469.21
468.417	8501.3
468.789	8529.78
469.161	8675.99
469.534	8797.34
469.906	9045.24
470.278	9086.6
470.65	9185.58
471.022	9438.45
471.394	9532.46
471.766	9567.04
472.138	9740.59
472.51	9956.86
472.882	10099.23
473.253	10236.17
473.625	10308.49
473.997	10566.56
474.369	10613.79
474.74	10802.94
475.112	11030.73
475.484	11188.46
475.855	11453.99
476.227	11498.74
476.598	11855.34
476.97	11931.72
477.341	12239.51
477.713	12517.69
478.084	12596.11
478.455	12899.38
478.827	13044.69
479.198	13355.19
479.569	13445.8
479.94	13785
480.311	13904.1
480.682	14283.07
481.053	14468.6
481.424	14773.23
481.795	14882.83
482.166	15185.65
482.537	15382.02
482.908	15794.9
483.279	15834.22
483.65	16189.24
484.021	16374.54
484.391	16594.2
484.762	16806.62
485.133	17045.94
485.503	17232.15
485.874	17631.46
486.244	17972.92
486.615	18207.49
486.985	18365.68
487.356	18787.59
487.726	18877.75
488.097	19389.38
488.467	19397.29
488.837	19849.7
489.207	20128.57
489.578	20442.46
489.948	20496.69
490.318	20896
490.688	20995.66
491.058	21261.87
491.428	21493.73
491.798	21810.56
492.168	22319.24
492.538	22227.49
492.908	22485.79
493.278	22764.43
493.648	22844.43
494.017	23181.82
494.387	23498.2
494.757	23653.22
495.126	23952.65
495.496	23947.22
495.866	24109.25
496.235	24525.97
496.605	24794.88
496.974	24885.5
497.344	25136.8
497.713	25182.9
498.082	25484.81
498.452	25734.07
498.821	25899.04
499.19	26056.77
499.559	26285.24
499.928	26562.97
500.298	26672.12
500.667	26915.73
501.036	26966.13
501.405	27235.95
501.774	27290.19
502.143	27676.16
502.512	27737.41
502.88	27962.94
503.249	27967.91
503.618	28192.08
503.987	28444.51
504.356	28527.89
504.724	28755.68
505.093	28828
505.462	29082
505.83	29119.52
506.199	29521.09
506.567	29812.83
506.936	29905.48
507.304	30268.87
507.672	30346.6
508.041	30508.18
508.409	30793.15
508.777	31206.47
509.145	31317.65
509.514	31570.07
509.882	31665.89
510.25	31801.71
510.618	32091.64
510.986	32278.76
511.354	32625.87
511.722	33029.24
512.09	33143.37
512.458	33232.63
512.826	33646.63
513.193	33756.23
513.561	33938.15
513.929	34204.81
514.297	34417
514.664	34695.19
515.032	34803.21
515.4	35032.58
515.767	35125.91
516.135	35513.02
516.502	35319.81
516.869	35969.05
517.237	36084.08
517.604	36031.2
517.972	36633.44
518.339	36722.71
518.706	36894
519.073	37006.09
519.44	37500.31
519.808	37643.59
520.175	37779.85
520.542	38382.55
520.909	38617.8
521.276	38599.72
521.643	39183.21
522.009	39429.08
522.376	39719.24
522.743	39973.24
523.11	40331.2
523.477	40828.81
523.843	40988.36
524.21	41502.92
524.577	41693.2
524.943	41968.44
525.31	42132.96
525.676	42560.75
526.043	42743.79
526.409	42891.58
526.776	43281.63
527.142	43285.47
527.508	43651.56
527.874	43982.4
528.241	44099.69
528.607	44404.76
528.973	44830.74
529.339	44734.7
529.705	45141.69
530.071	45317.28
530.437	45714.56
530.803	45846.53
531.169	46159.29
531.535	46150.26
531.901	46358.61
532.267	46569.91
532.632	46840.63
532.998	46881.31
533.364	47208.31
533.73	47433.61
534.095	47699.82
534.461	47858.46
534.826	48020.04
535.192	48196.98
535.557	48509.74
535.923	48552.68
536.288	48627.7
536.653	48965.77
537.019	48976.85
537.384	49143.17
537.749	49325.09
538.114	49415.93
538.479	49476.27
538.845	49768.01
539.21	49577.96
539.575	49840.1
539.94	49946.77
540.305	50235.8
540.67	50114.67
541.034	50317.6
541.399	50459.07
541.764	50474.66
542.129	50664.49
542.494	50755.11
542.858	50902.45
543.223	50953.74
543.587	51122.33
543.952	51269.89
544.316	51330.23
544.681	51326.16
545.045	51449.78
545.41	51754.4
545.774	51782.2
546.138	51925.24
546.503	51976.09
546.867	52066.48
547.231	52380.37
547.595	52411.33
547.959	52606.81
548.324	52630.76
548.688	52654.72
549.052	52755.96
549.416	52821.72
549.779	52930.42
550.143	53135.61
550.507	53307.58
550.871	53402.72
551.235	53461.7
551.599	53764.29
551.962	53732.43
552.326	53685.88
552.689	53963.84
553.053	53805.2
553.417	53984.4
553.78	54291.06
554.143	54296.48
554.507	54409.25
554.87	54508
555.234	54717.71
555.597	54589.81
555.96	54718.84
556.323	54860.08
556.686	54926.3
557.05	55064.82
557.413	55176.68
557.776	55239.28
558.139	55424.59
558.502	55491.48
558.865	55618.03
559.228	55831.58
559.59	55879.04
559.953	55942.31
560.316	56290.55
560.679	56227.05
561.041	56366.48
561.404	56537.1
561.767	56708.17
562.129	56687.38
562.492	56952.68
562.854	57020.93
563.217	56969.41
563.579	57163.07
563.941	57294.6
564.304	57401.49
564.666	57516.96
565.028	57610.07
565.39	57765.54
565.753	57769.61
566.115	57868.37
566.477	58057.51
566.839	58107.46
567.201	58303.83
567.563	58246.89
567.925	58423.15
568.287	58410.95
568.648	58510.16
569.01	58624.28
569.372	58778.4
569.734	58711.06
570.095	58911.5
570.457	58955.57
570.819	58972.97
571.18	59081.89
571.542	59181.55
571.903	59233.08
572.265	59356.69
572.626	59419.51
572.987	59393.3
573.349	59540.41
573.71	59631.93
574.071	59654.31
574.432	59763
574.794	59923.23
575.155	59849.56
575.516	59822.66
575.877	59988.31
576.238	59973.17
576.599	60117.57
576.96	60148.98
577.32	60169.32
577.681	60214.74
578.042	60314.18
578.403	60319.83
578.763	60360.73
579.124	60395.3
579.485	60487.51
579.845	60513.04
580.206	60476.21
580.566	60572.7
580.927	60532.02
581.287	60734.05
581.648	60523.21
582.008	60635.98
582.368	60633.26
582.728	60665.81
583.089	60544.91
583.449	60609.54
583.809	60647.5
584.169	60627.84
584.529	60620.61
584.889	60685.69
585.249	60589.2
585.609	60532.7
585.969	60716.43
586.329	60606.82
586.688	60629.42
587.048	60591.68
587.408	60601.85
587.768	60639.37
588.127	60569.76
588.487	60638.24
588.846	60795.29
589.206	60610.67
589.565	60656.31
589.925	60815.18
590.284	60758.23
590.643	60774.73
591.003	60794.16
591.362	60895.4
591.721	60814.5
592.08	60833.94
592.44	60922.52
592.799	60846.59
593.158	60822.19
593.517	60855.18
593.876	60869.42
594.235	60872.13
594.593	60904.22
594.952	60957.1
595.311	60820.6
595.67	60859.93
596.029	61045.91
596.387	61045.01
596.746	61005.91
597.104	60884.11
597.463	60918.23
597.822	60994.61
598.18	60922.97
598.538	60986.48
598.897	61088.39
599.255	60889.08
599.613	61122.07
599.972	60934.95
600.33	61098.11
600.688	60980.15
601.046	61004.55
601.404	61070.09
601.762	61100.14
602.12	61165.68
602.478	61183.76
602.836	61164.1
603.194	61061.95
603.552	61121.16
603.91	61077.55
604.268	61217.2
604.625	61184.89
604.983	61292.46
605.341	61158
605.698	61277.99
606.056	61306.92
606.413	61319.57
606.771	61430.08
607.128	61466.46
607.485	61382.85
607.843	61405.67
608.2	61555.73
608.557	61651.77
608.914	61554.6
609.272	61643.18
609.629	61692.67
609.986	61787.58
610.343	61658.77
610.7	61821.03
611.057	61750.07
611.414	61725.67
611.771	61762.73
612.127	61880.24
612.484	61868.71
612.841	61830.52
613.198	61780.58
613.554	61801.82
613.911	61894.93
614.267	61896.06
614.624	61841.37
614.98	61917.52
615.337	61993
615.693	62020.57
616.05	61844.53
616.406	62039.56
616.762	61954.81
617.118	61995.04
617.475	61906
617.831	62018.09
618.187	62034.36
618.543	62025.09
618.899	62168.82
619.255	62038.65
619.611	62040.01
619.967	62096.05
620.323	62190.29
620.678	62075.71
621.034	62032.55
621.39	62039.1
621.746	61991.87
622.101	62275.71
622.457	62044.3
622.812	62145.77
623.168	62216.5
623.523	62208.82
623.879	62211.08
624.234	62087.46
624.589	62216.95
624.945	62262.37
625.3	62275.71
625.655	62242.94
626.01	62336.04
626.365	62343.95
626.72	62241.36
627.075	62234.13
627.43	62188.25
627.785	62187.35
628.14	62219.21
628.495	62282.26
628.85	62220.57
629.205	62081.36
629.559	62241.36
629.914	62128.14
630.269	62070.06
630.623	62072.77
630.978	61954.13
631.332	62077.07
631.687	62115.71
632.041	61964.75
632.396	61947.81
632.75	61848.15
633.104	61876.62
633.459	61762.73
633.813	61766.57
634.167	61803.18
634.521	61657.87
634.875	61722.05
635.229	61651.99
635.583	61552.11
635.937	61540.59
636.291	61541.94
636.645	61534.94
636.999	61426.24
637.352	61434.15
637.706	61393.92
638.06	61446.12
638.413	61432.57
638.767	61342.17
639.121	61364.09
639.474	61218.79
639.828	61214.04
640.181	61273.02
640.534	61272.57
640.888	61167.71
641.241	61068.96
641.594	61139.47
641.947	61177.43
642.301	61083.65
642.654	61133.14
643.007	61102.86
643.36	61068.73
643.713	61036.42
644.066	61114.61
644.419	60974.27
644.771	60874.39
645.124	60665.81
645.477	60599.59
645.83	60391.24
646.182	60385.59
646.535	60245.48
646.888	60293.84
647.24	60145.37
647.593	60232.82
647.945	60205.25
648.298	60034.18
648.65	59954.86
649.002	59977.01
649.355	60024.47
649.707	59948.99
650.059	60006.84
650.411	60361.86
650.763	60314.4
651.115	60493.38
651.467	60416.55
651.819	60406.6
652.171	60342.88
652.523	60244.12
652.875	60304.91
653.227	60158.47
653.578	60265.14
653.93	60154.41
654.282	60136.55
654.633	59987.41
654.985	60078.25
655.337	60085.26
655.688	60010.68
656.039	60101.08
656.391	59880.52
656.742	59941.53
657.094	59893.4
657.445	60025.6
657.796	59905.83
658.147	59848.2
658.498	59867.63
658.849	59935.43
659.2	59839.39
659.551	59870.57
659.902	59884.58
660.253	59811.59
660.604	59877.35
660.955	59774.76
661.306	59881.19
661.656	59829.44
662.007	59831.93
662.358	59763.68
662.708	59813.85
663.059	59819.27
663.409	59685.04
663.76	59867.18
664.11	59763.91
664.461	59781.08
664.811	59794.87
665.161	59761.65
665.511	59632.84
665.862	59687.53
666.212	59767.3
666.562	59803.91
666.912	59655.21
667.262	59653.86
667.612	59656.57
667.962	59624.48
668.312	59557.81
668.662	59649.56
669.011	59587.19
669.361	59466.97
669.711	59460.41
670.06	59467.42
670.41	59346.97
670.76	59363.47
671.109	59421.32
671.459	59315.56
671.808	59299.51
672.157	59300.42
672.507	59127.09
672.856	59193.53
673.205	59183.13
673.554	59211.83
673.904	59125.06
674.253	59213.19
674.602	59121.89
674.951	58748.34
675.3	58571.17
675.649	59002.8
675.998	58974.55
676.346	58969.13
676.695	59003.48
677.044	58869.02
677.393	58913.08
677.741	58836.93
678.09	58887.77
678.438	58782.47
678.787	58848.23
679.135	58856.14
679.484	58647.78
679.832	58794.22
680.181	58682.36
680.529	58774.33
680.877	58644.16
681.225	58599.87
681.573	58819.07
681.922	58552.42
682.27	58554.45
682.618	58597.61
682.966	58481.91
683.314	58547.9
683.661	58542.47
684.009	58342.7
684.357	58396.94
684.705	58265.42
685.053	58238.98
685.4	58281.24
685.748	58111.75
686.095	58078.08
686.443	57989.04
686.79	57995.37
687.138	58099.77
687.485	58022.71
687.832	57841.47
688.18	57912.66
688.527	57763.96
688.874	57692.32
689.221	57653.23
689.568	57515.83
689.915	57409.39
690.262	57423.63
690.609	57374.37
690.956	57192.45
691.303	57252.79
691.65	57051.21
691.997	57015.96
692.344	56839.24
692.69	56807.83
693.037	56852.8
693.383	56668.85
693.73	56747.49
694.077	56482.41
694.423	56437.22
694.769	56335.75
695.116	56325.58
695.462	56210.33
695.808	56180.73
696.155	56166.49
696.501	55928.98
696.847	55971.47
697.193	55844.01
697.539	55858.93
697.885	55637.01
698.231	55484.25
698.577	55604.02
698.923	55507.3
699.269	55338.26
699.614	55255.78
699.96	55230.24
700.306	55288.77
700.651	55108.21
700.997	55110.47
701.342	54975.56
701.688	54994.54
702.033	54864.83
702.379	54827.99
702.724	54824.38
703.069	54826.64
703.415	54565.85
703.76	54513.88
704.105	54590.49
704.45	54530.15
704.795	54341
705.14	54258.52
705.485	54248.57
705.83	54093.1
706.175	54207.9
706.52	53991.41
706.865	53905.53
707.209	53850.17
707.554	53779.89
707.899	53933.78
708.243	53730.85
708.588	53777.63
708.932	53440.01
709.277	53467.35
709.621	53410.86
709.966	53185.32
710.31	53251.76
710.654	52948.95
710.998	53054.93
711.342	53009.74
711.687	52886.58
712.031	52670.31
712.375	52602.74
712.719	52655.17
713.063	52556.41
713.407	52596.41
713.75	52360.71
714.094	52239.13
714.438	52193.03
714.782	52075.3
715.125	52008.18
715.469	52021.06
715.812	51912.36
716.156	51650.22
716.499	51672.14
716.843	51639.38
717.186	51494.97
717.53	51573.16
717.873	51577.01
718.216	51373.62
718.559	51211.59
718.902	51116.68
719.246	51136.79
719.589	50982.22
719.932	50863.13
720.275	50975.89
720.617	50756.24
720.96	50593.53
721.303	50691.38
721.646	50580.87
721.989	50394.89
722.331	50535.9
722.674	50354.89
723.016	50470.37
723.359	50473.53
723.701	50512.17
724.044	50227.89
724.386	50066.08
724.729	50188.34
725.071	50075.12
725.413	50098.63
725.755	49994.45
726.097	49810.27
726.439	49814.57
726.782	49821.12
727.124	49912.19
727.465	49790.39
727.807	49755.58
728.149	49641.69
728.491	49563.27
728.833	49630.16
729.175	49431.53
729.516	49484.18
729.858	49435.14
730.199	49321.25
730.541	49313.11
730.882	49150.4
731.224	49217.29
731.565	48950.41
731.906	49008.26
732.248	48874.03
732.589	48745.89
732.93	48665.9
733.271	48740.02
733.612	48648.72
733.953	48730.75
734.294	48414.83
734.635	48385
734.976	48414.83
735.317	48177.32
735.658	48218.22
735.999	47996.31
736.339	47955.63
736.68	48062.97
737.021	47804.9
737.361	47592.7
737.702	47932.36
738.042	47702.53
738.383	47578.92
738.723	47577.56
739.063	47270.45
739.404	47306.16
739.744	47197.23
740.084	46979.39
740.424	47118.59
740.764	47078.37
741.104	46961.99
741.444	46723.12
741.784	46698.26
742.124	46641.32
742.464	46618.49
742.804	46486.74
743.143	46472.96
743.483	46266.41
743.823	46149.58
744.162	46115.23
744.502	46144.61
744.841	45953.65
745.181	46020.99
745.52	45814.22
745.86	45940.32
746.199	45783.26
746.538	45657.16
746.877	45824.61
747.216	45613.55
747.556	45574
747.895	45523.83
748.234	45375.59
748.573	45416.49
748.911	45290.62
749.25	45238.64
749.589	45106.89
749.928	45228.02
750.267	45160.45
750.605	44964.98
750.944	44985.54
751.283	44830.97
751.621	44831.65
751.96	44548.26
752.298	44592.56
752.636	44560.92
752.975	44463.97
753.313	44299.68
753.651	44403.86
753.989	44179.01
754.327	44097.88
754.666	44007.71
755.004	43985.79
755.342	43907.38
755.679	43790.32
756.017	43621.28
756.355	43673.94
756.693	43453.38
757.031	43475.07
757.368	43260.16
757.706	43167.28
758.044	43203.89
758.381	43200.5
758.719	42946.72
759.056	42887.52
759.394	42801.87
759.731	42340.86
760.068	42314.42
760.405	42203.01
760.743	42097.93
761.08	42096.35
761.417	41878.5
761.754	41691.84
762.091	41728.45
762.428	41399.42
762.765	41159.43
763.102	41325.52
763.438	40953.33
763.775	40965.08
764.112	40709.72
764.449	40823.16
764.785	40522.15
765.122	40303.63
765.458	40313.12
765.795	39985.45
766.131	40030.64
766.467	39764.89
766.804	39492.35
767.14	39397.66
767.476	39345.46
767.812	38988.86
768.148	39198.8
768.485	38925.81
768.821	38771.01
769.157	38670
769.492	38625.48
769.828	38509.78
770.164	38070.02
770.5	38071.6
770.836	37958.83
771.171	37729.69
771.507	37713.64
771.842	37512.74
772.178	37435
772.513	37369.7
772.849	37179.87
773.184	37023.94
773.519	37058.52
773.855	36854.23
774.19	36596.61
774.525	36466.22
774.86	36450.17
775.195	36438.87
775.53	36225.09
775.865	36184.19
776.2	35843.63
776.535	35726.57
776.87	35772.45
777.205	35567.03
777.539	35522.96
777.874	35440.25
778.209	35187.38
778.543	35141.73
778.878	34948.74
779.212	35005.69
779.547	34879.59
779.881	34827.62
780.215	34732.93
780.55	34729.76
780.884	34598.69
781.218	34301.75
781.552	34247.07
781.886	34213.62
782.22	33979.73
782.554	33833.74
782.888	33637.82
783.222	33389.69
783.556	33233.98
783.889	33241.22
784.223	33000.32
784.557	33162.57
784.89	33142.91
785.224	32811.85
785.557	32697.5
785.891	32685.98
786.224	32543.61
786.558	32471.52
786.891	32120.79
787.224	32064.3
787.557	31850.74
787.891	31852.1
788.224	31688.04
788.557	31700.92
788.89	31585.21
789.223	31526.46
789.556	31267.71
789.888	31152.91
790.221	31107.49
790.554	30839.25
790.887	30747.72
791.219	30582.53
791.552	30464.11
791.884	30334.17
792.217	30259.37
792.549	30083.79
792.882	29778.71
793.214	29730.35
793.546	29844.02
793.879	29569.45
794.211	29411.49
794.543	29429.11
794.875	29323.35
795.207	29269.12
795.539	29205.84
795.871	29021.89
796.203	28901.22
796.535	28706.42
796.867	28632.75
797.198	28476.82
797.53	28572.86
797.862	28342.36
798.193	28348.46
798.525	28028.47
798.856	28138.98
799.188	27796.84
799.519	27642.27
799.85	27625.77
800.182	27657.18
800.513	27581.93
800.844	27340.13
801.175	27512.1
801.506	27529.5
801.837	27229.17
802.168	27179.68
802.499	27222.39
802.83	27077.76
803.161	26848.16
803.491	26923.64
803.822	26989.63
804.153	26708.96
804.483	26553.93
804.814	26374.73
805.145	26461.51
805.475	26469.87
805.805	26307.39
806.136	26451.79
806.466	26329.99
806.796	26335.41
807.126	26154.62
807.457	26010.67
807.787	26140.16
808.117	26063.55
808.447	25969.09
808.777	25982.65
809.107	25991.46
809.436	25864.46
809.766	25780.4
810.096	25610.23
810.426	25564.81
810.755	25493.17
811.085	25516.67
811.414	25474.64
811.744	25273.52
812.073	25299.05
812.403	25202.33
812.732	25085.95
813.061	25115.33
813.39	25004.37
813.719	24884.15
814.049	25011.83
814.378	24895.45
814.707	24749.01
815.036	24754.66
815.365	24660.43
815.693	24486.19
816.022	24531.61
816.351	24306.54
816.68	24188.12
817.008	24313.32
817.337	24171.4
817.665	24089.82
817.994	23976.15
818.322	24012.98
818.651	23857.73
818.979	23719.66
819.307	23917.85
819.636	23815.25
819.964	23562.83
820.292	23648.02
820.62	23580.91
820.948	23483.05
821.276	23496.39
821.604	23414.58
821.932	23475.6
822.259	23510.85
822.587	23397.86
822.915	23393.11
823.243	23492.09
823.57	23291.2
823.898	23330.74
824.225	23306.11
824.553	23285.32
824.88	23267.92
825.207	23316.05
825.535	23212.78
825.862	23278.31
826.189	23138.66
826.516	23178.43
826.843	23283.06
827.17	23160.13
827.497	23234.25
827.824	23124.65
828.151	23223.63
828.478	23080.35
828.805	23186.79
829.131	23099.79
829.458	23130.3
829.785	22921.94
830.111	22994.03
830.438	23138.21
830.764	23064.31
831.09	23096.4
831.417	22961.49
831.743	23034.48
832.069	23010.52
832.395	22892.11
832.722	22914.03
833.048	22905.67
833.374	22977.76
833.7	22821.6
834.026	22933.01
834.351	22900.02
834.677	22944.76
835.003	22820.93
835.329	22928.49
835.654	22909.51
835.98	22744.09
836.306	22858.66
836.631	22745.9
836.956	22902.51
837.282	22871.77
837.607	22742.28
837.932	22649.4
838.258	22728.27
838.583	22741.61
838.908	22609.18
839.233	22775.5
839.558	22677.2
839.883	22657.77
840.208	22569.41
840.533	22572.34
840.858	22620.25
841.182	22623.87
841.507	22541.38
841.832	22500.93
842.156	22386.81
842.481	22358.34
842.805	22356.08
843.13	22253.03
843.454	22326.02
843.778	22219.59
844.103	22076.54
844.427	22084.9
844.751	22164.9
845.075	22153.15
845.399	21913.38
845.723	21800.84
846.047	21844.45
846.371	21636.78
846.695	21692.82
847.019	21410.79
847.343	21342.77
847.666	21252.83
847.99	21131.25
848.313	21146.39
848.637	21021.65
848.96	21072.5
849.284	21014.42
849.607	20748.89
849.931	20709.34
850.254	20611.94
850.577	20511.83
850.9	20357.04
851.223	20343.25
851.546	20264.61
851.869	20098.96
852.192	20174.22
852.515	19895.8
852.838	19917.5
853.161	19873.43
853.483	19751.4
853.806	19510.05
854.129	19632.31
854.451	19578.98
854.774	19435.25
855.096	19424.4
855.419	19407.23
855.741	19390.96
856.063	19188.25
856.385	19106.9
856.708	19116.62
857.03	19007.24
857.352	19049.73
857.674	18883.85
857.996	18847.7
858.318	18692.67
858.64	18668.94
858.961	18611.54
859.283	18597.99
859.605	18487.25
859.926	18494.26
860.248	18466.24
860.57	18330.65
860.891	18440.02
861.212	18364.09
861.534	18304.89
861.855	18271.89
862.176	18205.23
862.498	18240.93
862.819	18279.35
863.14	18051.79
863.461	18076.19
863.782	17952.58
864.103	17967.72
864.424	17858.8
864.745	17987.38
865.065	17838.23
865.386	17830.1
865.707	17700.16
866.027	17784.22
866.348	17888.17
866.668	17836.42
866.989	17718.23
867.309	17717.33
867.63	17720.04
867.95	17745.58
868.27	17625.36
868.59	17709.87
868.91	17736.09
869.23	17711
869.55	17530.22
869.87	17691.12
870.19	17638.24
870.51	17595.75
870.83	17588.29
871.15	17457.22
871.469	17490.22
871.789	17590.1
872.109	17571.35
872.428	17423.1
872.748	17342.65
873.067	17417.23
873.386	17470.56
873.706	17495.42
874.025	17360.05
874.344	17229.89
874.663	17379.71
874.982	17340.39
875.301	17405.02
875.62	17406.83
875.939	17271.47
876.258	17245.03
876.577	17179.94
876.896	17199.83
877.214	17124.13
877.533	17271.47
877.852	17198.93
878.17	17270.79
878.489	17245.03
878.807	17137.68
879.125	17115.76
879.444	17075.99
879.762	17137.01
880.08	17100.17
880.398	17003
880.716	16931.14
881.034	16851.36
881.352	16980.17
881.67	16863.34
881.988	16902.89
882.306	16710.8
882.624	16852.04
882.941	16681.88
883.259	16652.73
883.577	16583.58
883.894	16542.22
884.212	16597.81
884.529	16507.42
884.846	16402.34
885.164	16446.4
885.481	16411.6
885.798	16419.74
886.115	16269.46
886.432	16294.77
886.75	16205.51
887.067	16247.99
887.383	16066.3
887.7	16100.65
888.017	16084.83
888.334	16093.87
888.651	15911.95
888.967	15965.74
889.284	15790.38
889.6	15742.02
889.917	15698.63
890.233	15834.89
890.55	15673.32
890.866	15749.7
891.182	15638.29
891.498	15516.26
891.815	15490.04
892.131	15371.4
892.447	15292.31
892.763	15265.87
893.079	15263.61
893.395	15238.3
893.71	15135.93
894.026	15107.68
894.342	15067.46
894.657	14980.91
894.973	14933.45
895.289	14999.89
895.604	14954.92
895.92	14901.59
896.235	14829.72
896.55	14734.13
896.865	14671.76
897.181	14652.55
897.496	14622.04
897.811	14566
898.126	14581.37
898.441	14408.04
898.756	14407.14
899.071	14213.24
899.386	14320.81
899.7	14189.97
900.015	14154.94
900.33	14131.44
900.644	14123.3
900.959	14020.03
901.273	14044.43
901.588	13962.63
901.902	13906.36
902.216	13859.35
902.531	13868.39
902.845	13863.87
903.159	13729.64
903.473	13742.75
903.787	13589.08
904.101	13502.07
904.415	13660.71
904.729	13593.82
905.042	13491.45
905.356	13410.55
905.67	13368.97
905.984	13450.78
906.297	13356.99
906.611	13298.01
906.924	13238.13
907.237	13252.14
907.551	13160.16
907.864	13142.54
908.177	13180.95
908.491	13010.11
908.804	13039.49
909.117	12963.56
909.43	12893.5
909.743	12847.18
910.056	12839.04
910.368	12752.26
910.681	12787.06
910.994	12732.6
911.307	12681.08
911.619	12538.71
911.932	12634.07
912.244	12575.32
912.557	12491.25
912.869	12424.59
913.181	12371.48
913.494	12353.18
913.806	12366.06
914.118	12328.32
914.43	12166.52
914.742	12254.88
915.054	12218.27
915.366	12101.89
915.678	12016.46
915.99	11958.16
916.302	11912.51
916.613	11850.37
916.925	11924.49
917.236	11860.31
917.548	11817.6
917.859	11816.92
918.171	11662.8
918.482	11693.99
918.794	11550.94
919.105	11540.54
919.416	11509.81
919.727	11456.25
920.038	11493.99
920.349	11352.3
920.66	11334.22
920.971	11277.73
921.282	11181.68
921.593	11149.59
921.903	11043.61
922.214	10954.34
922.525	10929.26
922.835	10903.05
923.146	10890.62
923.456	10847.91
923.767	10767.46
924.077	10790.96
924.387	10653.11
924.697	10643.39
925.008	10667.35
925.318	10581.7
925.628	10577.18
925.938	10442.04
926.248	10362.5
926.558	10377.86
926.867	10301.71
927.177	10286.57
927.487	10213.57
927.796	10114.37
928.106	10108.04
928.416	10103.52
928.725	10031.43
929.034	9976.29
929.344	9993.24
929.653	9970.42
929.962	9884.09
930.271	9775.62
930.581	9733.59
930.89	9721.61
931.199	9664.89
931.508	9643.87
931.817	9564.78
932.125	9612.46
932.434	9523.65
932.743	9506.02
933.051	9372.01
933.36	9341.73
933.669	9335.18
933.977	9312.81
934.286	9283.2
934.594	9231.68
934.902	9172.7
935.21	9095.18
935.519	9071.23
935.827	9073.94
936.135	9013.15
936.443	8945.81
936.751	8920.95
937.059	8869.2
937.367	8828.3
937.674	8816.32
937.982	8688.64
938.29	8703.78
938.597	8731.58
938.905	8650.68
939.213	8563.9
939.52	8511.02
939.827	8529.55
940.135	8580.85
940.442	8520.06
940.749	8453.17
941.056	8485.03
941.363	8381.76
941.67	8351.02
941.977	8337.46
942.284	8271.48
942.591	8268.54
942.898	8236
943.205	8221.08
943.511	8174.53
943.818	8175.43
944.125	8080.3
944.431	8014.54
944.738	8063.35
945.044	8028.55
945.35	7964.82
945.657	7957.36
945.963	7939.51
946.269	7805.95
946.575	7808.66
946.881	7846.86
947.187	7803.24
947.493	7782.9
947.799	7729.57
948.105	7619.29
948.41	7696.58
948.716	7682.34
949.022	7637.37
949.327	7543.59
949.633	7489.8
949.938	7506.07
950.244	7474.66
950.549	7435.79
950.854	7429.69
951.16	7352.18
951.465	7383.82
951.77	7303.14
952.075	7300.66
952.38	7270.6
952.685	7288.9
952.99	7204.61
953.294	7259.07
953.599	7185.86
953.904	7170.49
954.209	7096.37
954.513	7147.21
954.818	7070.61
955.122	6987.9
955.426	6993.09
955.731	6937.73
956.035	6914
956.339	6927.33
956.643	6875.13
956.948	6845.75
957.252	6805.53
957.556	6816.6
957.86	6720.33
958.163	6766.43
958.467	6708.58
958.771	6718.52
959.075	6658.19
959.378	6621.13
959.682	6593.1
959.985	6549.71
960.289	6539.09
960.592	6391.07
960.896	6416.16
961.199	6387.46
961.502	6358.76
961.805	6305.88
962.108	6340.23
962.411	6325.31
962.714	6233.34
963.017	6259.55
963.32	6224.3
963.623	6185.66
963.926	6196.73
964.228	6080.12
964.531	6129.39
964.833	6043.51
965.136	6065.89
965.438	6012.55
965.741	5955.38
966.043	5904.76
966.345	5875.38
966.648	5877.42
966.95	5898.88
967.252	5814.14
967.554	5824.31
967.856	5802.16
968.158	5747.02
968.46	5738.66
968.761	5735.27
969.063	5733.69
969.365	5630.87
969.666	5690.98
969.968	5598.78
970.269	5543.19
970.571	5589.97
970.872	5523.98
971.174	5405.79
971.475	5467.48
971.776	5432.91
972.077	5382.74
972.378	5405.56
972.679	5329.41
972.98	5369.18
973.281	5264.32
973.582	5260.48
973.883	5229.98
974.183	5248.51
974.484	5252.8
974.785	5194.27
975.085	5175.74
975.386	5114.95
975.686	5127.83
975.986	5060.94
976.287	5110.43
976.587	5029.3
976.887	5016.42
977.187	4971
977.487	4997.21
977.787	4961.73
978.087	4905.69
978.387	4930.77
978.687	4884.45
978.987	4846.48
979.286	4789.99
979.586	4818.46
979.885	4817.33
980.185	4787.95
980.484	4809.42
980.784	4752.93
981.083	4678.35
981.382	4687.39
981.682	4694.17
981.981	4628.64
982.28	4622.31
982.579	4586.6
982.878	4568.07
983.177	4579.82
983.475	4572.82
983.774	4492.82
984.073	4461.86
984.372	4453.27
984.67	4438.13
984.969	4437.91
985.267	4436.55
985.566	4372.82
985.864	4392.48
986.162	4367.4
986.461	4362.65
986.759	4336.89
987.057	4295.99
987.355	4264.58
987.653	4279.04
987.951	4246.72
988.249	4213.73
988.547	4214.63
988.844	4230.45
989.142	4210.57
989.44	4134.64
989.737	4154.52
990.035	4086.05
990.332	4087.86
990.63	4070.46
990.927	4070.68
991.224	4044.7
991.521	4032.94
991.819	4017.13
992.116	4046.28
992.413	3984.36
992.71	3963.79
993.006	3933.74
993.303	3891.48
993.6	3900.97
993.897	3855.77
994.193	3858.94
994.49	3842.67
994.787	3839.28
995.083	3838.83
995.379	3787.53
995.676	3778.94
995.972	3773.97
996.268	3705.72
996.565	3729
996.861	3707.3
997.157	3723.35
997.453	3690.35
997.749	3697.81
998.044	3657.36
998.34	3644.03
998.636	3630.47
998.932	3550.47
999.227	3590.92
999.523	3525.84
999.818	3506.18
1000.114	3509.12
1000.409	3486.29
1000.704	3462.11
1001	3441.77
1001.295	3464.15
1001.59	3407.2
1001.885	3398.39
1002.18	3362
1002.475	3346.18
1002.77	3370.36
1003.065	3348.89
1003.359	3319.52
1003.654	3301.66
1003.949	3266.64
1004.243	3258.73
1004.538	3230.71
1004.832	3197.49
1005.127	3202.23
1005.421	3174.44
1005.715	3146.41
1006.009	3181.67
1006.304	3130.37
1006.598	3126.3
1006.892	3078.62
1007.186	3073.65
1007.48	3027.77
1007.773	3043.14
1008.067	3042.01
1008.361	2953.65
1008.655	2984.84
1008.948	2963.14
1009.242	2924.27
1009.535	2856.48
1009.829	2908.45
1010.122	2870.94
1010.415	2869.13
1010.708	2815.12
1011.001	2782.81
1011.295	2794.11
1011.588	2799.98
1011.881	2743.71
1012.173	2742.58
1012.466	2740.1
1012.759	2731.51
1013.052	2711.62
1013.344	2667.56
1013.637	2668.23
1013.93	2640.89
1014.222	2607.22
1014.514	2577.62
1014.807	2572.19
1015.099	2595.24
1015.391	2534
1015.683	2531.06
1015.976	2508.01
1016.268	2525.64
1016.56	2465.53
1016.851	2451.52
1017.143	2427.34
1017.435	2428.02
1017.727	2403.61
1018.018	2427.34
1018.31	2416.49
1018.602	2349.83
1018.893	2383.5
1019.185	2315.48
1019.476	2344.63
1019.767	2291.75
1020.058	2258.98
1020.35	2292.65
1020.641	2234.35
1020.932	2201.35
1021.223	2235.48
1021.514	2181.92
1021.804	2176.5
1022.095	2144.18
1022.386	2139.21
1022.677	2137.18
1022.967	2131.07
1023.258	2078.19
1023.548	2074.8
1023.839	2058.31
1024.129	2044.75
1024.419	2037.52
1024.709	2000.23
1025	2038.87
1025.29	1996.39
1025.58	1955.49
1025.87	1947.35
1026.16	1929.5
1026.449	1945.77
1026.739	1951.19
1027.029	1920.46
1027.319	1909.84
1027.608	1897.18
1027.898	1881.14
1028.187	1843.17
1028.477	1841.36
1028.766	1841.59
1029.055	1826.9
1029.344	1817.86
1029.634	1778.54
1029.923	1783.51
1030.212	1754.13
1030.501	1741.03
1030.79	1755.72
1031.078	1737.64
1031.367	1696.28
1031.656	1737.86
1031.945	1674.14
1032.233	1692.89
1032.522	1665.1
1032.81	1635.04
1033.099	1626.45
1033.387	1670.97
1033.675	1610.64
1033.963	1619.22
1034.251	1626.23
1034.54	1569.05
1034.828	1555.95
1035.116	1549.62
1035.403	1557.53
1035.691	1533.12
1035.979	1549.17
1036.267	1516.4
1036.554	1471.2
1036.842	1511.88
1037.129	1481.37
1037.417	1473.69
1037.704	1468.04
1037.992	1467.81
1038.279	1431.21
1038.566	1422.62
1038.853	1422.62
1039.14	1422.62
