Data from aluminium_surface_pro_back_FLMS001491_00039.txt Node
Date: Wed Feb 08 15:33:59 GMT 2017
User: dcchb
Spectrometer: FLMS00149
Trigger mode: 0
Integration Time (sec): 2.000000E-2
Scans to average: 10
Electric dark correction enabled: true
Nonlinearity correction enabled: false
Boxcar width: 0
XAxis mode: Wavelengths
Number of Pixels in Spectrum: 2048
>>>>>Begin Spectral Data<<<<<
341.393	5.38
341.776	5.38
342.16	5.38
342.543	-69.65
342.927	-87.27
343.31	-87.5
343.693	-63.54
344.077	-62.64
344.46	-53.15
344.843	-46.59
345.226	-42.98
345.61	-32.58
345.993	-27.16
346.376	-1.62
346.759	16.91
347.142	34.31
347.525	66.4
347.908	58.49
348.291	75.66
348.674	88.54
349.057	77.47
349.44	117.24
349.823	145.04
350.206	161.31
350.588	214.19
350.971	220.97
351.354	240.63
351.737	276.56
352.119	272.27
352.502	286.28
352.884	314.53
353.267	312.94
353.65	316.11
354.032	317.92
354.414	332.15
354.797	345.03
355.179	350.46
355.562	344.36
355.944	342.32
356.326	360.17
356.709	369.89
357.091	378.7
357.473	381.87
357.855	365.6
358.238	368.31
358.62	365.82
359.002	386.16
359.384	371.93
359.766	392.94
360.148	374.19
360.53	377.57
360.912	367.41
361.294	359.27
361.676	381.42
362.057	377.35
362.439	364.02
362.821	368.99
363.203	357.46
363.584	375.09
363.966	363.34
364.348	365.6
364.729	365.82
365.111	367.63
365.493	362.21
365.874	338.93
366.256	375.77
366.637	387.74
367.019	365.82
367.4	362.21
367.781	370.57
368.163	373.73
368.544	372.15
368.925	360.4
369.306	391.13
369.688	353.85
370.069	358.59
370.45	382.32
370.831	364.47
371.212	373.06
371.593	376.44
371.974	370.34
372.355	370.8
372.736	384.58
373.117	399.72
373.498	379.38
373.879	381.64
374.26	408.31
374.641	368.76
375.021	382.09
375.402	405.14
375.783	409.44
376.163	408.99
376.544	405.14
376.925	427.52
377.305	432.71
377.686	408.31
378.066	403.34
378.447	425.71
378.827	435.88
379.208	433.17
379.588	410.79
379.968	420.74
380.349	421.64
380.729	449.21
381.109	437.91
381.489	428.42
381.87	448.31
382.25	434.97
382.63	446.5
383.01	457.57
383.39	451.47
383.77	462.77
384.15	471.81
384.53	476.1
384.91	466.39
385.29	472.26
385.67	484.69
386.049	488.98
386.429	466.16
386.809	502.77
387.189	521.07
387.568	521.07
387.948	511.13
388.328	513.62
388.707	513.62
389.087	519.72
389.466	521.53
389.846	530.57
390.225	555.88
390.605	546.61
390.984	551.36
391.363	539.38
391.743	533.95
392.122	565.82
392.501	572.37
392.881	602.2
393.26	602.43
393.639	580.73
394.018	594.74
394.397	606.95
394.776	619.83
395.155	627.74
395.534	609.66
395.913	628.42
396.292	641.97
396.671	674.06
397.05	637.91
397.429	646.27
397.808	675.42
398.186	652.82
398.565	671.58
398.944	689.88
399.323	679.26
399.701	701.63
400.08	692.82
400.458	712.26
400.837	709.09
401.215	735.31
401.594	726.27
401.972	730.56
402.351	726.94
402.729	755.19
403.107	764.01
403.486	758.36
403.864	765.14
404.242	772.37
404.62	805.13
404.999	829.09
405.377	825.25
405.755	806.49
406.133	837
406.511	835.19
406.889	847.39
407.267	849.65
407.645	859.82
408.023	883.32
408.401	912.7
408.779	901.63
409.156	908.18
409.534	932.81
409.912	944.11
410.29	968.29
410.667	962.42
411.045	984.34
411.422	996.54
411.8	1001.29
412.178	1006.94
412.555	1030.21
412.933	1022.08
413.31	1065.92
413.687	1099.14
414.065	1086.93
414.442	1120.15
414.819	1115.86
415.197	1110.21
415.574	1166.93
415.951	1144.11
416.328	1176.2
416.705	1171.23
417.082	1182.53
417.46	1217.1
417.837	1206.03
418.214	1218.91
418.591	1235.18
418.967	1255.29
419.344	1248.29
419.721	1244.44
420.098	1266.82
420.475	1302.07
420.852	1310.88
421.228	1339.13
421.605	1333.48
421.982	1375.06
422.358	1368.28
422.735	1384.33
423.111	1368.96
423.488	1420.26
423.864	1407.15
424.241	1444.21
424.617	1455.74
424.994	1469.98
425.37	1471.56
425.746	1499.35
426.123	1496.87
426.499	1533.25
426.875	1528.96
427.251	1560.14
427.627	1632.91
428.003	1596.07
428.379	1630.88
428.756	1642.85
429.132	1679.46
429.507	1694.38
429.883	1702.29
430.259	1734.6
430.635	1755.17
431.011	1770.53
431.387	1848.72
431.763	1832.23
432.138	1860.47
432.514	1883.07
432.89	1883.07
433.265	1931.21
433.641	1952.22
434.016	1963.52
434.392	2015.95
434.767	1986.12
435.143	2054.37
435.518	2079
435.894	2068.83
436.269	2137.08
436.644	2154.7
437.02	2154.03
437.395	2167.36
437.77	2196.28
438.145	2244.64
438.52	2248.49
438.895	2254.59
439.271	2304.98
439.646	2314.7
440.021	2350.4
440.395	2356.51
440.77	2380.46
441.145	2380.23
441.52	2444.41
441.895	2434.24
442.27	2481.25
442.645	2465.2
443.019	2510.17
443.394	2526.44
443.769	2516.73
444.143	2525.54
444.518	2590.17
444.892	2597.18
445.267	2630.17
445.641	2629.49
446.016	2658.42
446.39	2652.32
446.764	2700.68
447.139	2680.57
447.513	2702.49
447.887	2711.98
448.262	2737.51
448.636	2775.48
449.01	2785.2
449.384	2853.67
449.758	2868.81
450.132	2878.98
450.506	2899.99
450.88	2934.12
451.254	2965.76
451.628	2948.58
452.002	3032.19
452.376	3040.33
452.75	3057.5
453.123	3100.89
453.497	3163.04
453.871	3171.85
454.244	3213.66
454.618	3253.66
454.992	3322.58
455.365	3316.03
455.739	3363.49
456.112	3409.59
456.486	3476.02
456.859	3505.63
457.232	3591.28
457.606	3533.88
457.979	3617.26
458.352	3666.08
458.725	3700.88
459.099	3740.65
459.472	3830.82
459.845	3863.58
460.218	3912.17
460.591	3926.18
460.964	3998.5
461.337	4069.46
461.71	4129.79
462.083	4165.72
462.456	4165.05
462.829	4217.93
463.201	4302.9
463.574	4318.26
463.947	4403.91
464.32	4499.05
464.692	4511.48
465.065	4541.08
465.438	4626.73
465.81	4643.9
466.183	4734.75
466.555	4854.75
466.928	4903.11
467.3	4846.84
467.672	4942.43
468.045	5081.86
468.417	5123.21
468.789	5109.88
469.161	5207.73
469.534	5276.2
469.906	5413.83
470.278	5452.47
470.65	5541.73
471.022	5634.61
471.394	5695.4
471.766	5773.82
472.138	5830.09
472.51	5948.73
472.882	6023.53
473.253	6105.33
473.625	6192.56
473.997	6327.02
474.369	6374.25
474.74	6413.57
475.112	6579.9
475.484	6681.36
475.855	6764.53
476.227	6853.34
476.598	7028.7
476.97	7070.73
477.341	7299.88
477.713	7392.98
478.084	7488.35
478.455	7673.65
478.827	7674.11
479.198	7909.58
479.569	7943.93
479.94	8202.45
480.311	8216.01
480.682	8410.81
481.053	8560.86
481.424	8742.33
481.795	8861.87
482.166	8965.37
482.537	9040.62
482.908	9237.23
483.279	9422.31
483.65	9536.2
484.021	9737.33
484.391	9929.19
484.762	10063.2
485.133	10065
485.503	10248.28
485.874	10490.53
486.244	10524.43
486.615	10820.01
486.985	10917.18
487.356	11129.16
487.726	11172.09
488.097	11408.47
488.467	11517.39
488.837	11649.82
489.207	11830.16
489.578	12050.94
489.948	12096.36
490.318	12313.76
490.688	12382.46
491.058	12517.37
491.428	12692.51
491.798	12883.91
492.168	13164.13
492.538	13214.75
492.908	13325.26
493.278	13577
493.648	13454.97
494.017	13776.09
494.387	13862.87
494.757	13988.74
495.126	14149.64
495.496	14183.54
495.866	14315.51
496.235	14546.02
496.605	14620.59
496.974	14668.05
497.344	14768.38
497.713	14887.93
498.082	15052.22
498.452	15210.86
498.821	15403.62
499.19	15354.81
499.559	15519.1
499.928	15602.03
500.298	15769.94
500.667	16008.35
501.036	15931.06
501.405	16080.66
501.774	16121.79
502.143	16317.95
502.512	16496.02
502.88	16617.37
503.249	16575.57
503.618	16754.55
503.987	16848.33
504.356	16959.96
504.724	16991.6
505.093	17194.53
505.462	17245.15
505.83	17438.37
506.199	17525.37
506.567	17772.15
506.936	17825.48
507.304	18121.74
507.672	18205.13
508.041	18181.17
508.409	18430.89
508.777	18527.61
509.145	18790.88
509.514	18791.1
509.882	18932.34
510.25	18880.82
510.618	19148.83
510.986	19256.17
511.354	19382.5
511.722	19575.94
512.09	19705.2
512.458	19689.16
512.826	19935.93
513.193	19918.53
513.561	20136.83
513.929	20314.23
514.297	20448.69
514.664	20650.26
515.032	20767.55
515.4	20998.95
515.767	21029.01
516.135	21295.22
516.502	21134.32
516.869	21536.79
517.237	21714.64
517.604	21671.25
517.972	21996.44
518.339	22099.26
518.706	22139.71
519.073	22353.49
519.44	22575.18
519.808	22835.06
520.175	22921.16
520.542	23149.41
520.909	23327.48
521.276	23328.16
521.643	23645.66
522.009	23860.12
522.376	24065.77
522.743	24163.39
523.11	24434.57
523.477	24693.77
523.843	24761.79
524.21	25086.08
524.577	25217.6
524.943	25439.97
525.31	25596.12
525.676	25885.38
526.043	25925.6
526.409	26085.6
526.776	26319.49
527.142	26480.62
527.508	26684
527.874	26881.28
528.241	27091.67
528.607	27039.47
528.973	27531.21
529.339	27443.08
529.705	27813.92
530.071	27959.67
530.437	28038.09
530.803	28179.33
531.169	28450.73
531.535	28392.66
531.901	28598.98
532.267	28717.62
532.632	29023.83
532.998	29106.76
533.364	29210.71
533.73	29329.58
534.095	29576.36
534.461	29742.9
534.826	29918.49
535.192	29917.36
535.557	30241.87
535.923	30332.27
536.288	30483.22
536.653	30600.96
537.019	30508.99
537.384	30794.4
537.749	31020.84
538.114	30888.19
538.479	31019.93
538.845	31322.3
539.21	31134.73
539.575	31341.73
539.94	31415.85
540.305	31724.1
540.67	31679.8
541.034	31856.97
541.399	31949.85
541.764	32101.03
542.129	32161.37
542.494	32288.15
542.858	32421.25
543.223	32468.03
543.587	32738.53
543.952	32823.73
544.316	32938.3
544.681	32810.17
545.045	33175.13
545.41	33324.05
545.774	33432.75
546.138	33332.87
546.503	33593.65
546.867	33637.04
547.231	33945.96
547.595	33943.02
547.959	34034.77
548.324	34067.31
548.688	34147.76
549.052	34343.91
549.416	34358.15
549.779	34501.65
550.143	34674.53
550.507	34852.15
550.871	34964.24
551.235	34968.3
551.599	35159.03
551.962	35391.8
552.326	35350.67
552.689	35627.27
553.053	35588.85
553.417	35582.52
553.78	36124.88
554.143	35977.32
554.507	36305.22
554.87	36342.05
555.234	36745.43
555.597	36579.33
555.96	36784.08
556.323	37037.4
556.686	37103.61
557.05	37389.26
557.413	37423.38
557.776	37606.2
558.139	37913.76
558.502	37908.57
558.865	38078.73
559.228	38348.33
559.59	38490.7
559.953	38515.56
560.316	38774.08
560.679	38917.8
561.041	39176.33
561.404	39376.55
561.767	39525.25
562.129	39461.74
562.492	40009.3
562.854	39970.21
563.217	39941.28
563.579	40156.42
563.941	40468.95
564.304	40621.26
564.666	40983.29
565.028	41063.74
565.39	41259.89
565.753	41527.91
566.115	41528.58
566.477	41740.1
566.839	41971.06
567.201	42098.06
567.563	42218.96
567.925	42599.29
568.287	42521.78
568.648	42558.84
569.01	42976
569.372	43268.42
569.734	43271.14
570.095	43645.59
570.457	43739.37
570.819	43908.18
571.18	43973.49
571.542	44286.48
571.903	44493.03
572.265	44521.5
572.626	44742.96
572.987	44787.48
573.349	45017.08
573.71	45193.35
574.071	45275.83
574.432	45310.18
574.794	45660
575.155	45792.2
575.516	45717.4
575.877	45881.69
576.238	45951.07
576.599	46106.77
576.96	46078.97
577.32	46140.21
577.681	46391.51
578.042	46480.32
578.403	46566.42
578.763	46491.62
579.124	46667.43
579.485	46863.58
579.845	47109.23
580.206	47033.98
580.566	46813.19
580.927	47076.46
581.287	47150.58
581.648	47076.91
582.008	47241.88
582.368	47203.46
582.728	47480.97
583.089	47265.83
583.449	47294.53
583.809	47420.86
584.169	47573.17
584.529	47450.24
584.889	47765.71
585.249	47609.78
585.609	47393.97
585.969	47759.15
586.329	47476.22
586.688	47694.75
587.048	47553.06
587.408	47621.08
587.768	47571.36
588.127	47560.74
588.487	47590.8
588.846	47858.81
589.206	47532.72
589.565	47664.02
589.925	47847.29
590.284	47674.18
590.643	47595.09
591.003	47796.22
591.362	47912.14
591.721	47891.58
592.08	47828.76
592.44	48004.8
592.799	47826.04
593.158	47850.9
593.517	47783.79
593.876	47997.11
594.235	47934.74
594.593	47894.52
594.952	48047.06
595.311	48021.07
595.67	48013.61
596.029	48294.28
596.387	48198.01
596.746	48245.92
597.104	48009.09
597.463	48055.19
597.822	48212.7
598.18	48080.5
598.538	48038.69
598.897	48320.95
599.255	48111.91
599.613	48610.2
599.972	48410.44
600.33	48421.28
600.688	48301.06
601.046	48390.1
601.404	48514.84
601.762	48418.35
602.12	48729.3
602.478	48656.76
602.836	48731.11
603.194	48563.2
603.552	48622.63
603.91	48494.5
604.268	48869.86
604.625	48572.24
604.983	48768.84
605.341	48641.39
605.698	48885.68
606.056	48784.21
606.413	48801.61
606.771	48746.02
607.128	48980.59
607.485	48776.3
607.843	48833.93
608.2	49100.81
608.557	49223.97
608.914	48982.62
609.272	49171.55
609.629	49220.13
609.986	49431.2
610.343	49153.47
610.7	49475.27
611.057	49375.61
611.414	49253.58
611.771	49348.49
612.127	49373.8
612.484	49407.25
612.841	49466.68
613.198	49364.76
613.554	49501.25
613.911	49776.73
614.267	49705.09
614.624	49712.55
614.98	49835.71
615.337	50023.95
615.693	49959.1
616.05	49960.68
616.406	50139.88
616.762	49957.06
617.118	50007.91
617.475	50025.08
617.831	50036.83
618.187	50164.06
618.543	50131.29
618.899	50319.09
619.255	50265.98
619.611	50311.63
619.967	50387.79
620.323	50456.48
620.678	50244.29
621.034	50240.9
621.39	50179.43
621.746	50209.71
622.101	50627.33
622.457	50245.19
622.812	50425.98
623.168	50340.55
623.523	50305.75
623.879	50380.78
624.234	50172.88
624.589	50338.75
624.945	50308.92
625.3	50292.87
625.655	50263.27
626.01	50377.16
626.365	50356.15
626.72	50268.24
627.075	50288.13
627.43	50230.05
627.785	50290.61
628.14	50331.06
628.495	50255.81
628.85	50324.51
629.205	50155.02
629.559	50401.12
629.914	50161.8
630.269	50228.02
630.623	50233.89
630.978	50150.28
631.332	50222.37
631.687	50185.3
632.041	50079.54
632.396	50107.57
632.75	50064.63
633.104	49961.36
633.459	49809.72
633.813	49805.2
634.167	49776.28
634.521	49747.8
634.875	49740.57
635.229	49727.92
635.583	49518.88
635.937	49520.92
636.291	49457.64
636.645	49421.48
636.999	49485.89
637.352	49694.24
637.706	49334.71
638.06	49433.91
638.413	49275.95
638.767	49231.43
639.121	49282.05
639.474	49049.74
639.828	48984.21
640.181	49050.87
640.534	48923.42
640.888	48877.54
641.241	48694.72
641.594	48689.3
641.947	48774.04
642.301	48692.01
642.654	48714.61
643.007	48585.8
643.36	48504.67
643.713	48506.25
644.066	48562.75
644.419	48324.34
644.771	48058.13
645.124	47804.58
645.477	47629.89
645.83	47380.86
646.182	47217.47
646.535	47044.37
646.888	47252.05
647.24	46934.99
647.593	47158.49
647.945	47026.74
648.298	46858.61
648.65	46762.12
649.002	46727.32
649.355	46845.73
649.707	46818.16
650.059	46877.37
650.411	47291.82
650.763	47297.92
651.115	47746.27
651.467	47443.68
651.819	47468.09
652.171	47430.57
652.523	47338.15
652.875	47362.55
653.227	47089.11
653.578	47385.15
653.93	47270.13
654.282	47108.1
654.633	46957.82
654.985	47122.79
655.337	47168.21
655.688	47086.86
656.039	47035.11
656.391	46825.39
656.742	46949.46
657.094	47000.08
657.445	47003.02
657.796	46876.01
658.147	46705.62
658.498	46703.59
658.849	46749.24
659.2	46817.26
659.551	46693.65
659.902	46799.86
660.253	46725.28
660.604	46784.04
660.955	46441.45
661.306	46620.2
661.656	46497.04
662.007	46465.18
662.358	46419.75
662.708	46510.83
663.059	46529.36
663.409	46297.27
663.76	46580.43
664.11	46418.4
664.461	46452.97
664.811	46591.95
665.161	46560.54
665.511	46333.88
665.862	46507.44
666.212	46590.15
666.562	46508.79
666.912	46433.54
667.262	46244.17
667.612	46372.07
667.962	46334.78
668.312	46180.44
668.662	46368
669.011	46265.63
669.361	46161
669.711	46069.93
670.06	46005.75
670.41	46058.18
670.76	45888.47
671.109	46140.21
671.459	46080.55
671.808	45882.37
672.157	46076.71
672.507	45782.48
672.856	45869.71
673.205	45917.62
673.554	45972.08
673.904	45918.52
674.253	45939.99
674.602	45884.17
674.951	45374.36
675.3	45059.79
675.649	45710.17
675.998	45714.46
676.346	45759.21
676.695	45790.39
677.044	45414.81
677.393	45403.28
677.741	45497.07
678.09	45397.86
678.438	45422.27
678.787	45348.14
679.135	45311.08
679.484	45062.95
679.832	45316.51
680.181	44982.05
680.529	45144.08
680.877	45115.16
681.225	44987.02
681.573	45205.55
681.922	44841.04
682.27	44772.79
682.618	44789.29
682.966	44698.22
683.314	44798.33
683.661	44512.46
684.009	44267.49
684.357	44299.58
684.705	44118.57
685.053	44149.98
685.4	44122.19
685.748	43955.64
686.095	43897.11
686.443	43624.8
686.79	43611.47
687.138	43731.69
687.485	43659.37
687.832	43474.97
688.18	43367.18
688.527	43313.4
688.874	43235.88
689.221	43163.57
689.568	43131.25
689.915	42934.87
690.262	42896.91
690.609	42761.77
690.956	42777.82
691.303	42836.57
691.65	42620.76
691.997	42450.59
692.344	42237.27
692.69	42245.17
693.037	42143.26
693.383	41940.78
693.73	42019.87
694.077	41806.99
694.423	41875.69
694.769	41789.14
695.116	41665.08
695.462	41694.68
695.808	41537.62
696.155	41557.51
696.501	41300.11
696.847	41075.71
697.193	40985.55
697.539	41116.62
697.885	40676.85
698.231	40596.18
698.577	40572.22
698.923	40631.43
699.269	40338.33
699.614	40104.21
699.96	40233.48
700.306	40130.88
700.651	39979.47
700.997	39708.74
701.342	39636.66
701.688	39698.35
702.033	39439.82
702.379	39311.69
702.724	39282.54
703.069	39266.04
703.415	38767.53
703.76	38963.9
704.105	38889.78
704.45	38689.11
704.795	38451.6
705.14	38340.64
705.485	38321.89
705.83	38249.57
706.175	38286.18
706.52	38107.66
706.865	38083.25
707.209	37915.12
707.554	37812.52
707.899	37904.05
708.243	37621.12
708.588	37514
708.932	37443.27
709.277	37382.03
709.621	37413.66
709.966	37082.37
710.31	37300.22
710.654	37053.67
710.998	37095.93
711.342	37053.45
711.687	36947.01
712.031	36842.6
712.375	36649.62
712.719	36723.51
713.063	36454.82
713.407	36743.85
713.75	36377.98
714.094	36498.88
714.438	36352
714.782	36177.99
715.125	36049.63
715.469	36017.77
715.812	35836.53
716.156	35828.85
716.499	35830.65
716.843	35825.46
717.186	35675.86
717.53	35831.56
717.873	35705.23
718.216	35530.1
718.559	35299.37
718.902	35208.98
719.246	35205.81
719.589	35192.48
719.932	35023.9
720.275	34989.55
720.617	34902.99
720.96	34876.1
721.303	34881.98
721.646	34880.17
721.989	34695.09
722.331	34774.86
722.674	34603.79
723.016	34585.94
723.359	34480.18
723.701	34330.13
724.044	34168.55
724.386	33977.14
724.729	34310.69
725.071	34169.91
725.413	33943.02
725.755	34060.3
726.097	33822.57
726.439	33639.75
726.782	33784.61
727.124	33822.12
727.465	33494.9
727.807	33575.35
728.149	33383.71
728.491	33246.09
728.833	33382.13
729.175	33338.97
729.516	33195.24
729.858	33113.21
730.199	33144.17
730.541	32978.3
730.882	32844.29
731.224	33117.5
731.565	32868.92
731.906	32901.24
732.248	32885.42
732.589	32752.54
732.93	32619.89
733.271	32454.25
733.612	32690.85
733.953	32635.94
734.294	32476.84
734.635	32340.8
734.976	32444.08
735.317	32250.41
735.658	32244.08
735.999	32209.96
736.339	32117.31
736.68	32169.51
737.021	32152.11
737.361	32023.07
737.702	31968.38
738.042	31854.94
738.383	31756.86
738.723	31766.81
739.063	31746.92
739.404	31754.15
739.744	31680.25
740.084	31539.69
740.424	31685.23
740.764	31437.78
741.104	31593.03
741.444	31382.86
741.784	31184.67
742.124	31305.58
742.464	31276.2
742.804	31188.74
743.143	31146.71
743.483	31002.98
743.823	30912.37
744.162	30918.47
744.502	31007.05
744.841	30766.83
745.181	30921.18
745.52	30811.58
745.86	30684.8
746.199	30538.36
746.538	30710.11
746.877	30726.83
747.216	30627.17
747.556	30582.88
747.895	30603.22
748.234	30254.76
748.573	30347.18
748.911	30184.93
749.25	30269.44
749.589	30139.73
749.928	30078.26
750.267	30118.49
750.605	29998.94
750.944	29855.67
751.283	29752.62
751.621	29803.92
751.96	29552.63
752.298	29569.8
752.636	29520.54
752.975	29334.1
753.313	29301.56
753.651	29370.48
753.989	29230.15
754.327	28995.81
754.666	28969.82
755.004	28994.68
755.342	29039.42
755.679	29006.2
756.017	28744.29
756.355	28832.42
756.693	28659.77
757.031	28785.19
757.368	28504.97
757.706	28510.85
758.044	28450.06
758.381	28425.2
758.719	28225.43
759.056	28286.45
759.394	28254.81
759.731	27947.47
760.068	27957.19
760.405	27809.62
760.743	27669.96
761.08	27702.28
761.417	27567.14
761.754	27537.99
762.091	27349.07
762.428	27342.97
762.765	27209.86
763.102	27317.43
763.438	27054.16
763.775	26938.91
764.112	27143.42
764.449	26944.56
764.785	26813.04
765.122	26609.65
765.458	26584.8
765.795	26605.59
766.131	26510.67
766.467	26352.26
766.804	26232.49
767.14	26059.39
767.476	26106.16
767.812	26008.31
768.148	26049.44
768.485	25753.86
768.821	25630.24
769.157	25644.93
769.492	25607.19
769.828	25454.2
770.164	25220.09
770.5	25204.72
770.836	25214.21
771.171	25020.09
771.507	24936.7
771.842	24772.41
772.178	24761.11
772.513	24702.58
772.849	24612.19
773.184	24508.69
773.519	24443.61
773.855	24394.12
774.19	24187.57
774.525	24164.07
774.86	24141.02
775.195	23911.65
775.53	23937.86
775.865	23708.49
776.2	23538.1
776.535	23406.8
776.87	23524.54
777.205	23364.09
777.539	23221.49
777.874	23280.48
778.209	23015.85
778.543	22985.79
778.878	22914.61
779.212	22877.77
779.547	22710.77
779.881	22764.56
780.215	22615.63
780.55	22636.88
780.884	22470.78
781.218	22424
781.552	22360.73
781.886	22241.86
782.22	22071.24
782.554	22054.29
782.888	21831.93
783.222	21833.51
783.556	21736.56
783.889	21728.65
784.223	21495.89
784.557	21551.03
784.89	21507.19
785.224	21412.28
785.557	21220.42
785.891	21203.69
786.224	21200.98
786.558	21097.93
786.891	20837.6
787.224	20837.83
787.557	20835.12
787.891	20784.27
788.224	20638.06
788.557	20690.94
788.89	20712.18
789.223	20542.02
789.556	20434
789.888	20332.53
790.221	20329.82
790.554	20137.28
790.887	20161.24
791.219	20128.02
791.552	20131.41
791.884	19889.83
792.217	19822.26
792.549	19776.61
792.882	19624.07
793.214	19536.85
793.546	19601.93
793.879	19464.76
794.211	19349.05
794.543	19469.5
794.875	19298.21
795.207	19360.35
795.539	19203.97
795.871	19099.12
796.203	19073.58
796.535	18856.18
796.867	18833.13
797.198	18809.86
797.53	18849.86
797.862	18629.3
798.193	18653.48
798.525	18451.68
798.856	18561.73
799.188	18325.58
799.519	18244.68
799.85	18187.5
800.182	18206.03
800.513	18252.36
800.844	18005.13
801.175	18136.2
801.506	18068.41
801.837	17938.02
802.168	17918.36
802.499	17958.81
802.83	17740.73
803.161	17749.77
803.491	17704.12
803.822	17636.33
804.153	17499.84
804.483	17347.98
804.814	17411.48
805.145	17352.27
805.475	17263.68
805.805	17299.39
806.136	17291.03
806.466	17188.43
806.796	17127.64
807.126	17005.16
807.457	16891.94
807.787	16835.22
808.117	16760.87
808.447	16929
808.777	16870.02
809.107	16761.78
809.436	16704.6
809.766	16674.55
810.096	16601.33
810.426	16490.82
810.755	16532.63
811.085	16406.76
811.414	16425.29
811.744	16297.38
812.073	16235.24
812.403	16339.19
812.732	16232.07
813.061	16235.46
813.39	16085.64
813.719	16062.59
814.049	16125.18
814.378	16042.25
814.707	15980.55
815.036	15942.14
815.365	15902.59
815.693	15670.51
816.022	15750.05
816.351	15679.55
816.68	15502.15
817.008	15718.64
817.337	15532.2
817.665	15470.29
817.994	15525.43
818.322	15515.71
818.651	15496.5
818.979	15376.05
819.307	15334.47
819.636	15379.67
819.964	15327.24
820.292	15380.12
820.62	15263.29
820.948	15219.9
821.276	15301.25
821.604	15267.8
821.932	15227.35
822.259	15221.7
822.587	15212.66
822.915	15184.19
823.243	15199.56
823.57	15173.57
823.898	15136.96
824.225	15124.31
824.553	15146.23
824.88	15091.76
825.207	15215.6
825.535	15094.48
825.862	15141.25
826.189	15082.72
826.516	15189.16
826.843	15150.97
827.17	15182.84
827.497	15215.83
827.824	15239.1
828.151	15298.76
828.478	15162.72
828.805	15176.51
829.131	15070.52
829.458	15157.53
829.785	15050.86
830.111	14998.66
830.438	15153.91
830.764	15082.27
831.09	15095.38
831.417	14976.96
831.743	15031.65
832.069	15163.85
832.395	15029.17
832.722	15126.57
833.048	14981.48
833.374	15080.24
833.7	14945.33
834.026	14912.79
834.351	14980.58
834.677	14941.94
835.003	14981.26
835.329	14924.99
835.654	14937.64
835.98	14840.92
836.306	14823.52
836.631	14778.1
836.956	14887.7
837.282	14922.05
837.607	14809.51
837.932	14713.47
838.258	14734.94
838.583	14826.01
838.908	14705.56
839.233	14704.43
839.558	14667.37
839.883	14610.19
840.208	14628.95
840.533	14577.2
840.858	14549.18
841.182	14609.29
841.507	14606.81
841.832	14470.31
842.156	14415.17
842.481	14575.85
842.805	14525
843.13	14449.52
843.454	14393.03
843.778	14330.88
844.103	14285.01
844.427	14276.19
844.751	14300.82
845.075	14328.39
845.399	14284.33
845.723	14113.71
846.047	14149.42
846.371	14045.01
846.695	13899.71
847.019	13925.47
847.343	13869.42
847.666	13796.88
847.99	13702.65
848.313	13709.2
848.637	13631.92
848.96	13602.09
849.284	13556.44
849.607	13419.94
849.931	13443.67
850.254	13373.17
850.577	13250.46
850.9	13191.25
851.223	13248.87
851.546	13061.54
851.869	13004.59
852.192	13101.08
852.515	12976.79
852.838	12899.05
853.161	12918.94
853.483	12915.55
853.806	12774.54
854.129	12727.53
854.451	12699.06
854.774	12653.41
855.096	12608.89
855.419	12615.9
855.741	12603.47
856.063	12532.28
856.385	12489.12
856.708	12481.89
857.03	12373.64
857.352	12445.96
857.674	12414.55
857.996	12462.23
858.318	12337.71
858.64	12260.43
858.961	12259.07
859.283	12159.19
859.605	12173.42
859.926	12182.91
860.248	12115.8
860.57	12062.69
860.891	12131.39
861.212	12088.45
861.534	12043.93
861.855	12021.79
862.176	12017.49
862.498	11982.02
862.819	12052.3
863.14	11959.64
863.461	11979.08
863.782	11881.23
864.103	11921.9
864.424	11876.48
864.745	11894.33
865.065	11797.16
865.386	11800.55
865.707	11813.43
866.027	11781.57
866.348	11799.87
866.668	11829.03
866.989	11704.73
867.309	11664.28
867.63	11779.53
867.95	11690.5
868.27	11585.42
868.59	11636.49
868.91	11573.66
869.23	11605.53
869.55	11494.8
869.87	11539.77
870.19	11562.59
870.51	11589.03
870.83	11579.09
871.15	11493.67
871.469	11463.61
871.789	11477.62
872.109	11501.58
872.428	11386.78
872.748	11354.24
873.067	11382.48
873.386	11358.98
873.706	11369.83
874.025	11271.53
874.344	11313.56
874.663	11396.95
874.982	11316.5
875.301	11268.14
875.62	11369.83
875.939	11246.89
876.258	11227.91
876.577	11223.84
876.896	11189.72
877.214	11219.1
877.533	11194.47
877.852	11185.2
878.17	11192.66
878.489	11186.78
878.807	11085.99
879.125	11127.12
879.444	11129.16
879.762	11114.24
880.08	11085.99
880.398	11050.29
880.716	11015.49
881.034	11018.2
881.352	11063.85
881.67	10985.43
881.988	10985.21
882.306	11013.23
882.624	10970.06
882.941	10882.38
883.259	10879.22
883.577	10880.58
883.894	10803.52
884.212	10832.44
884.529	10861.59
884.846	10792.89
885.164	10756.51
885.481	10713.8
885.798	10829.73
886.115	10688.04
886.432	10729.39
886.75	10647.14
887.067	10727.81
887.383	10670.19
887.7	10637.64
888.017	10608.94
888.334	10667.7
888.651	10582.96
888.967	10596.74
889.284	10478.33
889.6	10409.63
889.917	10453.24
890.233	10444.65
890.55	10370.76
890.866	10293.25
891.182	10315.84
891.498	10315.17
891.815	10279.69
892.131	10324.21
892.447	10221.16
892.763	10229.97
893.079	10225.45
893.395	10163.98
893.71	10175.06
894.026	10133.02
894.342	10072.01
894.657	10056.19
894.973	10041.73
895.289	9985.01
895.604	10038.11
895.92	9954.5
896.235	9954.95
896.55	9856.65
896.865	9843.99
897.181	9843.09
897.496	9854.16
897.811	9769.64
898.126	9724.9
898.441	9665.24
898.756	9644.45
899.071	9630.21
899.386	9539.14
899.7	9504.34
900.015	9505.92
900.33	9539.37
900.644	9486.04
900.959	9466.15
901.273	9453.04
901.588	9389.99
901.902	9329.43
902.216	9261.86
902.531	9319.94
902.845	9244.01
903.159	9164.69
903.473	9159.26
903.787	9181.41
904.101	9021.87
904.415	9119.49
904.729	9118.59
905.042	9039.95
905.356	9034.3
905.67	9000.85
905.984	8987.97
906.297	8933.96
906.611	8858.48
906.924	8889.67
907.237	8883.11
907.551	8824.36
907.864	8797.01
908.177	8766.73
908.491	8732.61
908.804	8662.1
909.117	8675.89
909.43	8641.54
909.743	8615.32
910.056	8617.13
910.368	8552.28
910.681	8481.77
910.994	8447.65
911.307	8421.88
911.619	8343.24
911.932	8403.35
912.244	8297.82
912.557	8280.64
912.869	8260.53
913.181	8214.43
913.494	8171.95
913.806	8174.88
914.118	8110.7
914.43	8025.74
914.742	8130.82
915.054	8069.58
915.366	8005.17
915.678	7993.19
915.99	7946.87
916.302	7834.55
916.613	7882.01
916.925	7823.93
917.236	7820.09
917.548	7726.53
917.859	7790.94
918.171	7690.38
918.482	7628.91
918.794	7673.88
919.105	7658.74
919.416	7561.57
919.727	7580.78
920.038	7572.41
920.349	7525.86
920.66	7517.27
920.971	7506.43
921.282	7462.13
921.593	7463.49
921.903	7305.53
922.214	7361.35
922.525	7357.73
922.835	7386.2
923.146	7283.61
923.456	7234.12
923.767	7214.23
924.077	7229.15
924.387	7164.52
924.697	7127
925.008	7128.36
925.318	7082.26
925.628	7051.98
925.938	7014.01
926.248	6952.09
926.558	6935.82
926.867	6868.48
927.177	6853.56
927.487	6923.39
927.796	6836.39
928.106	6802.04
928.416	6819.67
928.725	6782.38
929.034	6753.23
929.344	6821.47
929.653	6734.47
929.962	6663.29
930.271	6636.39
930.581	6615.6
930.89	6616.96
931.199	6499.22
931.508	6549.39
931.817	6558.88
932.125	6505.55
932.434	6523.63
932.743	6374.48
933.051	6388.49
933.36	6403.86
933.669	6306.68
933.977	6347.81
934.286	6307.36
934.594	6294.03
934.902	6196.4
935.21	6197.08
935.519	6203.86
935.827	6124.09
936.135	6143.52
936.443	6042.28
936.751	6117.76
937.059	6076.86
937.367	6004.77
937.674	5986.92
937.982	5943.98
938.29	5961.61
938.597	5906.92
938.905	5914.83
939.213	5886.36
939.52	5892.68
939.827	5843.42
940.135	5819.47
940.442	5789.64
940.749	5774.27
941.056	5756.42
941.363	5748.06
941.67	5689.3
941.977	5694.72
942.284	5614.05
942.591	5659.47
942.898	5629.41
943.205	5560.72
943.511	5561.39
943.818	5523.2
944.125	5530.66
944.431	5487.5
944.738	5438.01
945.044	5497.44
945.35	5435.29
945.657	5384
945.963	5382.19
946.269	5355.52
946.575	5349.87
946.881	5331.34
947.187	5294.73
947.493	5310.55
947.799	5247.96
948.105	5209.31
948.41	5180.84
948.716	5214.51
949.022	5159.82
949.327	5145.13
949.633	5088.86
949.938	5100.39
950.244	5108.98
950.549	5093.16
950.854	4997.11
951.16	5033.72
951.465	5007.96
951.77	4989.88
952.075	4939.71
952.38	4930.22
952.685	4945.82
952.99	4875.08
953.294	4881.86
953.599	4830.34
953.904	4801.87
954.209	4800.74
954.513	4826.27
954.818	4751.47
955.122	4778.14
955.426	4723.9
955.731	4746.73
956.035	4718.03
956.339	4719.38
956.643	4696.56
956.948	4634.86
957.252	4657.24
957.556	4602.1
957.86	4594.41
958.163	4570.01
958.467	4567.07
958.771	4569.78
959.075	4482.1
959.378	4489.56
959.682	4495.21
959.985	4467.64
960.289	4454.3
960.592	4444.13
960.896	4423.12
961.199	4373.63
961.502	4417.69
961.805	4372.72
962.108	4333.18
962.411	4286.17
962.714	4278.72
963.017	4284.59
963.32	4296.34
963.623	4246.17
963.926	4210.69
964.228	4179.28
964.531	4201.66
964.833	4160.75
965.136	4135.67
965.438	4139.28
965.741	4177.7
966.043	4164.59
966.345	4097.03
966.648	4096.57
966.95	4031.94
967.252	4024.26
967.554	4065.16
967.856	4024.03
968.158	3994.2
968.46	3975.22
968.761	3927.31
969.063	4019.74
969.365	3971.83
969.666	3946.75
969.968	3889.35
970.269	3883.25
970.571	3892.51
970.872	3874.66
971.174	3861.78
971.475	3830.59
971.776	3789.01
972.077	3795.56
972.378	3775.45
972.679	3782.91
972.98	3784.49
973.281	3714.89
973.582	3703.59
973.883	3683.02
974.183	3672.86
974.484	3674.66
974.785	3633.99
975.085	3649.58
975.386	3650.03
975.686	3619.98
975.986	3612.74
976.287	3603.03
976.587	3523.71
976.887	3537.94
977.187	3524.84
977.487	3497.04
977.787	3474.89
978.087	3462.01
978.387	3500.66
978.687	3488.45
978.987	3459.3
979.286	3411.17
979.586	3413.88
979.885	3450.26
980.185	3383.15
980.484	3347.44
980.784	3374.78
981.083	3364.39
981.382	3322.58
981.682	3288.68
981.981	3299.98
982.28	3287.1
982.579	3257.5
982.878	3278.97
983.177	3221.12
983.475	3233.54
983.774	3206.65
984.073	3180.44
984.372	3147.67
984.67	3184.51
984.969	3162.36
985.267	3161.91
985.566	3141.12
985.864	3101.8
986.162	3113.1
986.461	3077.84
986.759	3070.16
987.057	3063.38
987.355	3028.13
987.653	2998.97
987.951	3003.72
988.249	3023.83
988.547	3005.75
988.844	2992.2
989.142	2968.02
989.44	2974.57
989.737	2997.39
990.035	2947.68
990.332	2922.37
990.63	2871.29
990.927	2875.81
991.224	2867.68
991.521	2840.56
991.819	2841.69
992.116	2889.83
992.413	2798.08
992.71	2813.89
993.006	2760.11
993.303	2771.86
993.6	2803.05
993.897	2789.94
994.193	2778.87
994.49	2734.8
994.787	2714.24
995.083	2693.22
995.379	2673.56
995.676	2638.76
995.972	2682.82
996.268	2645.09
996.565	2646.67
996.861	2605.31
997.157	2596.05
997.453	2620.91
997.749	2587.01
998.044	2544.52
998.34	2599.44
998.636	2533.22
998.932	2542.26
999.227	2515.82
999.523	2507.91
999.818	2484.86
1000.114	2486.22
1000.409	2453.68
1000.704	2481.93
1001	2457.29
1001.295	2432.21
1001.59	2447.12
1001.885	2408.71
1002.18	2383.17
1002.475	2413.91
1002.77	2392.66
1003.065	2370.29
1003.359	2359.9
1003.654	2324.64
1003.949	2319.9
1004.243	2306.11
1004.538	2317.18
1004.832	2272.21
1005.127	2286
1005.421	2219.11
1005.715	2254.81
1006.009	2263.85
1006.304	2228.6
1006.598	2212.55
1006.892	2213.68
1007.186	2203.06
1007.48	2196.06
1007.773	2174.14
1008.067	2140.01
1008.361	2121.71
1008.655	2105.44
1008.948	2103.18
1009.242	2126.68
1009.535	2057.53
1009.829	2081.03
1010.122	2092.78
1010.415	2044.88
1010.708	2033.8
1011.001	2035.38
1011.295	2005.55
1011.588	2022.28
1011.881	1989.51
1012.173	1992
1012.466	2000.81
1012.759	1945.67
1013.052	1947.7
1013.344	1929.4
1013.637	1929.62
1013.93	1943.64
1014.222	1910.64
1014.514	1902.05
1014.807	1898.44
1015.099	1891.43
1015.391	1879.91
1015.683	1855.28
1015.976	1812.34
1016.268	1801.04
1016.56	1821.83
1016.851	1817.31
1017.143	1802.17
1017.435	1782.96
1017.727	1761.27
1018.018	1746.58
1018.31	1783.19
1018.602	1756.3
1018.893	1723.53
1019.185	1713.36
1019.476	1729.63
1019.767	1702.51
1020.058	1713.13
1020.35	1692.57
1020.641	1658.45
1020.932	1652.8
1021.223	1629.29
1021.514	1648.05
1021.804	1601.72
1022.095	1627.71
1022.386	1617.99
1022.677	1578.9
1022.967	1574.15
1023.258	1568.73
1023.548	1549.97
1023.839	1557.43
1024.129	1514.95
1024.419	1537.09
1024.709	1535.06
1025	1504.55
1025.29	1481.5
1025.58	1464.55
1025.87	1461.16
1026.16	1464.1
1026.449	1457.32
1026.739	1476.08
1027.029	1411.67
1027.319	1403.54
1027.608	1435.85
1027.898	1397.44
1028.187	1432.69
1028.477	1399.02
1028.766	1389.53
1029.055	1374.16
1029.344	1385.01
1029.634	1353.14
1029.923	1345.01
1030.212	1321.96
1030.501	1324.22
1030.79	1300.04
1031.078	1304.1
1031.367	1308.85
1031.656	1308.85
1031.945	1275.86
1032.233	1288.51
1032.522	1277.44
1032.81	1265.01
1033.099	1260.94
1033.387	1242.86
1033.675	1257.78
1033.963	1241.96
1034.251	1215.97
1034.54	1213.26
1034.828	1202.86
1035.116	1194.28
1035.403	1206.03
1035.691	1167.38
1035.979	1164.45
1036.267	1168.97
1036.554	1166.71
1036.842	1125.8
1037.129	1130.55
1037.417	1148.18
1037.704	1110.44
1037.992	1112.02
1038.279	1087.16
1038.566	1090.55
1038.853	1090.55
1039.14	1090.55
