Data from aluminium_surface_pro_back_FLMS001491_00050.txt Node
Date: Wed Feb 08 15:34:08 GMT 2017
User: dcchb
Spectrometer: FLMS00149
Trigger mode: 0
Integration Time (sec): 2.000000E-2
Scans to average: 10
Electric dark correction enabled: true
Nonlinearity correction enabled: false
Boxcar width: 0
XAxis mode: Wavelengths
Number of Pixels in Spectrum: 2048
>>>>>Begin Spectral Data<<<<<
341.393	0.11
341.776	0.11
342.16	0.11
342.543	-80.56
342.927	-58.87
343.31	-71.3
343.693	-76.04
344.077	-36.5
344.46	-68.13
344.843	-36.72
345.226	-57.06
345.61	-34.69
345.993	-22.49
346.376	-2.6
346.759	3.73
347.142	41.24
347.525	41.24
347.908	43.73
348.291	77.17
348.674	77.63
349.057	120.79
349.44	130.51
349.823	134.57
350.206	181.58
350.588	202.37
350.971	254.57
351.354	243.04
351.737	273.78
352.119	263.83
352.502	270.39
352.884	295.92
353.267	286.89
353.65	317.84
354.032	310.84
354.414	324.17
354.797	331.4
355.179	337.05
355.562	367.79
355.944	362.82
356.326	358.07
356.709	389.26
357.091	367.56
357.473	358.07
357.855	363.27
358.238	358.3
358.62	377.05
359.002	353.78
359.384	382.02
359.766	381.35
360.148	373.66
360.53	400.55
360.912	374.79
361.294	350.61
361.676	370.5
362.057	363.72
362.439	361.46
362.821	353.55
363.203	366.43
363.584	370.5
363.966	377.05
364.348	359.43
364.729	368.92
365.111	354.45
365.493	359.43
365.874	368.69
366.256	359.43
366.637	360.33
367.019	354.68
367.4	346.09
367.781	379.76
368.163	351.74
368.544	358.3
368.925	356.49
369.306	350.84
369.688	367.79
370.069	369.82
370.45	388.35
370.831	348.8
371.212	353.55
371.593	355.58
371.974	366.88
372.355	368.24
372.736	363.04
373.117	368.46
373.498	394
373.879	391.29
374.26	368.01
374.641	371.4
375.021	365.08
375.402	365.08
375.783	403.27
376.163	394.45
376.544	396.03
376.925	394.9
377.305	390.61
377.686	393.1
378.066	422.93
378.447	412.76
378.827	423.38
379.208	409.82
379.588	401.23
379.968	406.43
380.349	421.57
380.729	438.52
381.109	424.51
381.489	419.99
381.87	431.97
382.25	419.54
382.63	443.72
383.01	439.2
383.39	442.36
383.77	449.82
384.15	456.15
384.53	468.12
384.91	461.57
385.29	460.21
385.67	462.93
386.049	468.35
386.429	481.68
386.809	490.27
387.189	495.69
387.568	515.58
387.948	511.29
388.328	493.66
388.707	523.72
389.087	535.69
389.466	516.48
389.846	516.71
390.225	553.77
390.605	543.6
390.984	541.57
391.363	538.63
391.743	538.4
392.122	594.9
392.501	576.82
392.881	583.83
393.26	596.03
393.639	607.78
394.018	581.79
394.397	598.29
394.776	612.98
395.155	625.63
395.534	613.88
395.913	612.3
396.292	629.7
396.671	633.32
397.05	641.23
397.429	648.91
397.808	640.55
398.186	667.21
398.565	670.15
398.944	671.06
399.323	704.05
399.701	692.07
400.08	690.26
400.458	699.53
400.837	716.93
401.215	714.67
401.594	730.49
401.972	707.44
402.351	747.21
402.729	745.63
403.107	772.52
403.486	764.16
403.864	771.17
404.242	784.27
404.62	781.79
404.999	799.87
405.377	825.63
405.755	810.94
406.133	829.7
406.511	839.86
406.889	866.3
407.267	874.21
407.645	863.37
408.023	883.25
408.401	909.47
408.779	895.68
409.156	902.46
409.534	903.82
409.912	944.72
410.29	968.45
410.667	986.53
411.045	981.78
411.422	997.83
411.8	1003.48
412.178	1023.36
412.555	1047.54
412.933	1037.6
413.31	1070.82
413.687	1044.15
414.065	1058.16
414.442	1073.76
414.819	1101.55
415.197	1122.34
415.574	1144.49
415.951	1159.63
416.328	1173.87
416.705	1174.09
417.082	1190.59
417.46	1211.38
417.837	1216.8
418.214	1232.17
418.591	1240.08
418.967	1271.27
419.344	1265.39
419.721	1276.69
420.098	1269.23
420.475	1289.34
420.852	1292.51
421.228	1318.5
421.605	1314.65
421.982	1331.15
422.358	1336.58
422.735	1376.35
423.111	1368.89
423.488	1415.89
423.864	1402.11
424.241	1405.73
424.617	1452.5
424.994	1468.55
425.37	1459.96
425.746	1497.7
426.123	1483.46
426.499	1513.97
426.875	1525.95
427.251	1545.84
427.627	1604.14
428.003	1602.56
428.379	1620.86
428.756	1611.14
429.132	1670.8
429.507	1707.86
429.883	1715.55
430.259	1743.34
430.635	1738.15
431.011	1776.34
431.387	1802.55
431.763	1815.66
432.138	1851.59
432.514	1843.23
432.89	1836.67
433.265	1920.29
433.641	1937.46
434.016	1979.04
434.392	2002.09
434.767	2024.47
435.143	2047.97
435.518	2058.59
435.894	2086.84
436.269	2093.17
436.644	2156.21
437.02	2189.43
437.395	2186.95
437.77	2207.06
438.145	2240.73
438.52	2243.22
438.895	2275.08
439.271	2278.02
439.646	2339.71
440.021	2336.32
440.395	2358.47
440.77	2344.23
441.145	2391.91
441.52	2424.68
441.895	2435.76
442.27	2457.22
442.645	2431.46
443.019	2505.81
443.394	2496.77
443.769	2511.46
444.143	2487.05
444.518	2565.24
444.892	2556.2
445.267	2563.44
445.641	2605.24
446.016	2646.37
446.39	2682.98
446.764	2677.1
447.139	2671.23
447.513	2752.58
447.887	2744.9
448.262	2739.48
448.636	2733.83
449.01	2800.27
449.384	2832.35
449.758	2838.91
450.132	2883.2
450.506	2886.36
450.88	2941.28
451.254	2935.86
451.628	2998
452.002	3014.5
452.376	3022.41
452.75	3044.1
453.123	3094.49
453.497	3134.72
453.871	3146.7
454.244	3243.87
454.618	3268.73
454.992	3330.87
455.365	3312.34
455.739	3403.64
456.112	3389.63
456.486	3475.5
456.859	3504.2
457.232	3567.48
457.606	3573.8
457.979	3635.72
458.352	3678.66
458.725	3734.25
459.099	3735.16
459.472	3815.15
459.845	3851.09
460.218	3899.45
460.591	3903.74
460.964	3938.77
461.337	4039.1
461.71	4116.61
462.083	4176.5
462.456	4153.68
462.829	4202.49
463.201	4318.64
463.574	4327.23
463.947	4372.88
464.32	4445.87
464.692	4506.44
465.065	4515.7
465.438	4558.64
465.81	4621.46
466.183	4660.1
466.555	4786.2
466.928	4838.63
467.3	4862.13
467.672	4938.51
468.045	5057.16
468.417	5102.35
468.789	5075.46
469.161	5197.49
469.534	5279.3
469.906	5360.2
470.278	5437.48
470.65	5489.23
471.022	5582.57
471.394	5688.55
471.766	5733.52
472.138	5850.13
472.51	5943.01
472.882	6051.48
473.253	6101.42
473.625	6206.96
473.997	6280.63
474.369	6396.33
474.74	6464.12
475.112	6611.92
475.484	6687.17
475.855	6839.93
476.227	6827.96
476.598	7034.5
476.97	7112.47
477.341	7288.96
477.713	7396.08
478.084	7391.33
478.455	7630.42
478.827	7706.13
479.198	7930.98
479.569	7889.17
479.94	8173.46
480.311	8191.31
480.682	8446.22
481.053	8512.88
481.424	8723.27
481.795	8810.95
482.166	9000.78
482.537	9093.21
482.908	9247.55
483.279	9325.29
483.65	9616.13
484.021	9781.55
484.391	9867.65
484.762	9955.11
485.133	10029.91
485.503	10183.12
485.874	10381.08
486.244	10517.58
486.615	10788.98
486.985	10866.95
487.356	11089.76
487.726	11190.33
488.097	11421.06
488.467	11473.03
488.837	11668.05
489.207	11900.59
489.578	12002.74
489.948	12132.45
490.318	12321.14
490.688	12421.03
491.058	12593.91
491.428	12804.97
491.798	12889.49
492.168	13192.08
492.538	13213.55
492.908	13280.89
493.278	13548.23
493.648	13582.81
494.017	13784.16
494.387	13858.51
494.757	13964.49
495.126	14194.77
495.496	14244.48
495.866	14352.96
496.235	14541.88
496.605	14648.99
496.974	14770.12
497.344	14901.19
497.713	15058.02
498.082	15039.72
498.452	15238.58
498.821	15277.45
499.19	15392.48
499.559	15568.07
499.928	15733.48
500.298	15831.56
500.667	15983.65
501.036	15959.24
501.405	16119.24
501.774	16083.98
502.143	16344.09
502.512	16484.65
502.88	16574.59
503.249	16634.7
503.618	16720.35
503.987	16876.51
504.356	16946.79
504.724	17052.55
505.093	17114.47
505.462	17291.64
505.83	17407.79
506.199	17487.56
506.567	17786.31
506.936	17827.89
507.304	17992.41
507.672	18092.52
508.041	17985.4
508.409	18300.2
508.777	18341.78
509.145	18619.28
509.514	18569.57
509.882	18824.25
510.25	18916.68
510.618	19146.28
510.986	19131.36
511.354	19297.46
511.722	19502.43
512.09	19701.52
512.458	19714.85
512.826	19863.32
513.193	19984.67
513.561	20069.87
513.929	20269.64
514.297	20516.18
514.664	20565.45
515.032	20752.11
515.4	20974.7
515.767	21015.15
516.135	21231.65
516.502	21113.46
516.869	21529.04
517.237	21574.69
517.604	21620.56
517.972	21980.55
518.339	22093.77
518.706	22157.95
519.073	22390.48
519.44	22581.67
519.808	22796.12
520.175	22797.71
520.542	23084.7
520.909	23287.18
521.276	23218.94
521.643	23537.57
522.009	23725.36
522.376	23815.31
522.743	24147.73
523.11	24287.84
523.477	24544.55
523.843	24693.93
524.21	24918.55
524.577	25205.55
524.943	25369.16
525.31	25486.22
525.676	25717.63
526.043	25856.83
526.409	25973.67
526.776	26291.17
527.142	26530.26
527.508	26507.89
527.874	26872.4
528.241	26973.64
528.607	27031.04
528.973	27318.72
529.339	27360.98
529.705	27726.62
530.071	27913.5
530.437	28048.64
530.803	28293.38
531.169	28420.61
531.535	28430.55
531.901	28596.88
532.267	28781.28
532.632	28897.88
532.998	29082.06
533.364	29143.08
533.73	29430.07
534.095	29510.07
534.461	29688.82
534.826	30011.3
535.192	30063.73
535.557	30359.31
535.923	30187.12
536.288	30404.96
536.653	30598.18
537.019	30541.23
537.384	30715.01
537.749	30920.2
538.114	30904.84
538.479	31103.48
538.845	31138.5
539.21	31114.55
539.575	31351.83
539.94	31472.28
540.305	31623.01
540.67	31478.83
541.034	31741.2
541.399	31856.9
541.764	31916.56
542.129	32140.06
542.494	32122.66
542.858	32304.57
543.223	32313.16
543.587	32611.68
543.952	32462.76
544.316	32761.51
544.681	32672.25
545.045	32918.12
545.41	33028.62
545.774	33013.93
546.138	33078.57
546.503	33149.98
546.867	33299.8
547.231	33589.96
547.595	33740.24
547.959	33780.92
548.324	33801.48
548.688	33975.49
549.052	34079.44
549.416	34148.82
549.779	34345.88
550.143	34364.86
550.507	34570.73
550.871	34915.35
551.235	34787.22
551.599	35070.6
551.962	35043.03
552.326	35385.62
552.689	35456.13
553.053	35492.06
553.417	35556.92
553.78	36070.35
554.143	35802.79
554.507	36031.71
554.87	36019.05
555.234	36476.89
555.597	36220.86
555.96	36575.42
556.323	36734.74
556.686	36786.49
557.05	37172.02
557.413	37196.42
557.776	37333.82
558.139	37513.25
558.502	37603.64
558.865	37596.19
559.228	38120.24
559.59	38178.77
559.953	38122.5
560.316	38640.68
560.679	38698.08
561.041	38842.03
561.404	39096.26
561.767	39197.5
562.129	39135.36
562.492	39596.81
562.854	39341
563.217	39684.95
563.579	39709.35
563.941	40096.46
564.304	40242.22
564.666	40365.61
565.028	40714.3
565.39	40671.13
565.753	41096.21
566.115	41168.52
566.477	41358.8
566.839	41450.32
567.201	41808.51
567.563	41901.84
567.925	42098.44
568.287	42148.16
568.648	42217.99
569.01	42579.56
569.372	42766.67
569.734	42773.9
570.095	43048.7
570.457	43289.82
570.819	43236.49
571.18	43385.41
571.542	43786.76
571.903	43692.07
572.265	43989.69
572.626	44185.39
572.987	44165.51
573.349	44409.57
573.71	44449.57
574.071	44640.97
574.432	44591.03
574.794	44925.94
575.155	44890.46
575.516	44855.43
575.877	45195.53
576.238	45141.98
576.599	45509.88
576.96	45506.71
577.32	45446.15
577.681	45774.5
578.042	45835.07
578.403	45965.91
578.763	45933.37
579.124	46089.97
579.485	46269.18
579.845	46374.71
580.206	46368.39
580.566	46344.88
580.927	46486.12
581.287	46658.1
581.648	46562.05
582.008	46734.48
582.368	46582.39
582.728	46889.5
583.089	46756.62
583.449	46792.33
583.809	46807.02
584.169	46917.3
584.529	46837.98
584.889	47191.64
585.249	46844.31
585.609	46811.54
585.969	47073.23
586.329	47090.63
586.688	47097.63
587.048	47040.01
587.408	46941.03
587.768	47056.5
588.127	46961.82
588.487	47092.21
588.846	47343.5
589.206	47107.8
589.565	47240.9
589.925	47358.42
590.284	47329.04
590.643	47255.82
591.003	47320.68
591.362	47484.51
591.721	47348.02
592.08	47404.52
592.44	47542.59
592.799	47321.58
593.158	47334.01
593.517	47384.18
593.876	47446.78
594.235	47330.17
594.593	47440
594.952	47546.43
595.311	47502.37
595.67	47599.09
596.029	47697.16
596.387	47721.8
596.746	47811.51
597.104	47679.09
597.463	47725.19
597.822	47816.93
598.18	47738.52
598.538	47695.81
598.897	48000.21
599.255	47747.33
599.613	48260.76
599.972	47961.34
600.33	48139.86
600.688	47914.79
601.046	48089.47
601.404	48189.13
601.762	48037.49
602.12	48208.11
602.478	48218.96
602.836	48279.07
603.194	48127.44
603.552	48229.58
603.91	48084.27
604.268	48401.55
604.625	48206.98
604.983	48363.81
605.341	48208.56
605.698	48533.3
606.056	48456.69
606.413	48429.35
606.771	48559.74
607.128	48611.72
607.485	48461.44
607.843	48437.94
608.2	48699.4
608.557	48845.38
608.914	48678.61
609.272	48801.32
609.629	48930.35
609.986	49005.83
610.343	48826.63
610.7	49031.14
611.057	48925.38
611.414	48875.21
611.771	49067.07
612.127	49092.61
612.484	49204.92
612.841	49248.08
613.198	48976.68
613.554	49123.57
613.911	49398.59
614.267	49304.58
614.624	49346.16
614.98	49338.7
615.337	49547.06
615.693	49500.28
616.05	49448.53
616.406	49776.88
616.762	49462.77
617.118	49546.38
617.475	49549.77
617.831	49678.58
618.187	49684
618.543	49795.64
618.899	49882.87
619.255	49798.58
619.611	49752.48
619.967	49886.94
620.323	49938.23
620.678	49795.41
621.034	49779.14
621.39	49907.73
621.746	49703.44
622.101	50186.82
622.457	49966.26
622.812	50020.04
623.168	50059.36
623.523	49984.56
623.879	50197.44
624.234	49875.86
624.589	49990.89
624.945	50151.56
625.3	50090.1
625.655	50089.64
626.01	50024.11
626.365	50065.46
626.72	49945.69
627.075	50020.04
627.43	49966.26
627.785	49872.93
628.14	49911.34
628.495	49971
628.85	50006.03
629.205	49885.35
629.559	50030.44
629.914	49768.07
630.269	49863.21
630.623	49754.74
630.978	49722.42
631.332	49921.96
631.687	50001.96
632.041	49756.77
632.396	49841.29
632.75	49604.68
633.104	49612.59
633.459	49463.22
633.813	49506.83
634.167	49489.43
634.521	49469.09
634.875	49611.69
635.229	49297.35
635.583	49277.24
635.937	49138.71
636.291	49180.74
636.645	49167.18
636.999	49164.47
637.352	49159.5
637.706	48949.79
638.06	49111.36
638.413	49037.69
638.767	48881.31
639.121	48912.95
639.474	48665.27
639.828	48658.04
640.181	48934.42
640.534	48826.63
640.888	48786.4
641.241	48520.42
641.594	48679.96
641.947	48640.19
642.301	48722.67
642.654	48691.04
643.007	48708.21
643.36	48491.04
643.713	48418.27
644.066	48506.63
644.419	48336.02
644.771	48068.68
645.124	47819.65
645.477	47658.29
645.83	47411.75
646.182	47268.47
646.535	46912.33
646.888	47113.22
647.24	46982.15
647.593	47251.98
647.945	46990.97
648.298	46766.57
648.65	46857.86
649.002	46559.57
649.355	46771.31
649.707	46697.64
650.059	46855.83
650.411	47343.05
650.763	47328.59
651.115	47709.59
651.467	47480.9
651.819	47535.81
652.171	47420.11
652.523	47229.61
652.875	47377.17
653.227	47142.38
653.578	47371.97
653.93	47209.27
654.282	46970.18
654.633	46929.05
654.985	46935.83
655.337	46884.76
655.688	46870.29
656.039	47000.23
656.391	46696.51
656.742	46638.89
657.094	46934.02
657.445	46767.24
657.796	46886.11
658.147	46723.18
658.498	46608.83
658.849	46682.5
659.2	46534.26
659.551	46481.15
659.902	46639.79
660.253	46535.16
660.604	46699.68
660.955	46343.75
661.306	46516.18
661.656	46432.34
662.007	46317.77
662.358	46520.7
662.708	46495.39
663.059	46360.7
663.409	46141.95
663.76	46299.91
664.11	46339.23
664.461	46423.53
664.811	46309.86
665.161	46136.3
665.511	46215.17
665.862	46161.61
666.212	46321.15
666.562	46217.2
666.912	46135.17
667.262	46143.98
667.612	46062.63
667.962	46117.54
668.312	45948.74
668.662	46042.07
669.011	45899.7
669.361	46025.57
669.711	45881.39
670.06	45844.11
670.41	45852.01
670.76	45831.45
671.109	45912.35
671.459	45864.22
671.808	45808.63
672.157	45794.84
672.507	45639.36
672.856	45605.47
673.205	45699.93
673.554	45787.61
673.904	45510.1
674.253	45854.27
674.602	45640.49
674.951	44969.1
675.3	44825.83
675.649	45505.13
675.998	45221.75
676.346	45400.05
676.695	45473.04
677.044	45188.76
677.393	45229.21
677.741	45444.57
678.09	45097.91
678.438	45098.59
678.787	45123.22
679.135	45302.65
679.484	45022.66
679.832	45077.57
680.181	44804.81
680.529	45006.84
680.877	44841.65
681.225	44795.55
681.573	44890.01
681.922	44600.97
682.27	44521.88
682.618	44596.68
682.966	44377.7
683.314	44528.66
683.661	44267.2
684.009	44307.65
684.357	44058.39
684.705	44137.03
685.053	44170.93
685.4	44057.94
685.748	43864.5
686.095	43858.17
686.443	43769.13
686.79	43693.65
687.138	43764.16
687.485	43631.73
687.832	43377.05
688.18	43488.91
688.527	43275.13
688.874	43326.43
689.221	43208.92
689.568	43193.1
689.915	42943.16
690.262	42878.31
690.609	42857.07
690.956	42537.07
691.303	42734.13
691.65	42417.75
691.997	42463.18
692.344	42060.7
692.69	42054.15
693.037	42229.74
693.383	41867.71
693.73	42104.54
694.077	41626.36
694.423	41687.38
694.769	41446.03
695.116	41361.51
695.462	41444.9
695.808	41271.12
696.155	41237.67
696.501	40878.81
696.847	40923.78
697.193	40773.73
697.539	40877
697.885	40595.2
698.231	40597.01
698.577	40565.83
698.923	40382.55
699.269	40092.84
699.614	39934.88
699.96	39955.9
700.306	40005.84
700.651	39748.67
700.997	39693.31
701.342	39564.27
701.688	39357.5
702.033	39240.44
702.379	39233.21
702.724	39152.3
703.069	39134.9
703.415	38748.7
703.76	38858.07
704.105	38888.13
704.45	38790.96
704.795	38485.43
705.14	38356.39
705.485	38446.79
705.83	38152.56
706.175	38239.56
706.52	38216.06
706.865	38057.42
707.209	37925.67
707.554	37826.69
707.899	37835.05
708.243	37467.38
708.588	37440.26
708.932	37357.1
709.277	37361.39
709.621	37372.92
709.966	37082.08
710.31	37181.73
710.654	36883.66
710.998	36905.58
711.342	36905.58
711.687	36724.8
712.031	36656.32
712.375	36534.75
712.719	36651.8
713.063	36402.32
713.407	36497.23
713.75	36330.46
714.094	36231.93
714.438	36195.77
714.782	36213.85
715.125	35980.64
715.469	35938.83
715.812	35838.49
716.156	35584.49
716.499	35548.56
716.843	35637.14
717.186	35386.98
717.53	35525.51
717.873	35393.08
718.216	35376.81
718.559	35309.47
718.902	35014.11
719.246	34971.4
719.589	34919.87
719.932	34828.12
720.275	34812.76
720.617	34747.45
720.96	34752.87
721.303	34560.79
721.646	34609.15
721.989	34422.48
722.331	34521.47
722.674	34351.53
723.016	34399.21
723.359	34239.21
723.701	34189.04
724.044	34029.05
724.386	33893.01
724.729	33976.85
725.071	33963.74
725.413	33768.04
725.755	33884.42
726.097	33744.08
726.439	33439.23
726.782	33657.31
727.124	33812.33
727.465	33432.45
727.807	33589.06
728.149	33481.72
728.491	33280.14
728.833	33501.15
729.175	33184.55
729.516	33325.11
729.858	33256.87
730.199	33084.67
730.541	33076.76
730.882	32994.05
731.224	32998.57
731.565	32840.61
731.906	32789.08
732.248	32874.73
732.589	32692.59
732.93	32438.58
733.271	32603.1
733.612	32587.96
733.953	32561.06
734.294	32433.61
734.635	32240.4
734.976	32404.01
735.317	32143.67
735.658	32140.28
735.999	32068.2
736.339	32068.42
736.68	32090.57
737.021	31948.2
737.361	31879.95
737.702	31940.74
738.042	31729
738.383	31777.36
738.723	31781.88
739.063	31649.45
739.404	31689.22
739.744	31463.47
740.084	31399.06
740.424	31366.07
740.764	31308.44
741.104	31479.96
741.444	31340.53
741.784	31122.68
742.124	31257.82
742.464	31103.02
742.804	31067.77
743.143	31006.76
743.483	30960.88
743.823	30923.59
744.162	30923.37
744.502	30792.07
744.841	30636.37
745.181	30835.91
745.52	30497.62
745.86	30714.11
746.199	30569.25
746.538	30474.57
746.877	30455.58
747.216	30509.59
747.556	30244.06
747.895	30301.01
748.234	30136.04
748.573	30039.32
748.911	30128.13
749.25	30018.08
749.589	29941.47
749.928	29938.76
750.267	29972.21
750.605	29923.39
750.944	29824.41
751.283	29718.88
751.621	29661.71
751.96	29653.12
752.298	29556.4
752.636	29612.89
752.975	29369.74
753.313	29317.53
753.651	29459.9
753.989	29214.49
754.327	29304.88
754.666	29045.45
755.004	29174.71
755.342	29104.21
755.679	29018.11
756.017	28800.03
756.355	28788.96
756.693	28689.3
757.031	28814.72
757.368	28578.57
757.706	28490.66
758.044	28356.2
758.381	28419.48
758.719	28334.28
759.056	28227.85
759.394	27968.87
759.731	27911.7
760.068	27825.6
760.405	27837.35
760.743	27729.1
761.08	27791.02
761.417	27606.17
761.754	27573.85
762.091	27480.75
762.428	27413.4
762.765	27229.91
763.102	27358.94
763.438	27145.39
763.775	26903.36
764.112	26963.92
764.449	26961.21
764.785	26834.21
765.122	26664.27
765.458	26608.68
765.795	26566.87
766.131	26455.24
766.467	26358.06
766.804	26321
767.14	26019.09
767.476	26155.13
767.812	25993.33
768.148	26029.94
768.485	25792.88
768.821	25643.28
769.157	25652.32
769.492	25546.11
769.828	25411.87
770.164	25275.61
770.5	25338.2
770.836	25198.77
771.171	25012.79
771.507	25017.99
771.842	24846.47
772.178	24740.48
772.513	24684.44
772.849	24653.7
773.184	24557.66
773.519	24535.51
773.855	24474.05
774.19	24284.9
774.525	24158.8
774.86	24143.88
775.195	24060.72
775.53	23922.87
775.865	23806.49
776.2	23614.41
776.535	23520.4
776.87	23519.27
777.205	23310.01
777.539	23268.2
777.874	23253.96
778.209	23088.32
778.543	23027.3
778.878	22892.17
779.212	22821.66
779.547	22730.36
779.881	22701.21
780.215	22577.6
780.55	22651.72
780.884	22458.28
781.218	22302.35
781.552	22387.32
781.886	22323.59
782.22	22085.86
782.554	22012.87
782.888	21919.31
783.222	21840.44
783.556	21824.62
783.889	21758.18
784.223	21637.06
784.557	21518.64
784.89	21579.88
785.224	21475.48
785.557	21324.75
785.891	21292.89
786.224	21209.05
786.558	21299.67
786.891	21036.17
787.224	20901.26
787.557	20890.19
787.891	20831.88
788.224	20832.56
788.557	20755.5
788.89	20647.48
789.223	20520.03
789.556	20507.37
789.888	20398.67
790.221	20329.07
790.554	20233.93
790.887	20224.67
791.219	20085.46
791.552	20078.91
791.884	19952.36
792.217	19947.61
792.549	19818.35
792.882	19641.4
793.214	19548.3
793.546	19606.38
793.879	19482.09
794.211	19412.26
794.543	19423.11
794.875	19373.84
795.207	19406.83
795.539	19137.01
795.871	19269.44
796.203	19031.25
796.535	18925.27
796.867	18948.09
797.198	18812.27
797.53	18878.26
797.862	18732.5
798.193	18741.09
798.525	18520.98
798.856	18542.68
799.188	18367.99
799.519	18325.28
799.85	18243.25
800.182	18233.53
800.513	18133.87
800.844	18044.16
801.175	18101.78
801.506	18043.25
801.837	17960.77
802.168	17951.73
802.499	17946.53
802.83	17781.57
803.161	17722.81
803.491	17695.69
803.822	17598.29
804.153	17608.01
804.483	17422.03
804.814	17374.35
805.145	17362.14
805.475	17310.39
805.805	17246.21
806.136	17238.76
806.466	17228.59
806.796	17146.1
807.126	16967.8
807.457	16871.53
807.787	16948.37
808.117	16857.97
808.447	16768.49
808.777	16827.69
809.107	16742.27
809.436	16767.81
809.766	16722.16
810.096	16635.61
810.426	16502.28
810.755	16464.54
811.085	16543.41
811.414	16436.07
811.744	16337.31
812.073	16272.23
812.403	16307.71
812.732	16217.77
813.061	16152.91
813.39	16106.58
813.719	16069.97
814.049	16178.22
814.378	16081.95
814.707	15972.35
815.036	15909.75
815.365	15898.68
815.693	15723.77
816.022	15723.77
816.351	15722.86
816.68	15587.95
817.008	15693.26
817.337	15556.54
817.665	15578.46
817.994	15538.01
818.322	15492.36
818.651	15520.61
818.979	15440.61
819.307	15579.59
819.636	15399.71
819.964	15297.79
820.292	15372.59
820.62	15258.24
820.948	15279.49
821.276	15336.43
821.604	15356.55
821.932	15220.28
822.259	15270.45
822.587	15319.48
822.915	15285.36
823.243	15291.91
823.57	15164.23
823.898	15275.64
824.225	15147.74
824.553	15248.3
824.88	15122.65
825.207	15259.37
825.535	15204.01
825.862	15228.41
826.189	15246.72
826.516	15313.83
826.843	15257.11
827.17	15232.93
827.497	15185.93
827.824	15192.26
828.151	15185.7
828.478	15165.59
828.805	15167.62
829.131	15110.9
829.458	15083.78
829.785	15077.46
830.111	15106.38
830.438	15111.58
830.764	15090.79
831.09	15189.77
831.417	15023.22
831.743	15139.83
832.069	15062.32
832.395	15015.09
832.722	15067.51
833.048	15019.61
833.374	14985.26
833.7	14945.48
834.026	15037.01
834.351	14990
834.677	14956.33
835.003	15009.89
835.329	14956.56
835.654	14960.85
835.98	14832.27
836.306	14845.82
836.631	14761.53
836.956	14784.81
837.282	14850.57
837.607	14777.13
837.932	14731.93
838.258	14712.95
838.583	14732.83
838.908	14639.28
839.233	14651.71
839.558	14578.03
839.883	14491.71
840.208	14577.36
840.533	14572.61
840.858	14600.18
841.182	14502.78
841.507	14504.14
841.832	14462.33
842.156	14393.18
842.481	14521.54
842.805	14452.84
843.13	14422.56
843.454	14394.08
843.778	14241.32
844.103	14362.45
844.427	14264.6
844.751	14256.01
845.075	14275.67
845.399	14184.6
845.723	14061.89
846.047	14086.75
846.371	14047.2
846.695	13895.79
847.019	13892.63
847.343	13764.27
847.666	13702.13
847.99	13810.6
848.313	13706.19
848.637	13598.85
848.96	13548.91
849.284	13560.89
849.607	13414.9
849.931	13429.59
850.254	13316.15
850.577	13329.25
850.9	13256.49
851.223	13197.28
851.546	13115.7
851.869	12988.7
852.192	13126.77
852.515	12987.57
852.838	12990.51
853.161	13002.48
853.483	12945.99
853.806	12863.5
854.129	12831.87
854.451	12748.03
854.774	12753.22
855.096	12660.12
855.419	12629.84
855.741	12619.89
856.063	12600.69
856.385	12563.4
856.708	12548.71
857.03	12494.93
857.352	12508.26
857.674	12435.94
857.996	12305.1
858.318	12221.94
858.64	12288.15
858.961	12247.93
859.283	12275.27
859.605	12146.69
859.926	12217.87
860.248	12234.59
860.57	12111.21
860.891	12184.88
861.212	12088.83
861.534	12116.18
861.855	12027.14
862.176	11973.81
862.498	11980.36
862.819	11932.68
863.14	11918.9
863.461	11896.07
863.782	11850.2
864.103	11911.89
864.424	11885.22
864.745	11941.49
865.065	11746.92
865.386	11756.19
865.707	11738.34
866.027	11714.61
866.348	11696.3
866.668	11742.4
866.989	11680.71
867.309	11651.56
867.63	11621.95
867.95	11624.89
868.27	11580.83
868.59	11645.68
868.91	11665.12
869.23	11536.53
869.55	11460.6
869.87	11592.35
870.19	11561.84
870.51	11570.43
870.83	11488.17
871.15	11454.28
871.469	11466.25
871.789	11481.17
872.109	11398.01
872.428	11420.38
872.748	11418.12
873.067	11307.39
873.386	11470.55
873.706	11397.1
874.025	11413.82
874.344	11369.08
874.663	11318.69
874.982	11334.05
875.301	11339.02
875.62	11317.33
875.939	11250.21
876.258	11258.35
876.577	11267.61
876.896	11218.58
877.214	11161.63
877.533	11170.21
877.852	11166.37
878.17	11109.65
878.489	11114.4
878.807	11116.66
879.125	11090.44
879.444	11114.85
879.762	11107.17
880.08	11061.52
880.398	11055.42
880.716	11091.35
881.034	11006.38
881.352	10897
881.67	10912.82
881.988	10908.3
882.306	10906.04
882.624	10800.06
882.941	10787.63
883.259	10821.52
883.577	10797.8
883.894	10758.02
884.212	10685.26
884.529	10718.02
884.846	10742.43
885.164	10796.89
885.481	10707.63
885.798	10647.29
886.115	10627.63
886.432	10618.82
886.75	10650
887.067	10554.19
887.383	10559.38
887.7	10570.91
888.017	10485.94
888.334	10485.71
888.651	10528.88
888.967	10518.93
889.284	10430.35
889.6	10350.12
889.917	10373.4
890.233	10326.85
890.55	10330.91
890.866	10331.14
891.182	10351.93
891.498	10232.61
891.815	10233.52
892.131	10275.78
892.447	10235.55
892.763	10155.78
893.079	10119.17
893.395	10171.14
893.71	10142.9
894.026	10128.66
894.342	10038.27
894.657	9919.17
894.973	9955.78
895.289	10028.1
895.604	9953.52
895.92	9909.23
896.235	9907.2
896.55	9907.65
896.865	9870.81
897.181	9879.85
897.496	9857.48
897.811	9811.83
898.126	9692.06
898.441	9728.67
898.756	9700.87
899.071	9602.12
899.386	9580.88
899.7	9531.84
900.015	9480.99
900.33	9484.16
900.644	9466.98
900.959	9487.55
901.273	9415.23
901.588	9325.29
901.902	9324.16
902.216	9273.99
902.531	9283.26
902.845	9243.49
903.159	9180.44
903.473	9213.43
903.787	9167.1
904.101	9066.09
904.415	9135.01
904.729	9074.68
905.042	9019.54
905.356	8947.9
905.67	8967.56
905.984	8974.57
906.297	8848.02
906.611	8870.61
906.924	8856.15
907.237	8807.79
907.551	8767.79
907.864	8760.11
908.177	8731.18
908.491	8705.42
908.804	8707.68
909.117	8649.83
909.43	8589.94
909.743	8615.93
910.056	8557.4
910.368	8450.51
910.681	8494.13
910.994	8431.3
911.307	8406.67
911.619	8403.51
911.932	8387.46
912.244	8308.37
912.557	8308.82
912.869	8298.65
913.181	8250.52
913.494	8224.98
913.806	8159.22
914.118	8158.32
914.43	8116.51
914.742	8098.43
915.054	8048.71
915.366	8015.95
915.678	8042.16
915.99	8030.41
916.302	7939.79
916.613	7901.6
916.925	7840.36
917.236	7914.93
917.548	7881.94
917.859	7825.22
918.171	7771.89
918.482	7741.38
918.794	7703.64
919.105	7733.69
919.416	7650.08
919.727	7603.98
920.038	7602.4
920.349	7593.13
920.66	7516.75
920.971	7470.88
921.282	7469.52
921.593	7468.39
921.903	7359.92
922.214	7359.02
922.525	7354.04
922.835	7327.83
923.146	7256.42
923.456	7255.29
923.767	7201.73
924.077	7205.12
924.387	7159.25
924.697	7096.42
925.008	7122.64
925.318	7054.62
925.628	7103.43
925.938	7052.13
926.248	6998.57
926.558	7036.31
926.867	6912.02
927.177	6936.2
927.487	6893.27
927.796	6835.87
928.106	6814.4
928.416	6762.2
928.725	6751.57
929.034	6680.16
929.344	6709.32
929.653	6731.46
929.962	6637
930.271	6557.23
930.581	6614.4
930.89	6528.75
931.199	6549.09
931.508	6560.17
931.817	6507.06
932.125	6527.4
932.434	6471.36
932.743	6431.36
933.051	6359.04
933.36	6363.79
933.669	6300.29
933.977	6299.83
934.286	6291.47
934.594	6316.78
934.902	6207.86
935.21	6209.89
935.519	6190.68
935.827	6147.52
936.135	6092.83
936.443	6098.48
936.751	6072.27
937.059	6061.42
937.367	6018.26
937.674	6004.47
937.982	6021.88
938.29	6037.24
938.597	5983.01
938.905	5893.97
939.213	5848.09
939.52	5872.05
939.827	5890.13
940.135	5785.05
940.442	5811.71
940.749	5832.95
941.056	5801.32
941.363	5733.75
941.67	5718.38
941.977	5686.29
942.284	5641.32
942.591	5662.79
942.898	5617.82
943.205	5616.46
943.511	5599.06
943.818	5577.37
944.125	5583.24
944.431	5496.24
944.738	5501.44
945.044	5425.73
945.35	5491.95
945.657	5422.57
945.963	5429.12
946.269	5378.95
946.575	5392.51
946.881	5327.88
947.187	5299.41
947.493	5328.33
947.799	5329.92
948.105	5309.35
948.41	5257.38
948.716	5218.51
949.022	5132.63
949.327	5132.41
949.633	5096.93
949.938	5124.72
950.244	5057.38
950.549	5068.91
950.854	4999.3
951.16	4973.99
951.465	4987.78
951.77	4984.39
952.075	5002.92
952.38	4909.81
952.685	4889.02
952.99	4912.75
953.294	4877.72
953.599	4872.98
953.904	4837.27
954.209	4818.74
954.513	4840.66
954.818	4774.45
955.122	4789.37
955.426	4711.85
955.731	4715.7
956.035	4710.5
956.339	4755.47
956.643	4663.04
956.948	4684.06
957.252	4666.43
957.556	4658.97
957.86	4554.12
958.163	4558.19
958.467	4567
958.771	4527.23
959.075	4580.78
959.378	4528.58
959.682	4498.07
959.985	4505.98
960.289	4445.65
960.592	4444.06
960.896	4440.67
961.199	4376.5
961.502	4414.69
961.805	4339.21
962.108	4292.2
962.411	4323.39
962.714	4320.9
963.017	4276.61
963.32	4290.62
963.623	4249.04
963.926	4233
964.228	4237.06
964.531	4235.03
964.833	4203.84
965.136	4190.29
965.438	4137.86
965.741	4111.87
966.043	4107.35
966.345	4128.37
966.648	4068.71
966.95	4065.09
967.252	4054.24
967.554	4031.65
967.856	4037.75
968.158	4002.49
968.46	4012.21
968.761	3938.99
969.063	3922.5
969.365	3939.9
969.666	3942.16
969.968	3906.45
970.269	3844.31
970.571	3946.68
970.872	3859.9
971.174	3812.22
971.475	3815.61
971.776	3872.55
972.077	3773.35
972.378	3806.11
972.679	3718.43
972.98	3721.37
973.281	3711.65
973.582	3738.32
973.883	3692.45
974.183	3690.19
974.484	3690.41
974.785	3634.82
975.085	3680.24
975.386	3633.46
975.686	3607.48
975.986	3634.59
976.287	3574.03
976.587	3544.43
976.887	3596.4
977.187	3522.96
977.487	3508.04
977.787	3503.52
978.087	3482.28
978.387	3447.48
978.687	3441.15
978.987	3409.06
979.286	3400.48
979.586	3385.56
979.885	3414.03
980.185	3353.02
980.484	3347.14
980.784	3373.58
981.083	3354.38
981.382	3292.23
981.682	3277.09
981.981	3312.79
982.28	3271.89
982.579	3266.24
982.878	3237.54
983.177	3189.18
983.475	3243.87
983.774	3197.54
984.073	3187.37
984.372	3192.8
984.67	3175.4
984.969	3134.72
985.267	3149.63
985.566	3094.49
985.864	3111.67
986.162	3090.88
986.461	3052.46
986.759	3075.51
987.057	3047.49
987.355	2996.19
987.653	3001.39
987.951	2982.18
988.249	3014.27
988.547	3002.75
988.844	2982.41
989.142	2958.91
989.44	2951.9
989.737	2943.09
990.035	2949.19
990.332	2918
990.63	2863.99
990.927	2878
991.224	2873.03
991.521	2883.65
991.819	2880.04
992.116	2837.78
992.413	2840.49
992.71	2812.92
993.006	2812.02
993.303	2807.5
993.6	2808.4
993.897	2748.06
994.193	2771.79
994.49	2735.41
994.787	2744.67
995.083	2717.56
995.379	2707.84
995.676	2735.86
995.972	2653.6
996.268	2680.49
996.565	2666.26
996.861	2653.83
997.157	2581.06
997.453	2586.71
997.749	2582.19
998.044	2568.63
998.34	2575.86
998.636	2544.9
998.932	2581.74
999.227	2551.01
999.523	2554.4
999.818	2502.42
1000.114	2474.4
1000.409	2478.69
1000.704	2462.65
1001	2421.29
1001.295	2429.88
1001.59	2423.33
1001.885	2429.2
1002.18	2384.23
1002.475	2414.06
1002.77	2387.85
1003.065	2383.1
1003.359	2358.47
1003.654	2371.35
1003.949	2327.51
1004.243	2316.44
1004.538	2318.7
1004.832	2294.06
1005.127	2313.27
1005.421	2251.13
1005.715	2262.88
1006.009	2240.28
1006.304	2215.2
1006.598	2226.95
1006.892	2202.54
1007.186	2191.47
1007.48	2179.04
1007.773	2166.61
1008.067	2163.45
1008.361	2090.91
1008.655	2117.35
1008.948	2091.81
1009.242	2101.75
1009.535	2068.76
1009.829	2038.7
1010.122	2066.05
1010.415	1995.31
1010.708	2022.88
1011.001	2036.22
1011.295	2016.11
1011.588	2025.6
1011.881	2000.51
1012.173	1983.56
1012.466	1981.08
1012.759	1948.08
1013.052	1978.82
1013.344	1973.85
1013.637	1938.59
1013.93	1918.03
1014.222	1925.49
1014.514	1872.83
1014.807	1902.21
1015.099	1850.69
1015.391	1865.83
1015.683	1872.38
1015.976	1861.76
1016.268	1836.45
1016.56	1841.19
1016.851	1807.07
1017.143	1783.34
1017.435	1806.85
1017.727	1791.93
1018.018	1781.08
1018.31	1720.07
1018.602	1741.31
1018.893	1705.38
1019.185	1690.24
1019.476	1724.81
1019.767	1710.12
1020.058	1657.24
1020.35	1665.61
1020.641	1678.49
1020.932	1648.43
1021.223	1668.09
1021.514	1610.01
1021.804	1604.59
1022.095	1619.73
1022.386	1603.69
1022.677	1597.59
1022.967	1568.66
1023.258	1538.83
1023.548	1555.78
1023.839	1546.96
1024.129	1528.66
1024.419	1486.85
1024.709	1510.36
1025	1510.36
1025.29	1503.35
1025.58	1472.84
1025.87	1471.71
1026.16	1464.93
1026.449	1471.49
1026.739	1434.88
1027.029	1429.91
1027.319	1445.5
1027.608	1403.47
1027.898	1423.8
1028.187	1413.18
1028.477	1419.96
1028.766	1414.99
1029.055	1415.67
1029.344	1381.55
1029.634	1349.68
1029.923	1337.48
1030.212	1356.24
1030.501	1304.94
1030.79	1338.38
1031.078	1318.72
1031.367	1280.08
1031.656	1273.75
1031.945	1269.01
1032.233	1272.4
1032.522	1260.42
1032.81	1245.5
1033.099	1238.5
1033.387	1237.59
1033.675	1252.51
1033.963	1226.75
1034.251	1238.95
1034.54	1189.69
1034.828	1200.53
1035.116	1173.42
1035.403	1171.16
1035.691	1179.97
1035.979	1146.3
1036.267	1154.66
1036.554	1142
1036.842	1158.27
1037.129	1114.43
1037.417	1129.35
1037.704	1151.04
1037.992	1104.04
1038.279	1088.67
1038.566	1092.29
1038.853	1092.29
1039.14	1092.29
