Data from aluminium_surface_pro_back_FLMS001491_00062.txt Node
Date: Wed Feb 08 15:34:23 GMT 2017
User: dcchb
Spectrometer: FLMS00149
Trigger mode: 0
Integration Time (sec): 2.000000E-2
Scans to average: 10
Electric dark correction enabled: true
Nonlinearity correction enabled: false
Boxcar width: 0
XAxis mode: Wavelengths
Number of Pixels in Spectrum: 2048
>>>>>Begin Spectral Data<<<<<
341.393	-14.36
341.776	-14.36
342.16	-14.36
342.543	-82.16
342.927	-64.76
343.31	-79.22
343.693	-77.64
344.077	-41.03
344.46	-69.5
344.843	-76.51
345.226	-32.67
345.61	-27.02
345.993	-23.86
346.376	-22.73
346.759	4.84
347.142	36.48
347.525	66.09
347.908	53.43
348.291	73.77
348.674	101.11
349.057	114.45
349.44	131.62
349.823	139.76
350.206	180.66
350.588	217.95
350.971	230.6
351.354	259.98
351.737	273.54
352.119	283.48
352.502	294.1
352.884	288.23
353.267	304.5
353.65	318.51
354.032	334.1
354.414	344.72
354.797	353.54
355.179	360.09
355.562	365.06
355.944	366.87
356.326	366.42
356.709	384.04
357.091	367.32
357.473	386.98
357.855	411.39
358.238	393.08
358.62	371.39
359.002	362.58
359.384	392.4
359.766	376.36
360.148	386.53
360.53	377.04
360.912	349.24
361.294	388.11
361.676	378.62
362.057	374.78
362.439	370.03
362.821	378.85
363.203	365.96
363.584	378.17
363.966	346.3
364.348	365.06
364.729	399.18
365.111	371.16
365.493	377.04
365.874	355.57
366.256	354.67
366.637	358.51
367.019	383.59
367.4	363.03
367.781	358.73
368.163	382.91
368.544	369.81
368.925	355.8
369.306	378.85
369.688	375.46
370.069	382.24
370.45	371.39
370.831	393.76
371.212	376.81
371.593	376.81
371.974	382.91
372.355	376.59
372.736	390.15
373.117	390.82
373.498	374.33
373.879	381.33
374.26	418.39
374.641	397.15
375.021	380.2
375.402	378.39
375.783	404.83
376.163	430.6
376.544	405.29
376.925	426.3
377.305	420.65
377.686	415
378.066	425.62
378.447	425.17
378.827	436.92
379.208	436.02
379.588	438.51
379.968	438.05
380.349	445.74
380.729	448.22
381.109	442.8
381.489	454.1
381.87	460.65
382.25	445.51
382.63	450.26
383.01	468.56
383.39	470.37
383.77	481.22
384.15	476.92
384.53	487.09
384.91	473.98
385.29	490.26
385.67	487.77
386.049	509.24
386.429	510.14
386.809	494.1
387.189	521.44
387.568	507.66
387.948	516.92
388.328	536.36
388.707	552.17
389.087	537.26
389.466	557.15
389.846	548.11
390.225	577.94
390.605	549.24
390.984	570.71
391.363	572.97
391.743	587.65
392.122	601.44
392.501	578.84
392.881	591.27
393.26	597.6
393.639	632.62
394.018	621.78
394.397	629.69
394.776	643.25
395.155	647.31
395.534	626.52
395.913	662.91
396.292	647.54
396.671	659.06
397.05	666.07
397.429	669.91
397.808	682.57
398.186	685.28
398.565	696.13
398.944	695
399.323	717.37
399.701	702.91
400.08	731.38
400.458	731.38
400.837	721.44
401.215	776.58
401.594	746.97
401.972	771.15
402.351	779.06
402.729	792.85
403.107	810.7
403.486	799.4
403.864	836.24
404.242	808.44
404.62	833.75
404.999	838.49
405.377	850.7
405.755	876.23
406.133	884.6
406.511	890.7
406.889	864.71
407.267	913.75
407.645	904.03
408.023	929.79
408.401	923.69
408.779	959.62
409.156	989.9
409.534	977.25
409.912	986.06
410.29	1011.15
410.667	1024.48
411.045	1048.88
411.422	1065.61
411.8	1043.24
412.178	1072.16
412.555	1088.88
412.933	1116.91
413.31	1129.56
413.687	1142.89
414.065	1137.7
414.442	1167.53
414.819	1157.36
415.197	1200.29
415.574	1201.65
415.951	1219.28
416.328	1219.05
416.705	1251.59
417.082	1240.29
417.46	1265.6
417.837	1272.16
418.214	1295.21
418.591	1290.01
418.967	1302.44
419.344	1323
419.721	1341.76
420.098	1328.2
420.475	1389.21
420.852	1371.14
421.228	1413.85
421.605	1388.54
421.982	1453.39
422.358	1459.04
422.735	1475.31
423.111	1496.1
423.488	1492.71
423.864	1497.69
424.241	1517.8
424.617	1541.98
424.994	1536.56
425.37	1560.51
425.746	1611.81
426.123	1585.82
426.499	1617.01
426.875	1635.76
427.251	1677.79
427.627	1696.1
428.003	1724.57
428.379	1757.79
428.756	1760.73
429.132	1781.29
429.507	1782.42
429.883	1820.39
430.259	1886.15
430.635	1869.88
431.011	1899.71
431.387	1940.16
431.763	1964.57
432.138	1959.6
432.514	1992.36
432.89	2048.86
433.265	2080.5
433.641	2084.79
434.016	2099.7
434.392	2132.02
434.767	2178.12
435.143	2176.31
435.518	2218.12
435.894	2241.85
436.269	2248.4
436.644	2257.67
437.02	2307.38
437.395	2315.29
437.77	2364.1
438.145	2400.49
438.52	2405.46
438.895	2412.46
439.271	2453.59
439.646	2524.55
440.021	2506.47
440.395	2555.74
440.77	2508.28
441.145	2562.97
441.52	2579.24
441.895	2601.84
442.27	2670.99
442.645	2663.98
443.019	2674.6
443.394	2688.16
443.769	2727.94
444.143	2682.97
444.518	2774.94
444.892	2763.19
445.267	2800.93
445.641	2855.17
446.016	2826.01
446.39	2853.81
446.764	2872.11
447.139	2872.34
447.513	2920.47
447.887	2975.16
448.262	2925.67
448.636	2987.14
449.01	3007.48
449.384	3049.51
449.758	3037.76
450.132	3077.08
450.506	3102.84
450.88	3173.57
451.254	3165.21
451.628	3182.84
452.002	3231.43
452.376	3246.34
452.75	3314.36
453.123	3322.05
453.497	3345.1
453.871	3428.03
454.244	3470.29
454.618	3494.7
454.992	3584.41
455.365	3527.01
455.739	3670.74
456.112	3678.65
456.486	3738.76
456.859	3777.4
457.232	3908.47
457.606	3856.27
457.979	3870.28
458.352	3996.83
458.725	4016.26
459.099	4036.38
459.472	4131.52
459.845	4190.72
460.218	4177.62
460.591	4230.72
460.964	4236.82
461.337	4350.49
461.71	4463.94
462.083	4482.92
462.456	4502.13
462.829	4486.31
463.201	4611.96
463.574	4617.6
463.947	4698.96
464.32	4799.29
464.692	4856.69
465.065	4950.03
465.438	4937.14
465.81	4986.18
466.183	5038.84
466.555	5190.7
466.928	5206.74
467.3	5267.53
467.672	5310.69
468.045	5414.65
468.417	5461.42
468.789	5554.53
469.161	5575.09
469.534	5696.45
469.906	5790.23
470.278	5832.04
470.65	5912.03
471.022	6064.35
471.394	6137.56
471.766	6195.87
472.138	6246.49
472.51	6366.26
472.882	6498.46
473.253	6573.26
473.625	6693.71
473.997	6832.24
474.369	6791.56
474.74	6917.88
475.112	7096.41
475.484	7191.77
475.855	7302.73
476.227	7360.81
476.598	7625.21
476.97	7680.12
477.341	7921.25
477.713	7951.53
478.084	7984.3
478.455	8217.06
478.827	8325.3
479.198	8537.05
479.569	8598.74
479.94	8838.28
480.311	8934.1
480.682	9119.41
481.053	9298.61
481.424	9495.44
481.795	9535.44
482.166	9748.77
482.537	9854.76
482.908	9994.41
483.279	10190.34
483.65	10378.81
484.021	10522.08
484.391	10695.86
484.762	10734.28
485.133	10880.72
485.503	10967.49
485.874	11311.89
486.244	11352.12
486.615	11550.3
486.985	11767.02
487.356	11938.77
487.726	12178.54
488.097	12320.23
488.467	12443.39
488.837	12675.92
489.207	12858.74
489.578	12993.66
489.948	13133.99
490.318	13268
490.688	13493.53
491.058	13619.85
491.428	13781.88
491.798	13870.69
492.168	14235.88
492.538	14272.49
492.908	14515.2
493.278	14699.6
493.648	14728.3
494.017	14925.36
494.387	15074.05
494.757	15227.95
495.126	15419.81
495.496	15403.08
495.866	15506.13
496.235	15686.92
496.605	15875.61
496.974	15890.53
497.344	16037.87
497.713	16248.03
498.082	16330.29
498.452	16415.26
498.821	16571.87
499.19	16600.79
499.559	16803.72
499.928	17043.04
500.298	17075.81
500.667	17259.98
501.036	17256.59
501.405	17422.01
501.774	17542.91
502.143	17714.21
502.512	17849.8
502.88	17962.79
503.249	18029.46
503.618	18209.34
503.987	18213.63
504.356	18340.41
504.724	18549.44
505.093	18572.94
505.462	18666.95
505.83	18870.56
506.199	18975.87
506.567	19239.82
506.936	19198.92
507.304	19528.85
507.672	19556.42
508.041	19657.66
508.409	19849.07
508.777	20056.75
509.145	20303.52
509.514	20263.07
509.882	20392.78
510.25	20581.93
510.618	20848.14
510.986	20837.52
511.354	21088.58
511.722	21303.72
512.09	21413.77
512.458	21444.96
512.826	21588.01
513.193	21626.2
513.561	21860.54
513.929	22072.96
514.297	22244.71
514.664	22442.22
515.032	22500.07
515.4	22739.16
515.767	22868.88
516.135	23045.82
516.502	22946.16
516.869	23429.99
517.237	23491.01
517.604	23474.28
517.972	23826.14
518.339	23967.83
518.706	23996.53
519.073	24263.87
519.44	24328.95
519.808	24670.64
520.175	24668.38
520.542	25148.14
520.909	25210.74
521.276	25268.59
521.643	25584.28
522.009	25707.45
522.376	25899.76
522.743	26187.43
523.11	26335.68
523.477	26698.61
523.843	26819.73
524.21	27149.89
524.577	27247.74
524.943	27370.45
525.31	27615.19
525.676	27826.03
526.043	27970.21
526.409	28206.81
526.776	28516.64
527.142	28626.01
527.508	28849.96
527.874	29070.29
528.241	29200.69
528.607	29322.94
528.973	29608.36
529.339	29641.35
529.705	29964.96
530.071	30133.54
530.437	30439.75
530.803	30586.64
531.169	30819.18
531.535	30691.04
531.901	30918.61
532.267	31072.95
532.632	31295.1
532.998	31424.13
533.364	31651.02
533.73	31709.77
534.095	32001.97
534.461	32096.88
534.826	32421.85
535.192	32404.22
535.557	32645.57
535.923	32545.68
536.288	32770.99
536.653	33082.39
537.019	32856.41
537.384	33120.13
537.749	33308.83
538.114	33484.42
538.479	33454.81
538.845	33790.17
539.21	33704.52
539.575	33972.54
539.94	33892.32
540.305	34176.15
540.67	34159.43
541.034	34498.85
541.399	34542.92
541.764	34563.48
542.129	34762.35
542.494	34825.17
542.858	34981.1
543.223	35041.89
543.587	35267.42
543.952	35385.84
544.316	35245.05
544.681	35335.89
545.045	35654.53
545.41	35769.33
545.774	35906.95
546.138	35877.8
546.503	36101.52
546.867	36132.48
547.231	36381.06
547.595	36352.82
547.959	36569.08
548.324	36792.13
548.688	36764.56
549.052	36896.76
549.416	37076.41
549.779	37113.7
550.143	37115.96
550.507	37493.12
550.871	37575.16
551.235	37493.58
551.599	37826.67
551.962	37981.7
552.326	38057.18
552.689	38274.12
553.053	38187.34
553.417	38411.29
553.78	38821.45
554.143	38646.77
554.507	38959.53
554.87	39126.75
555.234	39479.51
555.597	39266.41
555.96	39642.9
556.323	39722.22
556.686	39851.25
557.05	40206.5
557.413	40259.38
557.776	40364.91
558.139	40644.45
558.502	40813.94
558.865	40766.03
559.228	41199.24
559.59	41286.7
559.953	41460.48
560.316	41832.67
560.679	41937.08
561.041	42206.9
561.404	42249.16
561.767	42719.88
562.129	42470.17
562.492	42896.15
562.854	43048.68
563.217	43063.15
563.579	43297.49
563.941	43581.78
564.304	43756.24
564.666	44016.12
565.028	44073.06
565.39	44301.08
565.753	44558.7
566.115	44646.16
566.477	44848.64
566.839	44856.09
567.201	45297.66
567.563	45356.65
567.925	45570.65
568.287	45650.65
568.648	45820.81
569.01	45992.34
569.372	46286.57
569.734	46275.94
570.095	46589.83
570.457	46810.39
570.819	46915.25
571.18	46973.33
571.542	47268.46
571.903	47449.92
572.265	47515.91
572.626	47776.02
572.987	47779.63
573.349	47951.61
573.71	47988.67
574.071	48274.99
574.432	48294.2
574.794	48494.19
575.155	48547.3
575.516	48514.53
575.877	48767.63
576.238	48771.7
576.599	48885.14
576.96	48990.9
577.32	49046.04
577.681	49188.41
578.042	49346.6
578.403	49350.67
578.763	49435.86
579.124	49558.34
579.485	49626.14
579.845	49846.92
580.206	49749.98
580.566	49822.97
580.927	49863.42
581.287	49955.85
581.648	49805.57
582.008	50169.18
582.368	49960.82
582.728	50165.79
583.089	50007.15
583.449	50024.32
583.809	50186.8
584.169	50262.96
584.529	50105.9
584.889	50501.37
585.249	50140.25
585.609	50155.62
585.969	50351.77
586.329	50236.52
586.688	50284.65
587.048	50192.9
587.408	50168.95
587.768	50200.13
588.127	50133.47
588.487	50268.38
588.846	50524.19
589.206	50191.55
589.565	50354.26
589.925	50390.41
590.284	50354.93
590.643	50455.72
591.003	50554.93
591.362	50629.5
591.721	50520.13
592.08	50468.83
592.44	50707.69
592.799	50664.98
593.158	50562.61
593.517	50530.75
593.876	50843.06
594.235	50641.93
594.593	50779.1
594.952	50705.43
595.311	50763.28
595.67	50888.7
596.029	50934.58
596.387	50951.08
596.746	50983.17
597.104	50924.64
597.463	50862.94
597.822	51051.41
598.18	50882.6
598.538	50871.3
598.897	51163.95
599.255	50733
599.613	51336.83
599.972	51120.79
600.33	51256.6
600.688	51120.34
601.046	51243.27
601.404	51259.09
601.762	51270.62
602.12	51454.34
602.478	51406.88
602.836	51424.51
603.194	51207.11
603.552	51418.63
603.91	51281.91
604.268	51399.2
604.625	51458.63
604.983	51521.91
605.341	51363.27
605.698	51640.32
606.056	51652.53
606.413	51594.9
606.771	51734.78
607.128	51738.4
607.485	51526.43
607.843	51674.9
608.2	51902.24
608.557	51949.47
608.914	51806.19
609.272	51915.8
609.629	52073.98
609.986	52100.42
610.343	51966.64
610.7	52148.11
611.057	52127.09
611.414	52113.98
611.771	52130.93
612.127	52189.01
612.484	52192.4
612.841	52375.67
613.198	52209.57
613.554	52257.26
613.911	52478.72
614.267	52513.29
614.624	52518.94
614.98	52448.44
615.337	52580.64
615.693	52576.57
616.05	52510.58
616.406	52698.83
616.762	52536.34
617.118	52610.69
617.475	52585.16
617.831	52589
618.187	52625.83
618.543	52732.27
618.899	52899.95
619.255	52816.34
619.611	52794.64
619.967	52874.64
620.323	52914.64
620.678	52772.27
621.034	52735.21
621.39	52717.13
621.746	52746.28
622.101	53048.2
622.457	52789.22
622.812	52846.17
623.168	52913.06
623.523	52845.94
623.879	52944.47
624.234	52744.7
624.589	52945.15
624.945	52896.56
625.3	52920.06
625.655	52798.94
626.01	52804.36
626.365	52832.83
626.72	52819.95
627.075	52753.74
627.43	52842.55
627.785	52701.54
628.14	52790.8
628.495	52865.83
628.85	52758.71
629.205	52636.45
629.559	52814.3
629.914	52693.63
630.269	52765.04
630.623	52721.42
630.978	52612.05
631.332	52808.43
631.687	52779.95
632.041	52636.68
632.396	52818.37
632.75	52657.25
633.104	52690.69
633.459	52581.99
633.813	52479.17
634.167	52533.86
634.521	52506.97
634.875	52443.01
635.229	52487.53
635.583	52307.88
635.937	52326.86
636.291	52313.07
636.645	52224.49
636.999	52137.26
637.352	52252.74
637.706	52085.96
638.06	52289.57
638.413	52085.28
638.767	52020.2
639.121	52139.74
639.474	51908.56
639.828	51883.25
640.181	51911.95
640.534	51956.47
640.888	51726.87
641.241	51614.11
641.594	51693.2
641.947	51742.92
642.301	51608.23
642.654	51671.96
643.007	51619.76
643.36	51582.25
643.713	51571.62
644.066	51617.72
644.419	51331.86
644.771	51231.97
645.124	50938.65
645.477	50965.31
645.83	50699.78
646.182	50475.38
646.535	50468.6
646.888	50495.27
647.24	50321.49
647.593	50516.74
647.945	50353.13
648.298	50261.83
648.65	50121.27
649.002	50089.63
649.355	50170.76
649.707	50074.94
650.059	50180.02
650.411	50615.72
650.763	50541.37
651.115	50980.68
651.467	50817.29
651.819	50715.38
652.171	50668.6
652.523	50615.49
652.875	50682.83
653.227	50471.54
653.578	50713.57
653.93	50440.35
654.282	50444.42
654.633	50354.26
654.985	50436.51
655.337	50407.14
655.688	50389.06
656.039	50349.96
656.391	50181.83
656.742	50166.01
657.094	50235.39
657.445	50356.06
657.796	50180.93
658.147	50132.79
658.498	50085.11
658.849	50180.7
659.2	50149.74
659.551	50028.61
659.902	50055.05
660.253	50055.51
660.604	50054.83
660.955	49956.75
661.306	50095.96
661.656	49916.3
662.007	49998.78
662.358	49912.01
662.708	50042.85
663.059	50032
663.409	49709.98
663.76	49994.04
664.11	49801.5
664.461	50005.34
664.811	50071.78
665.161	49806.47
665.511	49802.18
665.862	49878.56
666.212	49848.96
666.562	49877.43
666.912	49746.36
667.262	49625.46
667.612	49797.21
667.962	49764.44
668.312	49625.46
668.662	49911.33
669.011	49671.79
669.361	49587.72
669.711	49523.32
670.06	49476.31
670.41	49441.96
670.76	49418.23
671.109	49472.24
671.459	49414.84
671.808	49434.28
672.157	49514.96
672.507	49281.51
672.856	49246.71
673.205	49415.52
673.554	49357.67
673.904	49188.86
674.253	49416.43
674.602	49106.38
674.951	48586.17
675.3	48371.03
675.649	49097.11
675.998	49031.13
676.346	49043.1
676.695	49114.29
677.044	48659.84
677.393	48707.29
677.741	48881.75
678.09	48663.45
678.438	48639.95
678.787	48624.36
679.135	48698.48
679.484	48459.62
679.832	48471.37
680.181	48388.88
680.529	48488.32
680.877	48339.62
681.225	48249.9
681.573	48428.66
681.922	48196.35
682.27	48165.16
682.618	48093.52
682.966	47920.19
683.314	48154.54
683.661	47976.92
684.009	47811.72
684.357	47754.32
684.705	47604.5
685.053	47813.98
685.4	47730.14
685.748	47534.22
686.095	47510.71
686.443	47209.03
686.79	47412.86
687.138	47411.28
687.485	47439.98
687.832	47201.57
688.18	47230.27
688.527	47005.64
688.874	47046.77
689.221	46976.49
689.568	46732.88
689.915	46625.09
690.262	46700.57
690.609	46623.96
690.956	46456.5
691.303	46373.12
691.65	46174.25
691.997	46149.62
692.344	45961.38
692.69	46058.55
693.037	45968.83
693.383	45638.45
693.73	45725.45
694.077	45489.98
694.423	45501.05
694.769	45302.41
695.116	45292.47
695.462	45195.97
695.808	45137.22
696.155	45004.57
696.501	44785.59
696.847	44781.07
697.193	44604.35
697.539	44726.15
697.885	44348.09
698.231	44278.71
698.577	44210.01
698.923	44030.81
699.269	43934.76
699.614	43736.8
699.96	43720.98
700.306	43669.91
700.651	43545.62
700.997	43453.65
701.342	43280.32
701.688	43236.25
702.033	43095.01
702.379	43109.02
702.724	42961.23
703.069	42954.9
703.415	42644.63
703.76	42527.34
704.105	42468.13
704.45	42411.19
704.795	42122.16
705.14	42051.65
705.485	42084.87
705.83	41895.72
706.175	41986.34
706.52	41810.07
706.865	41691.66
707.209	41548.84
707.554	41337.99
707.899	41513.13
708.243	41360.37
708.588	41323.08
708.932	41034.95
709.277	41092.13
709.621	41032.47
709.966	40856.88
710.31	40842.64
710.654	40595.64
710.998	40714.28
711.342	40727.62
711.687	40463.67
712.031	40494.18
712.375	40223.9
712.719	40395.65
713.063	40322.65
713.407	40471.35
713.75	40066.62
714.094	40059.16
714.438	39979.39
714.782	39936.68
715.125	39682.45
715.469	39772.16
715.812	39461.66
716.156	39415.56
716.499	39370.36
716.843	39442
717.186	39179.63
717.53	39342.34
717.873	39278.16
718.216	39040.65
718.559	38922.69
718.902	38526.77
719.246	38762.47
719.589	38663.04
719.932	38390.28
720.275	38401.58
720.617	38416.94
720.96	38193.67
721.303	38321.8
721.646	38338.53
721.989	38031.87
722.331	38110.96
722.674	37877.3
723.016	37961.81
723.359	37755.04
723.701	37729.5
724.044	37602.27
724.386	37461.49
724.729	37462.62
725.071	37322.51
725.413	37281.15
725.755	37194.38
726.097	37216.97
726.439	37116.19
726.782	37077.32
727.124	37261.27
727.465	37088.39
727.807	37075.06
728.149	36970.65
728.491	36833.03
728.833	36832.35
729.175	36853.14
729.516	36663.09
729.858	36584.67
730.199	36604.11
730.541	36537.44
730.882	36444.56
731.224	36455.64
731.565	36233.5
731.906	36255.64
732.248	36202.76
732.589	36050.22
732.93	36002.32
733.271	36018.36
733.612	35833.96
733.953	35884.81
734.294	35804.36
734.635	35619.5
734.976	35749.44
735.317	35464.93
735.658	35487.08
735.999	35491.14
736.339	35438.72
736.68	35499.28
737.021	35465.38
737.361	35123.7
737.702	35327.53
738.042	35238.04
738.383	35104.71
738.723	35163.24
739.063	34853.65
739.404	34999.4
739.744	34809.81
740.084	34831.5
740.424	34869.01
740.764	34718.73
741.104	34794.89
741.444	34513.54
741.784	34342.92
742.124	34486.65
742.464	34350.16
742.804	34200.78
743.143	34093.67
743.483	34217.28
743.823	34083.27
744.162	33967.57
744.502	34101.8
744.841	33933.22
745.181	33925.08
745.52	33814.35
745.86	33839.21
746.199	33794.24
746.538	33696.61
746.877	33823.39
747.216	33775.03
747.556	33729.83
747.895	33595.83
748.234	33433.12
748.573	33473.57
748.911	33410.52
749.25	33299.34
749.589	33261.6
749.928	33066.12
750.267	33249.62
750.605	33073.35
750.944	33126.01
751.283	32889.18
751.621	32849.4
751.96	32839.69
752.298	32659.13
752.636	32862.96
752.975	32717.88
753.313	32404.22
753.651	32584.33
753.989	32435.18
754.327	32373.48
754.666	32093.49
755.004	32276.09
755.342	32285.58
755.679	32147.73
756.017	31893.95
756.355	31915.19
756.693	31680.62
757.031	31822.54
757.368	31576.67
757.706	31555.43
758.044	31439.05
758.381	31496.45
758.719	31283.57
759.056	31225.72
759.394	31086.06
759.731	30910.02
760.068	30905.95
760.405	30624.6
760.743	30573.76
761.08	30764.26
761.417	30404.95
761.754	30418.73
762.091	30439.07
762.428	30162.02
762.765	30076.82
763.102	30093.32
763.438	29853.55
763.775	29835.02
764.112	29904.17
764.449	29794.57
764.785	29772.42
765.122	29477.74
765.458	29412.88
765.795	29356.39
766.131	29273.68
766.467	29015.83
766.804	28996.4
767.14	28969.05
767.476	28980.35
767.812	28816.52
768.148	28754.6
768.485	28488.62
768.821	28321.61
769.157	28200.94
769.492	28215.63
769.828	28268.06
770.164	27788.52
770.5	28016.54
770.836	27885.69
771.171	27654.96
771.507	27597.34
771.842	27319.83
772.178	27378.14
772.513	27277.8
772.849	27169.33
773.184	27072.16
773.519	26976.34
773.855	26848.88
774.19	26756.68
774.525	26681.43
774.86	26716.46
775.195	26466.75
775.53	26387.43
775.865	26349.24
776.2	26053.65
776.535	25974.56
776.87	25989.47
777.205	25793.54
777.539	25678.75
777.874	25752.42
778.209	25485.53
778.543	25327.57
778.878	25314.01
779.212	25235.14
779.547	25065.88
779.881	25115.82
780.215	24990.63
780.55	24928.71
780.884	24797.64
781.218	24589.73
781.552	24619.11
781.886	24483.75
782.22	24415.28
782.554	24274.04
782.888	24193.59
783.222	24101.39
783.556	23926.7
783.889	23961.28
784.223	23930.77
784.557	23755.18
784.89	23769.19
785.224	23672.92
785.557	23550.89
785.891	23461.63
786.224	23280.39
786.558	23332.37
786.891	23106.38
787.224	23070.9
787.557	23022.32
787.891	23009.89
788.224	22968.99
788.557	22874.53
788.89	22825.71
789.223	22797.01
789.556	22587.53
789.888	22574.19
790.221	22487.64
790.554	22330.13
790.887	22393.41
791.219	22230.93
791.552	22121.33
791.884	22008.33
792.217	21923.14
792.549	21835.68
792.882	21691.73
793.214	21614.22
793.546	21730.83
793.879	21526.09
794.211	21368.12
794.543	21340.33
794.875	21298.07
795.207	21428.91
795.539	21262.59
795.871	21233.89
796.203	21145.98
796.535	20950.73
796.867	21077.06
797.198	20811.08
797.53	20849.49
797.862	20641.14
798.193	20676.17
798.525	20555.94
798.856	20597.98
799.188	20358.43
799.519	20310.53
799.85	20236.85
800.182	20148.04
800.513	20267.81
800.844	19972
801.175	20125.45
801.506	20053.13
801.837	19972
802.168	19832.57
802.499	19842.97
802.83	19708.96
803.161	19566.14
803.491	19591
803.822	19617.21
804.153	19349.65
804.483	19310.33
804.814	19184.68
805.145	19276.2
805.475	19192.59
805.805	19049.77
806.136	19123.44
806.466	19093.38
806.796	19047.73
807.126	18812.71
807.457	18764.13
807.787	18786.72
808.117	18675.77
808.447	18565.49
808.777	18674.86
809.107	18624.69
809.436	18490.01
809.766	18558.71
810.096	18337.24
810.426	18273.74
810.755	18345.61
811.085	18281.2
811.414	18194.87
811.744	18039.4
812.073	18098.61
812.403	18148.55
812.732	17906.29
813.061	17980.87
813.39	17834.21
813.719	17858.39
814.049	17873.3
814.378	17860.65
814.707	17682.12
815.036	17695.68
815.365	17565.74
815.693	17565.06
816.022	17524.84
816.351	17460.88
816.68	17281.9
817.008	17383.14
817.337	17287.78
817.665	17273.09
817.994	17230.61
818.322	17266.54
818.651	17050.27
818.979	17065.64
819.307	17048.24
819.636	17072.87
819.964	16946.77
820.292	17069.25
820.62	16972.08
820.948	16965.53
821.276	17034.68
821.604	16968.01
821.932	17000.33
822.259	16958.3
822.587	16935.02
822.915	16875.59
823.243	16918.07
823.57	16984.51
823.898	16904.74
824.225	16847.34
824.553	16810.5
824.88	16807.57
825.207	16954.46
825.535	16800.11
825.862	16935.25
826.189	16848.02
826.516	16886.43
826.843	16923.04
827.17	16792.88
827.497	16791.3
827.824	16843.95
828.151	16863.16
828.478	16731.64
828.805	16835.81
829.131	16734.57
829.458	16769.38
829.785	16609.83
830.111	16744.97
830.438	16865.64
830.764	16791.3
831.09	16817.96
831.417	16667.01
831.743	16824.06
832.069	16780.22
832.395	16563.73
832.722	16643.73
833.048	16629.94
833.374	16646.67
833.7	16593.11
834.026	16615.26
834.351	16640.57
834.677	16593.33
835.003	16639.21
835.329	16606.89
835.654	16539.78
835.98	16547.01
836.306	16494.81
836.631	16492.09
836.956	16434.02
837.282	16492.77
837.607	16380.23
837.932	16333.45
838.258	16359.67
838.583	16338.43
838.908	16187.47
839.233	16271.08
839.558	16300.46
839.883	16238.32
840.208	16201.03
840.533	16224.53
840.858	16259.56
841.182	16134.14
841.507	16122.39
841.832	15917.19
842.156	16114.48
842.481	16088.04
842.805	15921.26
843.13	15991.54
843.454	15995.61
843.778	15786.58
844.103	15830.19
844.427	15787.03
844.751	15732.79
845.075	15680.36
845.399	15688.95
845.723	15561.05
846.047	15583.87
846.371	15469.07
846.695	15479.47
847.019	15359.47
847.343	15265.69
847.666	15222.3
847.99	15158.12
848.313	15220.94
848.637	15121.06
848.96	15092.81
849.284	15062.98
849.607	14953.38
849.931	14905.47
850.254	14801.97
850.577	14649.43
850.9	14653.27
851.223	14592.26
851.546	14474.52
851.869	14407.86
852.192	14565.37
852.515	14443.11
852.838	14301.19
853.161	14347.97
853.483	14267.97
853.806	14215.54
854.129	14176.22
854.451	14118.15
854.774	14071.14
855.096	13995.44
855.419	13964.48
855.741	13955.89
856.063	13875.67
856.385	13840.86
856.708	13861.43
857.03	13713.41
857.352	13773.97
857.674	13736.46
857.996	13671.6
858.318	13567.65
858.64	13580.76
858.961	13557.71
859.283	13461.21
859.605	13432.29
859.926	13465.96
860.248	13380.09
860.57	13358.62
860.891	13420.54
861.212	13400.42
861.534	13270.48
861.855	13293.08
862.176	13340.31
862.498	13219.64
862.819	13284.27
863.14	13162.69
863.461	13137.61
863.782	13151.84
864.103	13176.7
864.424	13044.73
864.745	13178.28
865.065	12996.59
865.386	13035.46
865.707	12997.05
866.027	13037.95
866.348	12865.52
866.668	12959.98
866.989	12884.28
867.309	12794.11
867.63	12938.52
867.95	12806.32
868.27	12778.52
868.59	12772.19
868.91	12772.19
869.23	12787.56
869.55	12699.65
869.87	12699.2
870.19	12722.02
870.51	12704.17
870.83	12703.04
871.15	12556.6
871.469	12615.13
871.789	12666.66
872.109	12646.77
872.428	12594.8
872.748	12547.11
873.067	12624.63
873.386	12533.1
873.706	12592.76
874.025	12527.68
874.344	12499.66
874.663	12571.29
874.982	12454.69
875.301	12461.01
875.62	12406.1
875.939	12331.3
876.258	12395.25
876.577	12330.85
876.896	12395.48
877.214	12281.36
877.533	12296.27
877.852	12358.42
878.17	12408.36
878.489	12278.65
878.807	12251.75
879.125	12227.8
879.444	12223.96
879.762	12088.59
880.08	12117.75
880.398	12152.77
880.716	12178.31
881.034	12121.59
881.352	12144.41
881.67	12127.92
881.988	12139.21
882.306	12027.13
882.624	11978.77
882.941	12003.4
883.259	11860.35
883.577	11920.46
883.894	11869.62
884.212	11899.9
884.529	11881.59
884.846	11895.38
885.164	11832.56
885.481	11847.02
885.798	11896.28
886.115	11716.63
886.432	11745.78
886.75	11792.78
887.067	11788.04
887.383	11703.52
887.7	11815.16
888.017	11713.46
888.334	11728.83
888.651	11672.33
888.967	11668.49
889.284	11553.02
889.6	11580.81
889.917	11535.39
890.233	11453.36
890.55	11463.3
890.866	11504.88
891.182	11352.79
891.498	11303.76
891.815	11304.66
892.131	11273.47
892.447	11316.19
892.763	11281.61
893.079	11217.66
893.395	11120.26
893.71	11132.01
894.026	11062.86
894.342	11067.6
894.657	10969.08
894.973	10884.33
895.289	10925.46
895.604	10874.39
895.92	10787.39
896.235	10869.42
896.55	10739.48
896.865	10806.82
897.181	10736.77
897.496	10702.19
897.811	10735.41
898.126	10569.99
898.441	10593.72
898.756	10580.16
899.071	10485.02
899.386	10537.45
899.7	10458.58
900.015	10424.01
900.33	10441.18
900.644	10385.36
900.959	10406.83
901.273	10333.16
901.588	10378.81
901.902	10177.91
902.216	10173.62
902.531	10121.64
902.845	10191.7
903.159	10089.78
903.473	10078.25
903.787	9971.81
904.101	9951.25
904.415	10047.97
904.729	9898.14
905.042	9909.44
905.356	9890.91
905.67	9924.13
905.984	9867.41
906.297	9878.48
906.611	9821.76
906.924	9803.68
907.237	9660.41
907.551	9645.95
907.864	9616.57
908.177	9696.12
908.491	9623.12
908.804	9501.09
909.117	9507.65
909.43	9442.11
909.743	9401.66
910.056	9423.35
910.368	9335.45
910.681	9343.36
910.994	9276.92
911.307	9215.68
911.619	9142.46
911.932	9148.11
912.244	9160.76
912.557	9117.37
912.869	9015.46
913.181	9005.29
913.494	8975.46
913.806	8948.11
914.118	8938.39
914.43	8882.13
914.742	8889.36
915.054	8810.71
915.366	8756.25
915.678	8712.86
915.99	8716.25
916.302	8661.34
916.613	8624.5
916.925	8655.46
917.236	8598.74
917.548	8498.41
917.859	8513.77
918.171	8456.83
918.482	8425.41
918.794	8389.48
919.105	8424.51
919.416	8335.02
919.727	8322.37
920.038	8351.52
920.349	8269.26
920.66	8277.4
920.971	8233.1
921.282	8228.36
921.593	8204.63
921.903	8028.14
922.214	8109.49
922.525	8062.94
922.835	8013.45
923.146	7961.02
923.456	7945.43
923.767	7954.92
924.077	7895.71
924.387	7897.29
924.697	7807.58
925.008	7854.36
925.318	7735.26
925.628	7738.2
925.938	7719.44
926.248	7609.39
926.558	7666.11
926.867	7586.57
927.177	7547.7
927.487	7536.85
927.796	7495.04
928.106	7479.9
928.416	7478.32
928.725	7450.52
929.034	7355.39
929.344	7356.52
929.653	7370.53
929.962	7288.72
930.271	7246.91
930.581	7234.48
930.89	7184.32
931.199	7203.75
931.508	7171.44
931.817	7161.27
932.125	7132.34
932.434	7117.88
932.743	7037.88
933.051	7030.2
933.36	6984.55
933.669	6973.47
933.977	6983.64
934.286	6926.02
934.594	6930.76
934.902	6865.46
935.21	6813.25
935.519	6801.5
935.827	6808.28
936.135	6712.92
936.443	6700.04
936.751	6646.48
937.059	6701.17
937.367	6584.78
937.674	6671.56
937.982	6582.75
938.29	6590.43
938.597	6548.63
938.905	6467.27
939.213	6474.28
939.52	6407.16
939.827	6451.91
940.135	6428.86
940.442	6368.52
940.749	6402.19
941.056	6364
941.363	6227.96
941.67	6233.83
941.977	6231.57
942.284	6191.57
942.591	6177.34
942.898	6138.69
943.205	6147.06
943.511	6075.42
943.818	6126.94
944.125	6097.57
944.431	6058.92
944.738	5994.52
945.044	6032.26
945.35	6012.14
945.657	5972.6
945.963	5920.4
946.269	5876.55
946.575	5852.6
946.881	5845.59
947.187	5852.83
947.493	5890.11
947.799	5791.36
948.105	5808.76
948.41	5761.08
948.716	5741.42
949.022	5693.28
949.327	5648.76
949.633	5594.3
949.938	5629.1
950.244	5618.71
950.549	5560.18
950.854	5613.74
951.16	5531.48
951.465	5555.66
951.77	5523.8
952.075	5427.07
952.38	5453.74
952.685	5440.63
952.99	5336
953.294	5396.34
953.599	5326.74
953.904	5343.91
954.209	5292.62
954.513	5287.64
954.818	5239.51
955.122	5262.56
955.426	5188.89
955.731	5172.17
956.035	5176.69
956.339	5140.98
956.643	5145.27
956.948	5137.36
957.252	5047.88
957.556	5061.21
957.86	5048.55
958.163	5021.89
958.467	4984.37
958.771	5020.98
959.075	4976.92
959.378	4929.23
959.682	4887.88
959.985	4842.91
960.289	4849.24
960.592	4870.71
960.896	4798.84
961.199	4829.12
961.502	4811.72
961.805	4788.45
962.108	4741.44
962.411	4728.11
962.714	4724.04
963.017	4699.64
963.32	4759.07
963.623	4627.77
963.926	4639.98
964.228	4630.03
964.531	4637.04
964.833	4583.26
965.136	4547.32
965.438	4482.69
965.741	4524.95
966.043	4446.54
966.345	4520.43
966.648	4471.17
966.95	4416.25
967.252	4368.8
967.554	4397.5
967.856	4363.6
968.158	4351.4
968.46	4365.18
968.761	4362.92
969.063	4330.83
969.365	4313.88
969.666	4265.98
969.968	4265.98
970.269	4186.2
970.571	4241.8
970.872	4164.28
971.174	4159.31
971.475	4119.54
971.776	4145.53
972.077	4157.96
972.378	4101.69
972.679	4089.93
972.98	4096.04
973.281	4065.53
973.582	4046.09
973.883	4022.82
974.183	3992.31
974.484	3962.25
974.785	3950.05
975.085	3922.03
975.386	3929.26
975.686	3930.17
975.986	3868.7
976.287	3865.99
976.587	3864.63
976.887	3872.77
977.187	3818.98
977.487	3797.51
977.787	3801.35
978.087	3782.37
978.387	3743.05
978.687	3803.39
978.987	3720
979.286	3708.48
979.586	3717.52
979.885	3680.91
980.185	3682.26
980.484	3660.12
980.784	3677.74
981.083	3624.64
981.382	3649.27
981.682	3596.61
981.981	3564.3
982.28	3560.23
982.579	3546.22
982.878	3548.48
983.177	3517.29
983.475	3549.38
983.774	3454.02
984.073	3477.75
984.372	3487.92
984.67	3438.2
984.969	3459.67
985.267	3435.26
985.566	3403.85
985.864	3364.3
986.162	3388.48
986.461	3375.6
986.759	3350.52
987.057	3332.44
987.355	3333.8
987.653	3331.76
987.951	3288.6
988.249	3263.06
988.547	3273.01
988.844	3266
989.142	3198.88
989.44	3193.24
989.737	3243.86
990.035	3185.1
990.332	3185.1
990.63	3165.89
990.927	3138.1
991.224	3094.71
991.521	3107.81
991.819	3113.92
992.116	3090.19
992.413	3043.18
992.71	3040.7
993.006	3055.61
993.303	3017.65
993.6	3018.78
993.897	3040.7
994.193	2984.2
994.49	2966.8
994.787	2944.88
995.083	2959.12
995.379	2935.16
995.676	2896.29
995.972	2902.4
996.268	2899.91
996.565	2862.62
996.861	2807.71
997.157	2823.3
997.453	2828.95
997.749	2828.5
998.044	2789.4
998.34	2789.86
998.636	2782.85
998.932	2777.43
999.227	2724.1
999.523	2731.1
999.818	2679.12
1000.114	2714.83
1000.409	2718.67
1000.704	2678.45
1001	2646.81
1001.295	2671.22
1001.59	2648.84
1001.885	2628.73
1002.18	2605
1002.475	2581.95
1002.77	2628.28
1003.065	2551.22
1003.359	2526.81
1003.654	2536.3
1003.949	2497.89
1004.243	2503.54
1004.538	2488.17
1004.832	2458.11
1005.127	2508.51
1005.421	2426.02
1005.715	2445.01
1006.009	2445.46
1006.304	2402.97
1006.598	2370.43
1006.892	2392.13
1007.186	2378.12
1007.48	2358.23
1007.773	2302.41
1008.067	2358.68
1008.361	2335.86
1008.655	2286.37
1008.948	2297.89
1009.242	2287.04
1009.535	2230.55
1009.829	2208.85
1010.122	2217.22
1010.415	2215.63
1010.708	2197.78
1011.001	2190.1
1011.295	2178.12
1011.588	2185.35
1011.881	2158.01
1012.173	2136.99
1012.466	2117.33
1012.759	2106.71
1013.052	2079.59
1013.344	2076.43
1013.637	2061.51
1013.93	2071.46
1014.222	2051.8
1014.514	2020.38
1014.807	2062.19
1015.099	2019.25
1015.391	2000.27
1015.683	2002.76
1015.976	1990.78
1016.268	1962.53
1016.56	1959.6
1016.851	1922.31
1017.143	1918.47
1017.435	1918.24
1017.727	1901.97
1018.018	1896.77
1018.31	1909.2
1018.602	1866.26
1018.893	1874.63
1019.185	1853.84
1019.476	1817.9
1019.767	1819.94
1020.058	1820.16
1020.35	1802.54
1020.641	1793.72
1020.932	1791.69
1021.223	1754.4
1021.514	1765.48
1021.804	1739.49
1022.095	1709.66
1022.386	1730.22
1022.677	1705.59
1022.967	1688.42
1023.258	1697.46
1023.548	1689.77
1023.839	1654.07
1024.129	1642.54
1024.419	1637.12
1024.709	1599.6
1025	1605.93
1025.29	1603.67
1025.58	1605.25
1025.87	1585.14
1026.16	1575.65
1026.449	1555.09
1026.739	1549.89
1027.029	1518.7
1027.319	1500.62
1027.608	1510.79
1027.898	1483.68
1028.187	1492.71
1028.477	1488.87
1028.766	1445.94
1029.055	1455.88
1029.344	1445.94
1029.634	1419.04
1029.923	1426.95
1030.212	1429.21
1030.501	1429.44
1030.79	1385.6
1031.078	1408.65
1031.367	1385.83
1031.656	1363.68
1031.945	1374.75
1032.233	1354.64
1032.522	1334.75
1032.81	1336.56
1033.099	1340.18
1033.387	1323.91
1033.675	1321.87
1033.963	1312.38
1034.251	1320.97
1034.54	1279.39
1034.828	1275.77
1035.116	1279.84
1035.403	1267.18
1035.691	1246.17
1035.979	1260.4
1036.267	1233.06
1036.554	1247.98
1036.842	1214.08
1037.129	1198.03
1037.417	1185.83
1037.704	1210.24
1037.992	1185.38
1038.279	1157.13
1038.566	1159.39
1038.853	1159.39
1039.14	1159.39
