Data from aluminium_surface_pro_back_FLMS001491_00094.txt Node
Date: Wed Feb 08 15:34:47 GMT 2017
User: dcchb
Spectrometer: FLMS00149
Trigger mode: 0
Integration Time (sec): 2.000000E-2
Scans to average: 10
Electric dark correction enabled: true
Nonlinearity correction enabled: false
Boxcar width: 0
XAxis mode: Wavelengths
Number of Pixels in Spectrum: 2048
>>>>>Begin Spectral Data<<<<<
341.393	13.29
341.776	13.29
342.16	13.29
342.543	-56.54
342.927	-80.72
343.31	-75.29
343.693	-75.97
344.077	-62.41
344.46	-85.01
344.843	-30.78
345.226	-37.78
345.61	-39.14
345.993	-21.06
346.376	0.64
346.759	19.62
347.142	22.78
347.525	32.5
347.908	50.8
348.291	84.02
348.674	112.5
349.057	104.59
349.44	137.36
349.823	134.64
350.206	180.74
350.588	209.67
350.971	229.56
351.354	237.01
351.737	263.68
352.119	286.28
352.502	284.7
352.884	303.23
353.267	296.67
353.65	328.99
354.032	329.44
354.414	354.75
354.797	340.97
355.179	353.17
355.562	366.28
355.944	361.53
356.326	376.67
356.709	388.2
357.091	381.64
357.473	377.12
357.855	378.93
358.238	366.73
358.62	371.93
359.002	350.46
359.384	401.08
359.766	360.63
360.148	385.48
360.53	383.22
360.912	383.22
361.294	363.79
361.676	367.18
362.057	387.97
362.439	360.85
362.821	379.61
363.203	380.51
363.584	361.98
363.966	375.54
364.348	382.77
364.729	376.22
365.111	375.54
365.493	350.68
365.874	370.34
366.256	378.7
366.637	388.42
367.019	360.63
367.4	392.49
367.781	371.7
368.163	353.17
368.544	374.64
368.925	371.47
369.306	393.39
369.688	378.48
370.069	389.1
370.45	358.37
370.831	390.46
371.212	366.95
371.593	378.7
371.974	376.9
372.355	387.97
372.736	385.71
373.117	385.94
373.498	387.07
373.879	378.48
374.26	397.01
374.641	364.92
375.021	387.74
375.402	405.82
375.783	407.63
376.163	403.34
376.544	389.1
376.925	409.89
377.305	408.53
377.686	405.14
378.066	412.15
378.447	422.32
378.827	430.23
379.208	450.12
379.588	428.19
379.968	421.87
380.349	436.78
380.729	435.65
381.109	428.42
381.489	429.1
381.87	444.47
382.25	448.53
382.63	451.47
383.01	448.53
383.39	471.36
383.77	444.69
384.15	446.5
384.53	468.19
384.91	456.22
385.29	473.84
385.67	465.93
386.049	488.53
386.429	501.87
386.809	476.78
387.189	487.63
387.568	497.8
387.948	505.48
388.328	504.8
388.707	519.72
389.087	510.68
389.466	513.84
389.846	539.83
390.225	547.29
390.605	539.15
390.984	561.75
391.363	568.76
391.743	563.11
392.122	571.02
392.501	593.39
392.881	614.4
393.26	582.99
393.639	570.34
394.018	615.31
394.397	598.81
394.776	608.53
395.155	615.76
395.534	623.9
395.913	628.87
396.292	606.5
396.671	655.99
397.05	665.25
397.429	658.47
397.808	676.78
398.186	670.22
398.565	684.46
398.944	694.85
399.323	706.38
399.701	716.32
400.08	717.45
400.458	716.77
400.837	717.23
401.215	733.5
401.594	715.87
401.972	751.8
402.351	735.08
402.729	769.88
403.107	765.59
403.486	791.58
403.864	782.31
404.242	776.21
404.62	840.61
404.999	825.47
405.377	816.21
405.755	820.5
406.133	840.39
406.511	867.51
406.889	859.6
407.267	857.56
407.645	882.87
408.023	904.79
408.401	895.98
408.779	927.16
409.156	922.19
409.534	963.1
409.912	942.98
410.29	957.22
410.667	987.05
411.045	989.31
411.422	1009.2
411.8	1027.5
412.178	1025.92
412.555	1046.71
412.933	1063.43
413.31	1076.09
413.687	1094.17
414.065	1070.66
414.442	1110.66
414.819	1123.09
415.197	1144.79
415.574	1161.73
415.951	1171.68
416.328	1177.55
416.705	1167.16
417.082	1191.56
417.46	1229.3
417.837	1263.65
418.214	1252.58
418.591	1214.84
418.967	1266.59
419.344	1243.77
419.721	1298.68
420.098	1283.99
420.475	1292.8
420.852	1331.67
421.228	1358.11
421.605	1344.33
421.982	1387.27
422.358	1375.06
422.735	1377.1
423.111	1377.77
423.488	1408.06
423.864	1421.62
424.241	1418.23
424.617	1485.57
424.994	1470.88
425.37	1493.93
425.746	1517.66
426.123	1504.1
426.499	1540.48
426.875	1547.26
427.251	1596.75
427.627	1612.12
428.003	1642.85
428.379	1638.78
428.756	1650.08
429.132	1700.03
429.507	1713.13
429.883	1727.6
430.259	1732.57
430.635	1753.13
431.011	1784.32
431.387	1808.5
431.763	1852.79
432.138	1849.85
432.514	1859.8
432.89	1892.79
433.265	1912
433.641	1949.28
434.016	1988.83
434.392	1989.96
434.767	2077.42
435.143	2012.11
435.518	2073.35
435.894	2070.41
436.269	2137.3
436.644	2158.32
437.02	2191.76
437.395	2156.74
437.77	2218.2
438.145	2251.2
438.52	2290.74
438.895	2261.59
439.271	2286.9
439.646	2360.8
440.021	2376.84
440.395	2384.75
440.77	2380.01
441.145	2414.81
441.52	2446
441.895	2426.33
442.27	2417.52
442.645	2478.54
443.019	2511.98
443.394	2513.79
443.769	2556.27
444.143	2533.68
444.518	2595.37
444.892	2544.3
445.267	2618.19
445.641	2623.84
446.016	2635.37
446.39	2669.72
446.764	2662.03
447.139	2712.43
447.513	2731.86
447.887	2737.74
448.262	2735.48
448.636	2772.77
449.01	2843.27
449.384	2854.35
449.758	2856.38
450.132	2888.47
450.506	2904.97
450.88	2949.26
451.254	2944.06
451.628	2972.76
452.002	3007.56
452.376	3021.57
452.75	3092.76
453.123	3090.05
453.497	3155.35
453.871	3188.35
454.244	3219.76
454.618	3240.78
454.992	3324.62
455.365	3315.12
455.739	3372.98
456.112	3401
456.486	3438.29
456.859	3464.73
457.232	3551.05
457.606	3552.18
457.979	3614.55
458.352	3682.8
458.725	3739.75
459.099	3740.88
459.472	3834.66
459.845	3865.39
460.218	3921.44
460.591	3994.88
460.964	3927.99
461.337	4084.37
461.71	4134.31
462.083	4172.5
462.456	4210.24
462.829	4189
463.201	4258.83
463.574	4238.72
463.947	4384.48
464.32	4462.89
464.692	4497.01
465.065	4474.64
465.438	4602.55
465.81	4636.9
466.183	4725.26
466.555	4756.44
466.928	4842.99
467.3	4851.81
467.672	4883.22
468.045	5073.04
468.417	5077.79
468.789	5121.18
469.161	5150.56
469.534	5202.98
469.906	5342.64
470.278	5359.59
470.65	5472.81
471.022	5600.94
471.394	5628.96
471.766	5731.11
472.138	5763.87
472.51	5946.92
472.882	5970.87
473.253	6118.67
473.625	6177.2
473.997	6293.13
474.369	6351.88
474.74	6386.68
475.112	6505.32
475.484	6641.82
475.855	6759.1
476.227	6790.51
476.598	6967.68
476.97	7092.65
477.341	7293.33
477.713	7300.33
478.084	7413.32
478.455	7582.58
478.827	7631.17
479.198	7877.72
479.569	7814.22
479.94	8124.49
480.311	8240.19
480.682	8398.38
481.053	8565.61
481.424	8661.65
481.795	8773.06
482.166	8916.11
482.537	9049.44
482.908	9320.39
483.279	9337.11
483.65	9519.26
484.021	9614.39
484.391	9834.05
484.762	9881.05
485.133	10006.7
485.503	10117.66
485.874	10351.1
486.244	10490.08
486.615	10669.73
486.985	10862.27
487.356	11069.05
487.726	11042.83
488.097	11302.71
488.467	11364.4
488.837	11561.24
489.207	11779.31
489.578	11918.29
489.948	12038.29
490.318	12249.58
490.688	12299.97
491.058	12546.75
491.428	12667.65
491.798	12806.85
492.168	13107.41
492.538	13117.35
492.908	13329.32
493.278	13405.93
493.648	13549.43
494.017	13741.74
494.387	13799.37
494.757	13874.85
495.126	14114.61
495.496	14128.63
495.866	14267.61
496.235	14344.44
496.605	14591.21
496.974	14609.07
497.344	14829.85
497.713	14890.41
498.082	15021.03
498.452	15248.82
498.821	15301.7
499.19	15367.92
499.559	15486.33
499.928	15566.55
500.298	15873.89
500.667	15946.43
501.036	15913.44
501.405	16090.38
501.774	16166.99
502.143	16279.76
502.512	16404.05
502.88	16575.12
503.249	16567.88
503.618	16672.97
503.987	16790.7
504.356	16878.61
504.724	17116.34
505.093	17189.56
505.462	17143.24
505.83	17350.69
506.199	17500.51
506.567	17772.82
506.936	17699.15
507.304	18023.44
507.672	18069.99
508.041	18099.59
508.409	18285.58
508.777	18485.57
509.145	18544.55
509.514	18633.82
509.882	18707.04
510.25	18880.37
510.618	18937.54
510.986	19016.63
511.354	19321.03
511.722	19397.64
512.09	19603.28
512.458	19550.63
512.826	19842.37
513.193	19975.03
513.561	20081.69
513.929	20200.56
514.297	20465.18
514.664	20571.85
515.032	20642.8
515.4	20919.86
515.767	20929.12
516.135	21121.44
516.502	21128.22
516.869	21475.55
517.237	21527.98
517.604	21649.11
517.972	21920.51
518.339	22042.54
518.706	22051.58
519.073	22166.38
519.44	22472.36
519.808	22680.72
520.175	22789.64
520.542	23054.49
520.909	23151.21
521.276	23216.52
521.643	23501.03
522.009	23613.8
522.376	23827.13
522.743	23903.96
523.11	24184.18
523.477	24371.97
523.843	24678.63
524.21	24887.21
524.577	25010.15
524.943	25214.44
525.31	25401.32
525.676	25647.19
526.043	25762.44
526.409	25945.49
526.776	26165.15
527.142	26369.21
527.508	26521.07
527.874	26655.75
528.241	26909.31
528.607	26991.56
528.973	27123.09
529.339	27204.67
529.705	27590.87
530.071	27897.98
530.437	27946.57
530.803	28049.39
531.169	28276.95
531.535	28225.2
531.901	28414.8
532.267	28568.7
532.632	28591.52
532.998	28809.14
533.364	28880.55
533.73	29021.12
534.095	29352.86
534.461	29386.08
534.826	29587.2
535.192	29598.73
535.557	29812.96
535.923	29884.82
536.288	30043.24
536.653	30202.78
537.019	30099.28
537.384	30304.7
537.749	30544.47
538.114	30651.81
538.479	30780.17
538.845	31041.4
539.21	30848.41
539.575	31072.13
539.94	31227.16
540.305	31312.58
540.67	31385.35
541.034	31502.86
541.399	31676.64
541.764	31759.57
542.129	31818.56
542.494	31955.28
542.858	32109.85
543.223	32088.38
543.587	32359.78
543.952	32332.67
544.316	32413.12
544.681	32354.81
545.045	32745.76
545.41	32926.1
545.774	33013.1
546.138	32989.82
546.503	33094.45
546.867	33192.31
547.231	33309.14
547.595	33512.07
547.959	33545.97
548.324	33505.29
548.688	33696.02
549.052	34005.17
549.416	33968.33
549.779	34001.1
550.143	34164.94
550.507	34459.16
550.871	34564.25
551.235	34440.86
551.599	34890.57
551.962	34890.11
552.326	34907.97
552.689	35068.64
553.053	35034.29
553.417	35018.92
553.78	35605.35
554.143	35487.61
554.507	35687.61
554.87	35764.89
555.234	36181.61
555.597	36015.96
555.96	36265.67
556.323	36371.2
556.686	36597.19
557.05	36834.47
557.413	36877.18
557.776	36870.17
558.139	37268.13
558.502	37243.5
558.865	37300.45
559.228	37645.07
559.59	37818.17
559.953	37951.73
560.316	38295.9
560.679	38447.08
561.041	38675.78
561.404	38723.01
561.767	39022.21
562.129	38781.54
562.492	39328.64
562.854	39388.07
563.217	39442.08
563.579	39630.55
563.941	39985.12
564.304	40039.13
564.666	40411.32
565.028	40275.06
565.39	40639.34
565.753	40756.17
566.115	40977.86
566.477	41170.4
566.839	41289.04
567.201	41459.88
567.563	41545.53
567.925	41904.62
568.287	41896.94
568.648	41947.78
569.01	42310.48
569.372	42685.61
569.734	42509.12
570.095	42776.46
570.457	42905.27
570.819	43000.86
571.18	43043.35
571.542	43402.88
571.903	43598.13
572.265	43665.93
572.626	43851.91
572.987	43858.69
573.349	44166.71
573.71	44216.87
574.071	44311.33
574.432	44436.08
574.794	44933.69
575.155	44794.26
575.516	44895.27
575.877	45061.6
576.238	45108.6
576.599	45183.18
576.96	45416.84
577.32	45455.71
577.681	45521.7
578.042	45704.29
578.403	45757.17
578.763	45815.02
579.124	45966.66
579.485	45980.9
579.845	46097.28
580.206	46021.8
580.566	46170.04
580.927	46173.66
581.287	46358.74
581.648	46165.52
582.008	46376.59
582.368	46406.65
582.728	46393.99
583.089	46424.5
583.449	46441.45
583.809	46624.95
584.169	46639.64
584.529	46430.15
584.889	46806.64
585.249	46671.5
585.609	46631.27
585.969	46955.33
586.329	46695.9
586.688	46831.95
587.048	46795.56
587.408	46674.66
587.768	46683.02
588.127	46616.36
588.487	46533.42
588.846	46848.22
589.206	46555.12
589.565	46690.48
589.925	46715.79
590.284	46767.32
590.643	46756.24
591.003	46868.1
591.362	47054.31
591.721	46941.32
592.08	46838.27
592.44	47062.9
592.799	46992.85
593.158	46792.4
593.517	46935.45
593.876	46931.38
594.235	46783.59
594.593	47146.06
594.952	47181.09
595.311	47062.45
595.67	47089.79
596.029	47372.27
596.387	47334.76
596.746	47355.1
597.104	47236.23
597.463	47330.24
597.822	47324.14
598.18	47243.91
598.538	47241.65
598.897	47479.61
599.255	47190.36
599.613	47656.56
599.972	47410.91
600.33	47468.31
600.688	47428.99
601.046	47633.06
601.404	47595.32
601.762	47697.01
602.12	47861.75
602.478	47857
602.836	47792.6
603.194	47711.02
603.552	47840.06
603.91	47719.15
604.268	47946.27
604.625	47841.64
604.983	48070.33
605.341	47843.45
605.698	48171.35
606.056	48190.55
606.413	48156.21
606.771	48281.4
607.128	48332.25
607.485	48162.08
607.843	48106.94
608.2	48408.4
608.557	48512.58
608.914	48439.36
609.272	48523.65
609.629	48592.35
609.986	48663.76
610.343	48516.42
610.7	48730.88
611.057	48685.23
611.414	48704.67
611.771	48780.6
612.127	48936.52
612.484	48795.06
612.841	48953.47
613.198	48879.58
613.554	48881.84
613.911	49198.44
614.267	49185.78
614.624	49034.6
614.98	49108.27
615.337	49244.99
615.693	49256.29
616.05	49131.77
616.406	49486.11
616.762	49291.77
617.118	49415.83
617.475	49302.62
617.831	49512.78
618.187	49498.09
618.543	49420.58
618.899	49697.18
619.255	49570.63
619.611	49518.43
619.967	49730.4
620.323	49772.89
620.678	49657.41
621.034	49572.21
621.39	49655.38
621.746	49584.42
622.101	49992.32
622.457	49662.61
622.812	49681.82
623.168	49778.31
623.523	49813.34
623.879	49952.32
624.234	49731.98
624.589	49811.98
624.945	49779.89
625.3	49864.64
625.655	49798.2
626.01	49808.59
626.365	49967.68
626.72	49895.82
627.075	49873
627.43	49855.37
627.785	49745.09
628.14	49894.24
628.495	49787.12
628.85	49790.51
629.205	49726.33
629.559	49876.16
629.914	49769.04
630.269	49676.17
630.623	49704.41
630.978	49580.12
631.332	49783.06
631.687	49775.37
632.041	49636.17
632.396	49716.39
632.75	49520.46
633.104	49582.83
633.459	49330.64
633.813	49420.58
634.167	49393.24
634.521	49334.93
634.875	49359.11
635.229	49308.49
635.583	48951.89
635.937	49071.44
636.291	48964.77
636.645	49016.52
636.999	48874.6
637.352	48862.18
637.706	48601.17
638.06	48875.73
638.413	48690.43
638.767	48526.37
639.121	48587.15
639.474	48377.67
639.828	48317.56
640.181	48494.05
640.534	48379.48
640.888	48311.68
641.241	48149.2
641.594	48195.98
641.947	48307.84
642.301	48150.1
642.654	48225.36
643.007	48122.08
643.36	48066.49
643.713	47912.82
644.066	48202.53
644.419	47948.75
644.771	47596.9
645.124	47177.25
645.477	47339.5
645.83	46828.56
646.182	46812.06
646.535	46788.78
646.888	46834.88
647.24	46620.88
647.593	46709.01
647.945	46791.72
648.298	46499.75
648.65	46394.44
649.002	46304.05
649.355	46398.96
649.707	46332.3
650.059	46600.54
650.411	46959.4
650.763	46887.99
651.115	47245.04
651.467	47003.47
651.819	47000.53
652.171	46959.63
652.523	46899.29
652.875	46850.25
653.227	46696.36
653.578	46976.12
653.93	46855.45
654.282	46638.73
654.633	46490.71
654.985	46681.89
655.337	46638.28
655.688	46523.93
656.039	46742.46
656.391	46347.44
656.742	46507.89
657.094	46528.68
657.445	46649.58
657.796	46568.9
658.147	46433.76
658.498	46344.05
658.849	46503.37
659.2	46336.82
659.551	46370.04
659.902	46432.64
660.253	46363.94
660.604	46421.34
660.955	46142.93
661.306	46329.81
661.656	46259.53
662.007	46157.39
662.358	46257.5
662.708	46269.25
663.059	46067.22
663.409	45968.47
663.76	46350.15
664.11	46134.79
664.461	46100.44
664.811	46171.17
665.161	46083.72
665.511	45900.9
665.862	45884.63
666.212	46172.53
666.562	46093.89
666.912	45911.97
667.262	45964.4
667.612	45756.04
667.962	45804.63
668.312	45747.46
668.662	45895.47
669.011	45680.11
669.361	45667.23
669.711	45561.92
670.06	45354.92
670.41	45319.44
670.76	45216.85
671.109	45474.47
671.459	45320.57
671.808	45224.53
672.157	45333.23
672.507	45227.02
672.856	45112.67
673.205	45242.61
673.554	45156.06
673.904	44951.54
674.253	45163.74
674.602	44933.92
674.951	44450.31
675.3	44199.93
675.649	44843.98
675.998	44799.46
676.346	44803.3
676.695	44961.94
677.044	44654.6
677.393	44778.67
677.741	44756.29
678.09	44822.28
678.438	44590.42
678.787	44700.7
679.135	44698.9
679.484	44493.03
679.832	44682.17
680.181	44434.72
680.529	44375.29
680.877	44340.49
681.225	44370.09
681.573	44496.41
681.922	44166.48
682.27	44105.92
682.618	44269.75
682.966	44145.24
683.314	44226.37
683.661	44002.42
684.009	43830.9
684.357	43757.68
684.705	43623.67
685.053	43766.04
685.4	43617.12
685.748	43506.38
686.095	43454.18
686.443	43150.24
686.79	43055.77
687.138	43158.6
687.485	43090.58
687.832	42960.18
688.18	43064.14
688.527	42865.5
688.874	42696.91
689.221	42758.83
689.568	42449.69
689.915	42282.24
690.262	42426.86
690.609	42318.17
690.956	42072.52
691.303	42162.01
691.65	41967.67
691.997	41961.57
692.344	41702.59
692.69	41740.78
693.037	41715.7
693.383	41487.68
693.73	41500.56
694.077	41429.15
694.423	41227.12
694.769	41191.42
695.116	41086.11
695.462	40969.73
695.808	40820.81
696.155	40905.77
696.501	40611.77
696.847	40539.91
697.193	40140.6
697.539	40483.86
697.885	40100.15
698.231	40146.92
698.577	40000.04
698.923	39932.24
699.269	39745.35
699.614	39524.79
699.96	39437.11
700.306	39492.03
700.651	39162.54
700.997	39115.31
701.342	39045.26
701.688	39056.78
702.033	38880.29
702.379	38876
702.724	38723.69
703.069	38799.39
703.415	38271.72
703.76	38437.14
704.105	38426.29
704.45	38284.15
704.795	38058.39
705.14	37909.24
705.485	38005.96
705.83	37632.64
706.175	37873.31
706.52	37651.85
706.865	37640.55
707.209	37522.59
707.554	37419.54
707.899	37490.5
708.243	37251.86
708.588	37177.06
708.932	36871.3
709.277	36859.33
709.621	36904.52
709.966	36580.69
710.31	36860.23
710.654	36407.36
710.998	36498.21
711.342	36474.7
711.687	36377.31
712.031	36180.7
712.375	36156.07
712.719	36261.38
713.063	36195.62
713.407	36220.25
713.75	35874.27
714.094	35907.26
714.438	35691.67
714.782	35773.25
715.125	35589.3
715.469	35602.41
715.812	35352.93
716.156	35183.21
716.499	35384.11
716.843	35214.4
717.186	35017.57
717.53	35199.26
717.873	35261.63
718.216	34927.63
718.559	34993.39
718.902	34775.31
719.246	34736.22
719.589	34744.35
719.932	34487.86
720.275	34406.74
720.617	34403.35
720.96	34298.49
721.303	34293.75
721.646	34354.53
721.989	34148.66
722.331	34098.04
722.674	34006.75
723.016	34238.15
723.359	34008.33
723.701	33981.44
724.044	33778.73
724.386	33653.76
724.729	33797.04
725.071	33508
725.413	33506.87
725.755	33484.5
726.097	33270.5
726.439	33100.78
726.782	33162.02
727.124	33365.18
727.465	33013.1
727.807	32928.13
728.149	32982.59
728.491	32943.05
728.833	32964.74
729.175	32719.32
729.516	32668.03
729.858	32670.96
730.199	32740.79
730.541	32456.28
730.882	32626.44
731.224	32432.33
731.565	32462.83
731.906	32557.29
732.248	32487.92
732.589	32180.13
732.93	32174.25
733.271	32271.65
733.612	32237.3
733.953	32017.19
734.294	31973.81
734.635	31814.26
734.976	32009.74
735.317	31729.29
735.658	31878.44
735.999	31812.68
736.339	31717.77
736.68	31818.33
737.021	31659.69
737.361	31470.54
737.702	31656.07
738.042	31623.08
738.383	31597.32
738.723	31571.1
739.063	31406.14
739.404	31531.56
739.744	31462.86
740.084	31224
740.424	31323.43
740.764	31220.38
741.104	31209.53
741.444	31139.93
741.784	30949.88
742.124	31094.06
742.464	30923.89
742.804	30929.54
743.143	30662.88
743.483	30795.31
743.823	30535.2
744.162	30538.14
744.502	30555.09
744.841	30398.03
745.181	30562.09
745.52	30397.12
745.86	30367.52
746.199	30258.82
746.538	30207.3
746.877	30220.63
747.216	30146.96
747.556	29953.29
747.895	29876.69
748.234	29814.31
748.573	29885.95
748.911	29789.68
749.25	29795.33
749.589	29600.08
749.928	29719.63
750.267	29654.55
750.605	29415.46
750.944	29492.06
751.283	29327.55
751.621	29420.43
751.96	29103.37
752.298	29131.4
752.636	29083.71
752.975	29080.77
753.313	28839.88
753.651	29032.64
753.989	28732.08
754.327	28742.03
754.666	28486.44
755.004	28658.87
755.342	28661.12
755.679	28563.95
756.017	28380.91
756.355	28381.13
756.693	28310.4
757.031	28294.35
757.368	28090.29
757.706	28144.75
758.044	28072.89
758.381	28086.9
758.719	27846.01
759.056	27884.2
759.394	27659.12
759.731	27578.22
760.068	27524.88
760.405	27425.45
760.743	27397.88
761.08	27378.45
761.417	27228.62
761.754	27236.76
762.091	27145.91
762.428	27020.94
762.765	26925.13
763.102	26873.83
763.438	26838.35
763.775	26581.41
764.112	26597.9
764.449	26555.64
764.785	26634.29
765.122	26394.74
765.458	26281.53
765.795	26236.1
766.131	26168.54
766.467	26067.52
766.804	26054.41
767.14	25970.8
767.476	25959.28
767.812	25728.77
768.148	25767.19
768.485	25496.46
768.821	25394.54
769.157	25250.37
769.492	25234.1
769.828	25291.95
770.164	25084.5
770.5	24878.17
770.836	24804.05
771.171	24716.14
771.507	24656.03
771.842	24510.95
772.178	24501.23
772.513	24434.57
772.849	24348.24
773.184	24222.37
773.519	24156.16
773.855	24015.15
774.19	24018.54
774.525	23862.38
774.86	23897.63
775.195	23699.67
775.53	23578.55
775.865	23535.38
776.2	23351.21
776.535	23320.93
776.87	23147.82
777.205	23130.87
777.539	23023.31
777.874	23170.87
778.209	22814.72
778.543	22741.28
778.878	22643.88
779.212	22646.14
779.547	22553.94
779.881	22564.56
780.215	22482.3
780.55	22377.45
780.884	22254.06
781.218	22214.74
781.552	22150.56
781.886	21993.73
782.22	21994.18
782.554	21879.16
782.888	21647.52
783.222	21529.34
783.556	21413.41
783.889	21394.42
784.223	21247.31
784.557	21278.49
784.89	21313.3
785.224	21097.48
785.557	21005.51
785.891	20938.84
786.224	20890.03
786.558	20932.51
786.891	20711.73
787.224	20632.18
787.557	20690.94
787.891	20603.71
788.224	20560.55
788.557	20481
788.89	20463.83
789.223	20280.78
789.556	20164.17
789.888	20187.45
790.221	20033.56
790.554	20019.32
790.887	19909.94
791.219	19859.1
791.552	19792.66
791.884	19595.37
792.217	19554.25
792.549	19529.39
792.882	19340.69
793.214	19240.13
793.546	19367.81
793.879	19288.04
794.211	19105.9
794.543	19230.19
794.875	19019.57
795.207	19047.37
795.539	18903.42
795.871	18978.89
796.203	18833.36
796.535	18726.02
796.867	18732.8
797.198	18552.24
797.53	18594.04
797.862	18329.87
798.193	18452.13
798.525	18238.8
798.856	18304.56
799.188	18114.06
799.519	18067.28
799.85	17955.64
800.182	18052.82
800.513	17987.96
800.844	17758.59
801.175	17786.16
801.506	17820.73
801.837	17689.44
802.168	17656.67
802.499	17643.34
802.83	17574.86
803.161	17493.51
803.491	17463
803.822	17387.07
804.153	17374.42
804.483	17231.37
804.814	17206.06
805.145	17165.16
805.475	17116.8
805.805	17032.05
806.136	17045.16
806.466	17027.08
806.796	16827.99
807.126	16749.57
807.457	16794.09
807.787	16819.4
808.117	16668.22
808.447	16635.68
808.777	16758.16
809.107	16611.72
809.436	16531.5
809.766	16472.29
810.096	16441.11
810.426	16336.48
810.755	16353.65
811.085	16352.52
811.414	16231.85
811.744	16112.08
812.073	16156.37
812.403	16053.55
812.732	15994.11
813.061	15930.61
813.39	15956.15
813.719	15921.35
814.049	15932.19
814.378	15925.64
814.707	15799.77
815.036	15782.37
815.365	15731.3
815.693	15595.03
816.022	15630.73
816.351	15508.02
816.68	15482.94
817.008	15496.05
817.337	15322.04
817.665	15440.91
817.994	15337.86
818.322	15304.64
818.651	15293.57
818.979	15136.73
819.307	15212.44
819.636	15172.89
819.964	15046.12
820.292	15065.78
820.62	15048.6
820.948	14899.68
821.276	15061.71
821.604	15002.05
821.932	15095.38
822.259	15067.13
822.587	15007.7
822.915	14954.37
823.243	15096.06
823.57	14996.4
823.898	15032.1
824.225	14921.37
824.553	14960.92
824.88	14998.66
825.207	14963.86
825.535	14927.47
825.862	14968.38
826.189	14885.67
826.516	14942.62
826.843	15004.99
827.17	14983.52
827.497	14920.24
827.824	14964.31
828.151	14925.44
828.478	14831.88
828.805	14950.3
829.131	14792.11
829.458	14837.76
829.785	14709.18
830.111	14790.76
830.438	14813.81
830.764	14865.78
831.09	14880.24
831.417	14824.88
831.743	14820.81
832.069	14789.85
832.395	14744.2
832.722	14741.49
833.048	14750.53
833.374	14685
833.7	14658.1
834.026	14708.05
834.351	14697.42
834.677	14622.4
835.003	14734.71
835.329	14618.78
835.654	14636.41
835.98	14554.38
836.306	14625.34
836.631	14611.32
836.956	14598.9
837.282	14592.79
837.607	14404.32
837.932	14437.54
838.258	14412.01
838.583	14503.53
838.908	14338.11
839.233	14451.78
839.558	14362.52
839.883	14292.46
840.208	14316.19
840.533	14308.96
840.858	14311.9
841.182	14276.42
841.507	14236.42
841.832	14171.11
842.156	14164.33
842.481	14146.7
842.805	14088.4
843.13	14058.57
843.454	14078.23
843.778	13943.55
844.103	13933.6
844.427	13930.66
844.751	13971.79
845.075	13893.6
845.399	13837.11
845.723	13798.46
846.047	13809.09
846.371	13657.23
846.695	13669.88
847.019	13559.15
847.343	13494.97
847.666	13475.31
847.99	13472.82
848.313	13427.63
848.637	13349.21
848.96	13340.62
849.284	13350.34
849.607	13147.63
849.931	13191.25
850.254	13124.81
850.577	13073.06
850.9	12969.56
851.223	12909.45
851.546	12969.56
851.869	12814.99
852.192	13008.43
852.515	12754.2
852.838	12735.44
853.161	12779.96
853.483	12659.74
853.806	12632.39
854.129	12604.6
854.451	12590.59
854.774	12473.3
855.096	12515.11
855.419	12450.48
855.741	12357.37
856.063	12362.12
856.385	12323.02
856.708	12233.99
857.03	12198.51
857.352	12202.8
857.674	12186.53
857.996	12144.72
858.318	12128.9
858.64	12168
858.961	12056.36
859.283	11942.92
859.605	11909.7
859.926	12027.44
860.248	11942.24
860.57	11870.15
860.891	11919.87
861.212	11778.86
861.534	11807.78
861.855	11758.52
862.176	11814.56
862.498	11786.09
862.819	11668.8
863.14	11667
863.461	11687.56
863.782	11666.32
864.103	11646.43
864.424	11641.46
864.745	11739.54
865.065	11623.83
865.386	11610.95
865.707	11523.95
866.027	11599.65
866.348	11587.9
866.668	11549.94
866.989	11466.1
867.309	11451.86
867.63	11468.58
867.95	11441.69
868.27	11344.74
868.59	11451.63
868.91	11345.42
869.23	11383.84
869.55	11318.76
869.87	11293.67
870.19	11293.22
870.51	11326.44
870.83	11294.58
871.15	11208.25
871.469	11215.71
871.789	11231.53
872.109	11221.13
872.428	11158.08
872.748	11206.22
873.067	11184.3
873.386	11204.86
873.706	11142.26
874.025	11083.96
874.344	11031.31
874.663	11108.14
874.982	11028.59
875.301	11096.39
875.62	11046.9
875.939	11121.25
876.258	11016.62
876.577	10999.67
876.896	11069.5
877.214	10923.96
877.533	10969.84
877.852	10959.9
878.17	10934.59
878.489	10975.26
878.807	10890.52
879.125	10945.66
879.444	10922.16
879.762	10831.99
880.08	10889.61
880.398	10902.27
880.716	10888.71
881.034	10796.28
881.352	10866.79
881.67	10786.57
881.988	10813.68
882.306	10731.65
882.624	10777.98
882.941	10654.82
883.259	10660.02
883.577	10749.51
883.894	10582.73
884.212	10651.2
884.529	10671.99
884.846	10622.05
885.164	10572.79
885.481	10524.2
885.798	10610.3
886.115	10455.28
886.432	10544.77
886.75	10424.54
887.067	10512
887.383	10464.09
887.7	10441.72
888.017	10426.8
888.334	10378.89
888.651	10335.73
888.967	10356.75
889.284	10228.62
889.6	10210.08
889.917	10236.52
890.233	10198.56
890.55	10128.28
890.866	10161.95
891.182	10087.83
891.498	10122.63
891.815	10054.61
892.131	10058.9
892.447	10027.94
892.763	9988.17
893.079	9951.11
893.395	9899.36
893.71	9928.06
894.026	9851.45
894.342	9881.73
894.657	9755.41
894.973	9750.66
895.289	9781.85
895.604	9835.63
895.92	9751.34
896.235	9719.93
896.55	9674.51
896.865	9660.04
897.181	9629.53
897.496	9620.27
897.811	9569.65
898.126	9550.67
898.441	9510.67
898.756	9502.08
899.071	9454.85
899.386	9416.66
899.7	9409.65
900.015	9307.74
900.33	9269.77
900.644	9287.62
900.959	9218.25
901.273	9243.78
901.588	9223.9
901.902	9128.08
902.216	9142.99
902.531	9088.98
902.845	9075.43
903.159	8983.9
903.473	8999.04
903.787	8989.33
904.101	8930.12
904.415	8968.54
904.729	8905.71
905.042	8874.3
905.356	8863.45
905.67	8777.58
905.984	8819.39
906.297	8784.13
906.611	8770.35
906.924	8775.32
907.237	8621.88
907.551	8635.44
907.864	8603.35
908.177	8557.92
908.491	8566.29
908.804	8519.96
909.117	8531.94
909.43	8495.1
909.743	8445.39
910.056	8457.36
910.368	8364.26
910.681	8352.28
910.994	8331.26
911.307	8302.11
911.619	8264.83
911.932	8243.36
912.244	8149.35
912.557	8222.11
912.869	8095.11
913.181	8078.84
913.494	8131.04
913.806	8008.33
914.118	7990.03
914.43	7934.21
914.742	7937.38
915.054	7889.92
915.366	7886.98
915.678	7838.85
915.99	7779.19
916.302	7712.75
916.613	7725.18
916.925	7688.57
917.236	7685.63
917.548	7596.37
917.859	7624.39
918.171	7503.94
918.482	7572.19
918.794	7487.22
919.105	7519.53
919.416	7439.76
919.727	7459.87
920.038	7389.37
920.349	7368.35
920.66	7377.62
920.971	7340.33
921.282	7223.27
921.593	7291.29
921.903	7213.33
922.214	7211.52
922.525	7174.23
922.835	7175.14
923.146	7108.02
923.456	7100.79
923.767	7071.41
924.077	7084.74
924.387	6983.95
924.697	6959.1
925.008	6960.45
925.318	6954.8
925.628	6934.92
925.938	6876.16
926.248	6863.28
926.558	6831.87
926.867	6801.36
927.177	6793.23
927.487	6771.08
927.796	6739.67
928.106	6666.67
928.416	6652.66
928.725	6591.2
929.034	6577.64
929.344	6590.74
929.653	6562.04
929.962	6508.49
930.271	6497.87
930.581	6475.72
930.89	6465.78
931.199	6399.79
931.508	6369.51
931.817	6373.35
932.125	6347.81
932.434	6339.68
932.743	6248.38
933.051	6283.18
933.36	6221.04
933.669	6174.71
933.977	6168.16
934.286	6192.34
934.594	6187.82
934.902	6097.2
935.21	6077.31
935.519	6092
935.827	6078.67
936.135	6023.53
936.443	5985.79
936.751	6025.79
937.059	5980.37
937.367	5949.86
937.674	5954.15
937.982	5909.18
938.29	5898.33
938.597	5826.7
938.905	5829.63
939.213	5758.68
939.52	5791.9
939.827	5761.84
940.135	5740.37
940.442	5706.25
940.749	5724.1
941.056	5724.55
941.363	5615.4
941.67	5592.35
941.977	5561.85
942.284	5538.12
942.591	5488.4
942.898	5497.44
943.205	5531.34
943.511	5464.45
943.818	5453.37
944.125	5408.18
944.431	5388.74
944.738	5395.52
945.044	5348.74
945.35	5389.42
945.657	5297.67
945.963	5322.08
946.269	5280.5
946.575	5308.07
946.881	5228.29
947.187	5232.36
947.493	5202.08
947.799	5148.52
948.105	5183.32
948.41	5117.11
948.716	5120.5
949.022	5128.18
949.327	5067.17
949.633	5059.26
949.938	5033.27
950.244	5033.72
950.549	5006.83
950.854	4961.18
951.16	4969.77
951.465	4922.09
951.77	4926.83
952.075	4861.75
952.38	4825.59
952.685	4841.64
952.99	4747.63
953.294	4779.27
953.599	4794.41
953.904	4731.58
954.209	4704.47
954.513	4705.37
954.818	4715.31
955.122	4678.03
955.426	4650.91
955.731	4646.84
956.035	4624.47
956.339	4628.54
956.643	4607.97
956.948	4581.31
957.252	4591.7
957.556	4525.49
957.86	4504.25
958.163	4493.85
958.467	4493.17
958.771	4450.24
959.075	4444.13
959.378	4434.64
959.682	4425.6
959.985	4357.36
960.289	4379.05
960.592	4363.68
960.896	4347.41
961.199	4274.87
961.502	4280.75
961.805	4247.08
962.108	4260.18
962.411	4231.26
962.714	4219.96
963.017	4186.06
963.32	4171.83
963.623	4125.95
963.926	4168.89
964.228	4168.44
964.531	4122.34
964.833	4122.34
965.136	4096.57
965.438	4073.52
965.741	4044.82
966.043	4010.7
966.345	4023.35
966.648	4008.21
966.95	4005.05
967.252	3944.49
967.554	3958.5
967.856	3914.43
968.158	3891.38
968.46	3865.39
968.761	3901.78
969.063	3845.28
969.365	3869.91
969.666	3794.43
969.968	3845.28
970.269	3829.69
970.571	3784.94
970.872	3748.56
971.174	3740.2
971.475	3704.94
971.776	3693.65
972.077	3729.35
972.378	3750.37
972.679	3684.61
972.98	3664.72
973.281	3669.69
973.582	3646.42
973.883	3598.96
974.183	3602.35
974.484	3579.07
974.785	3557.38
975.085	3570.71
975.386	3569.81
975.686	3524.61
975.986	3510.15
976.287	3549.24
976.587	3473.09
976.887	3475.8
977.187	3446.42
977.487	3429.7
977.787	3427.89
978.087	3368.23
978.387	3391.51
978.687	3362.36
978.987	3335.01
979.286	3315.35
979.586	3333.43
979.885	3311.51
980.185	3329.14
980.484	3269.93
980.784	3243.49
981.083	3248.01
981.382	3262.47
981.682	3211.4
981.981	3184.05
982.28	3166.43
982.579	3159.87
982.878	3175.47
983.177	3143.15
983.475	3155.35
983.774	3140.21
984.073	3087.11
984.372	3112.87
984.67	3115.13
984.969	3069.26
985.267	3108.35
985.566	3045.3
985.864	3025.87
986.162	3009.82
986.461	2991.74
986.759	3004.17
987.057	2960.33
987.355	2946.77
987.653	2942.71
987.951	2943.16
988.249	2928.02
988.547	2935.93
988.844	2898.86
989.142	2918.07
989.44	2852.99
989.737	2829.26
990.035	2838.53
990.332	2831.75
990.63	2871.07
990.927	2829.04
991.224	2786.33
991.521	2794.91
991.819	2772.99
992.116	2765.08
992.413	2741.35
992.71	2749.04
993.006	2728.47
993.303	2711.07
993.6	2712.65
993.897	2700.9
994.193	2683.95
994.49	2695.71
994.787	2636.72
995.083	2645.09
995.379	2636.5
995.676	2617.97
995.972	2585.65
996.268	2595.82
996.565	2574.13
996.861	2578.19
997.157	2552.21
997.453	2542.49
997.749	2511.08
998.044	2545.88
998.34	2552.43
998.636	2476.95
998.932	2479.89
999.227	2472.89
999.523	2443.96
999.818	2455.26
1000.114	2462.72
1000.409	2413.23
1000.704	2422.72
1001	2407.58
1001.295	2389.27
1001.59	2404.19
1001.885	2386.11
1002.18	2346.56
1002.475	2341.59
1002.77	2332.78
1003.065	2310.18
1003.359	2283.74
1003.654	2315.83
1003.949	2258.66
1004.243	2304.53
1004.538	2247.36
1004.832	2255.04
1005.127	2244.42
1005.421	2252.33
1005.715	2215.72
1006.009	2190.86
1006.304	2169.84
1006.598	2165.78
1006.892	2147.47
1007.186	2129.85
1007.48	2147.47
1007.773	2147.92
1008.067	2132.1
1008.361	2108.83
1008.655	2069.06
1008.948	2082.16
1009.242	2070.64
1009.535	2058.66
1009.829	2040.36
1010.122	2021.15
1010.415	2008.27
1010.708	2008.72
1011.001	1968.27
1011.295	1975.27
1011.588	1992.9
1011.881	1969.85
1012.173	1953.58
1012.466	1942.96
1012.759	1930.3
1013.052	1922.62
1013.344	1893.92
1013.637	1907.25
1013.93	1882.85
1014.222	1888.5
1014.514	1876.29
1014.807	1838.1
1015.099	1842.17
1015.391	1867.93
1015.683	1810.98
1015.976	1809.4
1016.268	1797.42
1016.56	1780.7
1016.851	1768.05
1017.143	1769.63
1017.435	1789.97
1017.727	1744.32
1018.018	1687.82
1018.31	1749.06
1018.602	1675.62
1018.893	1706.58
1019.185	1683.53
1019.476	1687.6
1019.767	1672.68
1020.058	1660.7
1020.35	1660.25
1020.641	1630.88
1020.932	1648.28
1021.223	1625.45
1021.514	1613.02
1021.804	1581.84
1022.095	1583.87
1022.386	1586.36
1022.677	1529.18
1022.967	1508.84
1023.258	1533.93
1023.548	1498.22
1023.839	1508.62
1024.129	1503.19
1024.419	1527.38
1024.709	1481.5
1025	1492.57
1025.29	1456.19
1025.58	1460.03
1025.87	1449.41
1026.16	1436.08
1026.449	1424.1
1026.739	1408.73
1027.029	1384.33
1027.319	1425
1027.608	1378.68
1027.898	1392.46
1028.187	1394.5
1028.477	1367.83
1028.766	1356.53
1029.055	1333.71
1029.344	1330.32
1029.634	1340.71
1029.923	1328.74
1030.212	1312.92
1030.501	1299.13
1030.79	1296.65
1031.078	1262.52
1031.367	1283.99
1031.656	1230.66
1031.945	1247.83
1032.233	1264.11
1032.522	1242.41
1032.81	1244.22
1033.099	1224.56
1033.387	1235.18
1033.675	1189.3
1033.963	1180.49
1034.251	1208.74
1034.54	1185.01
1034.828	1185.69
1035.116	1165.58
1035.403	1156.09
1035.691	1166.71
1035.979	1154.05
1036.267	1129.65
1036.554	1131.23
1036.842	1150.89
1037.129	1078.12
1037.417	1102.75
1037.704	1119.48
1037.992	1101.62
1038.279	1078.35
1038.566	1070.89
1038.853	1070.89
1039.14	1070.89
