Data from aluminium_surface_pro_back_FLMS001491_00082.txt Node
Date: Wed Feb 08 15:34:39 GMT 2017
User: dcchb
Spectrometer: FLMS00149
Trigger mode: 0
Integration Time (sec): 2.000000E-2
Scans to average: 10
Electric dark correction enabled: true
Nonlinearity correction enabled: false
Boxcar width: 0
XAxis mode: Wavelengths
Number of Pixels in Spectrum: 2048
>>>>>Begin Spectral Data<<<<<
341.393	6.2
341.776	6.2
342.16	6.2
342.543	-60.69
342.927	-64.76
343.31	-72.22
343.693	-75.15
344.077	-59.11
344.46	-60.46
344.843	-43.97
345.226	-55.04
345.61	-49.84
345.993	-17.3
346.376	4.39
346.759	24.28
347.142	25.18
347.525	58.18
347.908	52.07
348.291	89.81
348.674	75.13
349.057	104.05
349.44	133.43
349.823	156.25
350.206	181.11
350.588	223.82
350.971	227.44
351.354	218.17
351.737	261.33
352.119	280.77
352.502	285.52
352.884	303.37
353.267	297.49
353.65	333.65
354.032	337.49
354.414	340.88
354.797	352.86
355.179	348.11
355.562	361.67
355.944	352.63
356.326	344.72
356.709	381.11
357.091	353.76
357.473	366.19
357.855	361.45
358.238	414.33
358.62	385.85
359.002	363.48
359.384	394.44
359.766	377.49
360.148	394.21
360.53	367.55
360.912	386.98
361.294	389.69
361.676	381.56
362.057	389.47
362.439	368.68
362.821	386.53
363.203	378.17
363.584	370.48
363.966	375.68
364.348	374.55
364.729	373.2
365.111	359.86
365.493	386.76
365.874	388.11
366.256	367.32
366.637	362.12
367.019	368.68
367.4	387.21
367.781	389.24
368.163	374.55
368.544	380.65
368.925	381.33
369.306	399.18
369.688	383.37
370.069	380.2
370.45	390.37
370.831	381.33
371.212	395.57
371.593	406.42
371.974	392.4
372.355	395.57
372.736	391.5
373.117	400.09
373.498	413.2
373.879	372.52
374.26	394.66
374.641	365.51
375.021	409.81
375.402	417.72
375.783	413.65
376.163	427.66
376.544	418.17
376.925	408.9
377.305	432.86
377.686	404.38
378.066	458.39
378.447	434.66
378.827	422.01
379.208	463.59
379.588	428.11
379.968	431.5
380.349	451.84
380.729	467.88
381.109	458.39
381.489	472.85
381.87	457.49
382.25	474.66
382.63	471.05
383.01	485.74
383.39	479.41
383.77	475.11
384.15	492.52
384.53	486.64
384.91	493.19
385.29	488.9
385.67	488.9
386.049	488.9
386.429	493.87
386.809	516.24
387.189	513.53
387.568	530.03
387.948	527.77
388.328	540.2
388.707	545.17
389.087	550.59
389.466	549.46
389.846	557.15
390.225	568.67
390.605	579.07
390.984	589.91
391.363	607.77
391.743	588.33
392.122	603.92
392.501	615.22
392.881	632.85
393.26	618.39
393.639	635.11
394.018	639.18
394.397	638.05
394.776	644.15
395.155	664.26
395.534	655.67
395.913	649.12
396.292	668.78
396.671	689.8
397.05	658.84
397.429	695.45
397.808	698.61
398.186	728.89
398.565	703.36
398.944	738.84
399.323	729.8
399.701	720.76
400.08	779.06
400.458	754.43
400.837	756.46
401.215	774.09
401.594	782
401.972	793.75
402.351	799.17
402.729	787.2
403.107	803.69
403.486	818.83
403.864	815.9
404.242	840.75
404.62	824.03
404.999	857.7
405.377	892.05
405.755	890.47
406.133	907.42
406.511	911.26
406.889	913.3
407.267	918.49
407.645	938.83
408.023	971.6
408.401	975.44
408.779	991.94
409.156	1001.65
409.534	998.94
409.912	1022.9
410.29	1019.51
410.667	1059.28
411.045	1084.59
411.422	1080.3
411.8	1073.74
412.178	1104.48
412.555	1120.97
412.933	1114.42
413.31	1139.73
413.687	1154.19
414.065	1188.32
414.442	1195.55
414.819	1199.39
415.197	1205.26
415.574	1235.09
415.951	1251.14
416.328	1242.55
416.705	1287.75
417.082	1272.16
417.46	1291.14
417.837	1302.21
418.214	1316.45
418.591	1307.86
418.967	1363.9
419.344	1361.19
419.721	1376.11
420.098	1381.76
420.475	1415.2
420.852	1408.88
421.228	1427.41
421.605	1450
421.982	1469.21
422.358	1464.69
422.735	1506.27
423.111	1520.51
423.488	1537.01
423.864	1534.3
424.241	1543.79
424.617	1570
424.994	1588.53
425.37	1631.92
425.746	1623.78
426.123	1632.15
426.499	1648.42
426.875	1683.67
427.251	1728.64
427.627	1732.48
428.003	1755.98
428.379	1754.85
428.756	1795.98
429.132	1790.56
429.507	1831.46
429.883	1866.26
430.259	1885.92
430.635	1902.2
431.011	1954.17
431.387	1969.09
431.763	2004.11
432.138	2018.58
432.514	2026.03
432.89	2049.31
433.265	2091.8
433.641	2109.42
434.016	2153.26
434.392	2200.94
434.767	2248.85
435.143	2236.65
435.518	2229.42
435.894	2296.08
436.269	2317.78
436.644	2352.13
437.02	2336.08
437.395	2432.35
437.77	2392.13
438.145	2455.85
438.52	2451.11
438.895	2465.8
439.271	2489.3
439.646	2556.42
440.021	2605.45
440.395	2612.69
440.77	2577.66
441.145	2598.45
441.52	2679.35
441.895	2707.15
442.27	2697.43
442.645	2682.29
443.019	2763.64
443.394	2741.04
443.769	2799.12
444.143	2746.02
444.518	2846.35
444.892	2834.6
445.267	2881.61
445.641	2903.3
446.016	2895.16
446.39	2957.76
446.764	2983.75
447.139	2956.86
447.513	2992.11
447.887	2977.2
448.262	3040.02
448.636	3069.4
449.01	3087.93
449.384	3094.48
449.758	3135.61
450.132	3203.86
450.506	3194.14
450.88	3244.53
451.254	3251.54
451.628	3279.79
452.002	3321.82
452.376	3328.82
452.75	3384.42
453.123	3406.34
453.497	3460.35
453.871	3526.79
454.244	3538.08
454.618	3615.6
454.992	3639.78
455.365	3645.88
455.739	3778.53
456.112	3778.76
456.486	3803.84
456.859	3852.2
457.232	3911.86
457.606	3902.6
457.979	3994.34
458.352	4035.47
458.725	4074.79
459.099	4160.89
459.472	4234.34
459.845	4240.21
460.218	4318.63
460.591	4323.6
460.964	4355.92
461.337	4513.43
461.71	4554.1
462.083	4628.68
462.456	4618.96
462.829	4648.79
463.201	4736.7
463.574	4734.21
463.947	4808.79
464.32	4911.83
464.692	4938.05
465.065	5017.82
465.438	5097.59
465.81	5191.6
466.183	5255.33
466.555	5313.63
466.928	5398.38
467.3	5396.34
467.672	5462.55
468.045	5569.67
468.417	5595.43
468.789	5637.24
469.161	5780.74
469.534	5858.48
469.906	5968.76
470.278	6002.88
470.65	6074.29
471.022	6154.74
471.394	6332.14
471.766	6361.06
472.138	6404.45
472.51	6646.03
472.882	6734.84
473.253	6768.06
473.625	6819.81
473.997	6987.49
474.369	7041.5
474.74	7170.98
475.112	7280.13
475.484	7423.63
475.855	7515.16
476.227	7663.17
476.598	7919.21
476.97	7878.08
477.341	8133.67
477.713	8264.29
478.084	8246.89
478.455	8563.26
478.827	8598.06
479.198	8797.83
479.569	8876.48
479.94	9104.27
480.311	9217.26
480.682	9398.95
481.053	9623.35
481.424	9798.03
481.795	9872.16
482.166	10066.27
482.537	10198.25
482.908	10382.2
483.279	10426.72
483.65	10715.07
484.021	10883.2
484.391	11060.82
484.762	11149.41
485.133	11370.65
485.503	11406.35
485.874	11684.09
486.244	11819.9
486.615	12006.34
486.985	12273.45
487.356	12503.72
487.726	12612.65
488.097	12830.5
488.467	12903.26
488.837	13183.48
489.207	13340.54
489.578	13514.32
489.948	13632.73
490.318	13817.14
490.688	13835.44
491.058	14164.47
491.428	14297.35
491.798	14435.2
492.168	14701.86
492.538	14837.67
492.908	15042.87
493.278	15199.47
493.648	15299.81
494.017	15372.8
494.387	15628.16
494.757	15735.96
495.126	15878.1
495.496	15903.41
495.866	16111.99
496.235	16325.77
496.605	16411.42
496.974	16561.92
497.344	16658.42
497.713	16704.29
498.082	16935.7
498.452	17164.62
498.821	17156.48
499.19	17302.92
499.559	17498.62
499.928	17643.48
500.298	17859.52
500.667	17896.8
501.036	17965.05
501.405	18204.82
501.774	18114.65
502.143	18382.44
502.512	18586.05
502.88	18539.27
503.249	18733.62
503.618	18871.47
503.987	19026.04
504.356	19121.18
504.724	19191.01
505.093	19306.03
505.462	19415.18
505.83	19540.83
506.199	19742.86
506.567	19995.05
506.936	20007.48
507.304	20177.42
507.672	20345.78
508.041	20412.44
508.409	20561.14
508.777	20790.06
509.145	21032.99
509.514	20916.61
509.882	21214.91
510.25	21311.85
510.618	21467.78
510.986	21610.15
511.354	21798.85
511.722	21897.15
512.09	22184.83
512.458	22178.72
512.826	22465.04
513.193	22585.95
513.561	22719.73
513.929	22944.58
514.297	23091.7
514.664	23221.64
515.032	23409.43
515.4	23625.92
515.767	23645.13
516.135	23890.09
516.502	23829.53
516.869	24229.07
517.237	24462.73
517.604	24307.48
517.972	24673.8
518.339	24931.87
518.706	25008.03
519.073	25105.65
519.44	25220.45
519.808	25583.61
520.175	25695.02
520.542	25937.27
520.909	26113.08
521.276	26192.63
521.643	26547.65
522.009	26716.68
522.376	26969.33
522.743	27151.7
523.11	27367.29
523.477	27676.66
523.843	27817.22
524.21	28023.09
524.577	28383.76
524.943	28435.96
525.31	28679.12
525.676	29026
526.043	29231.42
526.409	29290.63
526.776	29769.26
527.142	29709.83
527.508	30016.71
527.874	30235.46
528.241	30453.54
528.607	30554.78
528.973	30864.15
529.339	30802.45
529.705	31276.79
530.071	31482.43
530.437	31635.2
530.803	31763.56
531.169	31999.94
531.535	32081.97
531.901	32138.69
532.267	32324.22
532.632	32486.7
532.998	32691.22
533.364	33015.5
533.73	33065.44
534.095	33200.13
534.461	33494.81
534.826	33575.04
535.192	33792.88
535.557	34055.47
535.923	34026.1
536.288	34170.27
536.653	34331.63
537.019	34222.48
537.384	34543.82
537.749	34673.31
538.114	34856.13
538.479	34906.98
538.845	35062.68
539.21	35007.54
539.575	35195.33
539.94	35332.05
540.305	35507.19
540.67	35344.48
541.034	35687.52
541.399	35799.16
541.764	35997.57
542.129	36046.16
542.494	36147.62
542.858	36237.11
543.223	36341.06
543.587	36556.65
543.952	36517.56
544.316	36700.6
544.681	36731.34
545.045	36940.37
545.41	37127.94
545.774	37287.71
546.138	37328.83
546.503	37521.6
546.867	37551.88
547.231	37980.57
547.595	37973.34
547.959	38065.09
548.324	38114.58
548.688	38356.15
549.052	38551.63
549.416	38568.58
549.779	38752.53
550.143	38788.01
550.507	39069.81
550.871	39237.03
551.235	39140.09
551.599	39474.77
551.962	39430.25
552.326	39456.91
552.689	39584.82
553.053	39736.68
553.417	39752.05
553.78	40297.8
554.143	40084.69
554.507	40231.36
554.87	40386.61
555.234	40757.45
555.597	40614.85
555.96	40856.2
556.323	40987.72
556.686	41177.32
557.05	41502.06
557.413	41507.03
557.776	41652.79
558.139	41865.21
558.502	41980.92
558.865	42037.86
559.228	42388.14
559.59	42454.58
559.953	42557.4
560.316	43133.43
560.679	43119.19
561.041	43360.77
561.404	43662.23
561.767	43734.32
562.129	43771.15
562.492	44199.84
562.854	44136.57
563.217	44241.87
563.579	44456.56
563.941	44769.09
564.304	44971.8
564.666	45180.61
565.028	45293.37
565.39	45552.35
565.753	45758.9
566.115	45845.45
566.477	46017.65
566.839	46067.14
567.201	46519.1
567.563	46581.02
567.925	46898.98
568.287	46788.02
568.648	47016.94
569.01	47230.72
569.372	47379.64
569.734	47301
570.095	47632.74
570.457	47877.48
570.819	48035.45
571.18	47995.9
571.542	48289.45
571.903	48226.85
572.265	48425.04
572.626	48669.1
572.987	48699.84
573.349	48824.8
573.71	49028.64
574.071	49183.66
574.432	49236.09
574.794	49494.84
575.155	49532.58
575.516	49331.91
575.877	49675.85
576.238	49751.56
576.599	49850.77
576.96	49914.27
577.32	49938.22
577.681	50086.69
578.042	50255.27
578.403	50230.87
578.763	50344.99
579.124	50297.31
579.485	50610.07
579.845	50613.68
580.206	50489.39
580.566	50617.07
580.927	50622.27
581.287	50901.13
581.648	50679.67
582.008	50940.91
582.368	50913.56
582.728	50852.32
583.089	50882.38
583.449	50948.82
583.809	51059.32
584.169	51005.54
584.529	50979.1
584.889	51256.38
585.249	51130.51
585.609	51223.61
585.969	51356.71
586.329	51212.99
586.688	51250.95
587.048	51246.66
587.408	51184.29
587.768	51288.02
588.127	51274.68
588.487	51143.39
588.846	51502.02
589.206	51147.68
589.565	51256.38
589.925	51338.41
590.284	51269.49
590.643	51334.79
591.003	51380.67
591.362	51429.71
591.721	51331.18
592.08	51422.7
592.44	51454.57
592.799	51485.75
593.158	51478.75
593.517	51432.42
593.876	51376.83
594.235	51419.09
594.593	51450.27
594.952	51547.44
595.311	51426.77
595.67	51546.77
596.029	51760.09
596.387	51807.32
596.746	51680.32
597.104	51640.77
597.463	51661.57
597.822	51745.18
598.18	51644.16
598.538	51628.35
598.897	51801.9
599.255	51625.18
599.613	52054.78
599.972	51901.56
600.33	51852.75
600.688	51826.08
601.046	51934.55
601.404	52019.52
601.762	51974.78
602.12	52140.65
602.478	52140.87
602.836	52191.49
603.194	52022.23
603.552	52056.36
603.91	52031.05
604.268	52226.07
604.625	52124.15
604.983	52335.9
605.341	52060.42
605.698	52297.71
606.056	52322.56
606.413	52225.39
606.771	52339.74
607.128	52447.53
607.485	52251.15
607.843	52305.84
608.2	52487.98
608.557	52574.54
608.914	52429.45
609.272	52499.96
609.629	52692.5
609.986	52819.05
610.343	52700.41
610.7	52891.14
611.057	52814.98
611.414	52816.79
611.771	52808.65
612.127	52936.11
612.484	52956.9
612.841	53021.76
613.198	52951.25
613.554	52957.8
613.911	53128.87
614.267	53149.44
614.624	53049.55
614.98	53277.57
615.337	53327.96
615.693	53222.2
616.05	53248.19
616.406	53473.72
616.762	53343.1
617.118	53315.99
617.475	53285.48
617.831	53374.51
618.187	53390.56
618.543	53399.6
618.899	53516.88
619.255	53498.58
619.611	53447.96
619.967	53521.4
620.323	53595.53
620.678	53484.57
621.034	53430.78
621.39	53402.54
621.746	53431.91
622.101	53711.91
622.457	53460.84
622.812	53570.67
623.168	53693.6
623.523	53663.32
623.879	53791.68
624.234	53574.51
624.589	53703.32
624.945	53802.53
625.3	53855.63
625.655	53757.56
626.01	53791.23
626.365	53777.44
626.72	53693.15
627.075	53724.79
627.43	53680.95
627.785	53614.51
628.14	53725.47
628.495	53661.06
628.85	53606.15
629.205	53642.98
629.559	53722.75
629.914	53587.84
630.269	53668.29
630.623	53622.19
630.978	53534.74
631.332	53629.88
631.687	53637.11
632.041	53453.83
632.396	53546.04
632.75	53345.59
633.104	53509.2
633.459	53366.83
633.813	53308.53
634.167	53237.57
634.521	53211.13
634.875	53299.49
635.229	53328.64
635.583	53089.32
635.937	53079.16
636.291	52980.85
636.645	52930.46
636.999	52805.72
637.352	52932.27
637.706	52621.77
638.06	52777.92
638.413	52681.43
638.767	52555.78
639.121	52638.26
639.474	52392.85
639.828	52447.53
640.181	52456.8
640.534	52438.49
640.888	52417.48
641.241	52279.18
641.594	52314.66
641.947	52331.83
642.301	52207.77
642.654	52287.09
643.007	52255.67
643.36	52190.59
643.713	52252.06
644.066	52260.65
644.419	52054.1
644.771	51819.3
645.124	51566.88
645.477	51524.17
645.83	51398.75
646.182	51138.64
646.535	51013.45
646.888	51076.72
647.24	50895.26
647.593	51142.48
647.945	50934.58
648.298	50757.18
648.65	50703.62
649.002	50593.57
649.355	50784.3
649.707	50751.08
650.059	50863.85
650.411	51194.23
650.763	51255.02
651.115	51482.14
651.467	51511.74
651.819	51388.13
652.171	51317.17
652.523	51227
652.875	51198.3
653.227	51181.8
653.578	51233.78
653.93	51251.86
654.282	51077.63
654.633	51039.89
654.985	51136.61
655.337	51109.04
655.688	51088.7
656.039	51231.07
656.391	50896.84
656.742	51010.96
657.094	50823.62
657.445	51062.26
657.796	50884.18
658.147	50758.99
658.498	50803.73
658.849	50757.18
659.2	50776.84
659.551	50656.62
659.902	50814.58
660.253	50667.69
660.604	50664.08
660.955	50519.22
661.306	50556.96
661.656	50450.52
662.007	50531.43
662.358	50533.46
662.708	50546.11
663.059	50462.27
663.409	50260.92
663.76	50550.18
664.11	50518.77
664.461	50457.08
664.811	50440.13
665.161	50366.23
665.511	50216.86
665.862	50389.73
666.212	50474.7
666.562	50349.06
666.912	50311.32
667.262	50267.03
667.612	50296.18
667.962	50255.73
668.312	50206.01
668.662	50302.28
669.011	50231.55
669.361	50149.97
669.711	50095.5
670.06	50039.01
670.41	50047.82
670.76	49866.81
671.109	50120.81
671.459	50063.87
671.808	49905.23
672.157	50025
672.507	49768.96
672.856	49814.61
673.205	49945.23
673.554	50113.81
673.904	49883.98
674.253	50021.61
674.602	49868.84
674.951	49407.84
675.3	49125.13
675.649	49688.74
675.998	49761.5
676.346	49755.85
676.695	49797.43
677.044	49427.05
677.393	49635.18
677.741	49772.8
678.09	49580.72
678.438	49573.94
678.787	49719.92
679.135	49520.38
679.484	49272.93
679.832	49297.79
680.181	49171.91
680.529	49348.18
680.877	49284.45
681.225	49130.56
681.573	49321.51
681.922	49045.59
682.27	48805.6
682.618	48968.08
682.966	48879.94
683.314	48865.48
683.661	48702.32
684.009	48651.25
684.357	48550.01
684.705	48426.85
685.053	48531.7
685.4	48387.3
685.748	48296.23
686.095	48187.98
686.443	48039.51
686.79	47950.7
687.138	48187.31
687.485	47865.96
687.832	47841.55
688.18	47849.91
688.527	47756.36
688.874	47689.92
689.221	47588
689.568	47528.11
689.915	47531.96
690.262	47350.72
690.609	47224.39
690.956	47101.91
691.303	47091.74
691.65	46866.66
691.997	46953.44
692.344	46695.59
692.69	46548.25
693.037	46672.77
693.383	46279.11
693.73	46380.12
694.077	46048.83
694.423	46055.16
694.769	45890.19
695.116	45996.18
695.462	46027.59
695.808	45743.3
696.155	45740.14
696.501	45405.23
696.847	45425.12
697.193	45117.56
697.539	45270.09
697.885	45060.61
698.231	44923.66
698.577	44733.61
698.923	44771.8
699.269	44553.73
699.614	44487.29
699.96	44256.34
700.306	44291.14
700.651	44087.98
700.997	43972.5
701.342	43964.14
701.688	43794.43
702.033	43666.52
702.379	43728.21
702.724	43359.64
703.069	43608.44
703.415	43179.08
703.76	43099.3
704.105	43161.45
704.45	43111.28
704.795	42965.07
705.14	42707.68
705.485	42658.19
705.83	42490.28
706.175	42657.06
706.52	42479.43
706.865	42289.38
707.209	42203.73
707.554	42129.39
707.899	42201.48
708.243	41822.5
708.588	41980.46
708.932	41761.94
709.277	41669.29
709.621	41773.46
709.966	41302.06
710.31	41409.18
710.654	41067.27
710.998	41088.74
711.342	41104.1
711.687	40960.83
712.031	40646.71
712.375	40715.41
712.719	40821.62
713.063	40773.04
713.407	40813.71
713.75	40458.24
714.094	40440.84
714.438	40194.52
714.782	40351.13
715.125	40085.6
715.469	40232.49
715.812	39936.9
716.156	39772.39
716.499	39827.07
716.843	39838.6
717.186	39527.2
717.53	39580.75
717.873	39545.05
718.216	39452.85
718.559	39365.84
718.902	39137.15
719.246	39243.59
719.589	39268.67
719.932	39133.53
720.275	39071.61
720.617	39098.51
720.96	38901.45
721.303	38849.25
721.646	38925.18
721.989	38705.97
722.331	38757.95
722.674	38525.64
723.016	38542.81
723.359	38522.7
723.701	38490.39
724.044	38165.42
724.386	37878.65
724.729	38117.29
725.071	38027.57
725.413	37993.45
725.755	37901.7
726.097	37755.26
726.439	37616.51
726.782	37689.05
727.124	37800.69
727.465	37457.65
727.807	37505.78
728.149	37379.23
728.491	37405.44
728.833	37450.87
729.175	37069.18
729.516	37181.72
729.858	37104.66
730.199	37161.61
730.541	36900.82
730.882	36798.45
731.224	37063.53
731.565	36686.59
731.906	36773.82
732.248	36702.18
732.589	36540.16
732.93	36387.39
733.271	36350.78
733.612	36479.82
733.953	36467.39
734.294	36285.02
734.635	36116.44
734.976	36208.19
735.317	36115.99
735.658	36029.66
735.999	35901.3
736.339	35901.75
736.68	35891.13
737.021	35644.36
737.361	35568.43
737.702	35947.4
738.042	35741.76
738.383	35644.59
738.723	35576.56
739.063	35448.21
739.404	35587.19
739.744	35508.09
740.084	35279.17
740.424	35313.52
740.764	35123.92
741.104	35199.4
741.444	35047.31
741.784	34906.53
742.124	35093.41
742.464	34905.17
742.804	34757.6
743.143	34711.05
743.483	34669.02
743.823	34506.31
744.162	34489.81
744.502	34486.2
744.841	34310.84
745.181	34447.33
745.52	34183.38
745.86	34337.5
746.199	34362.36
746.538	34150.39
746.877	34178.18
747.216	34102.03
747.556	33905.2
747.895	33918.08
748.234	33864.97
748.573	33707.91
748.911	33637.63
749.25	33666.11
749.589	33546.56
749.928	33492.78
750.267	33523.51
750.605	33370.07
750.944	33287.59
751.283	33081.26
751.621	33145.22
751.96	32965.79
752.298	33150.19
752.636	33197.87
752.975	32958.33
753.313	32752.68
753.651	32902.28
753.989	32712.46
754.327	32701.39
754.666	32506.36
755.004	32651.67
755.342	32557.21
755.679	32488.96
756.017	32343.88
756.355	32305.46
756.693	32178.24
757.031	32200.83
757.368	32027.96
757.706	31938.47
758.044	31832.71
758.381	31809.43
758.719	31653.28
759.056	31705.25
759.394	31562.21
759.731	31378.48
760.068	31265.04
760.405	31200.41
760.743	31111.82
761.08	31173.97
761.417	30872.96
761.754	30792.28
762.091	30667.77
762.428	30628.22
762.765	30551.61
763.102	30501.22
763.438	30346.87
763.775	30189.59
764.112	30210.15
764.449	30141.91
764.785	30078.4
765.122	29783.04
765.458	29706.21
765.795	29745.53
766.131	29809.94
766.467	29616.04
766.804	29437.52
767.14	29360.68
767.476	29349.38
767.812	29046.34
768.148	29277.52
768.485	29011.99
768.821	28861.49
769.157	28911.88
769.492	28780.36
769.828	28786.91
770.164	28392.8
770.5	28376.53
770.836	28310.99
771.171	28103.31
771.507	28082.52
771.842	27689.54
772.178	27841.63
772.513	27798.69
772.849	27641.41
773.184	27537.23
773.519	27537.23
773.855	27454.97
774.19	27268.31
774.525	27109.89
774.86	27060.63
775.195	26967.75
775.53	26959.84
775.865	26729.57
776.2	26516.92
776.535	26299.07
776.87	26451.15
777.205	26196.47
777.539	26197.6
777.874	26220.65
778.209	25878.29
778.543	25907.44
778.878	25680.1
779.212	25740.44
779.547	25570.05
779.881	25636.49
780.215	25439.2
780.55	25417.96
780.884	25237.18
781.218	25119.66
781.552	25108.59
781.886	25008.03
782.22	24843.06
782.554	24733.01
782.888	24565.33
783.222	24526.69
783.556	24426.8
783.889	24301.38
784.223	24182.06
784.557	24104.78
784.89	24123.08
785.224	24001.73
785.557	23780.26
785.891	23801.96
786.224	23772.13
786.558	23665.47
786.891	23535.07
787.224	23495.3
787.557	23484.45
787.891	23324.91
788.224	23306.83
788.557	23279.94
788.89	23202.43
789.223	23086.05
789.556	23023.67
789.888	22933.73
790.221	22824.13
790.554	22607.41
790.887	22721.99
791.219	22659.39
791.552	22517.7
791.884	22378.49
792.217	22342.34
792.549	22321.32
792.882	22162.23
793.214	22063.93
793.546	21992.74
793.879	21898.73
794.211	21735.35
794.543	21777.38
794.875	21656.7
795.207	21628.46
795.539	21657.38
795.871	21645.86
796.203	21318.41
796.535	21241.35
796.867	21200.9
797.198	21136.49
797.53	21122.48
797.862	20958.19
798.193	21009.49
798.525	20866.67
798.856	20920.45
799.188	20581.25
799.519	20633.91
799.85	20474.36
800.182	20453.57
800.513	20442.5
800.844	20311.88
801.175	20354.82
801.506	20304.2
801.837	20175.61
802.168	20126.35
802.499	20029.63
802.83	19969.07
803.161	19986.47
803.491	19847.26
803.822	19869.63
804.153	19751.67
804.483	19591.22
804.814	19556.65
805.145	19604.56
805.475	19508.74
805.805	19392.58
806.136	19419.93
806.466	19397.33
806.796	19368.63
807.126	19197.79
807.457	19085.02
807.787	19077.34
808.117	19078.69
808.447	18964.8
808.777	19036.43
809.107	18919.6
809.436	18816.55
809.766	18871.69
810.096	18848.87
810.426	18696.78
810.755	18663.79
811.085	18606.62
811.414	18534.98
811.744	18504.7
812.073	18430.57
812.403	18376.79
812.732	18264.25
813.061	18297.92
813.39	18120.53
813.719	18116.91
814.049	18186.29
814.378	18154.42
814.707	18076.46
815.036	17988.1
815.365	17864.26
815.693	17746.07
816.022	17794.66
816.351	17619.97
816.68	17640.31
817.008	17693.87
817.337	17482.35
817.665	17488
817.994	17620.88
818.322	17441.9
818.651	17343.37
818.979	17320.32
819.307	17335.46
819.636	17283.26
819.964	17194.68
820.292	17210.72
820.62	17264.73
820.948	17095.69
821.276	17149.93
821.604	17179.76
821.932	17201.68
822.259	17149.25
822.587	17120.1
822.915	17086.2
823.243	17221.79
823.57	17097.73
823.898	17210.95
824.225	17017.96
824.553	16985.19
824.88	16975.02
825.207	17128.01
825.535	17102.7
825.862	17108.35
826.189	16989.93
826.516	17075.13
826.843	17208.69
827.17	17031.06
827.497	17153.09
827.824	17036.94
828.151	17083.94
828.478	16945.42
828.805	17009.82
829.131	16954.91
829.458	16996.04
829.785	16853.44
830.111	16996.04
830.438	17013.21
830.764	17002.36
831.09	16993.1
831.417	16871.97
831.743	16884.63
832.069	16928.92
832.395	16765.99
832.722	16897.73
833.048	16937.96
833.374	16888.02
833.7	16742.26
834.026	16810.96
834.351	16776.61
834.677	16771.41
835.003	16860.67
835.329	16842.14
835.654	16798.08
835.98	16666.33
836.306	16681.02
836.631	16601.7
836.956	16698.87
837.282	16636.95
837.607	16487.8
837.932	16522.83
838.258	16484.41
838.583	16491.64
838.908	16378.65
839.233	16486.9
839.558	16431.98
839.883	16357.63
840.208	16323.29
840.533	16184.98
840.858	16254.59
841.182	16263.17
841.507	16236.73
841.832	16167.58
842.156	16185.89
842.481	16238.77
842.805	16100.92
843.13	16066.57
843.454	16084.87
843.778	15942.5
844.103	16082.84
844.427	15913.58
844.751	16004.2
845.075	15814.6
845.399	15965.1
845.723	15755.84
846.047	15800.81
846.371	15553.81
846.695	15625.9
847.019	15417.77
847.343	15469.07
847.666	15353.14
847.99	15352.46
848.313	15280.15
848.637	15222.52
848.96	15172.81
849.284	15155.41
849.607	15000.61
849.931	14977.11
850.254	14823.66
850.577	14832.03
850.9	14645.82
851.223	14744.12
851.546	14689.88
851.869	14517.01
852.192	14596.1
852.515	14532.6
852.838	14458.7
853.161	14390.91
853.483	14381.19
853.806	14334.86
854.129	14236.79
854.451	14216.9
854.774	14214.64
855.096	14209.22
855.419	13978.94
855.741	14011.03
856.063	13968.77
856.385	13963.12
856.708	13947.75
857.03	13815.78
857.352	13793.63
857.674	13980.75
857.996	13797.25
858.318	13706.86
858.64	13788.44
858.961	13721.77
859.283	13633.41
859.605	13623.24
859.926	13624.6
860.248	13578.95
860.57	13602.45
860.891	13575.79
861.212	13455.56
861.534	13390.71
861.855	13447.43
862.176	13424.83
862.498	13416.92
862.819	13470.25
863.14	13303.7
863.461	13409.46
863.782	13315
864.103	13308.45
864.424	13384.15
864.745	13382.35
865.065	13249.47
865.386	13169.02
865.707	13184.61
866.027	13174.89
866.348	13096.48
866.668	13118.62
866.989	13098.51
867.309	13081.11
867.63	13099.42
867.95	13031.62
868.27	12924.05
868.59	12918.4
868.91	12872.98
869.23	12859.42
869.55	12934.9
869.87	12897.61
870.19	12868.01
870.51	12875.47
870.83	12860.1
871.15	12843.38
871.469	12752.76
871.789	12822.36
872.109	12782.36
872.428	12748.24
872.748	12789.14
873.067	12820.1
873.386	12868.69
873.706	12797.05
874.025	12640.67
874.344	12604.06
874.663	12684.29
874.982	12663.27
875.301	12682.48
875.62	12586.21
875.939	12609.03
876.258	12546.66
876.577	12555.93
876.896	12551.86
877.214	12543.5
877.533	12512.54
877.852	12514.12
878.17	12525.65
878.489	12529.71
878.807	12494.91
879.125	12375.82
879.444	12423.73
879.762	12384.18
880.08	12415.37
880.398	12321.81
880.716	12385.99
881.034	12209.04
881.352	12357.51
881.67	12232.77
881.988	12290.4
882.306	12277.52
882.624	12282.71
882.941	12138.54
883.259	12232.77
883.577	12120.01
883.894	12056.05
884.212	12101.02
884.529	12052.21
884.846	12013.12
885.164	12013.57
885.481	11990.74
885.798	12040.23
886.115	11923.63
886.432	11945.77
886.75	11937.86
887.067	11934.02
887.383	11878.43
887.7	11910.75
888.017	11890.18
888.334	11840.69
888.651	11772.9
888.967	11784.65
889.284	11681.6
889.6	11678.21
889.917	11602.96
890.233	11630.53
890.55	11534.26
890.866	11566.57
891.182	11527.71
891.498	11415.39
891.815	11475.96
892.131	11390.76
892.447	11466.01
892.763	11405.45
893.079	11355.73
893.395	11364.55
893.71	11261.95
894.026	11160.94
894.342	11226.92
894.657	11162.74
894.973	11126.59
895.289	11200.48
895.604	11183.08
895.92	11059.47
896.235	11031.67
896.55	11019.7
896.865	10991
897.181	10921.39
897.496	10944.67
897.811	10894.5
898.126	10826.71
898.441	10835.97
898.756	10834.39
899.071	10759.14
899.386	10765.92
899.7	10697.22
900.015	10599.82
900.33	10628.29
900.644	10550.1
900.959	10539.48
901.273	10497.68
901.588	10514.85
901.902	10472.59
902.216	10404.12
902.531	10395.31
902.845	10393.27
903.159	10268.08
903.473	10273.5
903.787	10231.02
904.101	10151.24
904.415	10204.58
904.729	10192.6
905.042	10112.6
905.356	10103.56
905.67	10087.52
905.984	10029.89
906.297	10042.77
906.611	9951.7
906.924	9926.39
907.237	9935.88
907.551	9863.12
907.864	9858.14
908.177	9833.06
908.491	9779.28
908.804	9753.97
909.117	9693.4
909.43	9644.82
909.743	9606.4
910.056	9539.74
910.368	9567.98
910.681	9496.8
910.994	9453.18
911.307	9385.39
911.619	9331.83
911.932	9427.87
912.244	9366.41
912.557	9330.7
912.869	9193.53
913.181	9203.25
913.494	9227.65
913.806	9119.41
914.118	9139.07
914.43	9062.46
914.742	9142.91
915.054	9092.52
915.366	8989.47
915.678	8931.62
915.99	8935.46
916.302	8838.51
916.613	8828.12
916.925	8814.78
917.236	8771.85
917.548	8761.22
917.859	8753.54
918.171	8666.09
918.482	8607.78
918.794	8654.33
919.105	8659.31
919.416	8492.3
919.727	8522.13
920.038	8460.44
920.349	8444.62
920.66	8381.8
920.971	8389.48
921.282	8416.83
921.593	8297.73
921.903	8241.69
922.214	8233.78
922.525	8208.47
922.835	8129.83
923.146	8151.75
923.456	8031.98
923.767	8028.36
924.077	8001.92
924.387	8059.1
924.697	8003.73
925.008	7961.92
925.318	7977.52
925.628	7871.76
925.938	7833.11
926.248	7804.41
926.558	7762.83
926.867	7652.78
927.177	7681.93
927.487	7604.19
927.796	7539.79
928.106	7575.72
928.416	7559.22
928.725	7517.64
929.034	7525.78
929.344	7470.86
929.653	7491.65
929.962	7408.94
930.271	7393.58
930.581	7370.07
930.89	7344.31
931.199	7248.72
931.508	7262.96
931.817	7254.82
932.125	7224.54
932.434	7186.35
932.743	7159.23
933.051	7086.92
933.36	7102.29
933.669	7062.51
933.977	7013.7
934.286	7001.95
934.594	6987.94
934.902	6917.88
935.21	6928.96
935.519	6921.95
935.827	6884.21
936.135	6840.37
936.443	6832.69
936.751	6790.2
937.059	6771.45
937.367	6725.35
937.674	6724.44
937.982	6696.19
938.29	6653.03
938.597	6702.75
938.905	6617.55
939.213	6587.27
939.52	6615.29
939.827	6566.03
940.135	6501.17
940.442	6468.63
940.749	6469.99
941.056	6499.36
941.363	6402.19
941.67	6450.55
941.977	6328.75
942.284	6271.12
942.591	6314.28
942.898	6229.54
943.205	6250.56
943.511	6272.48
943.818	6268.18
944.125	6148.41
944.431	6180.05
944.738	6095.53
945.044	6074.97
945.35	6116.55
945.657	6084.01
945.963	6044.91
946.269	5966.72
946.575	5942.09
946.881	5925.59
947.187	5937.34
947.493	5884.92
947.799	5852.15
948.105	5822.32
948.41	5784.81
948.716	5851.47
949.022	5750.91
949.327	5771.92
949.633	5647.63
949.938	5693.28
950.244	5696.9
950.549	5589.33
950.854	5646.05
951.16	5601.08
951.465	5571.93
951.77	5565.38
952.075	5488.54
952.38	5442.89
952.685	5488.09
952.99	5470.92
953.294	5468.43
953.599	5401.99
953.904	5381.2
954.209	5382.33
954.513	5340.75
954.818	5233.18
955.122	5316.8
955.426	5260.75
955.731	5266.4
956.035	5204.26
956.339	5221.2
956.643	5186.63
956.948	5151.6
957.252	5119.96
957.556	5081.77
957.86	5073.41
958.163	5075.45
958.467	5092.17
958.771	5041.32
959.075	5029.8
959.378	5010.14
959.682	5010.59
959.985	5009.01
960.289	4901.89
960.592	4910.48
960.896	4919.52
961.199	4891.95
961.502	4879.74
961.805	4839.29
962.108	4815.34
962.411	4806.53
962.714	4790.03
963.017	4773.98
963.32	4762.23
963.623	4730.14
963.926	4681.11
964.228	4671.61
964.531	4679.75
964.833	4696.7
965.136	4610.6
965.438	4606.98
965.741	4579.87
966.043	4573.31
966.345	4554.56
966.648	4517.95
966.95	4502.81
967.252	4499.19
967.554	4515.69
967.856	4488.57
968.158	4419.87
968.46	4427.33
968.761	4369.93
969.063	4382.36
969.365	4344.84
969.666	4311.17
969.968	4290.16
970.269	4334.67
970.571	4279.53
970.872	4247.44
971.174	4190.95
971.475	4268.69
971.776	4208.8
972.077	4165.41
972.378	4210.38
972.679	4139.88
972.98	4171.74
973.281	4146.88
973.582	4084.96
973.883	4078.86
974.183	4055.59
974.484	4052.2
974.785	4022.82
975.085	4049.94
975.386	4066.21
975.686	4002.71
975.986	3983.04
976.287	3981.01
976.587	3912.31
976.887	3914.35
977.187	3955.25
977.487	3922.03
977.787	3878.41
978.087	3868.92
978.387	3849.26
978.687	3828.02
978.987	3785.76
979.286	3785.08
979.586	3751.86
979.885	3745.31
980.185	3771.53
980.484	3693.34
980.784	3652.88
981.083	3640.91
981.382	3661.02
981.682	3653.56
981.981	3622.6
982.28	3603.85
982.579	3591.42
982.878	3578.99
983.177	3540.8
983.475	3551.19
983.774	3543.06
984.073	3545.09
984.372	3481.82
984.67	3525.43
984.969	3475.26
985.267	3497.18
985.566	3472.1
985.864	3433.68
986.162	3415.83
986.461	3410.86
986.759	3393.46
987.057	3365.21
987.355	3356.62
987.653	3358.2
987.951	3302.84
988.249	3326.34
988.547	3320.46
988.844	3267.13
989.142	3296.51
989.44	3260.35
989.737	3237.3
990.035	3252.89
990.332	3243.18
990.63	3219.68
990.927	3191.65
991.224	3211.31
991.521	3176.29
991.819	3146.23
992.116	3157.53
992.413	3139
992.71	3106.46
993.006	3083.63
993.303	3091.99
993.6	3096.06
993.897	3063.07
994.193	3071.2
994.49	2984.43
994.787	3002.96
995.083	2968.38
995.379	2988.04
995.676	2947.82
995.972	2947.37
996.268	2977.2
996.565	2910.08
996.861	2912.11
997.157	2905.79
997.453	2851.78
997.749	2885.67
998.044	2823.53
998.34	2827.37
998.636	2839.35
998.932	2818.33
999.227	2827.6
999.523	2784.88
999.818	2767.03
1000.114	2768.39
1000.409	2748.73
1000.704	2729.07
1001	2716.41
1001.295	2679.35
1001.59	2684.55
1001.885	2666.7
1002.18	2652.68
1002.475	2617.66
1002.77	2595.74
1003.065	2622.18
1003.359	2601.61
1003.654	2623.76
1003.949	2558.22
1004.243	2564.78
1004.538	2533.37
1004.832	2517.55
1005.127	2518.68
1005.421	2477.55
1005.715	2489.3
1006.009	2488.4
1006.304	2416.98
1006.598	2430.77
1006.892	2430.77
1007.186	2407.27
1007.48	2401.39
1007.773	2386.7
1008.067	2370.88
1008.361	2348.06
1008.655	2332.69
1008.948	2309.64
1009.242	2314.61
1009.535	2299.02
1009.829	2267.38
1010.122	2249.08
1010.415	2242.53
1010.708	2273.71
1011.001	2242.75
1011.295	2218.8
1011.588	2218.35
1011.881	2186.48
1012.173	2188.74
1012.466	2174.05
1012.759	2136.54
1013.052	2139.03
1013.344	2150.78
1013.637	2121.4
1013.93	2075.52
1014.222	2106.03
1014.514	2067.62
1014.807	2092.7
1015.099	2044.11
1015.391	2045.02
1015.683	2031.23
1015.976	2026.03
1016.268	2007.5
1016.56	1985.58
1016.851	1980.61
1017.143	1988.75
1017.435	1984.23
1017.727	1939.71
1018.018	1924.34
1018.31	1936.09
1018.602	1909.43
1018.893	1892.48
1019.185	1850.22
1019.476	1864.46
1019.767	1865.13
1020.058	1860.61
1020.35	1844.34
1020.641	1827.4
1020.932	1796.66
1021.223	1813.84
1021.514	1789.43
1021.804	1784.91
1022.095	1740.17
1022.386	1750.11
1022.677	1732.03
1022.967	1715.76
1023.258	1687.96
1023.548	1703.78
1023.839	1683.67
1024.129	1682.09
1024.419	1652.26
1024.709	1683.9
1025	1660.17
1025.29	1630.56
1025.58	1639.83
1025.87	1614.29
1026.16	1612.94
1026.449	1586.05
1026.739	1591.7
1027.029	1570.45
1027.319	1540.17
1027.608	1546.5
1027.898	1527.29
1028.187	1552.6
1028.477	1500.62
1028.766	1525.93
1029.055	1506.05
1029.344	1497.91
1029.634	1481.87
1029.923	1479.61
1030.212	1431.02
1030.501	1472.15
1030.79	1448.2
1031.078	1423.56
1031.367	1408.65
1031.656	1415.65
1031.945	1423.56
1032.233	1400.51
1032.522	1364.58
1032.81	1376.33
1033.099	1359.61
1033.387	1367.75
1033.675	1361.19
1033.963	1307.64
1034.251	1339.05
1034.54	1285.26
1034.828	1318.71
1035.116	1306.28
1035.403	1279.61
1035.691	1269.22
1035.979	1259.95
1036.267	1243.23
1036.554	1239.84
1036.842	1250.46
1037.129	1240.97
1037.417	1251.37
1037.704	1223.8
1037.992	1225.38
1038.279	1202.78
1038.566	1187.86
1038.853	1187.86
1039.14	1187.86
