Data from aluminium_macbook_case_FLMS001491_077.txt Node
Date: Tue Feb 07 10:44:12 GMT 2017
User: dcchb
Spectrometer: FLMS00149
Trigger mode: 0
Integration Time (sec): 2.000000E-2
Scans to average: 10
Electric dark correction enabled: true
Nonlinearity correction enabled: false
Boxcar width: 0
XAxis mode: Wavelengths
Number of Pixels in Spectrum: 2048
>>>>>Begin Spectral Data<<<<<
341.393	-11.17
341.776	-11.17
342.16	-11.17
342.543	-47.78
342.927	-65.41
343.31	-60.66
343.693	-74
344.077	-83.03
344.46	-54.56
344.843	-51.17
345.226	-32.41
345.61	-48.91
345.993	-4.62
346.376	-10.95
346.759	12.33
347.142	32.22
347.525	47.58
347.908	43.06
348.291	69.73
348.674	90.52
349.057	124.87
349.44	133.91
349.823	136.17
350.206	182.95
350.588	224.53
350.971	273.79
351.354	290.74
351.737	292.77
352.119	284.19
352.502	320.34
352.884	327.8
353.267	337.29
353.65	355.6
354.032	374.81
354.414	380.91
354.797	355.37
355.179	387.46
355.562	370.29
355.944	419.1
356.326	378.2
356.709	400.34
357.091	382.26
357.473	422.94
357.855	426.56
358.238	414.35
358.62	421.36
359.002	444.41
359.384	398.31
359.766	396.95
360.148	453.22
360.53	414.81
360.912	410.51
361.294	424.07
361.676	468.82
362.057	426.56
362.439	430.62
362.821	408.25
363.203	416.39
363.584	440.12
363.966	447.12
364.348	416.16
364.729	435.82
365.111	421.81
365.493	444.41
365.874	431.98
366.256	421.58
366.637	431.98
367.019	456.16
367.4	443.05
367.781	446.67
368.163	438.31
368.544	447.57
368.925	467.91
369.306	449.61
369.688	459.32
370.069	471.08
370.45	469.72
370.831	477.4
371.212	460
371.593	453
371.974	468.59
372.355	460
372.736	491.87
373.117	487.8
373.498	485.31
373.879	446.22
374.26	465.65
374.641	488.7
375.021	462.94
375.402	496.39
375.783	533.45
376.163	532.09
376.544	534.8
376.925	532.32
377.305	516.05
377.686	536.84
378.066	534.58
378.447	530.51
378.827	552.88
379.208	565.76
379.588	546.55
379.968	548.14
380.349	564.63
380.729	577.97
381.109	587.91
381.489	580
381.87	587
382.25	608.25
382.63	628.13
383.01	598.53
383.39	616.83
383.77	614.12
384.15	625.42
384.53	633.56
384.91	648.47
385.29	640.56
385.67	649.6
386.049	657.74
386.429	657.96
386.809	703.61
387.189	695.25
387.568	687.79
387.948	688.02
388.328	720.11
388.707	716.04
389.087	734.12
389.466	743.84
389.846	728.02
390.225	766.43
390.605	747
390.984	752.2
391.363	751.29
391.743	786.32
392.122	808.92
392.501	796.94
392.881	814.79
393.26	829.26
393.639	837.62
394.018	815.47
394.397	862.03
394.776	885.98
395.155	890.05
395.534	892.53
395.913	877.62
396.292	926.2
396.671	935.02
397.05	937.96
397.429	940.44
397.808	954.23
398.186	962.36
398.565	955.58
398.944	991.97
399.323	993.55
399.701	963.72
400.08	996.94
400.458	1031.96
400.837	1005.52
401.215	1061.12
401.594	1015.47
401.972	1042.13
402.351	1090.72
402.729	1092.98
403.107	1083.71
403.486	1114.45
403.864	1122.81
404.242	1138.63
404.62	1144.73
404.999	1134.33
405.377	1186.99
405.755	1207.78
406.133	1225.86
406.511	1228.8
406.889	1227.67
407.267	1254.33
407.645	1285.29
408.023	1314.22
408.401	1310.6
408.779	1361.22
409.156	1375.91
409.534	1366.19
409.912	1405.29
410.29	1426.76
410.667	1426.98
411.045	1469.92
411.422	1477.38
411.8	1475.34
412.178	1492.74
412.555	1521.9
412.933	1555.57
413.31	1549.46
413.687	1605.73
414.065	1602.34
414.442	1622.68
414.819	1650.71
415.197	1690.7
415.574	1720.53
415.951	1737.71
416.328	1746.52
416.705	1771.83
417.082	1772.51
417.46	1798.5
417.837	1849.34
418.214	1846.41
418.591	1859.97
418.967	1880.76
419.344	1862.9
419.721	1917.59
420.098	1956.46
420.475	1964.82
420.852	1963.01
421.228	2011.83
421.605	2020.41
421.982	2043.92
422.358	2096.34
422.735	2055.44
423.111	2127.98
423.488	2154.65
423.864	2191.26
424.241	2211.59
424.617	2209.33
424.994	2245.04
425.37	2295.43
425.746	2305.83
426.123	2325.04
426.499	2352.61
426.875	2377.69
427.251	2422.21
427.627	2490.91
428.003	2496.78
428.379	2522.55
428.756	2560.96
429.132	2596.67
429.507	2648.19
429.883	2675.54
430.259	2702.2
430.635	2731.58
431.011	2770.68
431.387	2865.81
431.763	2889.32
432.138	2946.04
432.514	2983.78
432.89	2990.1
433.265	3066.49
433.641	3102.87
434.016	3101.97
434.392	3143.32
434.767	3230.32
435.143	3237.78
435.518	3285.24
435.894	3320.94
436.269	3346.93
436.644	3428.96
437.02	3463.76
437.395	3463.31
437.77	3505.35
438.145	3578.79
438.52	3614.5
438.895	3652.91
439.271	3617.66
439.646	3775.17
440.021	3790.08
440.395	3812.23
440.77	3771.1
441.145	3798.22
441.52	3944.43
441.895	3903.3
442.27	3941.72
442.645	3998.44
443.019	4033.24
443.394	4025.78
443.769	4115.95
444.143	4036.63
444.518	4142.84
444.892	4168.38
445.267	4193.24
445.641	4192.11
446.016	4288.15
446.39	4347.58
446.764	4371.09
447.139	4353.46
447.513	4384.42
447.887	4441.59
448.262	4505.32
448.636	4498.99
449.01	4561.14
449.384	4627.12
449.758	4687.46
450.132	4744.41
450.506	4729.95
450.88	4779.66
451.254	4772.43
451.628	4835.93
452.002	4894.69
452.376	4968.13
452.75	5046.55
453.123	5066.43
453.497	5125.42
453.871	5168.58
454.244	5277.95
454.618	5336.94
454.992	5416.26
455.365	5410.15
455.739	5537.61
456.112	5620.54
456.486	5676.14
456.859	5714.78
457.232	5831.84
457.606	5822.35
457.979	5971.72
458.352	6113.41
458.725	6117.48
459.099	6217.14
459.472	6308.44
459.845	6395.44
460.218	6442.44
460.591	6523.57
460.964	6537.58
461.337	6680.4
461.71	6822.32
462.083	6874.75
462.456	6930.34
462.829	6971.92
463.201	7119.26
463.574	7081.07
463.947	7222.76
464.32	7441.97
464.692	7444.9
465.065	7524.68
465.438	7587.72
465.81	7718.79
466.183	7835.85
466.555	8022.29
466.928	8096.86
467.3	8084.66
467.672	8278.78
468.045	8476.51
468.417	8429.74
468.789	8551.09
469.161	8730.75
469.534	8859.1
469.906	9041.92
470.278	9139.1
470.65	9137.29
471.022	9385.87
471.394	9551.29
471.766	9750.83
472.138	9724.39
472.51	9951.73
472.882	10080.54
473.253	10240.54
473.625	10337.48
473.997	10631.03
474.369	10681.43
474.74	10796.68
475.112	11016.79
475.484	11200.28
475.855	11424.46
476.227	11483.44
476.598	11937.89
476.97	11971.34
477.341	12253.36
477.713	12502.62
478.084	12559.12
478.455	12944.87
478.827	12994.59
479.198	13433.22
479.569	13461.24
479.94	13778.3
480.311	13922.25
480.682	14267.1
481.053	14645.17
481.424	14792.28
481.795	14892.39
482.166	15182.33
482.537	15427.07
482.908	15662.31
483.279	15852.37
483.65	16202.86
484.021	16421.16
484.391	16621.16
484.762	16899.8
485.133	16966.69
485.503	17270.18
485.874	17764.63
486.244	17812.54
486.615	18158.97
486.985	18481.45
487.356	18775.9
487.726	18989.91
488.097	19419.05
488.467	19397.36
488.837	19860.17
489.207	20116.43
489.578	20425.13
489.948	20669.87
490.318	20895.85
490.688	21065.79
491.058	21299.45
491.428	21506.91
491.798	21827.8
492.168	22223.95
492.538	22288.58
492.908	22490.16
493.278	22891.95
493.648	22840.43
494.017	23163.36
494.387	23462.56
494.757	23562.45
495.126	23747.98
495.496	23884.7
495.866	24101.64
496.235	24461.86
496.605	24623.43
496.974	24930.55
497.344	25092.57
497.713	25312.68
498.082	25354.94
498.452	25841.26
498.821	26060.91
499.19	26031.31
499.559	26384.29
499.928	26584.06
500.298	26766.43
500.667	27066.53
501.036	26899.31
501.405	27201.9
501.774	27313.99
502.143	27619.29
502.512	27760.3
502.88	27862.45
503.249	27986.74
503.618	28243.23
503.987	28438.02
504.356	28528.19
504.724	28855.87
505.093	28903.1
505.462	29075.07
505.83	29332.46
506.199	29430.99
506.567	29857.42
506.936	29895.84
507.304	30226.23
507.672	30322.04
508.041	30628.02
508.409	30879.77
508.777	31064.62
509.145	31484.95
509.514	31301.9
509.882	31707.77
510.25	31806.97
510.618	32098.72
510.986	32337.81
511.354	32684.24
511.722	32905.93
512.09	33228.18
512.458	33254.17
512.826	33554.05
513.193	33732.8
513.561	33795.17
513.929	34182.28
514.297	34377.75
514.664	34589.73
515.032	34777.97
515.4	35143.16
515.767	35236.49
516.135	35425.86
516.502	35260.89
516.869	35963.7
517.237	36122.79
517.604	36074.43
517.972	36552.16
518.339	36680.74
518.706	36766.84
519.073	37002.77
519.44	37434.85
519.808	37758
520.175	37786.48
520.542	38417.42
520.909	38706.23
521.276	38660.81
521.643	39158.19
522.009	39369.71
522.376	39792.75
522.743	39920.66
523.11	40291.27
523.477	40832.95
523.843	41151.36
524.21	41408.76
524.577	41679.94
524.943	41820.27
525.31	42137.55
525.676	42483.76
526.043	42788.38
526.409	42957.64
526.776	43342.94
527.142	43367.8
527.508	43745.42
527.874	44018.63
528.241	44191.28
528.607	44309.7
528.973	44828.1
529.339	44705.84
529.705	45188.77
530.071	45487.97
530.437	45508.99
530.803	45901.52
531.169	46106.26
531.535	46167.95
531.901	46331.34
532.267	46562.07
532.632	46894.94
532.998	47146.23
533.364	47385.55
533.73	47432.1
534.095	47572.44
534.461	47815.82
534.826	48175.36
535.192	48210.16
535.557	48489.93
535.923	48557.72
536.288	48826.64
536.653	49114.77
537.019	48804.04
537.384	49171.26
537.749	49317.02
538.114	49385.72
538.479	49527.64
538.845	49652.83
539.21	49712.49
539.575	49848.08
539.94	49988.19
540.305	50218.92
540.67	50166.49
541.034	50453.26
541.399	50460.5
541.764	50488.74
542.129	50650.77
542.494	50780.03
542.858	50935.29
543.223	50996.07
543.587	51309.06
543.952	51264.54
544.316	51320.13
544.681	51362.84
545.045	51506.8
545.41	51759.22
545.774	51775.94
546.138	51789.73
546.503	52002.83
546.867	52011.19
547.231	52402.14
547.595	52415.7
547.959	52557.16
548.324	52565.52
548.688	52619.31
549.052	52853.2
549.416	52864.27
549.779	52985.63
550.143	53071.05
550.507	53273.08
550.871	53407.31
551.235	53449.34
551.599	53725.27
551.962	53710.81
552.326	53753.52
552.689	53880.07
553.053	53846.62
553.417	53961.19
553.78	54385.82
554.143	54261.53
554.507	54466.72
554.87	54438.02
555.234	54726.15
555.597	54599.37
555.96	54786.26
556.323	54870.55
556.686	54859.7
557.05	55090.43
557.413	55272.57
557.776	55259.24
558.139	55524.77
558.502	55474.37
558.865	55594.37
559.228	55881.37
559.59	55887.02
559.953	55956.17
560.316	56188.71
560.679	56236.84
561.041	56517.96
561.404	56485.42
561.767	56771.29
562.129	56708.47
562.492	56943.71
562.854	57014.22
563.217	57046.54
563.579	57188.68
563.941	57303.48
564.304	57374.89
564.666	57499.41
565.028	57608.78
565.39	57650.14
565.753	57865.05
566.115	57895.33
566.477	58073.63
566.839	58157.24
567.201	58249.22
567.563	58330.12
567.925	58454.64
568.287	58456.67
568.648	58488.31
569.01	58726.94
569.372	58794.97
569.734	58711.8
570.095	58898.92
570.457	58956.99
570.819	59040.83
571.18	59079.03
571.542	59201.51
571.903	59210.1
572.265	59331.9
572.626	59415.06
572.987	59412.35
573.349	59553.14
573.71	59616.86
574.071	59694.6
574.432	59755.62
574.794	59945.22
575.155	59840.14
575.516	59763.08
575.877	59940.47
576.238	60044.42
576.599	60077.42
576.96	60139.11
577.32	60153.12
577.681	60248.49
578.042	60329.84
578.403	60380.91
578.763	60437.18
579.124	60403.06
579.485	60524.86
579.845	60495.71
580.206	60475.83
580.566	60523.73
580.927	60561.25
581.287	60624.52
581.648	60559.89
582.008	60631.75
582.368	60609.83
582.728	60688.25
583.089	60594.01
583.449	60535.48
583.809	60627.23
584.169	60640.57
584.529	60606.44
584.889	60744.74
585.249	60614.13
585.609	60537.29
585.969	60719.21
586.329	60641.47
586.688	60713.56
587.048	60644.63
587.408	60628.59
587.768	60681.47
588.127	60699.77
588.487	60594.24
588.846	60764.86
589.206	60669.94
589.565	60673.56
589.925	60766.21
590.284	60748.81
590.643	60830.39
591.003	60777.74
591.362	60907.9
591.721	60792.43
592.08	60826.78
592.44	60876.94
592.799	60820
593.158	60825.65
593.517	60882.82
593.876	60891.63
594.235	60864.97
594.593	60879.2
594.952	60922.14
595.311	60845.53
595.67	60910.84
596.029	61081.23
596.387	61089.82
596.746	61003.27
597.104	60871.97
597.463	60925.08
597.822	61010.27
598.18	60952.65
598.538	60968.69
598.897	61044.4
599.255	60855.7
599.613	61125.98
599.972	60978.86
600.33	61043.49
600.688	60915.36
601.046	61067
601.404	61133.66
601.762	61044.85
602.12	61204.62
602.478	61171.17
602.836	61181.34
603.194	61086.2
603.552	61108.8
603.91	61014.79
604.268	61263.15
604.625	61091.85
604.983	61283.26
605.341	61166.88
605.698	61351.73
606.056	61360.77
606.413	61358.51
606.771	61439.87
607.128	61528.45
607.485	61436.03
607.843	61413.43
608.2	61608.45
608.557	61627.21
608.914	61549.47
609.272	61696.58
609.629	61654.1
609.986	61755.79
610.343	61611.39
610.7	61819.74
611.057	61770.93
611.414	61744.72
611.771	61765.73
612.127	61829.91
612.484	61828.56
612.841	61888.44
613.198	61798.05
613.554	61809.8
613.911	61936.58
614.267	61918.27
614.624	61880.76
614.98	61891.61
615.337	62014.77
615.693	61984.03
616.05	61888.9
616.406	62007.31
616.762	61887.99
617.118	62002.34
617.475	61952.4
617.831	62038.27
618.187	62026.07
618.543	62080.3
618.899	62091.6
619.255	62123.01
619.611	62097.93
619.967	62080.75
620.323	62160.75
620.678	62123.69
621.034	62044.6
621.39	62090.7
621.746	62027.87
622.101	62265.83
622.457	62082.34
622.812	62119.62
623.168	62190.58
623.523	62163.92
623.879	62291.14
624.234	62094.77
624.589	62238.04
624.945	62252.73
625.3	62290.92
625.655	62284.59
626.01	62292.73
626.365	62332.27
626.72	62254.54
627.075	62201.88
627.43	62215.67
627.785	62206.18
628.14	62237.59
628.495	62230.13
628.85	62155.1
629.205	62193.52
629.559	62221.99
629.914	62126.4
630.269	62088.44
630.623	62036.24
630.978	62013.86
631.332	62063.13
631.687	62082.11
632.041	61969.8
632.396	62005.95
632.75	61843.25
633.104	61910.14
633.459	61768.22
633.813	61773.87
634.167	61798.73
634.521	61734.55
634.875	61744.72
635.229	61670.14
635.583	61570.26
635.937	61547.66
636.291	61541.79
636.645	61516.48
636.999	61464.73
637.352	61431.51
637.706	61311.96
638.06	61450.26
638.413	61399.87
638.767	61299.98
639.121	61380.43
639.474	61181.8
639.828	61209.37
640.181	61259.99
640.534	61260.89
640.888	61174.34
641.241	61068.58
641.594	61091.4
641.947	61170.04
642.301	61123.94
642.654	61160.1
643.007	61115.81
643.36	61097.73
643.713	61113.32
644.066	61071.74
644.419	60974.57
644.771	60826.1
645.124	60699.32
645.477	60590.62
645.83	60421.82
646.182	60343.63
646.535	60257.98
646.888	60270.18
647.24	60119.22
647.593	60307.24
647.945	60206
648.298	60047.14
648.65	60030.19
649.002	59959.23
649.355	60061.15
649.707	59985.44
650.059	60056.85
650.411	60294.81
650.763	60312.44
651.115	60505.88
651.467	60403.06
651.819	60362.38
652.171	60315.38
652.523	60279.67
652.875	60252.33
653.227	60163.52
653.578	60324.87
653.93	60282.16
654.282	60119.45
654.633	59984.09
654.985	60113.35
655.337	60072.45
655.688	60025.44
656.039	60084.87
656.391	59915.16
656.742	59952.22
657.094	59905.67
657.445	59968.49
657.796	59970.75
658.147	59880.81
658.498	59900.92
658.849	59978.66
659.2	59900.47
659.551	59854.37
659.902	59901.83
660.253	59834.71
660.604	59912.22
660.955	59791.78
661.306	59879
661.656	59813.92
662.007	59898.67
662.358	59846.46
662.708	59777.99
663.059	59775.96
663.409	59699.35
663.76	59850.53
664.11	59744.32
664.461	59816.18
664.811	59757.65
665.161	59760.59
665.511	59701.83
665.862	59770.08
666.212	59718.78
666.562	59764.43
666.912	59718.33
667.262	59634.04
667.612	59613.7
667.962	59610.31
668.312	59540.03
668.662	59719.23
669.011	59554.49
669.361	59529.41
669.711	59491.9
670.06	59431.11
670.41	59375.74
670.76	59251.9
671.109	59429.52
671.459	59282.18
671.808	59275.18
672.157	59363.54
672.507	59099.14
672.856	59159.48
673.205	59170.77
673.554	59230.66
673.904	59141.62
674.253	59197.67
674.602	59110.44
674.951	58723.55
675.3	58603.33
675.649	58974.62
675.998	58996.77
676.346	58979.82
676.695	59032.25
677.044	58801.74
677.393	58948.86
677.741	58893.72
678.09	58865.7
678.438	58753.61
678.787	58818.92
679.135	58847.62
679.484	58662.09
679.832	58775.76
680.181	58707.51
680.529	58743.67
680.877	58693.73
681.225	58654.63
681.573	58762.42
681.922	58590.22
682.27	58493.73
682.618	58528.98
682.966	58474.3
683.314	58575.31
683.661	58484.47
684.009	58412.38
684.357	58360.17
684.705	58281.53
685.053	58258.48
685.4	58259.39
685.748	58154.98
686.095	58051.26
686.443	58048.32
686.79	58032.73
687.138	57952.05
687.485	58021.2
687.832	57905.27
688.18	57951.15
688.527	57753.64
688.874	57777.82
689.221	57668.67
689.568	57576.24
689.915	57480.88
690.262	57522.68
690.609	57391.16
690.956	57292.18
691.303	57208.11
691.65	57096.7
691.997	57023.49
692.344	56863.94
692.69	56847.45
693.037	56817.39
693.383	56603.16
693.73	56764.74
694.077	56479.32
694.423	56505.31
694.769	56367.91
695.116	56317.06
695.462	56201.81
695.808	56042.72
696.155	56098.31
696.501	55959.56
696.847	56009.28
697.193	55732.45
697.539	55941.93
697.885	55711.88
698.231	55607.7
698.577	55609.06
698.923	55566.35
699.269	55332.91
699.614	55202.29
699.96	55181.5
700.306	55283.65
700.651	55071.45
700.997	55096.31
701.342	55046.14
701.688	54981.96
702.033	54821.74
702.379	54844.11
702.724	54784
703.069	54961.85
703.415	54538.35
703.76	54558.92
704.105	54547.17
704.45	54521.86
704.795	54305.14
705.14	54247.06
705.485	54346.49
705.83	54083.9
706.175	54156.44
706.52	54075.32
706.865	53976.33
707.209	53875.09
707.554	53770.92
707.899	53905.83
708.243	53709.9
708.588	53659.28
708.932	53351.04
709.277	53367.09
709.621	53416.12
709.966	53216.13
710.31	53241.44
710.654	53057.49
710.998	53008.45
711.342	53070.6
711.687	52912.63
712.031	52709.25
712.375	52549.71
712.719	52611.85
713.063	52522.36
713.407	52640.1
713.75	52406.88
714.094	52320.33
714.438	52181.58
714.782	52142.94
715.125	51941.81
715.469	52046.44
715.812	51798.54
716.156	51635.15
716.499	51633.57
716.843	51591.54
717.186	51344.99
717.53	51595.61
717.873	51504.99
718.216	51408.94
718.559	51244.88
718.902	51115.85
719.246	51243.98
719.589	50993.36
719.932	50774.84
720.275	50934.38
720.617	50833.14
720.96	50714.5
721.303	50730.09
721.646	50593.37
721.989	50433.6
722.331	50568.51
722.674	50406.94
723.016	50591.11
723.359	50378.24
723.701	50379.37
724.044	50219.82
724.386	49998.13
724.729	50232.7
725.071	49977.8
725.413	50068.87
725.755	50031.81
726.097	49867.06
726.439	49785.26
726.782	49735.09
727.124	50001.98
727.465	49676.56
727.807	49685.83
728.149	49642.21
728.491	49559.5
728.833	49623.46
729.175	49507.07
729.516	49392.73
729.858	49344.82
730.199	49326.29
730.541	49230.47
730.882	49152.96
731.224	49331.94
731.565	49042
731.906	48962.68
732.248	49013.53
732.589	48837.26
732.93	48727.89
733.271	48687.66
733.612	48659.41
733.953	48623.48
734.294	48476.59
734.635	48462.13
734.976	48422.36
735.317	48311.4
735.658	48240.89
735.999	48073.67
736.339	48000.9
736.68	48074.12
737.021	47910.51
737.361	47634.13
737.702	47893.78
738.042	47701.7
738.383	47477.75
738.723	47517.52
739.063	47329.28
739.404	47359.11
739.744	47189.85
740.084	47023.75
740.424	47007.7
740.764	46944.2
741.104	47024.88
741.444	46861.04
741.784	46607.49
742.124	46790.76
742.464	46685.68
742.804	46489.75
743.143	46332.47
743.483	46246.14
743.823	46154.17
744.162	45986.94
744.502	46111.68
744.841	45871.92
745.181	46044.34
745.52	45775.87
745.86	45838.24
746.199	45749.88
746.538	45779.94
746.877	45621.53
747.216	45735.2
747.556	45507.41
747.895	45563.67
748.234	45381.98
748.573	45415.43
748.911	45281.65
749.25	45311.25
749.589	45067.64
749.928	45140.41
750.267	45160.97
750.605	45076.68
750.944	44872.62
751.283	44818.84
751.621	44890.25
751.96	44708.56
752.298	44583.81
752.636	44636.02
752.975	44434.44
753.313	44353.31
753.651	44433.76
753.989	44220.21
754.327	44176.14
754.666	43980.44
755.004	43852.76
755.342	44077.84
755.679	43938.41
756.017	43684.85
756.355	43719.88
756.693	43532.99
757.031	43592.2
757.368	43268.14
757.706	43281.7
758.044	43070.41
758.381	43214.36
758.719	43021.59
759.056	42938.21
759.394	42813.24
759.731	42397.88
760.068	42445.56
760.405	42332.57
760.743	42135.29
761.08	42126.93
761.417	41828.86
761.754	41836.54
762.091	41623.67
762.428	41493.95
762.765	41159.72
763.102	41347.97
763.438	41043.12
763.775	40793.4
764.112	40674.09
764.449	40841.77
764.785	40597.03
765.122	40336.47
765.458	40170.82
765.795	40058.96
766.131	40047.44
766.467	39886.54
766.804	39738.74
767.14	39368.81
767.476	39343.05
767.812	38982.15
768.148	39254.01
768.485	38905.09
768.821	38739.45
769.157	38661.94
769.492	38641.82
769.828	38469.4
770.164	38148.28
770.5	37993.03
770.836	37969.75
771.171	37647.5
771.507	37750.77
771.842	37390.78
772.178	37354.63
772.513	37229.66
772.849	37244.8
773.184	37060.4
773.519	37017.91
773.855	36835.99
774.19	36645.49
774.525	36518.04
774.86	36535.21
775.195	36453.63
775.53	36307.65
775.865	36076.69
776.2	35923.48
776.535	35641.9
776.87	35621.79
777.205	35619.53
777.539	35516.93
777.874	35535.46
778.209	35229.94
778.543	35185.87
778.878	34972.99
779.212	34980.22
779.547	34792.21
779.881	34928.7
780.215	34636.73
780.55	34667.46
780.884	34382.5
781.218	34408.26
781.552	34395.38
781.886	34133.69
782.22	34057.54
782.554	33851.89
782.888	33579.36
783.222	33543.65
783.556	33298.46
783.889	33265.47
784.223	32981.41
784.557	32938.02
784.89	32981.41
785.224	32787.74
785.557	32768.31
785.891	32606.28
786.224	32513.17
786.558	32430.91
786.891	32191.15
787.224	32012.62
787.557	31960.64
787.891	31799.74
788.224	31730.37
788.557	31667.54
788.89	31528.11
789.223	31511.61
789.556	31147.1
789.888	31109.37
790.221	31000.44
790.554	30795.93
790.887	30736.04
791.219	30584.18
791.552	30450.63
791.884	30309.39
792.217	30273.68
792.549	30120.47
792.882	29900.36
793.214	29912.33
793.546	29728.61
793.879	29495.4
794.211	29341.73
794.543	29494.04
794.875	29404.1
795.207	29373.14
795.539	29155.52
795.871	28925.02
796.203	28847.96
796.535	28579.94
796.867	28625.36
797.198	28488.42
797.53	28528.87
797.862	28372.04
798.193	28286.16
798.525	27968.88
798.856	28018.15
799.188	27824.71
799.519	27628.55
799.85	27592.62
800.182	27726.18
800.513	27640.08
800.844	27304.49
801.175	27457.71
801.506	27410.03
801.837	27272.4
802.168	27262.46
802.499	27212.52
802.83	27086.19
803.161	26924.84
803.491	26881
803.822	27026.31
804.153	26674.45
804.483	26536.83
804.814	26418.19
805.145	26460
805.475	26441.92
805.805	26310.62
806.136	26354.01
806.466	26305.65
806.796	26275.82
807.126	26180.68
807.457	26068.37
807.787	26006.67
808.117	25927.58
808.447	25956.28
808.777	25966.22
809.107	25929.16
809.436	25825.66
809.766	25771.88
810.096	25647.14
810.426	25541.38
810.755	25526.24
811.085	25577.31
811.414	25420.7
811.744	25225.68
812.073	25189.52
812.403	25196.75
812.732	25164.89
813.061	25194.27
813.39	25021.39
813.719	25094.16
814.049	25003.99
814.378	24846.93
814.707	24792.02
815.036	24786.37
815.365	24614.4
815.693	24521.74
816.022	24460.95
816.351	24330.79
816.68	24147.51
817.008	24282.65
817.337	24053.51
817.665	23997.91
817.994	24028.42
818.322	24000.85
818.651	23910.68
818.979	23815.77
819.307	23892.61
819.636	23801.99
819.964	23625.27
820.292	23699.84
820.62	23623.69
820.948	23529.45
821.276	23479.06
821.604	23424.82
821.932	23469.79
822.259	23440.41
822.587	23374.88
822.915	23411.26
823.243	23489.9
823.57	23344.6
823.898	23353.41
824.225	23235.67
824.553	23277.26
824.88	23295.11
825.207	23338.27
825.535	23236.58
825.862	23260.76
826.189	23151.16
826.516	23218.5
826.843	23242.91
827.17	23191.83
827.497	23173.3
827.824	23139.41
828.151	23253.53
828.478	23094.21
828.805	23204.71
829.131	23143.25
829.458	23083.81
829.785	23006.53
830.111	23037.26
830.438	23150.7
830.764	23055.11
831.09	23070.93
831.417	22938.73
831.743	23097.15
832.069	22935.34
832.395	22914.1
832.722	23056.47
833.048	22878.4
833.374	22989.58
833.7	22912.29
834.026	22983.03
834.351	22940.77
834.677	22750.94
835.003	22942.57
835.329	22879.53
835.654	22839.53
835.98	22768.79
836.306	22970.6
836.631	22729.25
836.956	22775.12
837.282	23004.72
837.607	22840.43
837.932	22750.26
838.258	22586.2
838.583	22770.38
838.908	22641.57
839.233	22731.51
839.558	22615.58
839.883	22659.64
840.208	22491.97
840.533	22577.84
840.858	22528.57
841.182	22672.53
841.507	22552.53
841.832	22436.37
842.156	22348.47
842.481	22348.01
842.805	22378.97
843.13	22221.01
843.454	22324.96
843.778	22146.66
844.103	22117.29
844.427	22090.39
844.751	22178.3
845.075	22048.59
845.399	21939.21
845.723	21855.6
846.047	21979.66
846.371	21637.07
846.695	21679.56
847.019	21409.06
847.343	21418.1
847.666	21313.92
847.99	21121.15
848.313	21172.45
848.637	20945.34
848.96	21050.2
849.284	20959.35
849.607	20772.46
849.931	20598.23
850.254	20524.56
850.577	20579.25
850.9	20367.73
851.223	20370.21
851.546	20174.29
851.869	20067.62
852.192	20193.27
852.515	20041.63
852.838	19865.59
853.161	19936.33
853.483	19728.42
853.806	19635.32
854.129	19655.2
854.451	19578.37
854.774	19508.54
855.096	19438.49
855.419	19399.84
855.741	19405.72
856.063	19259.06
856.385	19211.83
856.708	19190.58
857.03	19036.24
857.352	18998.27
857.674	18919.4
857.996	18850.03
858.318	18751.72
858.64	18698.62
858.961	18714.44
859.283	18458.4
859.605	18479.64
859.926	18425.63
860.248	18436.25
860.57	18347.44
860.891	18333.2
861.212	18311.74
861.534	18292.75
861.855	18183.15
862.176	18231.51
862.498	18250.27
862.819	18106.77
863.14	17989.03
863.461	18135.47
863.782	17961.46
864.103	18023.83
864.424	17918.3
864.745	17961.01
865.065	17870.17
865.386	17839.21
865.707	17881.24
866.027	17858.41
866.348	17796.95
866.668	17809.83
866.989	17752.2
867.309	17693.45
867.63	17796.27
867.95	17695.03
868.27	17674.24
868.59	17685.31
868.91	17617.52
869.23	17697.29
869.55	17528.03
869.87	17708.36
870.19	17518.31
870.51	17528.93
870.83	17605.09
871.15	17473.79
871.469	17515.6
871.789	17605.31
872.109	17454.81
872.428	17362.61
872.748	17366.9
873.067	17412.32
873.386	17391.76
873.706	17396.51
874.025	17442.61
874.344	17333.68
874.663	17355.38
874.982	17367.35
875.301	17338.43
875.62	17360.57
875.939	17312.67
876.258	17299.33
876.577	17309.73
876.896	17137.08
877.214	17207.13
877.533	17272.67
877.852	17186.12
878.17	17303.63
878.489	17221.82
878.807	17176.17
879.125	17063.86
879.444	17116.06
879.762	17056.85
880.08	17065.22
880.398	16921.26
880.716	16983.64
881.034	16899.34
881.352	16941.15
881.67	16993.35
881.988	16867.48
882.306	16876.97
882.624	16762.62
882.941	16637.2
883.259	16564.21
883.577	16680.37
883.894	16563.31
884.212	16522.4
884.529	16492.57
884.846	16526.7
885.164	16516.3
885.481	16439.02
885.798	16369.19
886.115	16245.12
886.432	16255.29
886.75	16222.3
887.067	16202.86
887.383	16059.14
887.7	16099.36
888.017	16045.58
888.334	16040.16
888.651	16014.17
888.967	16009.65
889.284	15824.57
889.6	15782.31
889.917	15662.99
890.233	15704.8
890.55	15747.28
890.866	15744.8
891.182	15580.28
891.498	15572.15
891.815	15492.38
892.131	15389.55
892.447	15308.2
892.763	15297.35
893.079	15246.96
893.395	15212.38
893.71	15164.25
894.026	15174.87
894.342	15105.49
894.657	15037.7
894.973	15019.62
895.289	14960.86
895.604	14948.89
895.92	14834.99
896.235	14766.07
896.55	14826.18
896.865	14843.35
897.181	14604.26
897.496	14624.38
897.811	14474.55
898.126	14578.27
898.441	14413.31
898.756	14380.31
899.071	14247.21
899.386	14244.05
899.7	14209.47
900.015	14203.14
900.33	14047.44
900.644	14049.02
900.959	14115.46
901.273	13952.3
901.588	13982.36
901.902	13917.5
902.216	13882.93
902.531	13762.48
902.845	13866.88
903.159	13738.3
903.473	13771.52
903.787	13731.29
904.101	13588.7
904.415	13682.48
904.729	13581.46
905.042	13523.39
905.356	13460.79
905.67	13372.88
905.984	13409.04
906.297	13363.39
906.611	13233
906.924	13238.65
907.237	13215.37
907.551	13151.65
907.864	13103.29
908.177	13121.59
908.491	13092.21
908.804	13014.25
909.117	12926.34
909.43	12900.58
909.743	12863.29
910.056	12761.6
910.368	12818.1
910.681	12795.5
910.994	12717.76
911.307	12684.77
911.619	12590.53
911.932	12582.85
912.244	12533.13
912.557	12436.86
912.869	12414.49
913.181	12454.04
913.494	12407.03
913.806	12306.02
914.118	12272.8
914.43	12133.82
914.742	12235.29
915.054	12107.83
915.366	12038.68
915.678	12010.88
915.99	11995.97
916.302	11841.85
916.613	11946.71
916.925	11897.22
917.236	11856.54
917.548	11814.28
917.859	11788.97
918.171	11736.99
918.482	11619.71
918.794	11580.84
919.105	11569.54
919.416	11503.33
919.727	11436.21
920.038	11408.41
920.349	11350.11
920.66	11310.79
920.971	11275.08
921.282	11229.66
921.593	11110.8
921.903	11054.07
922.214	11047.97
922.525	10970.23
922.835	10961.19
923.146	10904.7
923.456	10872.84
923.767	10718.49
924.077	10828.32
924.387	10786.96
924.697	10626.74
925.008	10644.82
925.318	10642.56
925.628	10530.47
925.938	10503.81
926.248	10317.6
926.558	10422.23
926.867	10318.5
927.177	10281.66
927.487	10252.96
927.796	10171.39
928.106	10132.29
928.416	10088.45
928.725	10111.73
929.034	9994.21
929.344	9957.15
929.653	9995.34
929.962	9916.93
930.271	9824.95
930.581	9749.25
930.89	9705.41
931.199	9629.48
931.508	9620.44
931.817	9671.51
932.125	9537.5
932.434	9497.5
932.743	9441.01
933.051	9378.64
933.36	9363.95
933.669	9318.53
933.977	9323.27
934.286	9240.56
934.594	9225.65
934.902	9140.68
935.21	9078.98
935.519	9115.14
935.827	9114.46
936.135	8965.32
936.443	8941.81
936.751	8899.55
937.059	8850.06
937.367	8809.39
937.674	8812.32
937.982	8761.03
938.29	8789.27
938.597	8720.12
938.905	8599.68
939.213	8636.96
939.52	8597.19
939.827	8528.26
940.135	8500.24
940.442	8451.66
940.749	8459.57
941.056	8470.19
941.363	8361.94
941.67	8415.5
941.977	8295.95
942.284	8283.3
942.591	8251.44
942.898	8207.82
943.205	8228.61
943.511	8151.33
943.818	8216.18
944.125	8086.92
944.431	8040.37
944.738	7979.35
945.044	7960.14
945.35	7963.53
945.657	7902.52
945.963	7918.34
946.269	7852.8
946.575	7871.33
946.881	7879.24
947.187	7770.54
947.493	7748.85
947.799	7742.3
948.105	7776.65
948.41	7641.06
948.716	7662.75
949.022	7634.95
949.327	7620.94
949.633	7514.73
949.938	7459.14
950.244	7479.25
950.549	7422.76
950.854	7363.55
951.16	7392.48
951.465	7328.07
951.77	7328.3
952.075	7267.96
952.38	7254.4
952.685	7274.51
952.99	7192.03
953.294	7195.19
953.599	7136.66
953.904	7108.87
954.209	7014.41
954.513	7095.76
954.818	7040.85
955.122	7041.3
955.426	6977.34
955.731	6944.13
956.035	6935.54
956.339	6909.32
956.643	6895.09
956.948	6791.36
957.252	6815.32
957.556	6812.15
957.86	6785.26
958.163	6682.89
958.467	6668.2
958.771	6682.89
959.075	6677.69
959.378	6618.94
959.682	6610.8
959.985	6543.91
960.289	6526.28
960.592	6458.49
960.896	6497.36
961.199	6468.21
961.502	6437.47
961.805	6334.42
962.108	6350.92
962.411	6325.16
962.714	6265.05
963.017	6249.45
963.32	6295.1
963.623	6171.94
963.926	6184.6
964.228	6173.07
964.531	6172.62
964.833	6084.71
965.136	5968.78
965.438	6018.5
965.741	5974.66
966.043	5930.59
966.345	5965.62
966.648	5907.09
966.95	5904.83
967.252	5867.77
967.554	5797.71
967.856	5809.24
968.158	5761.78
968.46	5717.94
968.761	5708
969.063	5668.23
969.365	5645.18
969.666	5613.99
969.968	5556.14
970.269	5538.74
970.571	5561.11
970.872	5513.43
971.174	5466.65
971.475	5451.06
971.776	5421.68
972.077	5368.8
972.378	5404.28
972.679	5436.37
972.98	5385.97
973.281	5335.13
973.582	5268.46
973.883	5261.01
974.183	5273.89
974.484	5241.57
974.785	5168.35
975.085	5168.8
975.386	5168.58
975.686	5072.31
975.986	5084.51
976.287	5106.21
976.587	5022.14
976.887	5005.65
977.187	4987.34
977.487	4942.37
977.787	4960.45
978.087	4934.69
978.387	4863.5
978.687	4868.7
978.987	4837.51
979.286	4821.7
979.586	4839.55
979.885	4798.42
980.185	4789.15
980.484	4762.94
980.784	4710.96
981.083	4675.71
981.382	4688.59
981.682	4656.73
981.981	4651.3
982.28	4625.99
982.579	4604.75
982.878	4608.14
983.177	4542.61
983.475	4527.01
983.774	4538.54
984.073	4447.02
984.372	4466.22
984.67	4444.3
984.969	4456.51
985.267	4449.95
985.566	4398.43
985.864	4365.66
986.162	4334.93
986.461	4332.22
986.759	4289.96
987.057	4276.62
987.355	4315.04
987.653	4269.17
987.951	4239.11
988.249	4227.13
988.547	4233.01
988.844	4195.72
989.142	4202.28
989.44	4160.47
989.737	4160.47
990.035	4153.01
990.332	4119.57
990.63	4077.76
990.927	4075.95
991.224	4045.67
991.521	4047.25
991.819	4020.59
992.116	3969.29
992.413	4024.65
992.71	4003.64
993.006	3919.12
993.303	3939.91
993.6	3896.3
993.897	3904.43
994.193	3921.61
994.49	3858.78
994.787	3838.22
995.083	3767.03
995.379	3795.06
995.676	3798.22
995.972	3764.55
996.268	3746.7
996.565	3723.19
996.861	3726.58
997.157	3678.9
997.453	3716.64
997.749	3672.8
998.044	3648.84
998.34	3656.08
998.636	3584.89
998.932	3557.77
999.227	3579.69
999.523	3583.08
999.818	3556.19
1000.114	3533.14
1000.409	3466.7
1000.704	3488.4
1001	3463.76
1001.295	3420.6
1001.59	3445.69
1001.885	3403.65
1002.18	3364.56
1002.475	3374.05
1002.77	3346.25
1003.065	3319.59
1003.359	3331.79
1003.654	3270.78
1003.949	3294.96
1004.243	3244.56
1004.538	3209.08
1004.832	3216.99
1005.127	3223.55
1005.421	3165.24
1005.715	3181.74
1006.009	3148.29
1006.304	3129.54
1006.598	3097.67
1006.892	3084.34
1007.186	3055.64
1007.48	3075.3
1007.773	3022.19
1008.067	2984.46
1008.361	2967.05
1008.655	2938.58
1008.948	2936.55
1009.242	2953.5
1009.535	2933.38
1009.829	2898.13
1010.122	2886.6
1010.415	2871.46
1010.708	2817
1011.001	2789.66
1011.295	2800.96
1011.588	2767.51
1011.881	2756.89
1012.173	2742.88
1012.466	2737.23
1012.759	2690
1013.052	2678.25
1013.344	2675.76
1013.637	2657.23
1013.93	2626.5
1014.222	2621.08
1014.514	2598.02
1014.807	2588.08
1015.099	2557.12
1015.391	2559.83
1015.683	2542.21
1015.976	2558.7
1016.268	2496.11
1016.56	2482.55
1016.851	2449.1
1017.143	2425.83
1017.435	2443.9
1017.727	2385.38
1018.018	2383.79
1018.31	2374.75
1018.602	2373.4
1018.893	2349.22
1019.185	2320.29
1019.476	2338.37
1019.767	2300.41
1020.058	2287.98
1020.35	2264.02
1020.641	2247.07
1020.932	2228.54
1021.223	2194.19
1021.514	2211.59
1021.804	2179.96
1022.095	2163.23
1022.386	2150.58
1022.677	2139.05
1022.967	2087.53
1023.258	2116.68
1023.548	2098.15
1023.839	2074.2
1024.129	2070.36
1024.419	2021.99
1024.709	2022.9
1025	2014.54
1025.29	1990.13
1025.58	2000.53
1025.87	1967.53
1026.16	1951.49
1026.449	1960.75
1026.739	1912.85
1027.029	1916.69
1027.319	1882.56
1027.608	1903.35
1027.898	1868.1
1028.187	1890.7
1028.477	1857.25
1028.766	1827.2
1029.055	1800.31
1029.344	1826.07
1029.634	1804.15
1029.923	1793.53
1030.212	1763.7
1030.501	1759.18
1030.79	1714.43
1031.078	1735.67
1031.367	1715.34
1031.656	1716.69
1031.945	1681.44
1032.233	1701.55
1032.522	1650.25
1032.81	1660.42
1033.099	1670.82
1033.387	1610.25
1033.675	1623.36
1033.963	1592.18
1034.251	1614.1
1034.54	1599.41
1034.828	1583.59
1035.116	1573.87
1035.403	1552.85
1035.691	1544.72
1035.979	1530.71
1036.267	1520.31
1036.554	1496.81
1036.842	1497.94
1037.129	1462.91
1037.417	1471.95
1037.704	1453.42
1037.992	1451.16
1038.279	1415.46
1038.566	1413.42
1038.853	1413.42
1039.14	1413.42
