Data from aluminium_macbook_case_FLMS001491_090.txt Node
Date: Tue Feb 07 10:44:18 GMT 2017
User: dcchb
Spectrometer: FLMS00149
Trigger mode: 0
Integration Time (sec): 2.000000E-2
Scans to average: 10
Electric dark correction enabled: true
Nonlinearity correction enabled: false
Boxcar width: 0
XAxis mode: Wavelengths
Number of Pixels in Spectrum: 2048
>>>>>Begin Spectral Data<<<<<
341.393	-17.88
341.776	-17.88
342.16	-17.88
342.543	-58.33
342.927	-60.14
343.31	-69.18
343.693	-77.09
344.077	-52
344.46	-50.2
344.843	-48.84
345.226	-41.61
345.61	-31.67
345.993	-29.41
346.376	-14.49
346.759	5.85
347.142	31.84
347.525	28.22
347.908	52.63
348.291	73.19
348.674	99.86
349.057	122.91
349.44	125.84
349.823	139.4
350.206	157.03
350.588	237.03
350.971	261.66
351.354	269.34
351.737	279.96
352.119	305.05
352.502	309.34
352.884	353.63
353.267	331.26
353.65	344.14
354.032	360.41
354.414	356.8
354.797	358.15
355.179	378.04
355.562	392.73
355.944	385.95
356.326	382.33
356.709	409.45
357.091	399.96
357.473	396.8
357.855	432.05
358.238	420.75
358.62	428.89
359.002	410.58
359.384	415.78
359.766	421.66
360.148	404.71
360.53	414.2
360.912	415.78
361.294	406.51
361.676	432.28
362.057	423.69
362.439	423.69
362.821	432.05
363.203	426.85
363.584	423.69
363.966	424.82
364.348	431.6
364.729	439.28
365.111	408.77
365.493	437.25
365.874	423.24
366.256	436.8
366.637	445.84
367.019	437.25
367.4	438.83
367.781	426.4
368.163	428.66
368.544	439.96
368.925	462.33
369.306	464.82
369.688	448.55
370.069	444.93
370.45	441.09
370.831	447.64
371.212	463.24
371.593	472.5
371.974	461.2
372.355	465.72
372.736	478.15
373.117	488.55
373.498	497.13
373.879	465.95
374.26	476.8
374.641	454.88
375.021	450.36
375.402	507.76
375.783	515.66
376.163	525.83
376.544	512.27
376.925	523.8
377.305	512.5
377.686	543.91
378.066	526.74
378.447	533.29
378.827	531.48
379.208	534.87
379.588	559.05
379.968	551.82
380.349	576.45
380.729	569
381.109	561.31
381.489	574.42
381.87	582.1
382.25	608.54
382.63	567.87
383.01	582.56
383.39	602.44
383.77	610.58
384.15	624.14
384.53	613.06
384.91	631.14
385.29	638.83
385.67	648.54
386.049	679.95
386.429	649.45
386.809	673.63
387.189	677.92
387.568	671.82
387.948	696.68
388.328	680.41
388.707	717.02
389.087	722.89
389.466	740.07
389.846	731.25
390.225	733.29
390.605	763.34
390.984	777.8
391.363	780.74
391.743	766.51
392.122	766.96
392.501	761.76
392.881	828.88
393.26	840.63
393.639	832.49
394.018	840.63
394.397	867.07
394.776	838.37
395.155	884.47
395.534	844.24
395.913	894.86
396.292	877.91
396.671	916.56
397.05	928.99
397.429	925.82
397.808	914.52
398.186	930.12
398.565	950.23
398.944	971.25
399.323	977.35
399.701	968.31
400.08	999.95
400.458	1006.27
400.837	1038.81
401.215	1019.38
401.594	1059.15
401.972	1059.38
402.351	1062.32
402.729	1068.87
403.107	1089.43
403.486	1118.36
403.864	1108.19
404.242	1138.7
404.62	1138.92
404.999	1165.82
405.377	1173.73
405.755	1185.7
406.133	1195.42
406.511	1217.57
406.889	1217.34
407.267	1274.06
407.645	1282.2
408.023	1281.07
408.401	1298.02
408.779	1335.76
409.156	1361.97
409.534	1365.59
409.912	1380.05
410.29	1426.37
410.667	1423.89
411.045	1444.45
411.422	1469.31
411.8	1489.42
412.178	1518.8
412.555	1518.8
412.933	1562.42
413.31	1597.67
413.687	1572.36
414.065	1596.31
414.442	1643.32
414.819	1681.06
415.197	1688.29
415.574	1697.78
415.951	1729.42
416.328	1746.59
416.705	1768.74
417.082	1777.1
417.46	1817.55
417.837	1854.84
418.214	1855.52
418.591	1836.31
418.967	1898.45
419.344	1896.87
419.721	1940.03
420.098	1918.34
420.475	1965.57
420.852	1979.58
421.228	2021.61
421.605	2036.98
421.982	2042.4
422.358	2063.87
422.735	2115.85
423.111	2108.39
423.488	2147.26
423.864	2157.66
424.241	2207.15
424.617	2215.28
424.994	2235.62
425.37	2257.09
425.746	2282.62
426.123	2342.96
426.499	2381.83
426.875	2371.89
427.251	2417.54
427.627	2481.26
428.003	2484.88
428.379	2540.7
428.756	2556.51
429.132	2565.33
429.507	2620.47
429.883	2688.04
430.259	2738.66
430.635	2742.05
431.011	2752.89
431.387	2830.41
431.763	2900.23
432.138	2880.8
432.514	2958.09
432.89	2976.16
433.265	3066.56
433.641	3113.11
434.016	3148.14
434.392	3177.74
434.767	3250.28
435.143	3229.72
435.518	3300.45
435.894	3299.55
436.269	3334.35
436.644	3399.2
437.02	3448.92
437.395	3491.63
437.77	3500.9
438.145	3559.43
438.52	3601.23
438.895	3602.36
439.271	3619.31
439.646	3749.25
440.021	3766.88
440.395	3793.09
440.77	3760.78
441.145	3765.52
441.52	3926.87
441.895	3898.4
442.27	3983.14
442.645	3914.67
443.019	4059.07
443.394	4057.27
443.769	4074.89
444.143	4062.01
444.518	4182.01
444.892	4092.97
445.267	4170.26
445.641	4230.14
446.016	4238.73
446.39	4280.09
446.764	4350.14
447.139	4315.34
447.513	4423.81
447.887	4440.98
448.262	4470.14
448.636	4525.95
449.01	4590.59
449.384	4617.03
449.758	4654.99
450.132	4699.51
450.506	4698.15
450.88	4730.92
451.254	4749.23
451.628	4851.14
452.002	4910.13
452.376	4917.81
452.75	5036
453.123	5046.39
453.497	5112.15
453.871	5172.72
454.244	5278.93
454.618	5285.93
454.992	5374.29
455.365	5423.11
455.739	5527.74
456.112	5563.44
456.486	5680.27
456.859	5739.71
457.232	5851.8
457.606	5826.94
457.979	5894.05
458.352	6015.86
458.725	6137.21
459.099	6181.73
459.472	6311.9
459.845	6369.52
460.218	6443.19
460.591	6502.63
460.964	6547.82
461.337	6666.92
461.71	6761.15
462.083	6853.12
462.456	6894.25
462.829	6923.63
463.201	7011.09
463.574	7077.98
463.947	7184.19
464.32	7369.72
464.692	7435.03
465.065	7444.97
465.438	7618.98
465.81	7810.39
466.183	7831.18
466.555	7967.45
466.928	8065.3
467.3	8086.09
467.672	8278.85
468.045	8425.74
468.417	8407.89
468.789	8475.91
469.161	8643.36
469.534	8906.18
469.906	9026.85
470.278	9078.6
470.65	9166.51
471.022	9404.02
471.394	9554.97
471.766	9557.69
472.138	9664.8
472.51	9989.31
472.882	10099.37
473.253	10234.96
473.625	10341.85
473.997	10609.86
474.369	10644.21
474.74	10869.52
475.112	11021.38
475.484	11209.85
475.855	11491.87
476.227	11550.4
476.598	11871.07
476.97	11992.2
477.341	12199.42
477.713	12391.06
478.084	12566.65
478.455	12881.67
478.827	12967.09
479.198	13465.38
479.569	13482.33
479.94	13767.29
480.311	13901.3
480.682	14354.17
481.053	14546.48
481.424	14757.55
481.795	14906.02
482.166	15182.4
482.537	15370.87
482.908	15694.02
483.279	15812.89
483.65	16210.17
484.021	16441.8
484.391	16729.48
484.762	16755.46
485.133	17020.32
485.503	17317.71
485.874	17689.45
486.244	17778.26
486.615	18171.7
486.985	18441.07
487.356	18738.91
487.726	18969.19
488.097	19286.24
488.467	19408.73
488.837	19868.15
489.207	20168.71
489.578	20395.37
489.948	20576.83
490.318	20956.03
490.688	20975.01
491.058	21315.12
491.428	21529.58
491.798	21784.94
492.168	22146.28
492.538	22333.17
492.908	22525.93
493.278	22839.37
493.648	22879.37
494.017	23202.07
494.387	23365.91
494.757	23624.66
495.126	23900.13
495.496	23944.65
495.866	24145.33
496.235	24447.46
496.605	24586.67
496.974	24948.24
497.344	25056.49
497.713	25133.1
498.082	25489.25
498.452	25745.51
498.821	26078.38
499.19	26030.47
499.559	26293.74
499.928	26503
500.298	26702.77
500.667	26930.56
501.036	27005.82
501.405	27175.75
501.774	27302.76
502.143	27594.5
502.512	27735.06
502.88	27998.11
503.249	28099.57
503.618	28184.99
503.987	28317.65
504.356	28399.9
504.724	28665.88
505.093	28791.53
505.462	29017.51
505.83	29218.41
506.199	29477.84
506.567	29774.56
506.936	29791.28
507.304	30236.01
507.672	30377.25
508.041	30513.97
508.409	30832.61
508.777	31193.5
509.145	31236.21
509.514	31286.38
509.882	31653.83
510.25	31708.06
510.618	32107.15
510.986	32280.25
511.354	32715.95
511.722	32823.52
512.09	33254.92
512.458	33170.62
512.826	33483.16
513.193	33737.39
513.561	33802.47
513.929	34164.05
514.297	34327.2
514.664	34680.42
515.032	34769.23
515.4	35061.65
515.767	35102.78
516.135	35360.17
516.502	35395.88
516.869	35964
517.237	36020.49
517.604	36128.97
517.972	36551.78
518.339	36785.22
518.706	36808.27
519.073	37017.08
519.44	37300.46
519.808	37747.91
520.175	37809.6
520.542	38345.86
520.909	38587.43
521.276	38621.78
521.643	39105.16
522.009	39418.6
522.376	39587.86
522.743	39874.63
523.11	40367.5
523.477	40753.48
523.843	40999.57
524.21	41354.82
524.577	41603.85
524.943	41816.73
525.31	42108.02
525.676	42411.74
526.043	42653.77
526.409	42726.76
526.776	43329.68
527.142	43409.45
527.508	43673.63
527.874	44071.81
528.241	44030
528.607	44237.68
528.973	44670.44
529.339	44581.17
529.705	45195.85
530.071	45616.17
530.437	45643.97
530.803	45875.38
531.169	46190.4
531.535	46123.28
531.901	46337.06
532.267	46555.13
532.632	46739.53
532.998	46900.21
533.364	47102.46
533.73	47306.75
534.095	47728.66
534.461	47870.13
534.826	48094.3
535.192	48315.31
535.557	48541.75
535.923	48470.79
536.288	48735.64
536.653	48963.43
537.019	48852.02
537.384	49181.05
537.749	49232.35
538.114	49432.8
538.479	49419.24
538.845	49628.95
539.21	49553.02
539.575	49769.06
539.94	49967.02
540.305	50222.15
540.67	50187.13
541.034	50298.08
541.399	50482.49
541.764	50529.94
542.129	50603.61
542.494	50823.49
542.858	50880.89
543.223	50929.93
543.587	51052.87
543.952	51149.59
544.316	51269.81
544.681	51306.42
545.045	51516.81
545.41	51742.34
545.774	51694.66
546.138	51825.28
546.503	52002.45
546.867	51882.9
547.231	52347.75
547.595	52345.94
547.959	52563.34
548.324	52449.67
548.688	52703.44
549.052	52837
549.416	52837.68
549.779	52943.66
550.143	53074.96
550.507	53306.59
550.871	53349.53
551.235	53360.15
551.599	53693.93
551.962	53676.3
552.326	53801.72
552.689	53953.13
553.053	53881.04
553.417	53996.74
553.78	54333.23
554.143	54230.41
554.507	54431.99
554.87	54455.94
555.234	54728.25
555.597	54536.16
555.96	54694.13
556.323	54874.91
556.686	54851.64
557.05	55110.39
557.413	55128.47
557.776	55260.89
558.139	55411.4
558.502	55550.15
558.865	55579.3
559.228	55796.7
559.59	55844.61
559.953	55890.71
560.316	56159.17
560.679	56190.58
561.041	56405.49
561.404	56481.65
561.767	56724.58
562.129	56687.52
562.492	56952.37
562.854	56995.08
563.217	57033.05
563.579	57135.19
563.941	57310.33
564.304	57364.79
564.666	57525.92
565.028	57576.08
565.39	57666.03
565.753	57772.92
566.115	57866.25
566.477	57995.06
566.839	58055.39
567.201	58195.96
567.563	58241.15
567.925	58470.52
568.287	58407.7
568.648	58533.57
569.01	58609.28
569.372	58740.12
569.734	58707.13
570.095	58834.36
570.457	58892.43
570.819	58983.73
571.18	58988.7
571.542	59165.42
571.903	59196.16
572.265	59276.38
572.626	59366.09
572.987	59403.83
573.349	59559.08
573.71	59581.23
574.071	59645.64
574.432	59733.32
574.794	59894.22
575.155	59831.62
575.516	59742.58
575.877	59953.2
576.238	59975.34
576.599	60103.02
576.96	60077.71
577.32	60135.79
577.681	60201.55
578.042	60326.75
578.403	60372.85
578.763	60352.51
579.124	60381.21
579.485	60438.38
579.845	60488.55
580.206	60418.72
580.566	60438.38
580.927	60535.78
581.287	60576.91
581.648	60463.69
582.008	60609.23
582.368	60608.55
582.728	60656.91
583.089	60530.81
583.449	60577.81
583.809	60565.61
584.169	60655.33
584.529	60530.81
584.889	60790.24
585.249	60611.03
585.609	60542.33
585.969	60670.69
586.329	60581.88
586.688	60657.13
587.048	60597.7
587.408	60620.98
587.768	60610.58
588.127	60709.11
588.487	60662.11
588.846	60765.83
589.206	60642.22
589.565	60624.14
589.925	60794.31
590.284	60761.09
590.643	60743.69
591.003	60774.87
591.362	60872.72
591.721	60837.02
592.08	60821.88
592.44	60855.55
592.799	60851.48
593.158	60789.11
593.517	60876.56
593.876	60867.52
594.235	60858.48
594.593	60856.45
594.952	60898.71
595.311	60788.43
595.67	60951.82
596.029	61001.31
596.387	61027.75
596.746	61053.73
597.104	60893.06
597.463	60893.51
597.822	60980.29
598.18	60907.52
598.538	60881.99
598.897	61074.75
599.255	60881.76
599.613	61170.34
599.972	60933.74
600.33	61045.82
600.688	60986.16
601.046	61051.02
601.404	61108.87
601.762	61018.93
602.12	61089.89
602.478	61138.7
602.836	61161.08
603.194	61025.03
603.552	61114.52
603.91	61016.45
604.268	61188.87
604.625	61133.28
604.983	61219.6
605.341	61221.64
605.698	61307.29
606.056	61377.57
606.413	61339.38
606.771	61361.75
607.128	61536.66
607.485	61405.14
607.843	61410.11
608.2	61583.66
608.557	61571.23
608.914	61578.47
609.272	61634.51
609.629	61646.71
609.986	61771.68
610.343	61598.13
610.7	61716.77
611.057	61807.16
611.414	61739.82
611.771	61712.02
612.127	61869.53
612.484	61835.18
612.841	61868.63
613.198	61744.34
613.554	61796.54
613.911	61944.56
614.267	61882.64
614.624	61858.68
614.98	61881.51
615.337	61976.2
615.693	61923.54
616.05	61900.49
616.406	61970.77
616.762	61936.87
617.118	61935.52
617.475	61954.73
617.831	61920.15
618.187	61955.86
618.543	61998.57
618.899	62184.55
619.255	62063.42
619.611	62058.9
619.967	62076.76
620.323	62118.34
620.678	62076.53
621.034	62007.61
621.39	62094.16
621.746	61990.88
622.101	62234.04
622.457	62061.62
622.812	62105.01
623.168	62143.2
623.523	62105.91
623.879	62256.19
624.234	62066.36
624.589	62178.22
624.945	62202.63
625.3	62273.14
625.655	62276.98
626.01	62273.81
626.365	62230.88
626.72	62220.03
627.075	62188.85
627.43	62213.93
627.785	62159.69
628.14	62198.11
628.495	62242.63
628.85	62189.75
629.205	62173.7
629.559	62240.6
629.914	62074.95
630.269	62045.12
630.623	62040.37
630.978	61984.56
631.332	62044.67
631.687	62076.98
632.041	61923.99
632.396	61973.71
632.75	61859.59
633.104	61867.72
633.459	61786.37
633.813	61711.34
634.167	61720.38
634.521	61630.67
634.875	61726.94
635.229	61670.21
635.583	61545.02
635.937	61532.37
636.291	61552.25
636.645	61504.8
636.999	61423.22
637.352	61510.67
637.706	61323.78
638.06	61448.75
638.413	61368.08
638.767	61307.51
639.121	61345.93
639.474	61213.96
639.828	61191.36
640.181	61235.65
640.534	61295.76
640.888	61134.18
641.241	61063.22
641.594	61088.31
641.947	61170.57
642.301	61071.81
642.654	61099.38
643.007	61067.07
643.36	61107.52
643.713	61005.83
644.066	61078.37
644.419	60997.01
644.771	60883.79
645.124	60620.07
645.477	60584.14
645.83	60399.29
646.182	60335.11
646.535	60252.17
646.888	60347.31
647.24	60172.17
647.593	60235
647.945	60142.35
648.298	60100.31
648.65	60002.46
649.002	59926.08
649.355	59992.74
649.707	59975.8
650.059	60024.38
650.411	60261.44
650.763	60300.08
651.115	60495.78
651.467	60420.76
651.819	60325.84
652.171	60289.46
652.523	60263.02
652.875	60234.09
653.227	60145.73
653.578	60241.78
653.93	60210.82
654.282	60089.69
654.633	60070.93
654.985	60017.38
655.337	60037.49
655.688	60020.54
656.039	60062.8
656.391	59871.84
656.742	59922.46
657.094	59897.38
657.445	59974.21
657.796	59897.15
658.147	59854.67
658.498	59856.48
658.849	59933.99
659.2	59870.94
659.551	59876.14
659.902	59929.24
660.253	59776.25
660.604	59910.03
660.955	59778.96
661.306	59891.5
661.656	59756.14
662.007	59786.65
662.358	59822.81
662.708	59792.52
663.059	59781.45
663.409	59689.7
663.76	59750.72
664.11	59721.79
664.461	59769.93
664.811	59819.19
665.161	59771.06
665.511	59693.09
665.862	59656.71
666.212	59798.63
666.562	59782.35
666.912	59682.24
667.262	59629.59
667.612	59621.45
667.962	59620.1
668.312	59530.84
668.662	59621
669.011	59609.93
669.361	59524.28
669.711	59459.88
670.06	59431.4
670.41	59383.27
670.76	59353.44
671.109	59418.07
671.459	59338.52
671.808	59208.58
672.157	59357.96
672.507	59099.89
672.856	59075.25
673.205	59188.25
673.554	59189.83
673.904	59096.95
674.253	59174.01
674.602	59080
674.951	58742.61
675.3	58616.51
675.649	59014.01
675.998	58960.23
676.346	59005.2
676.695	59007.23
677.044	58761.82
677.393	58883.4
677.741	58927.01
678.09	58862.83
678.438	58791.19
678.787	58838.2
679.135	58876.84
679.484	58723.4
679.832	58768.37
680.181	58701.93
680.529	58757.97
680.877	58656.06
681.225	58597.08
681.573	58746.68
681.922	58560.24
682.27	58520.24
682.618	58562.73
682.966	58435.05
683.314	58531.09
683.661	58458.55
684.009	58352.56
684.357	58303.75
684.705	58267.59
685.053	58261.04
685.4	58210.87
685.748	58090.2
686.095	58093.13
686.443	58030.54
686.79	57901.05
687.138	57990.54
687.485	58010.65
687.832	57863.08
688.18	57853.37
688.527	57769.75
688.874	57646.59
689.221	57658.34
689.568	57562.98
689.915	57475.75
690.262	57459.03
690.609	57362.76
690.956	57233.5
691.303	57218.35
691.65	57061.07
691.997	57064.01
692.344	56872.15
692.69	56791.25
693.037	56857.69
693.383	56615.43
693.73	56637.13
694.077	56500.41
694.423	56426.06
694.769	56358.04
695.116	56278.04
695.462	56237.36
695.808	56110.13
696.155	56167.31
696.501	56023.58
696.847	55997.6
697.193	55777.94
697.539	55856.81
697.885	55688.68
698.231	55634.44
698.577	55644.38
698.923	55551.51
699.269	55352.19
699.614	55261.12
699.96	55246.65
700.306	55283.26
700.651	55160.1
700.997	55010.28
701.342	54983.61
701.688	54917.85
702.033	54846.21
702.379	54798.08
702.724	54799.21
703.069	54921.92
703.415	54485.32
703.76	54587.69
704.105	54599.44
704.45	54458.88
704.795	54344.31
705.14	54215.72
705.485	54276.96
705.83	54109.74
706.175	54219.34
706.52	54055.95
706.865	53945.67
707.209	53836.97
707.554	53821.83
707.899	53826.81
708.243	53688.96
708.588	53707.26
708.932	53435.63
709.277	53405.8
709.621	53402.18
709.966	53167.39
710.31	53235.63
710.654	53002.87
710.998	53062.31
711.342	53077.67
711.687	52924.23
712.031	52679.72
712.375	52545.93
712.719	52660.06
713.063	52535.54
713.407	52667.29
713.75	52376.22
714.094	52303.91
714.438	52131.71
714.782	52016.91
715.125	52048.09
715.469	52121.31
715.812	51816.01
716.156	51722.91
716.499	51720.65
716.843	51637.94
717.186	51418.96
717.53	51614.43
717.873	51533.08
718.216	51432.29
718.559	51328.34
718.902	51079.76
719.246	51272.97
719.589	51099.19
719.932	50791.4
720.275	50808.58
720.617	50777.62
720.96	50620.56
721.303	50738.75
721.646	50628.7
721.989	50492.43
722.331	50662.82
722.674	50446.78
723.016	50484.29
723.359	50390.06
723.701	50357.52
724.044	50234.58
724.386	50049.05
724.729	50199.78
725.071	50046.34
725.413	50117.75
725.755	50095.83
726.097	49933.35
726.439	49788.72
726.782	49736.52
727.124	49989.39
727.465	49722.73
727.807	49749.62
728.149	49496.07
728.491	49499.46
728.833	49648.38
729.175	49476.64
729.516	49313.48
729.858	49362.52
730.199	49359.13
730.541	49311.44
730.882	49183.31
731.224	49233.48
731.565	48892.25
731.906	48968.18
732.248	49115.74
732.589	48795.52
732.93	48621.74
733.271	48656.09
733.612	48644.79
733.953	48690.89
734.294	48396.67
734.635	48412.94
734.976	48392.15
735.317	48218.59
735.658	48187.18
735.999	48089.33
736.339	47950.58
736.68	48082.1
737.021	47796.68
737.361	47583.81
737.702	47992.61
738.042	47799.39
738.383	47572.51
738.723	47452.51
739.063	47295.9
739.404	47230.14
739.744	47219.97
740.084	46912.41
740.424	47036.02
740.764	46930.04
741.104	47049.58
741.444	46747.44
741.784	46752.87
742.124	46634.45
742.464	46627.67
742.804	46471.74
743.143	46296.16
743.483	46291.41
743.823	46091.19
744.162	46105.43
744.502	46142.94
744.841	45881.25
745.181	46130.51
745.52	45791.99
745.86	45899.56
746.199	45777.53
746.538	45706.11
746.877	45724.87
747.216	45710.41
747.556	45614.59
747.895	45634.48
748.234	45261.15
748.573	45323.07
748.911	45239.01
749.25	45323.75
749.589	45135.96
749.928	45118.11
750.267	45140.71
750.605	44989.98
750.944	45009.18
751.283	44709.08
751.621	44804.44
751.96	44601.28
752.298	44622.53
752.636	44658.23
752.975	44494.17
753.313	44262.76
753.651	44558.12
753.989	44223.22
754.327	44068.87
754.666	43906.61
755.004	44067.97
755.342	43915.88
755.679	43827.75
756.017	43632.04
756.355	43733.29
756.693	43547.3
757.031	43556.57
757.368	43319.06
757.706	43250.59
758.044	43011.5
758.381	43098.27
758.719	42959.07
759.056	42835
759.394	42650.15
759.731	42388.01
760.068	42373.09
760.405	42187.56
760.743	42041.58
761.08	42072.54
761.417	41824.41
761.754	41882.49
762.091	41733.56
762.428	41497.64
762.765	41254.48
763.102	41245.44
763.438	40905.11
763.775	40709.18
764.112	40715.74
764.449	40669.41
764.785	40604.1
765.122	40405.24
765.458	40241.4
765.795	40044.57
766.131	40111.23
766.467	39877.34
766.804	39564.58
767.14	39291.59
767.476	39310.35
767.812	39160.07
768.148	39179.96
768.485	38927.54
768.821	38758.27
769.157	38625.17
769.492	38641.89
769.828	38466.53
770.164	38235.8
770.5	37969.37
770.836	38091.4
771.171	37645.54
771.507	37658.87
771.842	37413.68
772.178	37457.97
772.513	37248.03
772.849	37151.31
773.184	36948.83
773.519	37020.92
773.855	36778.67
774.19	36747.25
774.525	36518.79
774.86	36593.36
775.195	36429.07
775.53	36249.19
775.865	36215.74
776.2	35857.79
776.535	35714.29
776.87	35690.56
777.205	35542.99
777.539	35387.97
777.874	35475.42
778.209	35276.56
778.543	35162.66
778.878	34996.79
779.212	35050.8
779.547	34716.57
779.881	34935.78
780.215	34687.87
780.55	34743.01
780.884	34398.62
781.218	34360.65
781.552	34428.22
781.886	34162.92
782.22	34017.38
782.554	33865.07
782.888	33541.24
783.222	33401.13
783.556	33337.63
783.889	33335.14
784.223	33061.02
784.557	33065.77
784.89	33111.19
785.224	32904.19
785.557	32670.3
785.891	32660.81
786.224	32440.93
786.558	32404.54
786.891	32240.71
787.224	31986.25
787.557	31816.31
787.891	31851.79
788.224	31786.71
788.557	31719.59
788.89	31564.34
789.223	31553.49
789.556	31215.42
789.888	31101.75
790.221	30958.71
790.554	30781.08
790.887	30854.08
791.219	30528.21
791.552	30433.97
791.884	30301.55
792.217	30217.03
792.549	30007.54
792.882	29799.64
793.214	29713.09
793.546	29729.13
793.879	29613.88
794.211	29353.78
794.543	29352.65
794.875	29229.03
795.207	29356.04
795.539	29064.07
795.871	28977.51
796.203	28785.43
796.535	28694.58
796.867	28590.86
797.198	28525.78
797.53	28495.27
797.862	28331.2
798.193	28263.86
798.525	28055.28
798.856	28029.29
799.188	27774.61
799.519	27581.17
799.85	27616.87
800.182	27625.46
800.513	27573.71
800.844	27374.85
801.175	27512.69
801.506	27391.57
801.837	27293.94
802.168	27158.58
802.499	27187.28
802.83	26952.03
803.161	26877.91
803.491	26841.3
803.822	26875.2
804.153	26713.39
804.483	26573.28
804.814	26527.41
805.145	26491.93
805.475	26491.03
805.805	26360.86
806.136	26336.23
806.466	26319.28
806.796	26397.24
807.126	26050.36
807.457	25998.61
807.787	26174.2
808.117	26005.62
808.447	25862.79
808.777	26015.33
809.107	25827.77
809.436	25861.44
809.766	25715.68
810.096	25547.32
810.426	25613.99
810.755	25485.86
811.085	25460.32
811.414	25539.87
811.744	25244.73
812.073	25284.73
812.403	25250.16
812.732	25208.12
813.061	25085.41
813.39	24976.49
813.719	25050.84
814.049	25037.05
814.378	24948.92
814.707	24778.08
815.036	24783.95
815.365	24630.96
815.693	24567.46
816.022	24518.2
816.351	24346
816.68	24186.23
817.008	24182.16
817.337	24171.54
817.665	23925.67
817.994	24077.98
818.322	24071.66
818.651	23826.92
818.979	23769.74
819.307	23891.77
819.636	23697.2
819.964	23522.29
820.292	23666.92
820.62	23539.69
820.948	23415.63
821.276	23568.39
821.604	23336.53
821.932	23503.53
822.259	23368.62
822.587	23464.67
822.915	23306.25
823.243	23488.85
823.57	23335.4
823.898	23299.25
824.225	23211.56
824.553	23216.76
824.88	23239.13
825.207	23304.22
825.535	23199.59
825.862	23286.14
826.189	23078.01
826.516	23313.03
826.843	23210.43
827.17	23154.62
827.497	23082.75
827.824	23139.25
828.151	23225.35
828.478	23068.52
828.805	23239.59
829.131	23077.78
829.458	23087.95
829.785	22967.5
830.111	22959.82
830.438	23225.8
830.764	23014.73
831.09	23061.96
831.417	22911.91
831.743	23051.12
832.069	22924.34
832.395	22904.45
832.722	22997.11
833.048	22923.89
833.374	22943.55
833.7	22847.51
834.026	22894.29
834.351	22876.66
834.677	22891.12
835.003	22963.44
835.329	22947.16
835.654	22953.94
835.98	22863.78
836.306	22946.71
836.631	22788.3
836.956	22786.04
837.282	22929.76
837.607	22729.09
837.932	22771.35
838.258	22642.77
838.583	22736.1
838.908	22642.99
839.233	22686.83
839.558	22744.68
839.883	22651.13
840.208	22568.19
840.533	22563.9
840.858	22492.26
841.182	22539.49
841.507	22611.58
841.832	22353.28
842.156	22362.55
842.481	22413.62
842.805	22280.29
843.13	22273.74
843.454	22244.13
843.778	22136.79
844.103	22113.06
844.427	22084.36
844.751	22148.32
845.075	21996.68
845.399	21923.24
845.723	21738.16
846.047	21955.33
846.371	21676.24
846.695	21684.6
847.019	21375.91
847.343	21393.76
847.666	21319.86
847.99	21217.04
848.313	21260.88
848.637	21008.23
848.96	20979.76
849.284	20956.26
849.607	20764.4
849.931	20764.62
850.254	20660.22
850.577	20457.06
850.9	20322.6
851.223	20381.36
851.546	20179.78
851.869	20107.92
852.192	20183.85
852.515	19983.18
852.838	19891.43
853.161	19948.83
853.483	19787.02
853.806	19656.4
854.129	19711.77
854.451	19606.01
854.774	19448.73
855.096	19397.88
855.419	19334.38
855.741	19330.08
856.063	19223.65
856.385	19185.68
856.708	19015.52
857.03	19028.4
857.352	19035.18
857.674	18853.94
857.996	18869.31
858.318	18780.72
858.64	18694.17
858.961	18626.15
859.283	18478.81
859.605	18448.53
859.926	18455.31
860.248	18426.83
860.57	18419.6
860.891	18513.61
861.212	18319.04
861.534	18314.97
861.855	18184.8
862.176	18232.26
862.498	18120.4
862.819	18177.57
863.14	18035.2
863.461	18010.12
863.782	17981.65
864.103	17963.12
864.424	17975.77
864.745	17906.85
865.065	17873.63
865.386	17823.91
865.707	17794.31
866.027	17827.07
866.348	17780.07
866.668	17816.9
866.989	17728.55
867.309	17659.39
867.63	17775.1
867.95	17719.96
868.27	17674.08
868.59	17792.95
868.91	17630.69
869.23	17643.58
869.55	17524.93
869.87	17677.47
870.19	17582.56
870.51	17625.95
870.83	17543.01
871.15	17522.67
871.469	17482.68
871.789	17565.61
872.109	17401.77
872.428	17410.81
872.748	17505.27
873.067	17411.27
873.386	17377.82
873.706	17410.81
874.025	17387.76
874.344	17359.29
874.663	17413.3
874.982	17346.18
875.301	17404.26
875.62	17323.81
875.939	17240.2
876.258	17268.67
876.577	17180.76
876.896	17117.26
877.214	17275.68
877.533	17191.38
877.852	17210.37
878.17	17270.03
878.489	17136.02
878.807	17143.7
879.125	17005.17
879.444	17102.57
879.762	17076.58
880.08	17000.43
880.398	16970.15
880.716	16985.97
881.034	16872.07
881.352	16962.01
881.67	16784.16
881.988	16870.71
882.306	16800.43
882.624	16702.58
882.941	16633.66
883.259	16636.14
883.577	16588.91
883.894	16534
884.212	16496.71
884.529	16630.04
884.846	16465.75
885.164	16430.27
885.481	16391.41
885.798	16374.23
886.115	16289.94
886.432	16227.12
886.75	16197.06
887.067	16258.98
887.383	16056.72
887.7	16033
888.017	15968.59
888.334	16012.88
888.651	16035.71
888.967	15915.71
889.284	15894.24
889.6	15747.35
889.917	15712.1
890.233	15755.94
890.55	15659.67
890.866	15717.52
891.182	15605.89
891.498	15592.1
891.815	15424.88
892.131	15363.86
892.447	15365.67
892.763	15253.81
893.079	15260.59
893.395	15212.23
893.71	15159.57
894.026	15163.87
894.342	15147.82
894.657	14951.22
894.973	14890.43
895.289	14934.49
895.604	14967.49
895.92	14835.97
896.235	14750.77
896.55	14787.61
896.865	14781.96
897.181	14727.95
897.496	14609.08
897.811	14520.49
898.126	14511.91
898.441	14354.4
898.756	14379.25
899.071	14250.9
899.386	14308.52
899.7	14127.96
900.015	14176.77
900.33	13962.99
900.644	14043.9
900.959	14077.57
901.273	13919.15
901.588	13953.28
901.902	13844.81
902.216	13863.79
902.531	13820.4
902.845	13804.35
903.159	13739.27
903.473	13701.53
903.787	13636.68
904.101	13606.39
904.415	13565.94
904.729	13528.66
905.042	13428.55
905.356	13403.01
905.67	13450.47
905.984	13419.73
906.297	13303.58
906.611	13276.68
906.924	13266.29
907.237	13170.7
907.551	13150.59
907.864	13087.99
908.177	13108.55
908.491	13118.72
908.804	13036.24
909.117	12891.84
909.43	12853.65
909.743	12857.94
910.056	12837.15
910.368	12753.76
910.681	12751.05
910.994	12704.5
911.307	12668.79
911.619	12631.28
911.932	12660.43
912.244	12531.62
912.557	12428.8
912.869	12432.19
913.181	12428.35
913.494	12464.28
913.806	12389.25
914.118	12335.69
914.43	12280.1
914.742	12281.68
915.054	12209.37
915.366	12060.67
915.678	12015.93
915.99	12030.39
916.302	11988.81
916.613	11827.91
916.925	11839.43
917.236	11797.85
917.548	11847.34
917.859	11817.51
918.171	11620.68
918.482	11590.85
918.794	11542.72
919.105	11583.4
919.416	11430.86
919.727	11462.95
920.038	11358.32
920.349	11401.25
920.66	11285.78
920.971	11318.32
921.282	11208.26
921.593	11118.1
921.903	11083.07
922.214	11051.88
922.525	10927.37
922.835	10936.41
923.146	10842.85
923.456	10900.7
923.767	10829.52
924.077	10787.94
924.387	10740.25
924.697	10651.44
925.008	10645.79
925.318	10572.8
925.628	10560.37
925.938	10458
926.248	10426.14
926.558	10310.66
926.867	10378.23
927.177	10301.62
927.487	10179.82
927.796	10145.69
928.106	10095.3
928.416	10070.44
928.725	10108.63
929.034	9967.85
929.344	10005.81
929.653	9931.91
929.962	9868.19
930.271	9819.6
930.581	9756.55
930.89	9716.78
931.199	9654.18
931.508	9635.65
931.817	9595.2
932.125	9550
932.434	9519.27
932.743	9450.12
933.051	9369.67
933.36	9344.81
933.669	9289.22
933.977	9290.12
934.286	9264.36
934.594	9211.48
934.902	9143.69
935.21	9097.81
935.519	9117.7
935.827	8990.24
936.135	8906.18
936.443	8864.15
936.751	8901.88
937.059	8861.43
937.367	8837.03
937.674	8853.3
937.982	8783.7
938.29	8693.98
938.597	8723.13
938.905	8681.78
939.213	8603.59
939.52	8503.48
939.827	8559.52
940.135	8516.58
940.442	8478.62
940.749	8488.56
941.056	8479.07
941.363	8336.7
941.67	8432.52
941.977	8311.17
942.284	8242.47
942.591	8217.61
942.898	8218.29
943.205	8251.73
943.511	8178.29
943.818	8080.89
944.125	8120.21
944.431	8068.91
944.738	8040.21
945.044	7985.3
945.35	7988.69
945.657	7892.65
945.963	7923.61
946.269	7809.26
946.575	7855.58
946.881	7785.08
947.187	7811.52
947.493	7753.21
947.799	7784.4
948.105	7662.37
948.41	7639.77
948.716	7673.44
949.022	7612.43
949.327	7649.49
949.633	7485.42
949.938	7507.12
950.244	7494.69
950.549	7378.99
950.854	7383.05
951.16	7401.13
951.465	7376.73
951.77	7369.27
952.075	7263.96
952.38	7292.89
952.685	7291.53
952.99	7177.41
953.294	7227.58
953.599	7161.82
953.904	7166.11
954.209	7052.44
954.513	7141.93
954.818	6980.81
955.122	7029.62
955.426	6985.1
955.731	6987.36
956.035	6924.99
956.339	6939.68
956.643	6931.09
956.948	6853.58
957.252	6830.07
957.556	6800.7
957.86	6706.91
958.163	6707.82
958.467	6664.2
958.771	6679.57
959.075	6653.81
959.378	6590.76
959.682	6558.44
959.985	6526.81
960.289	6503.08
960.592	6483.64
960.896	6434.6
961.199	6337.66
961.502	6349.86
961.805	6285
962.108	6287.49
962.411	6315.74
962.714	6210.88
963.017	6246.59
963.32	6215.4
963.623	6196.19
963.926	6170.66
964.228	6160.71
964.531	6080.26
964.833	6102.41
965.136	6007.72
965.438	5982.64
965.741	5980.83
966.043	5976.76
966.345	5918.23
966.648	5902.87
966.95	5898.35
967.252	5852.93
967.554	5786.71
967.856	5769.99
968.158	5734.74
968.46	5715.75
968.761	5708.97
969.063	5671.24
969.365	5653.83
969.666	5602.54
969.968	5599.6
970.269	5582.65
970.571	5518.7
970.872	5501.52
971.174	5451.58
971.475	5441.41
971.776	5405.93
972.077	5419.26
972.378	5357.8
972.679	5343.56
972.98	5351.7
973.281	5318.7
973.582	5277.57
973.883	5262.21
974.183	5238.93
974.484	5178.37
974.785	5146.5
975.085	5165.26
975.386	5140.4
975.686	5134.3
975.986	5098.37
976.287	5092.72
976.587	5021.76
976.887	4929.56
977.187	5006.39
977.487	4947.41
977.787	4967.3
978.087	4876.45
978.387	4897.47
978.687	4907.41
978.987	4861.09
979.286	4827.19
979.586	4795.78
979.885	4790.81
980.185	4813.63
980.484	4647.31
980.784	4711.71
981.083	4687.76
981.382	4692.96
981.682	4673.07
981.981	4645.05
982.28	4623.35
982.579	4589.46
982.878	4588.78
983.177	4517.59
983.475	4574.77
983.774	4536.58
984.073	4486.18
984.372	4482.57
984.67	4438.73
984.969	4428.33
985.267	4424.71
985.566	4401.44
985.864	4357.82
986.162	4352.17
986.461	4306.75
986.759	4325.96
987.057	4295
987.355	4284.38
987.653	4275.57
987.951	4220.65
988.249	4206.87
988.547	4198.73
988.844	4191.73
989.142	4204.38
989.44	4124.61
989.737	4178.17
990.035	4094.33
990.332	4111.05
990.63	4090.26
990.927	4087.77
991.224	4055.01
991.521	4036.7
991.819	3992.86
992.116	3996.7
992.413	3990.15
992.71	3970.49
993.006	3943.82
993.303	3908.12
993.6	3931.62
993.897	3903.6
994.193	3865.63
994.49	3837.16
994.787	3872.86
995.083	3797.16
995.379	3792.19
995.676	3793.32
995.972	3796.26
996.268	3779.08
996.565	3725.98
996.861	3749.7
997.157	3722.81
997.453	3673.55
997.749	3676.94
998.044	3601.23
998.34	3636.71
998.636	3610.05
998.932	3578.86
999.227	3542.93
999.523	3532.31
999.818	3519.43
1000.114	3521.91
1000.409	3493.89
1000.704	3482.59
1001	3439.66
1001.295	3453.67
1001.59	3438.07
1001.885	3430.39
1002.18	3392.65
1002.475	3332.99
1002.77	3347.45
1003.065	3308.13
1003.359	3289.6
1003.654	3293.9
1003.949	3264.29
1004.243	3271.52
1004.538	3217.74
1004.832	3209.83
1005.127	3220.9
1005.421	3184.52
1005.715	3150.62
1006.009	3119.66
1006.304	3123.96
1006.598	3102.72
1006.892	3052.32
1007.186	3066.11
1007.48	3023.4
1007.773	2989.05
1008.067	3044.86
1008.361	2963.51
1008.655	2933.91
1008.948	2935.04
1009.242	2934.58
1009.535	2895.04
1009.829	2890.97
1010.122	2848.26
1010.415	2844.87
1010.708	2843.51
1011.001	2785.44
1011.295	2790.41
1011.588	2789.73
1011.881	2760.58
1012.173	2767.13
1012.466	2735.49
1012.759	2674.48
1013.052	2681.71
1013.344	2686.23
1013.637	2651.88
1013.93	2630.86
1014.222	2598.1
1014.514	2583.18
1014.807	2582.05
1015.099	2524.88
1015.391	2584.54
1015.683	2537.98
1015.976	2515.39
1016.268	2472.68
1016.56	2458.89
1016.851	2467.48
1017.143	2406.01
1017.435	2416.41
1017.727	2398.55
1018.018	2387.48
1018.31	2396.52
1018.602	2354.71
1018.893	2321.94
1019.185	2333.47
1019.476	2318.33
1019.767	2283.53
1020.058	2279.91
1020.35	2285.11
1020.641	2252.34
1020.932	2242.85
1021.223	2211.67
1021.514	2183.19
1021.804	2163.76
1022.095	2157.2
1022.386	2132.57
1022.677	2127.83
1022.967	2129.86
1023.258	2081.95
1023.548	2080.37
1023.839	2073.36
1024.129	2055.96
1024.419	2052.57
1024.709	2043.99
1025	2022.74
1025.29	1977.09
1025.58	1968.28
1025.87	1986.81
1026.16	1959.92
1026.449	1918.57
1026.739	1932.12
1027.029	1893.93
1027.319	1889.41
1027.608	1882.41
1027.898	1891.22
1028.187	1854.16
1028.477	1833.14
1028.766	1864.1
1029.055	1822.3
1029.344	1825.91
1029.634	1822.07
1029.923	1796.31
1030.212	1795.4
1030.501	1762.64
1030.79	1752.69
1031.078	1715.41
1031.367	1698.46
1031.656	1705.46
1031.945	1680.38
1032.233	1683.09
1032.522	1685.58
1032.81	1665.69
1033.099	1623.21
1033.387	1643.54
1033.675	1637.89
1033.963	1579.37
1034.251	1588.86
1034.54	1582.08
1034.828	1560.38
1035.116	1565.81
1035.403	1542.53
1035.691	1559.93
1035.979	1533.72
1036.267	1514.96
1036.554	1509.54
1036.842	1493.27
1037.129	1495.07
1037.417	1483.1
1037.704	1463.21
1037.992	1458.01
1038.279	1431.35
1038.566	1457.79
1038.853	1457.79
1039.14	1457.79
