Data from aluminium_macbook_case_FLMS001491_011.txt Node
Date: Tue Feb 07 10:43:15 GMT 2017
User: dcchb
Spectrometer: FLMS00149
Trigger mode: 0
Integration Time (sec): 2.000000E-2
Scans to average: 10
Electric dark correction enabled: true
Nonlinearity correction enabled: false
Boxcar width: 0
XAxis mode: Wavelengths
Number of Pixels in Spectrum: 2048
>>>>>Begin Spectral Data<<<<<
341.393	-26.3
341.776	-26.3
342.16	-26.3
342.543	-74.89
342.927	-75.11
343.31	-91.83
343.693	-81.21
344.077	-55.68
344.46	-64.94
344.843	-54.77
345.226	-33.53
345.61	-48.22
345.993	-2.34
346.376	7.37
346.759	2.18
347.142	28.62
347.525	45.56
347.908	77.2
348.291	78.33
348.674	97.77
349.057	95.51
349.44	130.53
349.823	131.66
350.206	166.69
350.588	215.28
350.971	258.44
351.354	276.07
351.737	283.52
352.119	310.19
352.502	318.78
352.884	319
353.267	334.82
353.65	330.98
354.032	349.06
354.414	360.36
354.797	380.47
355.179	369.62
355.562	371.88
355.944	378.66
356.326	378.44
356.709	385.67
357.091	389.06
357.473	395.39
357.855	414.37
358.238	414.14
358.62	391.32
359.002	395.39
359.384	394.03
359.766	423.63
360.148	402.39
360.53	424.31
360.912	424.31
361.294	413.01
361.676	414.82
362.057	394.71
362.439	401.26
362.821	430.64
363.203	408.49
363.584	411.2
363.966	437.87
364.348	407.36
364.729	406.23
365.111	426.57
365.493	423.18
365.874	415.72
366.256	430.19
366.637	413.92
367.019	431.77
367.4	452.11
367.781	415.27
368.163	427.47
368.544	415.72
368.925	407.36
369.306	433.35
369.688	431.09
370.069	456.17
370.45	443.29
370.831	428.6
371.212	448.94
371.593	455.5
371.974	438.1
372.355	467.93
372.736	457.3
373.117	462.05
373.498	472.9
373.879	498.21
374.26	454.82
374.641	448.04
375.021	453.24
375.402	451.88
375.783	493.01
376.163	533.01
376.544	516.06
376.925	522.39
377.305	495.27
377.686	512.67
378.066	498.21
378.447	522.61
378.827	528.94
379.208	535.49
379.588	533.91
379.968	533.01
380.349	543.86
380.729	544.31
381.109	579.11
381.489	547.47
381.87	570.07
382.25	554.02
382.63	564.65
383.01	591.31
383.39	582.5
383.77	592.89
384.15	629.96
384.53	615.94
384.91	608.49
385.29	604.42
385.67	610.07
386.049	629.05
386.429	638.99
386.809	645.77
387.189	631.99
387.568	670.18
387.948	693.91
388.328	682.16
388.707	678.77
389.087	715.15
389.466	718.31
389.846	710.63
390.225	729.16
390.605	736.62
390.984	735.04
391.363	757.64
391.743	775.71
392.122	767.35
392.501	778.65
392.881	777.07
393.26	766.45
393.639	815.26
394.018	798.76
394.397	820.23
394.776	815.71
395.155	835.83
395.534	826.11
395.913	877.86
396.292	872.21
396.671	871.08
397.05	904.52
397.429	898.2
397.808	896.39
398.186	915.15
398.565	905.43
398.944	913.34
399.323	916.28
399.701	968.25
400.08	966.22
400.458	960.34
400.837	998.76
401.215	984.52
401.594	989.04
401.972	982.71
402.351	995.82
402.729	1010.74
403.107	1048.7
403.486	1088.02
403.864	1064.07
404.242	1105.42
404.62	1121.24
404.999	1113.56
405.377	1143.16
405.755	1152.43
406.133	1151.75
406.511	1170.96
406.889	1179.32
407.267	1220.67
407.645	1217.51
408.023	1234.91
408.401	1241.69
408.779	1265.42
409.156	1283.95
409.534	1299.32
409.912	1332.31
410.29	1335.47
410.667	1378.18
411.045	1407.11
411.422	1419.31
411.8	1448.69
412.178	1467.67
412.555	1490.05
412.933	1487.33
413.31	1525.75
413.687	1534.79
414.065	1572.53
414.442	1560.1
414.819	1584.96
415.197	1621.57
415.574	1633.32
415.951	1656.14
416.328	1677.84
416.705	1700.66
417.082	1685.97
417.46	1724.16
417.837	1755.35
418.214	1790.83
418.591	1799.42
418.967	1784.73
419.344	1842.13
419.721	1851.17
420.098	1883.03
420.475	1909.7
420.852	1909.02
421.228	1907.66
421.605	1949.24
421.982	1981.56
422.358	1975.46
422.735	2015.91
423.111	2009.13
423.488	2062.23
423.864	2069.24
424.241	2128.67
424.617	2137.71
424.994	2151.5
425.37	2180.42
425.746	2186.98
426.123	2242.34
426.499	2217.94
426.875	2299.97
427.251	2323.24
427.627	2361.44
428.003	2384.94
428.379	2450.02
428.756	2465.39
429.132	2512.17
429.507	2520.07
429.883	2583.35
430.259	2572.95
430.635	2605.72
431.011	2663.35
431.387	2766.17
431.763	2764.81
432.138	2751.71
432.514	2836.45
432.89	2844.81
433.265	2950.57
433.641	2962.1
434.016	2956.45
434.392	3061.76
434.767	3099.72
435.143	3117.8
435.518	3165.71
435.894	3176.78
436.269	3209.1
436.644	3244.58
437.02	3295.42
437.395	3344.91
437.77	3386.27
438.145	3449.09
438.52	3469.65
438.895	3515.76
439.271	3490.67
439.646	3635.53
440.021	3612.25
440.395	3649.99
440.77	3621.51
441.145	3656.54
441.52	3741.06
441.895	3755.97
442.27	3819.25
442.645	3837.78
443.019	3876.42
443.394	3893.37
443.769	3959.81
444.143	3916.2
444.518	3983.31
444.892	3946.48
445.267	4048.17
445.641	4083.42
446.016	4111.9
446.39	4147.83
446.764	4174.04
447.139	4176.08
447.513	4280.71
447.887	4274.38
448.262	4284.55
448.636	4336.52
449.01	4425.34
449.384	4396.41
449.758	4422.85
450.132	4528.61
450.506	4592.11
450.88	4593.47
451.254	4595.95
451.628	4675.27
452.002	4707.81
452.376	4824.87
452.75	4880.01
453.123	4874.36
453.497	4953.68
453.871	5004.53
454.244	5074.81
454.618	5178.54
454.992	5179.89
455.365	5177.86
455.739	5378.53
456.112	5424.18
456.486	5454.01
456.859	5523.39
457.232	5599.99
457.606	5602.48
457.979	5697.62
458.352	5778.29
458.725	5885.18
459.099	5939.19
459.472	6043.82
459.845	6200.66
460.218	6197.04
460.591	6222.58
460.964	6253.08
461.337	6478.39
461.71	6554.55
462.083	6630.7
462.456	6670.02
462.829	6680.87
463.201	6864.59
463.574	6845.16
463.947	6971.03
464.32	7062.78
464.692	7122.21
465.065	7211.93
465.438	7338.71
465.81	7450.57
466.183	7588.42
466.555	7730.79
466.928	7756.1
467.3	7739.82
467.672	7922.42
468.045	8108.4
468.417	8148.4
468.789	8194.5
469.161	8356.98
469.534	8472.46
469.906	8670.42
470.278	8712.91
470.65	8865.44
471.022	9000.36
471.394	9207.36
471.766	9328.03
472.138	9431.76
472.51	9595.6
472.882	9772.54
473.253	9886.89
473.625	10000.1
473.997	10227.44
474.369	10307.67
474.74	10448.91
475.112	10650.71
475.484	10788.56
475.855	11020.42
476.227	11114.2
476.598	11420.86
476.97	11539.27
477.341	11768.87
477.713	11975.42
478.084	12061.29
478.455	12376.99
478.827	12458.34
479.198	12828.28
479.569	12945.79
479.94	13327.93
480.311	13468.49
480.682	13723.62
481.053	14017.63
481.424	14260.56
481.795	14475.24
482.166	14700.09
482.537	14859.86
482.908	15187.99
483.279	15303.02
483.65	15552.27
484.021	15910.01
484.391	16129.21
484.762	16226.16
485.133	16414.62
485.503	16632.25
485.874	17018.45
486.244	17166.24
486.615	17543.86
486.985	17674.03
487.356	17982.49
487.726	18196.95
488.097	18642.81
488.467	18634.91
488.837	19098.85
489.207	19335.23
489.578	19627.42
489.948	19816.12
490.318	20041.65
490.688	20270.79
491.058	20536.1
491.428	20924.79
491.798	21054.5
492.168	21494.94
492.538	21564.32
492.908	21812.45
493.278	22097.87
493.648	22074.14
494.017	22525.2
494.387	22659.43
494.757	22811.29
495.126	23164.5
495.496	23085.18
495.866	23360.88
496.235	23684.26
496.605	23724.49
496.974	23881.77
497.344	24138.26
497.713	24313.17
498.082	24517.46
498.452	24802.65
498.821	25054.17
499.19	25038.13
499.559	25365.8
499.928	25557.44
500.298	25719.46
500.667	26078.55
501.036	25990.42
501.405	26323.97
501.774	26468.6
502.143	26698.65
502.512	26851.64
502.88	27159.2
503.249	27127.79
503.618	27445.3
503.987	27440.78
504.356	27718.28
504.724	27870.37
505.093	27950.37
505.462	28082.79
505.83	28277.14
506.199	28508.09
506.567	28953.05
506.936	28847.52
507.304	29320.95
507.672	29317.34
508.041	29580.61
508.409	29847.72
508.777	30055.4
509.145	30211.32
509.514	30386.46
509.882	30675.49
510.25	30755.49
510.618	30979.89
510.986	31108.93
511.354	31618.52
511.722	31789.81
512.09	32100.99
512.458	32073.2
512.826	32370.59
513.193	32799.05
513.561	32761.09
513.929	33121.08
514.297	33449.21
514.664	33520.39
515.032	33882.64
515.4	34146.36
515.767	34169.19
516.135	34562.85
516.502	34226.81
516.869	34951.09
517.237	35057.07
517.604	35042.38
517.972	35485.76
518.339	35732.99
518.706	35871.74
519.073	36009.14
519.44	36257.94
519.808	36603.92
520.175	36646.41
520.542	37177.92
520.909	37454.98
521.276	37466.95
521.643	37809.32
522.009	38140.83
522.376	38560.71
522.743	38737.65
523.11	39220.8
523.477	39609.27
523.843	39677.97
524.21	40220.55
524.577	40592.52
524.943	40656.25
525.31	40926.75
525.676	41368.77
526.043	41627.07
526.409	41726.73
526.776	42151.8
527.142	42312.7
527.508	42594.95
527.874	42821.61
528.241	43042.17
528.607	43087.14
528.973	43643.29
529.339	43537.75
529.705	43941.58
530.071	44377.05
530.437	44390.39
530.803	44622.24
531.169	44876.48
531.535	44926.87
531.901	45121.44
532.267	45478.72
532.632	45531.37
532.998	45925.49
533.364	46006.39
533.73	46224.69
534.095	46509.65
534.461	46595.07
534.826	46946.93
535.192	47009.53
535.557	47430.31
535.923	47452.9
536.288	47685.22
536.653	47961.82
537.019	47876.4
537.384	48075.94
537.749	48164.07
538.114	48493.56
538.479	48501.69
538.845	48744.17
539.21	48572.88
539.575	48830.5
539.94	48983.49
540.305	49326.98
540.67	49115.01
541.034	49411.27
541.399	49490.14
541.764	49499.86
542.129	49673.64
542.494	49710.7
542.858	49848.77
543.223	49941.43
543.587	50284.47
543.952	50118.82
544.316	50272.72
544.681	50410.57
545.045	50505.48
545.41	50762.87
545.774	50764.23
546.138	50859.14
546.503	51102.53
546.867	51048.97
547.231	51415.06
547.595	51452.57
547.959	51574.15
548.324	51682.62
548.688	51802.39
549.052	51918.55
549.416	52015.04
549.779	52135.49
550.143	52319.9
550.507	52551.53
550.871	52683.95
551.235	52609.61
551.599	52830.62
551.962	52987.9
552.326	53079.42
552.689	53174.79
553.053	53059.76
553.417	53224.73
553.78	53579.52
554.143	53384.73
554.507	53618.39
554.87	53668.79
555.234	54006.4
555.597	53886.86
555.96	53940.42
556.323	54112.16
556.686	54051.15
557.05	54372.5
557.413	54424.7
557.776	54480.97
558.139	54641.42
558.502	54684.35
558.865	54755.99
559.228	55015.19
559.59	55045.7
559.953	55127.51
560.316	55468.74
560.679	55476.42
561.041	55721.61
561.404	55796.41
561.767	55923.87
562.129	55926.35
562.492	56258.1
562.854	56248.38
563.217	56352.78
563.579	56542.84
563.941	56677.97
564.304	56807.69
564.666	56957.97
565.028	57009.72
565.39	57032.09
565.753	57218.07
566.115	57284.96
566.477	57405.86
566.839	57458.29
567.201	57625.29
567.563	57577.16
567.925	57864.83
568.287	57785.06
568.648	57861.67
569.01	58017.82
569.372	58113.87
569.734	58062.8
570.095	58187.54
570.457	58378.95
570.819	58352.05
571.18	58400.19
571.542	58499.39
571.903	58531.71
572.265	58599.5
572.626	58653.74
572.987	58739.39
573.349	58840.85
573.71	58907.74
574.071	58932.38
574.432	59034.52
574.794	59204.69
575.155	59190.45
575.516	59147.06
575.877	59253.95
576.238	59299.6
576.599	59461.85
576.96	59474.51
577.32	59535.52
577.681	59644.67
578.042	59703.66
578.403	59720.38
578.763	59726.03
579.124	59785.46
579.485	59902.07
579.845	59940.94
580.206	59950.2
580.566	59960.82
580.927	59993.82
581.287	60052.35
581.648	59942.07
582.008	60077.66
582.368	60007.83
582.728	60102.97
583.089	60074.04
583.449	59980.49
583.809	60021.16
584.169	60086.47
584.529	59973.03
584.889	60115.17
585.249	59971.9
585.609	59941.84
585.969	60065.45
586.329	60018.45
586.688	60099.8
587.048	60011.22
587.408	59974.61
587.768	59992.01
588.127	59990.65
588.487	59948.4
588.846	60139.12
589.206	59960.15
589.565	60022.29
589.925	60060.71
590.284	60142.97
590.643	60102.52
591.003	60138.67
591.362	60157.88
591.721	60168.95
592.08	60103.19
592.44	60282.17
592.799	60236.3
593.158	60213.47
593.517	60247.14
593.876	60281.04
594.235	60262.06
594.593	60282.17
594.952	60378.21
595.311	60233.59
595.67	60391.1
596.029	60521.26
596.387	60473.13
596.746	60593.58
597.104	60396.52
597.463	60375.73
597.822	60537.53
598.18	60360.36
598.538	60337.31
598.897	60493.69
599.255	60321.72
599.613	60627.25
599.972	60476.97
600.33	60532.33
600.688	60490.3
601.046	60509.74
601.404	60528.95
601.762	60525.56
602.12	60655.5
602.478	60635.61
602.836	60576.18
603.194	60481.71
603.552	60578.89
603.91	60472.45
604.268	60606.46
604.625	60584.31
604.983	60662.95
605.341	60514.48
605.698	60709.96
606.056	60698.66
606.413	60658.89
606.771	60739.79
607.128	60796.06
607.485	60691.2
607.843	60684.2
608.2	60866.79
608.557	60993.34
608.914	60864.3
609.272	61012.1
609.629	61071.53
609.986	61146.78
610.343	61091.87
610.7	61263.62
611.057	61154.01
611.414	61197.4
611.771	61217.29
612.127	61178.19
612.484	61247.8
612.841	61334.8
613.198	61256.16
613.554	61237.85
613.911	61405.53
614.267	61367.79
614.624	61309.72
614.98	61411.63
615.337	61484.85
615.693	61410.5
616.05	61415.7
616.406	61478.52
616.762	61431.52
617.118	61422.48
617.475	61452.54
617.831	61485.53
618.187	61482.59
618.543	61504.51
618.899	61639.2
619.255	61530.5
619.611	61532.76
619.967	61582.48
620.323	61601.01
620.678	61532.99
621.034	61507.45
621.39	61544.29
621.746	61419.77
622.101	61668.12
622.457	61444.85
622.812	61547.68
623.168	61578.64
623.523	61510.84
623.879	61674.9
624.234	61517.62
624.589	61603.72
624.945	61547
625.3	61616.37
625.655	61597.39
626.01	61599.88
626.365	61594.45
626.72	61602.14
627.075	61584.06
627.43	61603.27
627.785	61514.23
628.14	61566.88
628.495	61609.59
628.85	61622.93
629.205	61564.85
629.559	61685.07
629.914	61515.59
630.269	61612.98
630.623	61493.21
630.978	61481.46
631.332	61516.72
631.687	61568.92
632.041	61423.16
632.396	61523.27
632.75	61414.12
633.104	61362.82
633.459	61237.85
633.813	61263.62
634.167	61237.18
634.521	61210.96
634.875	61241.02
635.229	61189.27
635.583	61070.85
635.937	61041.7
636.291	61067.91
636.645	61016.62
636.999	60918.09
637.352	60999.22
637.706	60872.44
638.06	60980.91
638.413	60885.55
638.767	60792.89
639.121	60808.94
639.474	60661.82
639.828	60661.6
640.181	60735.04
640.534	60575.05
640.888	60563.29
641.241	60469.74
641.594	60432.45
641.947	60520.58
642.301	60428.16
642.654	60497.53
643.007	60433.35
643.36	60384.09
643.713	60328.05
644.066	60380.25
644.419	60267.94
644.771	60190.42
645.124	59939.36
645.477	59893.71
645.83	59773.03
646.182	59641.28
646.535	59585.92
646.888	59706.82
647.24	59561.51
647.593	59644.45
647.945	59562.64
648.298	59459.82
648.65	59390.44
649.002	59382.99
649.355	59519.25
649.707	59483.55
650.059	59556.54
650.411	59796.54
650.763	59803.77
651.115	59998.79
651.467	59907.72
651.819	59878.57
652.171	59803.77
652.523	59824.33
652.875	59750.66
653.227	59674.05
653.578	59808.51
653.93	59732.13
654.282	59654.62
654.633	59606.03
654.985	59622.75
655.337	59582.98
655.688	59518.58
656.039	59640.61
656.391	59430.44
656.742	59452.36
657.094	59384.12
657.445	59517.67
657.796	59374.85
658.147	59331.69
658.498	59245.36
658.849	59348.86
659.2	59310.67
659.551	59192.48
659.902	59246.27
660.253	59195.19
660.604	59280.39
660.955	59077.91
661.306	59200.84
661.656	59128.53
662.007	59108.64
662.358	59091.02
662.708	59133.95
663.059	58995.88
663.409	58834.07
663.76	59088.53
664.11	59055.54
664.461	59092.15
664.811	59072.26
665.161	59011.92
665.511	58952.49
665.862	59009.21
666.212	59018.48
666.562	59080.4
666.912	59066.38
667.262	59046.72
667.612	59026.39
667.962	59070.45
668.312	58947.07
668.662	59144.12
669.011	59098.47
669.361	58987.06
669.711	58974.41
670.06	58967.63
670.41	58848.31
670.76	58818.26
671.109	58992.71
671.459	58873.85
671.808	58829.78
672.157	58939.61
672.507	58738.94
672.856	58762.66
673.205	58728.54
673.554	58789.78
673.904	58649.67
674.253	58782.78
674.602	58704.36
674.951	58325.16
675.3	58167.88
675.649	58546.85
675.998	58519.05
676.346	58541.2
676.695	58575.78
677.044	58403.35
677.393	58370.81
677.741	58490.13
678.09	58308.66
678.438	58278.16
678.787	58279.96
679.135	58326.97
679.484	58081.1
679.832	58158.84
680.181	58038.16
680.529	58119.07
680.877	58027.54
681.225	57923.36
681.573	58067.31
681.922	57884.72
682.27	57725.18
682.618	57771.73
682.966	57688.34
683.314	57711.84
683.661	57587.78
684.009	57483.83
684.357	57436.82
684.705	57361.34
685.053	57452.19
685.4	57440.21
685.748	57286.09
686.095	57305.3
686.443	57187.34
686.79	57170.39
687.138	57228.47
687.485	57205.87
687.832	57166.55
688.18	57151.63
688.527	57035.7
688.874	57068.47
689.221	57052.88
689.568	56935.59
689.915	56882.49
690.262	56907.57
690.609	56838.65
690.956	56744.64
691.303	56721.81
691.65	56589.61
691.997	56534.02
692.344	56373.35
692.69	56350.75
693.037	56452.67
693.383	56219.45
693.73	56309.62
694.077	56050.87
694.423	56004.54
694.769	55945.34
695.116	55859.01
695.462	55740.37
695.808	55715.29
696.155	55709.18
696.501	55538.57
696.847	55547.38
697.193	55365.69
697.539	55467.38
697.885	55214.73
698.231	55085.92
698.577	55162.53
698.923	54973.16
699.269	54844.8
699.614	54713.73
699.96	54644.13
700.306	54643
700.651	54445.72
700.997	54372.27
701.342	54375.66
701.688	54232.84
702.033	54109.23
702.379	54194.42
702.724	54060.87
703.069	54073.07
703.415	53616.81
703.76	53666.3
704.105	53672.18
704.45	53478.28
704.795	53362.81
705.14	53282.13
705.485	53332.98
705.83	53136.82
706.175	53231.06
706.52	53050.27
706.865	52918.3
707.209	52909.03
707.554	52898.64
707.899	52847.79
708.243	52636.95
708.588	52567.12
708.932	52404.87
709.277	52487.35
709.621	52514.47
709.966	52238.32
710.31	52345.66
710.654	52110.41
710.998	52262.72
711.342	52218.88
711.687	52134.82
712.031	52090.75
712.375	51951.09
712.719	51959.45
713.063	51918.1
713.407	51928.72
713.75	51699.12
714.094	51740.48
714.438	51579.12
714.782	51667.26
715.125	51463.42
715.469	51496.19
715.812	51230.88
716.156	51256.42
716.499	51207.38
716.843	51222.3
717.186	51011.46
717.53	51109.98
717.873	50970.33
718.216	50782.53
718.559	50740.05
718.902	50546.38
719.246	50568.76
719.589	50343
719.932	50333.51
720.275	50218.03
720.617	50249.22
720.96	50197.01
721.303	50109.56
721.646	50001.09
721.989	49711.6
722.331	49913.18
722.674	49762
723.016	49849.45
723.359	49636.12
723.701	49466.86
724.044	49334.44
724.386	49070.49
724.729	49312.74
725.071	49188.23
725.413	49205.4
725.755	49060.32
726.097	48837.05
726.439	48654.68
726.782	48689.03
727.124	48960.44
727.465	48534.46
727.807	48416.95
728.149	48317.29
728.491	48264.63
728.833	48368.59
729.175	48218.53
729.516	48080.23
729.858	48022.16
730.199	48058.09
730.541	47813.57
730.882	47716.4
731.224	47867.81
731.565	47689.06
731.906	47790.3
732.248	47775.16
732.589	47696.29
732.93	47562.05
733.271	47496.52
733.612	47550.53
733.953	47579.68
734.294	47390.31
734.635	47270.31
734.976	47413.58
735.317	47189.86
735.658	47052.46
735.999	47190.76
736.339	47133.37
736.68	47268.73
737.021	46980.6
737.361	47023.31
737.702	47162.29
738.042	46964.33
738.383	46968.17
738.723	46902.41
739.063	46781.96
739.404	46756.2
739.744	46600.5
740.084	46452.71
740.424	46577
740.764	46375.19
741.104	46534.74
741.444	46224.91
741.784	46077.12
742.124	46305.82
742.464	46291.58
742.804	45934.53
743.143	45862.89
743.483	45901.31
743.823	45730.01
744.162	45608.66
744.502	45574.08
744.841	45518.72
745.181	45504.71
745.52	45252.74
745.86	45215.68
746.199	45123.47
746.538	44977.26
746.877	45075.11
747.216	44932.29
747.556	44682.13
747.895	44838.96
748.234	44513.1
748.573	44604.84
748.911	44394
749.25	44263.16
749.589	44143.39
749.928	44195.36
750.267	44089.15
750.605	43940.23
750.944	43701.37
751.283	43499.79
751.621	43731.65
751.96	43247.37
752.298	43369.17
752.636	43324.65
752.975	43080.59
753.313	42934.38
753.651	43045.56
753.989	42952.46
754.327	42760.6
754.666	42467.27
755.004	42454.62
755.342	42469.76
755.679	42436.31
756.017	42155.87
756.355	42251.91
756.693	42032.03
757.031	42195.64
757.368	42082.42
757.706	41893.73
758.044	41572.16
758.381	41728.76
758.719	41618.93
759.056	41514.3
759.394	41419.39
759.731	41165.16
760.068	41240.41
760.405	41188.21
760.743	41012.85
761.08	41087.2
761.417	40830.93
761.754	40876.58
762.091	40685.85
762.428	40527.21
762.765	40410.15
763.102	40662.8
763.438	40289.25
763.775	40025.76
764.112	40057.62
764.449	40139.2
764.785	39761.81
765.122	39606.78
765.458	39588.03
765.795	39471.87
766.131	39322.05
766.467	39195.95
766.804	39141.03
767.14	39010.64
767.476	38927.48
767.812	38797.09
768.148	38787.82
768.485	38566.81
768.821	38426.93
769.157	38151.68
769.492	38155.52
769.828	37857.68
770.164	37655.65
770.5	37767.74
770.836	37676.66
771.171	37410.46
771.507	37388.08
771.842	37001.2
772.178	37100.18
772.513	36913.29
772.849	36708.1
773.184	36472.18
773.519	36472.85
773.855	36304.95
774.19	36091.85
774.525	35857.28
774.86	35843.27
775.195	35791.29
775.53	35456.38
775.865	35390.85
776.2	35195.6
776.535	34945.44
776.87	34902.73
777.205	34661.15
777.539	34612.34
777.874	34475.17
778.209	34196.53
778.543	34189.75
778.878	34062.07
779.212	33845.8
779.547	33722.42
779.881	33752.7
780.215	33483.78
780.55	33612.14
780.884	33258.7
781.218	33073.62
781.552	33084.7
781.886	32900.07
782.22	32813.97
782.554	32699.85
782.888	32448.1
783.222	32277.26
783.556	32129.47
783.889	32022.12
784.223	31891.73
784.557	31861.22
784.89	31944.16
785.224	31745.3
785.557	31672.53
785.891	31576.26
786.224	31409.03
786.558	31410.84
786.891	31080
787.224	31139.89
787.557	30962.04
787.891	31017.63
788.224	30982.38
788.557	30836.62
788.89	30750.97
789.223	30768.37
789.556	30519.34
789.888	30380.13
790.221	30245.67
790.554	30066.92
790.887	30136.75
791.219	30075.51
791.552	29998
791.884	29818.34
792.217	29782.18
792.549	29683.43
792.882	29472.13
793.214	29426.26
793.546	29317.79
793.879	29235.98
794.211	29053.39
794.543	29126.38
794.875	29030.34
795.207	28993.73
795.539	28910.34
795.871	28917.57
796.203	28563.91
796.535	28474.19
796.867	28441.88
797.198	28307.87
797.53	28293.86
797.862	28119.18
798.193	28105.84
798.525	27831.5
798.856	28025.39
799.188	27610.94
799.519	27521.68
799.85	27503.6
800.182	27464.28
800.513	27505.18
800.844	27144.29
801.175	27178.41
801.506	27002.82
801.837	27009.83
802.168	26908.81
802.499	26827.46
802.83	26655.26
803.161	26445.77
803.491	26544.08
803.822	26407.13
804.153	26152.45
804.483	25968.5
804.814	25902.29
805.145	25924.88
805.475	25805.11
805.805	25721.95
806.136	25685.12
806.466	25673.59
806.796	25550.88
807.126	25309.08
807.457	25245.35
807.787	25307.72
808.117	25057.56
808.447	25010.78
808.777	25073.61
809.107	24948.86
809.436	24856.21
809.766	24776.44
810.096	24664.13
810.426	24660.06
810.755	24659.38
811.085	24466.84
811.414	24392.72
811.744	24253.29
812.073	24267.98
812.403	24249.67
812.732	24182.78
813.061	24171.26
813.39	23934.65
813.719	24018.49
814.049	24033.63
814.378	23953.86
814.707	23931.04
815.036	23791.61
815.365	23649.91
815.693	23527.66
816.022	23634.32
816.351	23515.23
816.68	23441.78
817.008	23553.19
817.337	23320.66
817.665	23298.96
817.994	23374.44
818.322	23263.94
818.651	23266.65
818.979	23127.44
819.307	23257.83
819.636	23245.86
819.964	22979.42
820.292	23236.59
820.62	23113.66
820.948	23124.28
821.276	23155.46
821.604	23061
821.932	23080.89
822.259	23182.13
822.587	23132.87
822.915	23103.04
823.243	23132.64
823.57	23104.62
823.898	23138.97
824.225	22957.5
824.553	22941.23
824.88	23010.16
825.207	23019.87
825.535	23103.04
825.862	23021.68
826.189	22983.27
826.516	22998.63
826.843	23091.06
827.17	23090.38
827.497	23220.32
827.824	23106.65
828.151	22956.6
828.478	23002.7
828.805	23041.57
829.131	22885.87
829.458	22873.21
829.785	22688.36
830.111	22908.01
830.438	22912.76
830.764	22835.02
831.09	22941.68
831.417	22738.75
831.743	22919.09
832.069	22822.14
832.395	22663.05
832.722	22758.41
833.048	22760.45
833.374	22649.49
833.7	22596.61
834.026	22531.75
834.351	22646.78
834.677	22583.28
835.003	22558.87
835.329	22617.85
835.654	22416.95
835.98	22347.58
836.306	22387.12
836.631	22197.3
836.956	22222.16
837.282	22333.11
837.607	22087.02
837.932	22008.38
838.258	22153.91
838.583	21988.26
838.908	21902.84
839.233	22014.25
839.558	21946.91
839.883	21850.64
840.208	21630.08
840.533	21699.91
840.858	21713.02
841.182	21637.99
841.507	21687.25
841.832	21551.89
842.156	21567.03
842.481	21495.62
842.805	21435.96
843.13	21313.71
843.454	21368.84
843.778	21318.9
844.103	21276.64
844.427	21211.11
844.751	21158.91
845.075	20977.67
845.399	21151.9
845.723	20922.3
846.047	20986.93
846.371	20743.55
846.695	20763.66
847.019	20746.49
847.343	20692.48
847.666	20443.22
847.99	20486.61
848.313	20417.01
848.637	20287.97
848.96	20271.02
849.284	20250
849.607	20181.31
849.931	20059.95
850.254	19989.9
850.577	19936.57
850.9	19825.16
851.223	19879.39
851.546	19715.78
851.869	19599.63
852.192	19755.33
852.515	19473.08
852.838	19431.27
853.161	19583.13
853.483	19312.85
853.806	19399.86
854.129	19275.11
854.451	19197.38
854.774	19301.33
855.096	19133.65
855.419	19064.72
855.741	19027.66
856.063	18906.31
856.385	18951.73
856.708	18883.26
857.03	18838.97
857.352	18784.51
857.674	18687.33
857.996	18663.83
858.318	18630.39
858.64	18638.97
858.961	18539.31
859.283	18515.59
859.605	18379.32
859.926	18439.66
860.248	18395.14
860.57	18291.41
860.891	18242.15
861.212	18222.71
861.534	18081.25
861.855	18137.07
862.176	18116.73
862.498	18154.01
862.819	18173.9
863.14	18011.87
863.461	17976.17
863.782	17996.73
864.103	17945.88
864.424	17777.75
864.745	17932.1
865.065	17648.26
865.386	17664.31
865.707	17664.76
866.027	17637.42
866.348	17641.71
866.668	17538.89
866.989	17436.74
867.309	17321.95
867.63	17482.85
867.95	17366.46
868.27	17210.31
868.59	17335.28
868.91	17307.03
869.23	17250.99
869.55	17174.38
869.87	17308.39
870.19	17154.49
870.51	17213.02
870.83	17134.15
871.15	17088.96
871.469	17040.15
871.789	17134.61
872.109	17118.11
872.428	16961.05
872.748	16947.27
873.067	16927.15
873.386	16890.09
873.706	16885.8
874.025	16755.41
874.344	16726.71
874.663	16832.69
874.982	16640.38
875.301	16667.73
875.62	16515.64
875.939	16535.98
876.258	16606.71
876.577	16444.45
876.896	16449.43
877.214	16469.99
877.533	16531.91
877.852	16450.56
878.17	16402.87
878.489	16456.88
878.807	16469.76
879.125	16399.94
879.444	16439.93
879.762	16226.83
880.08	16322.65
880.398	16204.46
880.716	16279.94
881.034	16242.43
881.352	16180.73
881.67	16172.6
881.988	16163.56
882.306	16111.13
882.624	16143.67
882.941	15987.52
883.259	16013.73
883.577	16015.77
883.894	16038.36
884.212	15962.89
884.529	15980.51
884.846	15952.94
885.164	15804.25
885.481	15826.17
885.798	15844.02
886.115	15769.44
886.432	15775.77
886.75	15735.55
887.067	15789.56
887.383	15691.93
887.7	15731.03
888.017	15636.11
888.334	15653.74
888.651	15652.84
888.967	15586.4
889.284	15617.36
889.6	15540.07
889.917	15409.68
890.233	15516.8
890.55	15430.7
890.866	15501.43
891.182	15430.92
891.498	15313.18
891.815	15348.89
892.131	15306.41
892.447	15267.76
892.763	15206.52
893.079	15227.31
893.395	15051.72
893.71	15073.64
894.026	15050.37
894.342	15042.23
894.657	14854.89
894.973	14955.91
895.289	14910.26
895.604	14821.9
895.92	14819.19
896.235	14718.62
896.55	14726.31
896.865	14640.66
897.181	14565.41
897.496	14532.19
897.811	14434.56
898.126	14517.27
898.441	14319.31
898.756	14310.95
899.071	14178.07
899.386	14271.18
899.7	14172.42
900.015	14096.95
900.33	14030.05
900.644	14030.05
900.959	14075.93
901.273	14001.58
901.588	13887.23
901.902	13742.15
902.216	13691.08
902.531	13660.8
902.845	13708.48
903.159	13563.63
903.473	13465.32
903.787	13416.29
904.101	13423.52
904.415	13374.03
904.729	13347.59
905.042	13206.8
905.356	13157.31
905.67	13148.04
905.984	13125.45
906.297	13077.09
906.611	12954.6
906.924	13021.49
907.237	12832.12
907.551	12834.61
907.864	12795.96
908.177	12797.54
908.491	12691.33
908.804	12598.45
909.117	12529.08
909.43	12558
909.743	12414.05
910.056	12396.65
910.368	12457.89
910.681	12252.25
910.994	12313.04
911.307	12213.61
911.619	12144
911.932	12081.86
912.244	12060.62
912.557	11962.54
912.869	11899.04
913.181	11827.85
913.494	11955.08
913.806	11803.67
914.118	11772.04
914.43	11711.7
914.742	11708.76
915.054	11644.81
915.366	11532.49
915.678	11540.63
915.99	11485.49
916.302	11396.9
916.613	11402.33
916.925	11333.18
917.236	11303.57
917.548	11182.67
917.859	11306.96
918.171	11185.61
918.482	11130.47
918.794	11172.05
919.105	11083.92
919.416	11030.13
919.727	10975.45
920.038	11058.38
920.349	10823.59
920.66	10834.21
920.971	10910.81
921.282	10876.47
921.593	10796.24
921.903	10725.96
922.214	10760.31
922.525	10668.79
922.835	10608
923.146	10494.33
923.456	10572.07
923.767	10498.85
924.077	10443.48
924.387	10430.15
924.697	10389.02
925.008	10292.75
925.318	10303.83
925.628	10315.58
925.938	10255.24
926.248	10142.25
926.558	10165.3
926.867	10045.75
927.177	10071.74
927.487	10016.38
927.796	9980.22
928.106	9984.06
928.416	9905.87
928.725	9962.82
929.034	9815.48
929.344	9925.76
929.653	9843.5
929.962	9765.99
930.271	9717.85
930.581	9662.49
930.89	9642.15
931.199	9571.87
931.508	9529.38
931.817	9525.99
932.125	9453.68
932.434	9489.38
932.743	9425.43
933.051	9315.83
933.36	9353.34
933.669	9269.28
933.977	9240.12
934.286	9237.19
934.594	9156.51
934.902	9141.14
935.21	9117.42
935.519	9085.78
935.827	9072.45
936.135	9008.27
936.443	8980.7
936.751	8853.47
937.059	8847.82
937.367	8793.36
937.674	8773.24
937.982	8721.72
938.29	8743.64
938.597	8685.11
938.905	8578.67
939.213	8578.22
939.52	8530.31
939.827	8493.03
940.135	8415.74
940.442	8382.07
940.749	8387.04
941.056	8322.18
941.363	8322.41
941.67	8291
941.977	8234.05
942.284	8148.4
942.591	8146.37
942.898	8072.02
943.205	8059.82
943.511	8077.44
943.818	7928.52
944.125	7966.26
944.431	7926.03
944.738	7910.89
945.044	7833.61
945.35	7855.3
945.657	7749.32
945.963	7686.27
946.269	7671.13
946.575	7683.33
946.881	7553.61
947.187	7571.02
947.493	7543.22
947.799	7510.9
948.105	7477.46
948.41	7412.15
948.716	7370.79
949.022	7400.17
949.327	7375.31
949.633	7254.41
949.938	7241.08
950.244	7212.38
950.549	7166.73
950.854	7118.6
951.16	7107.3
951.465	7009.22
951.77	7045.61
952.075	7016.23
952.38	6941.2
952.685	6924.7
952.99	6872.5
953.294	6847.42
953.599	6810.13
953.904	6826.85
954.209	6735.33
954.513	6770.81
954.818	6738.95
955.122	6739.4
955.426	6677.93
955.731	6644.03
956.035	6623.47
956.339	6576.01
956.643	6597.48
956.948	6513.19
957.252	6474.55
957.556	6494.89
957.86	6471.16
958.163	6458.95
958.467	6477.49
958.771	6402.01
959.075	6390.71
959.378	6366.3
959.682	6324.04
959.985	6279.98
960.289	6261.45
960.592	6217.83
960.896	6192.07
961.199	6148.68
961.502	6162.01
961.805	6114.33
962.108	6063.03
962.411	6097.61
962.714	6040.89
963.017	6032.75
963.32	6069.59
963.623	6000.89
963.926	5942.36
964.228	5938.97
964.531	5913.66
964.833	5945.97
965.136	5899.87
965.438	5831.85
965.741	5861.68
966.043	5775.81
966.345	5734.91
966.648	5797.95
966.95	5757.73
967.252	5661.01
967.554	5712.31
967.856	5649.03
968.158	5632.31
968.46	5618.98
968.761	5662.59
969.063	5528.81
969.365	5528.36
969.666	5525.87
969.968	5476.16
970.269	5486.32
970.571	5507.34
970.872	5419.66
971.174	5377.17
971.475	5402.49
971.776	5367.46
972.077	5351.86
972.378	5297.86
972.679	5329.49
972.98	5318.19
973.281	5229.38
973.582	5293.11
973.883	5246.78
974.183	5257.18
974.484	5160.01
974.785	5131.53
975.085	5171.3
975.386	5155.26
975.686	5113.68
975.986	5054.25
976.287	5063.74
976.587	4976.96
976.887	4964.53
977.187	4955.49
977.487	4947.36
977.787	4917.3
978.087	4860.13
978.387	4859
978.687	4879.11
978.987	4850.41
979.286	4767.47
979.586	4802.95
979.885	4795.27
980.185	4763.63
980.484	4693.35
980.784	4760.02
981.083	4634.82
981.382	4662.62
981.682	4619.68
981.981	4595.5
982.28	4584.2
982.579	4583.98
982.878	4534.49
983.177	4515.5
983.475	4549.4
983.774	4472.57
984.073	4484.77
984.372	4457.65
984.67	4414.04
984.969	4402.06
985.267	4393.47
985.566	4390.31
985.864	4355.96
986.162	4299.01
986.461	4327.26
986.759	4263.76
987.057	4212.23
987.355	4242.29
987.653	4214.27
987.951	4239.58
988.249	4125
988.547	4172.69
988.844	4118.23
989.142	4119.35
989.44	4074.16
989.737	4054.27
990.035	4031
990.332	4051.11
990.63	3974.27
990.927	3954.84
991.224	3960.49
991.521	3898.34
991.819	3877.1
992.116	3875.07
992.413	3855.41
992.71	3855.86
993.006	3830.77
993.303	3785.35
993.6	3832.36
993.897	3776.31
994.193	3722.76
994.49	3706.94
994.787	3734.51
995.083	3699.03
995.379	3654.06
995.676	3631.01
995.972	3606.83
996.268	3616.54
996.565	3555.98
996.861	3581.97
997.157	3546.26
997.453	3518.92
997.749	3526.15
998.044	3497.45
998.34	3487.06
998.636	3480.28
998.932	3436.44
999.227	3423.78
999.523	3411.12
999.818	3403.89
1000.114	3379.94
1000.409	3332.71
1000.704	3297
1001	3268.08
1001.295	3248.64
1001.59	3269.89
1001.885	3252.49
1002.18	3223.56
1002.475	3209.55
1002.77	3211.81
1003.065	3210.9
1003.359	3144.01
1003.654	3191.24
1003.949	3140.4
1004.243	3076.44
1004.538	3061.3
1004.832	3075.09
1005.127	3056.56
1005.421	3042.32
1005.715	3042.77
1006.009	3026.5
1006.304	2999.84
1006.598	3003.45
1006.892	2971.14
1007.186	2939.05
1007.48	2933.62
1007.773	2947.41
1008.067	2891.36
1008.361	2854.98
1008.655	2864.02
1008.948	2897.92
1009.242	2851.59
1009.535	2812.72
1009.829	2792.38
1010.122	2792.16
1010.415	2778.83
1010.708	2751.93
1011.001	2767.75
1011.295	2719.39
1011.588	2713.29
1011.881	2722.78
1012.173	2679.17
1012.466	2713.97
1012.759	2681.2
1013.052	2657.25
1013.344	2648.43
1013.637	2607.76
1013.93	2617.25
1014.222	2577.02
1014.514	2576.12
1014.807	2536.12
1015.099	2518.72
1015.391	2545.39
1015.683	2483.47
1015.976	2470.81
1016.268	2509.23
1016.56	2491.15
1016.851	2469.68
1017.143	2411.15
1017.435	2391.49
1017.727	2393.98
1018.018	2382.23
1018.31	2351.94
1018.602	2346.29
1018.893	2334.32
1019.185	2275.34
1019.476	2282.34
1019.767	2302.45
1020.058	2249.8
1020.35	2235.34
1020.641	2232.4
1020.932	2238.27
1021.223	2191.04
1021.514	2160.08
1021.804	2138.84
1022.095	2163.93
1022.386	2138.84
1022.677	2121.22
1022.967	2114.89
1023.258	2084.38
1023.548	2072.4
1023.839	2062.69
1024.129	2057.71
1024.419	2057.04
1024.709	2005.74
1025	2016.59
1025.29	1993.76
1025.58	1960.09
1025.87	1960.09
1026.16	1934.33
1026.449	1940.66
1026.739	1891.16
1027.029	1914.67
1027.319	1894.55
1027.608	1885.29
1027.898	1831.96
1028.187	1866.31
1028.477	1836.93
1028.766	1828.79
1029.055	1828.34
1029.344	1796.93
1029.634	1779.76
1029.923	1773.2
1030.212	1765.74
1030.501	1731.17
1030.79	1741.11
1031.078	1723.49
1031.367	1682.36
1031.656	1700.89
1031.945	1685.97
1032.233	1670.61
1032.522	1661.34
1032.81	1643.04
1033.099	1618.86
1033.387	1628.8
1033.675	1602.81
1033.963	1577.05
1034.251	1605.97
1034.54	1583.15
1034.828	1524.17
1035.116	1531.85
1035.403	1550.38
1035.691	1544.28
1035.979	1503.6
1036.267	1469.48
1036.554	1475.81
1036.842	1482.81
1037.129	1469.03
1037.417	1462.02
1037.704	1446.43
1037.992	1459.99
1038.279	1403.49
1038.566	1382.7
1038.853	1382.7
1039.14	1382.7
