Data from aluminium_surface_pro_back_FLMS001491_00020.txt Node
Date: Wed Feb 08 15:33:42 GMT 2017
User: dcchb
Spectrometer: FLMS00149
Trigger mode: 0
Integration Time (sec): 2.000000E-2
Scans to average: 10
Electric dark correction enabled: true
Nonlinearity correction enabled: false
Boxcar width: 0
XAxis mode: Wavelengths
Number of Pixels in Spectrum: 2048
>>>>>Begin Spectral Data<<<<<
341.393	-30.54
341.776	-30.54
342.16	-30.54
342.543	-70.99
342.927	-44.77
343.31	-53.36
343.693	-75.51
344.077	-74.15
344.46	-58.56
344.843	-60.82
345.226	-32.8
345.61	-41.38
345.993	-29.18
346.376	6.75
346.759	22.12
347.142	13.3
347.525	42.46
347.908	57.82
348.291	75
348.674	96.01
349.057	112.29
349.44	106.86
349.823	131.49
350.206	155.45
350.588	230.25
350.971	226.18
351.354	248.55
351.737	263.24
352.119	285.61
352.502	282
352.884	306.18
353.267	314.31
353.65	324.71
354.032	308.66
354.414	339.4
354.797	330.13
355.179	346.86
355.562	355.67
355.944	344.82
356.326	357.48
356.709	365.39
357.091	348.66
357.473	371.71
357.855	373.97
358.238	399.74
358.62	372.17
359.002	376.01
359.384	368.55
359.766	383.69
360.148	376.91
360.53	362.22
360.912	366.06
361.294	373.3
361.676	373.52
362.057	361.77
362.439	356.8
362.821	361.77
363.203	353.86
363.584	343.69
363.966	382.79
364.348	380.3
364.729	380.3
365.111	380.75
365.493	358.15
365.874	357.25
366.256	366.97
366.637	360.64
367.019	376.91
367.4	372.17
367.781	369.23
368.163	376.69
368.544	340.3
368.925	357.48
369.306	380.07
369.688	363.35
370.069	358.83
370.45	374.43
370.831	384.82
371.212	365.16
371.593	387.53
371.974	366.06
372.355	380.75
372.736	369
373.117	377.81
373.498	402
373.879	382.79
374.26	392.73
374.641	381.2
375.021	378.94
375.402	398.38
375.783	421.88
376.163	433.86
376.544	422.79
376.925	406.06
377.305	414.42
377.686	415.1
378.066	410.36
378.447	429.34
378.827	440.41
379.208	428.66
379.588	432.5
379.968	439.28
380.349	437.25
380.729	436.34
381.109	457.81
381.489	446.97
381.87	434.76
382.25	463.01
382.63	488.55
383.01	442.45
383.39	451.26
383.77	484.25
384.15	469.56
384.53	483.35
384.91	481.77
385.29	496.23
385.67	484.93
386.049	489.9
386.429	497.36
386.809	503.91
387.189	498.04
387.568	524.48
387.948	529.68
388.328	525.38
388.707	525.16
389.087	525.83
389.466	547.3
389.846	528.55
390.225	570.58
390.605	567.41
390.984	569.45
391.363	568.54
391.743	580.75
392.122	561.09
392.501	601.99
392.881	606.96
393.26	610.8
393.639	604.7
394.018	625.27
394.397	617.36
394.776	635.21
395.155	627.75
395.534	638.15
395.913	622.78
396.292	667.07
396.671	659.16
397.05	655.55
397.429	660.07
397.808	689.9
398.186	668.65
398.565	691.48
398.944	697.13
399.323	713.85
399.701	694.87
400.08	713.4
400.458	717.47
400.837	735.77
401.215	757.92
401.594	761.53
401.972	753.4
402.351	762.66
402.729	787.07
403.107	768.54
403.486	780.74
403.864	813.06
404.242	797.92
404.62	808.09
404.999	830.91
405.377	840.4
405.755	856.22
406.133	859.61
406.511	855.99
406.889	870.23
407.267	879.5
407.645	906.61
408.023	916.78
408.401	936.44
408.779	932.38
409.156	954.75
409.534	955.65
409.912	952.94
410.29	999.27
410.667	992.26
411.045	1005.82
411.422	1024.35
411.8	1034.07
412.178	1052.37
412.555	1072.94
412.933	1105.71
413.31	1108.87
413.687	1119.49
414.065	1120.17
414.442	1131.02
414.819	1156.33
415.197	1156.55
415.574	1176.89
415.951	1163.78
416.328	1198.58
416.705	1217.57
417.082	1219.37
417.46	1220.73
417.837	1233.16
418.214	1247.17
418.591	1288.3
418.967	1278.58
419.344	1309.77
419.721	1338.92
420.098	1339.37
420.475	1340.5
420.852	1336.66
421.228	1339.37
421.605	1368.52
421.982	1357.22
422.358	1417.79
422.735	1413.27
423.111	1453.72
423.488	1448.75
423.864	1483.1
424.241	1471.8
424.617	1467.96
424.994	1509.08
425.37	1515.86
425.746	1540.72
426.123	1547.73
426.499	1596.99
426.875	1585.69
427.251	1599.25
427.627	1645.8
428.003	1679.48
428.379	1706.82
428.756	1709.31
429.132	1749.08
429.507	1744.11
429.883	1757.67
430.259	1806.7
430.635	1822.07
431.011	1836.76
431.387	1844.67
431.763	1891.22
432.138	1905.23
432.514	1935.29
432.89	1978
433.265	1996.53
433.641	1966.25
434.016	2022.97
434.392	2094.15
434.767	2108.16
435.143	2118.56
435.518	2149.97
435.894	2150.42
436.269	2171.44
436.644	2203.76
437.02	2200.37
437.395	2230.42
437.77	2285.34
438.145	2295.5
438.52	2353.58
438.895	2330.53
439.271	2336.63
439.646	2441.04
440.021	2404.43
440.395	2439
440.77	2434.94
441.145	2482.17
441.52	2540.92
441.895	2524.43
442.27	2552.9
442.645	2524.65
443.019	2594.71
443.394	2559.68
443.769	2621.6
444.143	2614.82
444.518	2681.48
444.892	2661.14
445.267	2696.17
445.641	2705.21
446.016	2737.75
446.39	2778.88
446.764	2796.06
447.139	2789.95
447.513	2839.22
447.887	2856.62
448.262	2847.58
448.636	2870.18
449.01	2919.44
449.384	2968.03
449.758	2947.92
450.132	2996.05
450.506	3038.76
450.88	3024.98
451.254	3055.48
451.628	3046.67
452.002	3122.38
452.376	3148.59
452.75	3195.59
453.123	3211.86
453.497	3236.04
453.871	3298.64
454.244	3354.69
454.618	3370.28
454.992	3417.73
455.365	3442.37
455.739	3514.68
456.112	3536.6
456.486	3549.03
456.859	3613.66
457.232	3660.44
457.606	3671.51
457.979	3736.82
458.352	3819.31
458.725	3888.01
459.099	3929.59
459.472	3965.29
459.845	4060.2
460.218	4076.93
460.591	4125.06
460.964	4113.54
461.337	4177.04
461.71	4278.96
462.083	4330.25
462.456	4354.21
462.829	4346.07
463.201	4456.13
463.574	4479.4
463.947	4545.61
464.32	4684.59
464.692	4676.91
465.065	4740.64
465.438	4793.52
465.81	4846.4
466.183	4918.49
466.555	5031.93
466.928	5070.12
467.3	5047.3
467.672	5137.46
468.045	5275.77
468.417	5287.97
468.789	5356.44
469.161	5412.26
469.534	5465.36
469.906	5583.33
470.278	5664.23
470.65	5735.41
471.022	5782.19
471.394	5949.87
471.766	6013.82
472.138	6051.11
472.51	6137.89
472.882	6294.04
473.253	6349.86
473.625	6429.18
473.997	6546.24
474.369	6620.14
474.74	6720.92
475.112	6828.27
475.484	6929.06
475.855	7125.43
476.227	7101.71
476.598	7325.2
476.97	7421.02
477.341	7578.08
477.713	7705.31
478.084	7714.57
478.455	7956.15
478.827	8043.83
479.198	8313.43
479.569	8292.64
479.94	8499.18
480.311	8583.7
480.682	8793.41
481.053	9000.41
481.424	9136.91
481.795	9190.46
482.166	9328.54
482.537	9458.25
482.908	9683.11
483.279	9761.07
483.65	10010.78
484.021	10133.49
484.391	10290.77
484.762	10428.4
485.133	10462.07
485.503	10691.67
485.874	10915.39
486.244	11006.01
486.615	11212.11
486.985	11335.72
487.356	11606.9
487.726	11674.47
488.097	11956.95
488.467	11976.15
488.837	12254.11
489.207	12398.29
489.578	12452.98
489.948	12608.68
490.318	12815.45
490.688	12937.94
491.058	13088.89
491.428	13256.57
491.798	13466.51
492.168	13821.3
492.538	13765.03
492.908	13975.65
493.278	14108.98
493.648	14193.95
494.017	14347.39
494.387	14502.87
494.757	14600.94
495.126	14841.16
495.496	14803.88
495.866	14957.77
496.235	15102.17
496.605	15205.45
496.974	15379.68
497.344	15483.63
497.713	15615.83
498.082	15703.74
498.452	15934.02
498.821	16056.95
499.19	16117.29
499.559	16312.76
499.928	16356.83
500.298	16449.03
500.667	16670.72
501.036	16669.59
501.405	16844.05
501.774	16879.53
502.143	17143.25
502.512	17148.22
502.88	17319.52
503.249	17411.27
503.618	17582.79
503.987	17642.67
504.356	17766.51
504.724	17844.25
505.093	17917.47
505.462	17980.97
505.83	18074.07
506.199	18341.64
506.567	18550.67
506.936	18654.4
507.304	18869.08
507.672	18850.1
508.041	19011.22
508.409	19176.42
508.777	19277.66
509.145	19523.07
509.514	19483.75
509.882	19629.74
510.25	19807.81
510.618	19890.97
510.986	20110.86
511.354	20315.82
511.722	20428.59
512.09	20589.71
512.458	20648.02
512.826	20873.77
513.193	20970.27
513.561	20950.16
513.929	21224.95
514.297	21439.18
514.664	21525.96
515.032	21647.76
515.4	21909.45
515.767	21983.35
516.135	22195.32
516.502	22087.98
516.869	22513.28
517.237	22559.15
517.604	22643.44
517.972	22948.07
518.339	23102.64
518.706	23064.22
519.073	23280.49
519.44	23441.16
519.808	23807.03
520.175	23741.04
520.542	24094.71
520.909	24341.93
521.276	24261.93
521.643	24602.04
522.009	24774.91
522.376	24912.09
522.743	25103.49
523.11	25378.97
523.477	25697.6
523.843	25818.05
524.21	26145.05
524.577	26317.02
524.943	26445.15
525.31	26563.34
525.676	26914.97
526.043	27027.96
526.409	27268.18
526.776	27607.83
527.142	27556.99
527.508	27968.95
527.874	28190.19
528.241	28341.83
528.607	28435.83
528.973	28614.59
529.339	28624.98
529.705	29090.51
530.071	29175.25
530.437	29336.38
530.803	29593.09
531.169	29753.99
531.535	29782.24
531.901	29928.22
532.267	30097.71
532.632	30333.86
532.998	30341.55
533.364	30504.71
533.73	30608.88
534.095	30918.25
534.461	31137.91
534.826	31182.88
535.192	31366.6
535.557	31607.95
535.923	31626.03
536.288	31743.54
536.653	31917.32
537.019	31809.3
537.384	31971.79
537.749	32274.15
538.114	32336.52
538.479	32367.03
538.845	32587.14
539.21	32518.21
539.575	32691.32
539.94	32832.78
540.305	32977.41
540.67	32953
541.034	33062.38
541.399	33317.29
541.764	33407.68
542.129	33396.61
542.494	33632.53
542.858	33693.1
543.223	33857.16
543.587	33963.37
543.952	34082.47
544.316	34123.82
544.681	34133.54
545.045	34442.23
545.41	34479.97
545.774	34612.62
546.138	34631.6
546.503	34872.05
546.867	34797.47
547.231	35153.85
547.595	35158.14
547.959	35396.33
548.324	35313.85
548.688	35469.32
549.052	35664.12
549.416	35719.71
549.779	35984.11
550.143	35881.74
550.507	36171
550.871	36321.5
551.235	36324.89
551.599	36689.18
551.962	36732.34
552.326	36719.46
552.689	36973.24
553.053	36945.44
553.417	37024.99
553.78	37512.66
554.143	37423.17
554.507	37646.21
554.87	37757.62
555.234	38107.67
555.597	37868.81
555.96	38142.7
556.323	38278.74
556.686	38278.97
557.05	38641.89
557.413	38844.6
557.776	38824.26
558.139	39069
558.502	39215.89
558.865	39310.35
559.228	39453.62
559.59	39741.07
559.953	39833.05
560.316	40296.31
560.679	40362.53
561.041	40470.09
561.404	40617.21
561.767	40818.11
562.129	40834.6
562.492	41350.97
562.854	41339.9
563.217	41440.01
563.579	41637.97
563.941	41850.62
564.304	41995.48
564.666	42156.83
565.028	42348.01
565.39	42491.51
565.753	42611.51
566.115	42867.09
566.477	42950.48
566.839	43157.48
567.201	43344.82
567.563	43421.65
567.925	43707.52
568.287	43790.68
568.648	44013.73
569.01	44188.87
569.372	44524.45
569.734	44458.46
570.095	44776.87
570.457	44931.45
570.819	44939.58
571.18	45113.59
571.542	45273.81
571.903	45503.86
572.265	45580.69
572.626	45716.74
572.987	45801.48
573.349	46140.45
573.71	46139.78
574.071	46378.19
574.432	46445.08
574.794	46853.88
575.155	46823.6
575.516	46760.55
575.877	46916.25
576.238	46986.08
576.599	47160.31
576.96	47127.32
577.32	47255.45
577.681	47371.83
578.042	47413.41
578.403	47548.33
578.763	47659.06
579.124	47713.97
579.485	47817.7
579.845	47935.66
580.206	47998.03
580.566	48076
580.927	48025.6
581.287	48265.14
581.648	48254.97
582.008	48168.2
582.368	48106.73
582.728	48344.92
583.089	48309.44
583.449	48326.38
583.809	48568.64
584.169	48511.46
584.529	48442.31
584.889	48809.08
585.249	48435.76
585.609	48478.25
585.969	48712.82
586.329	48567.28
586.688	48639.82
587.048	48555.08
587.408	48493.16
587.768	48480.05
588.127	48576.1
588.487	48429.21
588.846	48729.99
589.206	48496.78
589.565	48598.47
589.925	48732.48
590.284	48675.53
590.643	48715.98
591.003	48748.75
591.362	48914.84
591.721	48715.08
592.08	48798.24
592.44	48900.15
592.799	48835.75
593.158	48803.89
593.517	48864.45
593.876	48713.27
594.235	48793.27
594.593	48757.33
594.952	48932.47
595.311	48801.4
595.67	48862.19
596.029	49068.29
596.387	49184.89
596.746	49001.17
597.104	48900.15
597.463	49043.88
597.822	49225.12
598.18	48989.64
598.538	49039.59
598.897	49278.68
599.255	48936.31
599.613	49404.32
599.972	49201.62
600.33	49243.2
600.688	49236.19
601.046	49279.81
601.404	49459.91
601.762	49448.62
602.12	49687.03
602.478	49663.3
602.836	49664.2
603.194	49534.94
603.552	49598.67
603.91	49570.42
604.268	49718.66
604.625	49642.28
604.983	49881.15
605.341	49763.64
605.698	49878.21
606.056	50039.33
606.413	49849.73
606.771	50037.3
607.128	50097.19
607.485	49982.84
607.843	49923.86
608.2	50285.66
608.557	50320
608.914	50230.06
609.272	50367.69
609.629	50380.57
609.986	50501.69
610.343	50167.69
610.7	50465.54
611.057	50464.41
611.414	50411.75
611.771	50557.96
612.127	50454.46
612.484	50600.45
612.841	50693.55
613.198	50640.67
613.554	50527.91
613.911	50832.99
614.267	50719.77
614.624	50766.55
614.98	50808.58
615.337	50907.33
615.693	50861.91
616.05	50859.65
616.406	50960.44
616.762	50854.91
617.118	50894.68
617.475	50998.86
617.831	50919.76
618.187	51013.55
618.543	51032.3
618.899	51209.25
619.255	51182.35
619.611	51164.05
619.967	51347.77
620.323	51361.11
620.678	51256.48
621.034	51266.42
621.39	51261.22
621.746	51208.34
622.101	51586.86
622.457	51266.87
622.812	51314.33
623.168	51421.44
623.523	51401.56
623.879	51565.17
624.234	51245.4
624.589	51393.65
624.945	51390.94
625.3	51422.8
625.655	51338.51
626.01	51471.61
626.365	51486.98
626.72	51343.93
627.075	51345.74
627.43	51340.32
627.785	51282.92
628.14	51307.78
628.495	51426.64
628.85	51302.13
629.205	51279.98
629.559	51286.08
629.914	51197.72
630.269	51293.31
630.623	51197.5
630.978	51118.18
631.332	51295.35
631.687	51250.15
632.041	51144.16
632.396	51200.66
632.75	51029.36
633.104	51188.91
633.459	50999.76
633.813	50957.95
634.167	51026.88
634.521	50851.52
634.875	50982.36
635.229	50786.21
635.583	50721.35
635.937	50654.01
636.291	50745.76
636.645	50712.08
636.999	50559.32
637.352	50696.04
637.706	50496.72
638.06	50649.71
638.413	50530.17
638.767	50398.65
639.121	50463.05
639.474	50252.44
639.828	50273.68
640.181	50207.24
640.534	50265.54
640.888	50160.46
641.241	49998.88
641.594	50080.46
641.947	50168.82
642.301	50049.28
642.654	49996.85
643.007	50047.24
643.36	49927.7
643.713	50040.01
644.066	50016.51
644.419	49767.48
644.771	49468.28
645.124	49206.81
645.477	49046.14
645.83	48857.9
646.182	48705.13
646.535	48661.29
646.888	48670.78
647.24	48430.56
647.593	48637.11
647.945	48588.07
648.298	48441.64
648.65	48332.94
649.002	48084.13
649.355	48322.99
649.707	48153.51
650.059	48384.01
650.411	48834.85
650.763	48875.52
651.115	49233.03
651.467	49009.98
651.819	49054.05
652.171	48991
652.523	48853.83
652.875	48869.87
653.227	48799.14
653.578	48929.98
653.93	48901.74
654.282	48739.71
654.633	48601.18
654.985	48697.67
655.337	48524.12
655.688	48571.35
656.039	48773.6
656.391	48344.01
656.742	48289.78
657.094	48423.33
657.445	48558.69
657.796	48360.51
658.147	48327.51
658.498	48270.11
658.849	48376.78
659.2	48256.1
659.551	48233.28
659.902	48365.48
660.253	48360.06
660.604	48426.95
660.955	48107.86
661.306	48177.46
661.656	48118.25
662.007	48168.42
662.358	48047.3
662.708	47957.81
663.059	48016.34
663.409	47817.47
663.76	48265.82
664.11	48004.36
664.461	48033.06
664.811	48069.67
665.161	47986.96
665.511	47875.55
665.862	47946.73
666.212	47829.45
666.562	47978.37
666.912	47834.65
667.262	47731.37
667.612	47623.58
667.962	47689.57
668.312	47615.67
668.662	47848.66
669.011	47583.81
669.361	47625.84
669.711	47485.73
670.06	47459.51
670.41	47354.21
670.76	47390.14
671.109	47558.27
671.459	47437.59
671.808	47310.14
672.157	47334.77
672.507	47123.7
672.856	47141.56
673.205	47186.3
673.554	47353.75
673.904	47175.91
674.253	47306.52
674.602	47158.51
674.951	46491.4
675.3	46325.08
675.649	47045.51
675.998	46949.25
676.346	46931.17
676.695	47189.69
677.044	46764.62
677.393	46952.41
677.741	46934.78
678.09	46936.14
678.438	46814.33
678.787	46913.77
679.135	46860.89
679.484	46591.74
679.832	46733.88
680.181	46711.74
680.529	46579.54
680.877	46536.83
681.225	46385.64
681.573	46769.36
681.922	46358.98
682.27	46241.02
682.618	46272.43
682.966	46121.47
683.314	46202.15
683.661	45964.41
684.009	45909.27
684.357	45725.32
684.705	45791.54
685.053	45637.19
685.4	45655.27
685.748	45455.73
686.095	45496.85
686.443	45330.53
686.79	45248.73
687.138	45344.99
687.485	45314.94
687.832	45056.41
688.18	45075.85
688.527	44952.01
688.874	44841.96
689.221	44900.49
689.568	44790.88
689.915	44549.76
690.262	44485.36
690.609	44446.49
690.956	44232.03
691.303	44204.69
691.65	44107.51
691.997	43954.07
692.344	43777.13
692.69	43685.6
693.037	43761.98
693.383	43330.81
693.73	43387.98
694.077	43262.79
694.423	43339.85
694.769	43003.59
695.116	42960.88
695.462	42960.42
695.808	42738.96
696.155	43007.2
696.501	42640.43
696.847	42647.89
697.193	42293.77
697.539	42387.33
697.885	42161.35
698.231	41974.01
698.577	41964.52
698.923	41860.11
699.269	41795.48
699.614	41697.41
699.96	41604.75
700.306	41486.11
700.651	41401.82
700.997	41197.31
701.342	41153.92
701.688	41112.34
702.033	41000.02
702.379	40801.38
702.724	40759.58
703.069	40906.69
703.415	40368.4
703.76	40350.78
704.105	40466.25
704.45	40328.18
704.795	40075.08
705.14	39988.98
705.485	40035.76
705.83	39788.08
706.175	40046.15
706.52	39757.34
706.865	39615.2
707.209	39506.28
707.554	39415.43
707.899	39511.02
708.243	39351.25
708.588	39377.24
708.932	38897.48
709.277	38877.82
709.621	38948.33
709.966	38534.55
710.31	38696.13
710.654	38381.56
710.998	38549.01
711.342	38509.92
711.687	38233.77
712.031	38204.16
712.375	38094.34
712.719	38227.22
713.063	38173.88
713.407	38178.85
713.75	38086.88
714.094	38018.41
714.438	37915.58
714.782	37876.26
715.125	37612.32
715.469	37765.08
715.812	37525.31
716.156	37337.07
716.499	37454.13
716.843	37382.72
717.186	37148.83
717.53	37383.85
717.873	37018.21
718.216	36966.68
718.559	36888.04
718.902	36685.56
719.246	36780.47
719.589	36560.37
719.932	36417.77
720.275	36483.76
720.617	36333.48
720.96	36247.61
721.303	36361.28
721.646	36233.6
721.989	36034.96
722.331	36093.03
722.674	35922.42
723.016	35992.7
723.359	35900.27
723.701	35914.06
724.044	35740.5
724.386	35508.42
724.729	35700.05
725.071	35472.26
725.413	35484.46
725.755	35463.45
726.097	35313.39
726.439	35002.89
726.782	35185.04
727.124	35252.38
727.465	34939.84
727.807	34881.09
728.149	34838.38
728.491	34678.61
728.833	34796.34
729.175	34655.78
729.516	34734.2
729.858	34448.56
730.199	34526.3
730.541	34396.13
730.882	34378.95
731.224	34440.42
731.565	34126.53
731.906	34169.92
732.248	34225.74
732.589	34046.31
732.93	33886.54
733.271	33882.7
733.612	33876.82
733.953	33968.12
734.294	33839.08
734.635	33676.83
734.976	33891.74
735.317	33668.01
735.658	33638.86
735.999	33597.28
736.339	33705.53
736.68	33648.35
737.021	33571.97
737.361	33355.7
737.702	33528.81
738.042	33296.72
738.383	33103.28
738.723	33239.78
739.063	33140.57
739.404	33178.99
739.744	33021.02
740.084	32880.69
740.424	32933.34
740.764	32790.07
741.104	32870.97
741.444	32576.52
741.784	32556.63
742.124	32593.69
742.464	32516.18
742.804	32451.77
743.143	32409.06
743.483	32272.34
743.823	32283.42
744.162	32185.34
744.502	32306.47
744.841	32189.41
745.181	32289.97
745.52	32123.42
745.86	32115.96
746.199	32062.18
746.538	31859.25
746.877	31957.32
747.216	31966.14
747.556	31812.92
747.895	31824.9
748.234	31583.77
748.573	31654.05
748.911	31653.6
749.25	31572.25
749.589	31433.5
749.928	31463.33
750.267	31434.63
750.605	31330.45
750.944	31338.13
751.283	31139.27
751.621	31233.95
751.96	30953.06
752.298	30905.83
752.636	30964.36
752.975	30912.61
753.313	30798.03
753.651	30931.59
753.989	30586.06
754.327	30626.96
754.666	30406.63
755.004	30399.4
755.342	30429
755.679	30390.59
756.017	30088.45
756.355	30192.62
756.693	30018.39
757.031	30101.78
757.368	29828.34
757.706	29793.76
758.044	29767.32
758.381	29657.5
758.719	29411.4
759.056	29645.52
759.394	29317.62
759.731	29239.65
760.068	29209.37
760.405	29165.98
760.743	28912.43
761.08	29109.94
761.417	28832.89
761.754	28883.05
762.091	28732.1
762.428	28695.71
762.765	28438.09
763.102	28498.88
763.438	28382.05
763.775	28304.76
764.112	28226.35
764.449	28294.14
764.785	28059.35
765.122	27950.88
765.458	27893.48
765.795	27836.98
766.131	27850.09
766.467	27623.88
766.804	27441.96
767.14	27454.17
767.476	27370.1
767.812	27236.09
768.148	27306.82
768.485	27022.09
768.821	27004.91
769.157	26806.95
769.492	26717.46
769.828	26790.45
770.164	26490.8
770.5	26558.37
770.836	26378.94
771.171	26266.85
771.507	26074.31
771.842	26054.2
772.178	25963.13
772.513	25959.74
772.849	25773.98
773.184	25657.15
773.519	25549.58
773.855	25500.54
774.19	25431.62
774.525	25393.2
774.86	25398.85
775.195	25249.7
775.53	25053.78
775.865	24919.99
776.2	24835.7
776.535	24623.05
776.87	24622.15
777.205	24480.46
777.539	24451.53
777.874	24365.43
778.209	24189.84
778.543	24132.9
778.878	24007.93
779.212	24037.08
779.547	23864.65
779.881	23952.56
780.215	23823.07
780.55	23818.55
780.884	23641.16
781.218	23533.82
781.552	23560.93
781.886	23372.92
782.22	23288.4
782.554	23156.2
782.888	22952.14
783.222	22866.94
783.556	22794.85
783.889	22726.15
784.223	22676.44
784.557	22621.75
784.89	22714.63
785.224	22419.27
785.557	22353.28
785.891	22275.09
786.224	22222.66
786.558	22197.35
786.891	21967.08
787.224	21873.52
787.557	21793.52
787.891	21782.45
788.224	21827.65
788.557	21709.68
788.89	21607.99
789.223	21541.33
789.556	21296.59
789.888	21273.31
790.221	21131.62
790.554	20949.7
790.887	20970.95
791.219	20906.54
791.552	20898.18
791.884	20813.89
792.217	20716.04
792.549	20525.99
792.882	20483.05
793.214	20451.19
793.546	20372.32
793.879	20263.39
794.211	20165.54
794.543	20300.68
794.875	20111.31
795.207	20139.33
795.539	20024.53
795.871	20039.44
796.203	19815.5
796.535	19703.18
796.867	19761.71
797.198	19575.73
797.53	19590.64
797.862	19423.87
798.193	19499.57
798.525	19363.53
798.856	19419.57
799.188	19239.47
799.519	19232.69
799.85	19112.46
800.182	19101.39
800.513	18981.17
800.844	18889.42
801.175	18873.15
801.506	18883.09
801.837	18759.03
802.168	18705.24
802.499	18706.37
802.83	18616.88
803.161	18588.86
803.491	18515.87
803.822	18428.41
804.153	18303.9
804.483	18171.92
804.814	18230.9
805.145	18175.54
805.475	18132.6
805.805	18060.29
806.136	18084.24
806.466	18040.85
806.796	17939.16
807.126	17797.7
807.457	17766.96
807.787	17765.15
808.117	17741.2
808.447	17658.72
808.777	17689
809.107	17660.3
809.436	17522.45
809.766	17655.55
810.096	17381.89
810.426	17363.81
810.755	17412.62
811.085	17359.06
811.414	17231.84
811.744	17180.99
812.073	17025.96
812.403	17109.13
812.732	17044.04
813.061	17010.37
813.39	16885.86
813.719	16930.15
814.049	16978.51
814.378	16850.6
814.707	16747.55
815.036	16794.11
815.365	16675.69
815.693	16471.18
816.022	16448.58
816.351	16424.4
816.68	16373.1
817.008	16416.26
817.337	16316.83
817.665	16409.48
817.994	16334.23
818.322	16295.36
818.651	16201.58
818.979	16222.6
819.307	16211.07
819.636	16103.28
819.964	16080
820.292	16247.91
820.62	16092.2
820.948	15952.55
821.276	16024.64
821.604	15965.2
821.932	16017.18
822.259	16015.37
822.587	15959.33
822.915	15954.58
823.243	16048.14
823.57	15977.4
823.898	15948.93
824.225	15916.16
824.553	15962.94
824.88	15902.6
825.207	15947.35
825.535	15940.12
825.862	15988.7
826.189	15917.75
826.516	15980.79
826.843	16093.79
827.17	16047.23
827.497	16010.17
827.824	16042.71
828.151	16006.78
828.478	15981.47
828.805	15908.71
829.131	15915.49
829.458	15996.61
829.785	15838.2
830.111	15921.59
830.438	15890.4
830.764	15971.98
831.09	15931.08
831.417	15855.37
831.743	15896.95
832.069	15899.89
832.395	15770.86
832.722	15837.07
833.048	15849.72
833.374	15758.43
833.7	15703.97
834.026	15748.03
834.351	15786.45
834.677	15699.9
835.003	15834.13
835.329	15732.67
835.654	15712.78
835.98	15629.62
836.306	15644.76
836.631	15605.21
836.956	15652.44
837.282	15589.84
837.607	15463.97
837.932	15542.61
838.258	15549.85
838.583	15550.07
838.908	15305.78
839.233	15367.7
839.558	15355.05
839.883	15339.46
840.208	15270.53
840.533	15276.18
840.858	15270.3
841.182	15262.4
841.507	15195.96
841.832	15144.88
842.156	15141.49
842.481	15083.87
842.805	15082.29
843.13	15036.64
843.454	14967.94
843.778	14954.61
844.103	14894.72
844.427	14911.44
844.751	14864.44
845.075	14887.26
845.399	14766.36
845.723	14807.49
846.047	14749.87
846.371	14664.44
846.695	14586.03
847.019	14454.51
847.343	14477.33
847.666	14407.95
847.99	14314.17
848.313	14226.04
848.637	14290.44
848.96	14239.82
849.284	14310.78
849.607	14120.73
849.931	14018.36
850.254	14011.81
850.577	13907.18
850.9	13813.17
851.223	13802.55
851.546	13665.15
851.869	13649.1
852.192	13703.34
852.515	13619.05
852.838	13584.7
853.161	13611.37
853.483	13486.4
853.806	13404.37
854.129	13376.12
854.451	13404.37
854.774	13369.56
855.096	13283.01
855.419	13242.11
855.741	13202.34
856.063	13138.84
856.385	13179.06
856.708	13087.31
857.03	13057.71
857.352	13109.46
857.674	12906.07
857.996	12873.31
858.318	12925.28
858.64	12897.03
858.961	12823.59
859.283	12797.15
859.605	12723.25
859.926	12757.83
860.248	12725.74
860.57	12645.74
860.891	12660.88
861.212	12619.07
861.534	12598.74
861.855	12535.69
862.176	12495.91
862.498	12543.82
862.819	12490.94
863.14	12308.35
863.461	12416.59
863.782	12405.3
864.103	12455.92
864.424	12448.91
864.745	12359.87
865.065	12296.6
865.386	12247.11
865.707	12212.08
866.027	12161.91
866.348	12199.65
866.668	12168.47
866.989	12080.33
867.309	12062.03
867.63	12092.08
867.95	12058.64
868.27	12019.54
868.59	12082.82
868.91	12067.9
869.23	11961.01
869.55	11902.26
869.87	12004.18
870.19	11981.13
870.51	11990.84
870.83	11966.89
871.15	11913.1
871.469	11881.47
871.789	11946.55
872.109	11901.81
872.428	11754.92
872.748	11831.53
873.067	11889.83
873.386	11852.32
873.706	11810.51
874.025	11822.71
874.344	11759.44
874.663	11760.11
874.982	11692.77
875.301	11762.83
875.62	11654.13
875.939	11699.78
876.258	11760.34
876.577	11661.81
876.896	11640.8
877.214	11623.39
877.533	11666.56
877.852	11619.33
878.17	11731.41
878.489	11687.8
878.807	11598.31
879.125	11605.99
879.444	11541.82
879.762	11615.26
880.08	11570.97
880.398	11540.23
880.716	11560.12
881.034	11533
881.352	11561.48
881.67	11533
881.988	11436.28
882.306	11395.6
882.624	11359
882.941	11386.57
883.259	11387.47
883.577	11348.37
883.894	11288.04
884.212	11303.63
884.529	11289.84
884.846	11306.57
885.164	11217.76
885.481	11189.73
885.798	11235.16
886.115	11123.97
886.432	11097.53
886.75	11120.36
887.067	11099.57
887.383	11105.89
887.7	11125.55
888.017	11043.3
888.334	11087.59
888.651	11016.18
888.967	11025.67
889.284	10894.6
889.6	10877.88
889.917	10793.36
890.233	10837.65
890.55	10791.33
890.866	10816.86
891.182	10756.53
891.498	10737.54
891.815	10712.46
892.131	10691.67
892.447	10747.03
892.763	10599.92
893.079	10656.19
893.395	10531.22
893.71	10553.82
894.026	10481.5
894.342	10484.89
894.657	10418
894.973	10384.56
895.289	10316.76
895.604	10408.74
895.92	10240.61
896.235	10252.36
896.55	10263.2
896.865	10234.73
897.181	10186.37
897.496	10175.3
897.811	10139.82
898.126	10031.57
898.441	10051.23
898.756	10059.37
899.071	9974.62
899.386	9947.28
899.7	10033.15
900.015	9905.02
900.33	9775.76
900.644	9946.38
900.959	9875.64
901.273	9855.76
901.588	9806.49
901.902	9717
902.216	9656.67
902.531	9677.23
902.845	9637.91
903.159	9557.46
903.473	9557.69
903.787	9545.94
904.101	9578.02
904.415	9509.1
904.729	9505.71
905.042	9365.38
905.356	9486.05
905.67	9329.9
905.984	9410.8
906.297	9352.95
906.611	9271.14
906.924	9230.46
907.237	9281.31
907.551	9154.53
907.864	9163.12
908.177	9090.81
908.491	9110.01
908.804	9131.03
909.117	9054.87
909.43	9019.85
909.743	8979.62
910.056	8924.71
910.368	8884.94
910.681	8874.54
910.994	8782.34
911.307	8842.9
911.619	8702.12
911.932	8760.19
912.244	8668.22
912.557	8631.16
912.869	8612.4
913.181	8628.67
913.494	8648.33
913.806	8550.26
914.118	8526.98
914.43	8458.96
914.742	8439.52
915.054	8367.44
915.366	8351.62
915.678	8340.09
915.99	8333.09
916.302	8285.18
916.613	8254.67
916.925	8230.72
917.236	8215.57
917.548	8191.17
917.859	8172.41
918.171	8078.86
918.482	8031.17
918.794	8033.21
919.105	8050.16
919.416	7935.13
919.727	7991.17
920.038	7897.84
920.349	7931.51
920.66	7816.49
920.971	7840.67
921.282	7828.47
921.593	7741.69
921.903	7726.32
922.214	7796.15
922.525	7690.62
922.835	7613.33
923.146	7551.41
923.456	7522.94
923.767	7546.67
924.077	7469.15
924.387	7519.1
924.697	7429.83
925.008	7440.91
925.318	7451.98
925.628	7362.04
925.938	7318.88
926.248	7267.35
926.558	7258.09
926.867	7243.62
927.177	7232.78
927.487	7176.05
927.796	7104.19
928.106	7144.19
928.416	7104.19
928.725	7058.32
929.034	7029.62
929.344	7054.25
929.653	6998.66
929.962	6915.27
930.271	6904.65
930.581	6920.24
930.89	6875.27
931.199	6840.7
931.508	6800.92
931.817	6833.46
932.125	6764.77
932.434	6728.38
932.743	6751.43
933.051	6714.6
933.36	6635.28
933.669	6625.11
933.977	6595.28
934.286	6587.14
934.594	6598.44
934.902	6551.21
935.21	6546.24
935.519	6493.59
935.827	6461.5
936.135	6459.24
936.443	6355.51
936.751	6372.23
937.059	6349.18
937.367	6336.3
937.674	6329.07
937.982	6258.56
938.29	6226.7
938.597	6311.9
938.905	6221.73
939.213	6166.82
939.52	6111.68
939.827	6163.88
940.135	6117.78
940.442	6098.57
940.749	6046.37
941.056	6078.23
941.363	5990.77
941.67	5964.33
941.977	5950.78
942.284	5902.19
942.591	5902.87
942.898	5858.57
943.205	5909.65
943.511	5797.11
943.818	5825.58
944.125	5766.37
944.431	5758.24
944.738	5752.36
945.044	5741.06
945.35	5675.3
945.657	5687.28
945.963	5637.56
946.269	5610.67
946.575	5613.84
946.881	5564.35
947.187	5535.19
947.493	5536.55
947.799	5502.43
948.105	5548.53
948.41	5442.31
948.716	5426.27
949.022	5389.21
949.327	5347.18
949.633	5274.86
949.938	5309.44
950.244	5330
950.549	5292.94
950.854	5277.57
951.16	5271.7
951.465	5199.84
951.77	5155.99
952.075	5211.81
952.38	5181.76
952.685	5190.34
952.99	5129.78
953.294	5111.02
953.599	5019.5
953.904	5016.34
954.209	4992.83
954.513	5050.69
954.818	5034.19
955.122	4981.31
955.426	4956.9
955.731	4914.42
956.035	4946.51
956.339	4936.79
956.643	4890.46
956.948	4837.36
957.252	4870.8
957.556	4849.79
957.86	4814.76
958.163	4783.12
958.467	4782.22
958.771	4740.41
959.075	4698.15
959.378	4676.01
959.682	4701.09
959.985	4655.89
960.289	4678.27
960.592	4595.56
960.896	4584.48
961.199	4595.11
961.502	4523.47
961.805	4513.07
962.108	4462.45
962.411	4503.36
962.714	4489.8
963.017	4456.58
963.32	4425.17
963.623	4353.08
963.926	4404.83
964.228	4384.04
964.531	4382.23
964.833	4338.39
965.136	4340.87
965.438	4313.76
965.741	4293.64
966.043	4263.81
966.345	4276.47
966.648	4257.26
966.95	4224.49
967.252	4191.73
967.554	4211.39
967.856	4182.91
968.158	4113.54
968.46	4132.29
968.761	4117.15
969.063	4090.49
969.365	4078.73
969.666	4067.21
969.968	4096.59
970.269	4056.59
970.571	4006.87
970.872	4034.22
971.174	3981.11
971.475	3997.15
971.776	3949.02
972.077	3938.17
972.378	3930.72
972.679	3906.99
972.98	3884.84
973.281	3896.14
973.582	3858.85
973.883	3847.33
974.183	3817.05
974.484	3783.83
974.785	3794.67
975.085	3797.84
975.386	3760.1
975.686	3732.75
975.986	3739.76
976.287	3713.55
976.587	3663.83
976.887	3690.72
977.187	3672.42
977.487	3685.3
977.787	3582.7
978.087	3625.41
978.387	3570.73
978.687	3573.66
978.987	3559.2
979.286	3573.66
979.586	3511.29
979.885	3546.77
980.185	3495.25
980.484	3509.03
980.784	3461.58
981.083	3448.02
981.382	3386.32
981.682	3419.32
981.981	3447.34
982.28	3424.51
982.579	3385.87
982.878	3410.5
983.177	3365.08
983.475	3371.86
983.774	3310.17
984.073	3301.35
984.372	3267.68
984.67	3286.66
984.969	3275.59
985.267	3269.49
985.566	3266.1
985.864	3240.79
986.162	3218.87
986.461	3194.24
986.759	3170.28
987.057	3121.25
987.355	3162.6
987.653	3188.81
987.951	3131.41
988.249	3167.57
988.547	3074.92
988.844	3122.38
989.142	3109.49
989.44	3080.79
989.737	3072.66
990.035	3019.1
990.332	3064.3
990.63	3061.13
990.927	3003.06
991.224	3016.39
991.521	2977.97
991.819	2960.35
992.116	2969.16
992.413	2922.38
992.71	2913.34
993.006	2901.14
993.303	2907.47
993.6	2842.38
993.897	2872.66
994.193	2847.81
994.49	2823.17
994.787	2813.01
995.083	2823.85
995.379	2775.04
995.676	2766.68
995.972	2753.35
996.268	2747.47
996.565	2740.69
996.861	2721.03
997.157	2746.34
997.453	2705.21
997.749	2680.58
998.044	2690.07
998.34	2670.41
998.636	2668.6
998.932	2629.96
999.227	2627.25
999.523	2611.2
999.818	2622.28
1000.114	2583.41
1000.409	2561.26
1000.704	2544.09
1001	2567.81
1001.295	2549.06
1001.59	2494.82
1001.885	2519.91
1002.18	2473.35
1002.475	2449.62
1002.77	2449.17
1003.065	2432.22
1003.359	2442.17
1003.654	2430.42
1003.949	2367.14
1004.243	2380.25
1004.538	2358.55
1004.832	2367.37
1005.127	2349.97
1005.421	2346.58
1005.715	2297.99
1006.009	2327.14
1006.304	2315.39
1006.598	2295.96
1006.892	2277.65
1007.186	2259.35
1007.48	2279.46
1007.773	2249.4
1008.067	2232.23
1008.361	2217.31
1008.655	2201.72
1008.948	2209.63
1009.242	2208.95
1009.535	2182.97
1009.829	2159.24
1010.122	2147.49
1010.415	2144.1
1010.708	2134.6
1011.001	2100.26
1011.295	2088.28
1011.588	2074.49
1011.881	2058.9
1012.173	2084.21
1012.466	2048.05
1012.759	2049.64
1013.052	2040.37
1013.344	2000.15
1013.637	2000.82
1013.93	2006.02
1014.222	1932.35
1014.514	1949.75
1014.807	1959.47
1015.099	1919.7
1015.391	1950.2
1015.683	1910.2
1015.976	1883.99
1016.268	1864.1
1016.56	1880.15
1016.851	1846.7
1017.143	1865.91
1017.435	1855.06
1017.727	1823.43
1018.018	1817.78
1018.31	1823.88
1018.602	1822.3
1018.893	1812.13
1019.185	1776.42
1019.476	1741.85
1019.767	1756.31
1020.058	1736.42
1020.35	1726.93
1020.641	1707.95
1020.932	1702.53
1021.223	1702.07
1021.514	1671.34
1021.804	1673.15
1022.095	1670.44
1022.386	1642.41
1022.677	1648.97
1022.967	1614.17
1023.258	1637.67
1023.548	1604
1023.839	1594.73
1024.129	1575.75
1024.419	1581.17
1024.709	1567.84
1025	1555.41
1025.29	1609.65
1025.58	1543.43
1025.87	1539.37
1026.16	1509.31
1026.449	1535.07
1026.739	1510.44
1027.029	1491.46
1027.319	1478.35
1027.608	1469.76
1027.898	1485.13
1028.187	1462.53
1028.477	1458.01
1028.766	1428.63
1029.055	1426.6
1029.344	1404.91
1029.634	1408.97
1029.923	1389.99
1030.212	1385.7
1030.501	1378.92
1030.79	1360.61
1031.078	1339.37
1031.367	1335.53
1031.656	1323.33
1031.945	1323.78
1032.233	1333.95
1032.522	1299.37
1032.81	1277.9
1033.099	1284.91
1033.387	1263.44
1033.675	1264.35
1033.963	1227.51
1034.251	1266.83
1034.54	1231.13
1034.828	1251.46
1035.116	1241.52
1035.403	1217.79
1035.691	1214.18
1035.979	1225.93
1036.267	1210.34
1036.554	1197
1036.842	1170.34
1037.129	1198.13
1037.417	1169.43
1037.704	1135.31
1037.992	1152.26
1038.279	1128.76
1038.566	1131.02
1038.853	1131.02
1039.14	1131.02
