Data from aluminium_macbook_case_FLMS001491_040.txt Node
Date: Tue Feb 07 10:43:32 GMT 2017
User: dcchb
Spectrometer: FLMS00149
Trigger mode: 0
Integration Time (sec): 2.000000E-2
Scans to average: 10
Electric dark correction enabled: true
Nonlinearity correction enabled: false
Boxcar width: 0
XAxis mode: Wavelengths
Number of Pixels in Spectrum: 2048
>>>>>Begin Spectral Data<<<<<
341.393	-12.67
341.776	-12.67
342.16	-12.67
342.543	-50.86
342.927	-55.83
343.31	-80.92
343.693	-77.07
344.077	-63.06
344.46	-44.76
344.843	-67.58
345.226	-44.08
345.61	-33.91
345.993	-17.64
346.376	-0.01
346.759	8.12
347.142	21.68
347.525	41.34
347.908	70.04
348.291	90.6
348.674	89.7
349.057	107.55
349.44	136.48
349.823	145.52
350.206	176.25
350.588	243.14
350.971	243.37
351.354	273.65
351.737	284.72
352.119	304.16
352.502	298.28
352.884	333.99
353.267	334.44
353.65	357.49
354.032	343.93
354.414	355
354.797	375.8
355.179	374.67
355.562	392.74
355.944	407.43
356.326	402.69
356.709	381.22
357.091	418.05
357.473	428.45
357.855	430.48
358.238	407.88
358.62	421.22
359.002	395.46
359.384	405.17
359.766	426.42
360.148	435.23
360.53	416.47
360.912	397.94
361.294	429.81
361.676	395
362.057	425.29
362.439	410.82
362.821	407.88
363.203	450.37
363.584	404.04
363.966	412.4
364.348	432.97
364.729	425.29
365.111	438.17
365.493	435.91
365.874	419.41
366.256	408.11
366.637	425.06
367.019	425.74
367.4	418.73
367.781	426.64
368.163	444.04
368.544	428
368.925	417.15
369.306	433.42
369.688	421.22
370.069	430.48
370.45	435.45
370.831	442.46
371.212	445.85
371.593	459.86
371.974	449.69
372.355	471.39
372.736	452.63
373.117	459.63
373.498	470.03
373.879	470.26
374.26	470.03
374.641	439.52
375.021	428
375.402	470.93
375.783	494.21
376.163	531.27
376.544	512.74
376.925	496.02
377.305	512.51
377.686	514.55
378.066	520.65
378.447	534.89
378.827	521.33
379.208	533.76
379.588	540.08
379.968	516.58
380.349	555
380.729	545.73
381.109	558.62
381.489	565.39
381.87	580.31
382.25	573.08
382.63	555.9
383.01	588.22
383.39	610.82
383.77	599.74
384.15	613.3
384.53	617.14
384.91	616.69
385.29	629.12
385.67	625.28
386.049	618.73
386.429	636.13
386.809	647.88
387.189	655.34
387.568	667.09
387.948	661.89
388.328	676.35
388.707	663.92
389.087	688.1
389.466	724.94
389.846	691.95
390.225	736.46
390.605	730.36
390.984	716.8
391.363	707.09
391.743	753.19
392.122	762.45
392.501	763.13
392.881	763.36
393.26	767.2
393.639	798.16
394.018	806.29
394.397	813.3
394.776	824.6
395.155	815.78
395.534	834.77
395.913	842.22
396.292	847.87
396.671	884.71
397.05	869.57
397.429	884.93
397.808	877.02
398.186	889
398.565	896.69
398.944	893.97
399.323	931.49
399.701	926.06
400.08	963.35
400.458	946.85
400.837	965.38
401.215	957.02
401.594	989.11
401.972	1013.07
402.351	1020.98
402.729	1016
403.107	1025.27
403.486	1048.55
403.864	1056.46
404.242	1087.87
404.62	1092.84
404.999	1077.7
405.377	1117.47
405.755	1118.15
406.133	1134.42
406.511	1153.85
406.889	1149.79
407.267	1163.12
407.645	1195.89
408.023	1229.33
408.401	1242.21
408.779	1275.88
409.156	1302.55
409.534	1299.39
409.912	1327.63
410.29	1335.32
410.667	1361.53
411.045	1382.77
411.422	1398.37
411.8	1395.2
412.178	1454.18
412.555	1489.89
412.933	1480.62
413.31	1489.21
413.687	1532.37
414.065	1557.01
414.442	1551.36
414.819	1559.94
415.197	1569.66
415.574	1619.6
415.951	1633.84
416.328	1650.56
416.705	1653.28
417.082	1700.73
417.46	1708.87
417.837	1707.74
418.214	1717.68
418.591	1737.12
418.967	1751.58
419.344	1798.36
419.721	1779.6
420.098	1824.34
420.475	1854.4
420.852	1869.09
421.228	1885.13
421.605	1891.69
421.982	1924.91
422.358	1933.04
422.735	1973.95
423.111	2013.94
423.488	2054.62
423.864	2032.93
424.241	2061.17
424.617	2092.13
424.994	2098.24
425.37	2122.87
425.746	2149.08
426.123	2161.51
426.499	2223.43
426.875	2237.89
427.251	2296.87
427.627	2329.64
428.003	2344.78
428.379	2372.8
428.756	2413.48
429.132	2441.96
429.507	2492.8
429.883	2498.23
430.259	2577.77
430.635	2596.08
431.011	2585.23
431.387	2700.48
431.763	2705.9
432.138	2735.51
432.514	2780.25
432.89	2763.3
433.265	2863.87
433.641	2896.86
434.016	2904.32
434.392	2972.11
434.767	3036.06
435.143	3038.78
435.518	3090.3
435.894	3116.29
436.269	3154.48
436.644	3199
437.02	3226.79
437.395	3265.44
437.77	3342.95
438.145	3368.26
438.52	3359.22
438.895	3432.89
439.271	3477.18
439.646	3549.5
440.021	3542.04
440.395	3582.04
440.77	3539.1
441.145	3621.59
441.52	3723.73
441.895	3672.21
442.27	3678.08
442.645	3794.01
443.019	3754.01
443.394	3812.54
443.769	3835.14
444.143	3825.2
444.518	3880.56
444.892	3897.51
445.267	3968.47
445.641	4022.25
446.016	4021.35
446.39	4075.36
446.764	4132.53
447.139	4077.62
447.513	4192.42
447.887	4147.22
448.262	4173.21
448.636	4239.87
449.01	4289.59
449.384	4347.44
449.758	4383.83
450.132	4407.78
450.506	4450.49
450.88	4499.53
451.254	4483.03
451.628	4546.98
452.002	4622.24
452.376	4668.11
452.75	4707.43
453.123	4794.89
453.497	4826.53
453.871	4926.64
454.244	4974.77
454.618	5042.79
454.992	5134.31
455.365	5103.35
455.739	5275.33
456.112	5333.86
456.486	5375.44
456.859	5381.99
457.232	5499.95
457.606	5538.15
457.979	5609.1
458.352	5672.83
458.725	5797.8
459.099	5777.91
459.472	5912.37
459.845	5968.42
460.218	6052.48
460.591	6108.07
460.964	6106.94
461.337	6349.2
461.71	6416.31
462.083	6479.82
462.456	6551.23
462.829	6566.37
463.201	6668.06
463.574	6725.46
463.947	6809.52
464.32	6992.57
464.692	7015.85
465.065	7141.94
465.438	7184.2
465.81	7307.36
466.183	7450.86
466.555	7543.52
466.928	7555.72
467.3	7589.16
467.672	7765.21
468.045	7938.53
468.417	7936.27
468.789	8068.47
469.161	8156.38
469.534	8300.56
469.906	8494.23
470.278	8491.06
470.65	8626.65
471.022	8823.26
471.394	8969.02
471.766	9091.05
472.138	9217.37
472.51	9476.35
472.882	9597.25
473.253	9702.1
473.625	9768.77
473.997	10071.13
474.369	10179.38
474.74	10228.42
475.112	10435.64
475.484	10656.88
475.855	10783.21
476.227	10903.65
476.598	11238.56
476.97	11293.25
477.341	11549.51
477.713	11808.49
478.084	11844.19
478.455	12075.83
478.827	12302.26
479.198	12554.23
479.569	12602.82
479.94	12991.51
480.311	13123.26
480.682	13383.81
481.053	13642.11
481.424	13886.85
481.795	14099.5
482.166	14308.54
482.537	14601.64
482.908	14906.71
483.279	15086.82
483.65	15429.86
484.021	15731.32
484.391	15837.08
484.762	16000.02
485.133	16146.23
485.503	16476.39
485.874	16728.59
486.244	17027.33
486.615	17235.92
486.985	17506.64
487.356	17823.25
487.726	17875.67
488.097	18244.48
488.467	18264.36
488.837	18721.75
489.207	18990.45
489.578	19192.02
489.948	19358.8
490.318	19662.97
490.688	19762.86
491.058	20027.03
491.428	20361.48
491.798	20544.76
492.168	21029.26
492.538	21029.49
492.908	21365.07
493.278	21741.79
493.648	21913.31
494.017	22133.64
494.387	22290.7
494.757	22517.59
495.126	22761.2
495.496	22902.43
495.866	23073.96
496.235	23377.68
496.605	23553.26
496.974	23713.71
497.344	23849.98
497.713	24009.98
498.082	24185.79
498.452	24484.77
498.821	24486.57
499.19	24680.69
499.559	24889.05
499.928	25042.04
500.298	25128.14
500.667	25338.08
501.036	25384.18
501.405	25799.76
501.774	25803.83
502.143	26044.27
502.512	26294.66
502.88	26583.24
503.249	26585.28
503.618	26845.16
503.987	27103
504.356	27156.79
504.724	27345.26
505.093	27588.64
505.462	27710.9
505.83	27961.51
506.199	28143.2
506.567	28484.89
506.936	28492.57
507.304	29013.46
507.672	28902.05
508.041	29206.9
508.409	29467.23
508.777	29621.58
509.145	29874.45
509.514	29842.37
509.882	30115.58
510.25	30037.84
510.618	30491.39
510.986	30411.62
511.354	30875.56
511.722	31111.94
512.09	31495.2
512.458	31391.48
512.826	31626.05
513.193	31942.42
513.561	32090.44
513.929	32309.87
514.297	32599.81
514.664	32843.19
515.032	33053.58
515.4	33414.02
515.767	33499.67
516.135	33781.92
516.502	33698.08
516.869	34411.74
517.237	34570.38
517.604	34588
517.972	34898.96
518.339	35208.33
518.706	35386.63
519.073	35578.71
519.44	35763.34
519.808	36090.79
520.175	36059.38
520.542	36628.4
520.909	36876.98
521.276	36936.64
521.643	37359.23
522.009	37463.41
522.376	37790.4
522.743	38026.33
523.11	38327.34
523.477	38688.91
523.843	38832.19
524.21	39247.99
524.577	39539.51
524.943	39612.5
525.31	39966.62
525.676	40384.91
526.043	40714.4
526.409	40876.43
526.776	41263.99
527.142	41466.01
527.508	41739.91
527.874	42246.56
528.241	42438.87
528.607	42550.28
528.973	42781.46
529.339	42984.62
529.705	43493.98
530.071	43839.51
530.437	43805.84
530.803	44264.58
531.169	44552.71
531.535	44417.35
531.901	44505.48
532.267	44674.97
532.632	44872.03
532.998	45054.39
533.364	45275.18
533.73	45451.22
534.095	45832
534.461	45825.67
534.826	46096.4
535.192	46260.01
535.557	46434.25
535.923	46514.02
536.288	46696.84
536.653	46908.58
537.019	46858.19
537.384	46977.96
537.749	47271.51
538.114	47387.67
538.479	47424.28
538.845	47664.27
539.21	47673.76
539.575	47975.22
539.94	48079.63
540.305	48396.68
540.67	48428.99
541.034	48688.65
541.399	48848.42
541.764	48872.6
542.129	49151.01
542.494	49256.54
542.858	49444.79
543.223	49374.51
543.587	49692.46
543.952	49701.73
544.316	49823.99
544.681	49799.58
545.045	50009.29
545.41	50157.31
545.774	50114.83
546.138	50223.98
546.503	50327.93
546.867	50391.88
547.231	50657.18
547.595	50628.26
547.959	50737.18
548.324	50881.59
548.688	51063.05
549.052	51141.47
549.416	51145.53
549.779	51171.3
550.143	51340.1
550.507	51532.19
550.871	51585.97
551.235	51557.73
551.599	51900.32
551.962	52045.85
552.326	52163.81
552.689	52442
553.053	52333.75
553.417	52384.37
553.78	52880.18
554.143	52699.17
554.507	52977.8
554.87	53088.31
555.234	53376.89
555.597	53296.44
555.96	53442.65
556.323	53585.7
556.686	53647.84
557.05	53860.04
557.413	53930.32
557.776	54009.64
558.139	54232.91
558.502	54250.54
558.865	54260.03
559.228	54503.19
559.59	54490.98
559.953	54598.55
560.316	54881.71
560.679	54843.06
561.041	54949.95
561.404	55128.48
561.767	55317.18
562.129	55150.85
562.492	55522.14
562.854	55543.61
563.217	55549.49
563.579	55711.97
563.941	55867.44
564.304	55990.38
564.666	56160.54
565.028	56249.58
565.39	56293.42
565.753	56410.48
566.115	56571.61
566.477	56623.81
566.839	56811.15
567.201	56941.77
567.563	56953.52
567.925	57150.57
568.287	57121.87
568.648	57207.52
569.01	57433.73
569.372	57569.55
569.734	57527.51
570.095	57733.84
570.457	57865.13
570.819	57902.64
571.18	57889.09
571.542	58125.92
571.903	58059.7
572.265	58197.55
572.626	58222.86
572.987	58202.52
573.349	58298.34
573.71	58401.16
574.071	58415.85
574.432	58487.94
574.794	58691.55
575.155	58562.51
575.516	58481.84
575.877	58669.18
576.238	58754.37
576.599	58713.02
576.96	58739.91
577.32	58813.13
577.681	58934.93
578.042	58928.15
578.403	58971.09
578.763	58964.76
579.124	59007.02
579.485	59073.23
579.845	59144.87
580.206	59162.5
580.566	59140.8
580.927	59162.72
581.287	59383.74
581.648	59187.36
582.008	59319.1
582.368	59402.04
582.728	59437.75
583.089	59420.12
583.449	59440.46
583.809	59486.11
584.169	59521.36
584.529	59517.29
584.889	59679.09
585.249	59454.69
585.609	59491.3
585.969	59588.7
586.329	59564.3
586.688	59587.12
587.048	59620.34
587.408	59496.27
587.768	59522.71
588.127	59471.87
588.487	59421.47
588.846	59591.87
589.206	59420.12
589.565	59449.72
589.925	59470.06
590.284	59449.5
590.643	59449.27
591.003	59470.29
591.362	59469.16
591.721	59476.39
592.08	59445.2
592.44	59512.55
592.799	59513.9
593.158	59469.38
593.517	59468.03
593.876	59497.63
594.235	59506.44
594.593	59558.65
594.952	59582.15
595.311	59548.48
595.67	59631.64
596.029	59689.94
596.387	59695.82
596.746	59704.18
597.104	59604.07
597.463	59642.03
597.822	59766.78
598.18	59721.35
598.538	59772.43
598.897	59895.13
599.255	59717.96
599.613	60047.22
599.972	59923.16
600.33	60010.61
600.688	59960.44
601.046	60027.11
601.404	60097.16
601.762	60037.73
602.12	60166.99
602.478	60148.69
602.836	60130.38
603.194	60023.72
603.552	60042.93
603.91	59999.99
604.268	60112.76
604.625	60012.19
604.983	60103.26
605.341	59968.58
605.698	60066.43
606.056	60089.03
606.413	60038.86
606.771	60166.99
607.128	60110.27
607.485	59996.15
607.843	60051.74
608.2	60174
608.557	60204.5
608.914	60096.48
609.272	60251.28
609.629	60247.89
609.986	60345.74
610.343	60297.61
610.7	60471.16
611.057	60444.95
611.414	60372.64
611.771	60442.46
612.127	60526.3
612.484	60502.8
612.841	60594.78
613.198	60501.45
613.554	60564.27
613.911	60668.45
614.267	60701.44
614.624	60651.72
614.98	60766.75
615.337	60929.23
615.693	60831.83
616.05	60796.13
616.406	60946.63
616.762	60820.99
617.118	60879.74
617.475	60895.11
617.831	61001.09
618.187	61017.36
618.543	61010.81
618.899	61076.57
619.255	61062.79
619.611	61042.67
619.967	61098.04
620.323	61127.87
620.678	61020.3
621.034	60908.21
621.39	60971.04
621.746	60904.15
622.101	61143.01
622.457	60893.53
622.812	61004.71
623.168	60935.33
623.523	60982.11
623.879	60990.92
624.234	60766.98
624.589	60969.68
624.945	60839.06
625.3	60818.73
625.655	60879.06
626.01	60846.52
626.365	60817.82
626.72	60784.83
627.075	60781.44
627.43	60770.59
627.785	60725.39
628.14	60774.89
628.495	60815.34
628.85	60783.47
629.205	60719.29
629.559	60850.82
629.914	60704.6
630.269	60797.26
630.623	60700.08
630.978	60665.28
631.332	60794.77
631.687	60896.69
632.041	60761.1
632.396	60828.89
632.75	60717.49
633.104	60776.47
633.459	60616.47
633.813	60670.71
634.167	60678.16
634.521	60662.12
634.875	60706.64
635.229	60622.35
635.583	60527.43
635.937	60541.44
636.291	60503.71
636.645	60528.34
636.999	60439.53
637.352	60527.43
637.706	60327.21
638.06	60389.58
638.413	60353.43
638.767	60244.28
639.121	60235.92
639.474	60047.67
639.828	60110.04
640.181	60080.44
640.534	60069.14
640.888	59956.83
641.241	59841.58
641.594	59861.69
641.947	59901.91
642.301	59774.69
642.654	59737.85
643.007	59746.44
643.36	59734.46
643.713	59613.11
644.066	59630.28
644.419	59475.03
644.771	59317.07
645.124	59073.91
645.477	59106.68
645.83	58853.81
646.182	58791.66
646.535	58689.74
646.888	58767.25
647.24	58549.18
647.593	58722.51
647.945	58652
648.298	58587.6
648.65	58517.32
649.002	58520.26
649.355	58571.1
649.707	58537.43
650.059	58713.92
650.411	59010.41
650.763	59042.05
651.115	59288.37
651.467	59206.56
651.819	59129.28
652.171	59177.64
652.523	59150.52
652.875	59139.67
653.227	59060.13
653.578	59221.93
653.93	59110.07
654.282	59068.94
654.633	58933.8
654.985	58990.75
655.337	58998.43
655.688	59017.64
656.039	59026.23
656.391	58882.05
656.742	58853.81
657.094	58810.42
657.445	58920.7
657.796	58815.39
658.147	58782.62
658.498	58687.03
658.849	58759.12
659.2	58690.87
659.551	58610.87
659.902	58695.84
660.253	58593.7
660.604	58580.14
660.955	58474.38
661.306	58484.78
661.656	58306.48
662.007	58362.97
662.358	58328.17
662.708	58344.21
663.059	58241.62
663.409	58127.05
663.76	58244.1
664.11	58078.23
664.461	58169.98
664.811	58155.52
665.161	58149.64
665.511	58075.3
665.862	58057.44
666.212	58115.07
666.562	58148.29
666.912	58089.76
667.262	58076.42
667.612	58092.47
667.962	58134.95
668.312	58115.97
668.662	58168.85
669.011	58080.72
669.361	58160.49
669.711	58136.99
670.06	58149.19
670.41	58101.28
670.76	58053.37
671.109	58188.29
671.459	58064.22
671.808	58052.02
672.157	58150.32
672.507	57914.85
672.856	57954.62
673.205	58052.02
673.554	58082.98
673.904	57978.35
674.253	58108.06
674.602	58036.65
674.951	57618.58
675.3	57417.46
675.649	57909.42
675.998	57872.59
676.346	57899.48
676.695	57950.1
677.044	57791.69
677.393	57745.13
677.741	57767.73
678.09	57691.58
678.438	57622.43
678.787	57606.38
679.135	57623.33
679.484	57387.86
679.832	57482.77
680.181	57303.56
680.529	57369.1
680.877	57259.72
681.225	57221.98
681.573	57333.39
681.922	57055.21
682.27	56982.67
682.618	56979.28
682.966	56878.94
683.314	56953.29
683.661	56849.11
684.009	56675.33
684.357	56609.57
684.705	56592.4
685.053	56638.72
685.4	56510.82
685.748	56372.97
686.095	56489.57
686.443	56306.3
686.79	56315.79
687.138	56221.78
687.485	56262.24
687.832	56238.73
688.18	56211.62
688.527	56005.97
688.874	56072.86
689.221	56062.69
689.568	55925.52
689.915	55922.81
690.262	55900.66
690.609	55864.28
690.956	55791.06
691.303	55738.18
691.65	55624.96
691.997	55656.15
692.344	55543.84
692.69	55524.85
693.037	55426.1
693.383	55244.86
693.73	55322.83
694.077	55180.68
694.423	55260.68
694.769	55066.79
695.116	55023.85
695.462	55053.23
695.808	54983.62
696.155	55007.35
696.501	54791.77
696.847	54730.07
697.193	54530.98
697.539	54640.81
697.885	54410.53
698.231	54313.36
698.577	54304.77
698.923	54229.29
699.269	54050.77
699.614	53936.87
699.96	53860.26
700.306	53784.11
700.651	53641.06
700.997	53504.79
701.342	53493.27
701.688	53426.83
702.033	53323.78
702.379	53164.01
702.724	53162.88
703.069	53263.22
703.415	52864.58
703.76	52814.64
704.105	52803.8
704.45	52670.69
704.795	52511.15
705.14	52331.27
705.485	52329.46
705.83	52127.2
706.175	52176.92
706.52	52037.49
706.865	51777.61
707.209	51856.7
707.554	51739.87
707.899	51670.04
708.243	51496.71
708.588	51426.66
708.932	51199.32
709.277	51258.75
709.621	51299.65
709.966	51063.73
710.31	51245.64
710.654	50817.18
710.998	50972.43
711.342	50943.05
711.687	50840.91
712.031	50718.65
712.375	50652.89
712.719	50609.95
713.063	50597.53
713.407	50582.38
713.75	50374.93
714.094	50428.04
714.438	50346.91
714.782	50370.86
715.125	50307.14
715.469	50258.1
715.812	50147.59
716.156	49909.18
716.499	50054.04
716.843	50153.47
717.186	49925.9
717.53	50037.09
717.873	49970.65
718.216	49753.03
718.559	49707.15
718.902	49370.21
719.246	49455.63
719.589	49474.17
719.932	49179.71
720.275	49212.7
720.617	49220.39
720.96	48965.03
721.303	48970.9
721.646	49082.99
721.989	48829.89
722.331	48973.16
722.674	48729.78
723.016	48629.44
723.359	48598.03
723.701	48508.31
724.044	48244.82
724.386	47993.75
724.729	48314.65
725.071	48233.07
725.413	48100.64
725.755	48041.43
726.097	47728
726.439	47643.7
726.782	47447.78
727.124	47710.14
727.465	47428.57
727.807	47467.44
728.149	47284.84
728.491	47246.2
728.833	47266.09
729.175	47027.9
729.516	46890.05
729.858	46749.94
730.199	46993.78
730.541	46713.11
730.882	46664.52
731.224	46702.03
731.565	46337.3
731.906	46385.66
732.248	46354.7
732.589	46208.04
732.93	46033.35
733.271	46074.93
733.612	46052.79
733.953	45965.78
734.294	45906.8
734.635	45894.6
734.976	45948.16
735.317	45693.02
735.658	45659.35
735.999	45597.66
736.339	45396.98
736.68	45585.45
737.021	45441.95
737.361	45376.42
737.702	45552.91
738.042	45446.25
738.383	45369.19
738.723	45447.6
739.063	45258.68
739.404	45340.26
739.744	45186.82
740.084	44936.21
740.424	45097.33
740.764	44775.31
741.104	45045.81
741.444	44747.06
741.784	44594.07
742.124	44703.9
742.464	44627.96
742.804	44515.88
743.143	44454.18
743.483	44535.09
743.823	44353.62
744.162	44116.57
744.502	44354.75
744.841	44068.21
745.181	44237.92
745.52	43976
745.86	44075.66
746.199	43823.01
746.538	43844.26
746.877	43854.65
747.216	43677.03
747.556	43671.83
747.895	43607.65
748.234	43348.22
748.573	43235.23
748.911	43215.12
749.25	43112.07
749.589	43070.27
749.928	43079.76
750.267	43017.61
750.605	42747.11
750.944	42630.05
751.283	42514.57
751.621	42637.96
751.96	42402.94
752.298	42307.35
752.636	42278.42
752.975	41905.32
753.313	41826.91
753.651	41959.11
753.989	41755.05
754.327	41674.82
754.666	41298.79
755.004	41367.26
755.342	41381.27
755.679	41175.17
756.017	41103.99
756.355	41021.51
756.693	40758.01
757.031	40910.1
757.368	40602.99
757.706	40547.62
758.044	40445.02
758.381	40418.81
758.719	40358.7
759.056	40216.56
759.394	40066.5
759.731	39863.57
760.068	39746.51
760.405	39536.57
760.743	39406.86
761.08	39685.04
761.417	39429.23
761.754	39330.25
762.091	39220.2
762.428	39018.62
762.765	38941.56
763.102	39083.48
763.438	38982.69
763.775	38593.32
764.112	38644.85
764.449	38649.82
764.785	38562.14
765.122	38144.29
765.458	38222.71
765.795	38035.37
766.131	38050.51
766.467	37979.33
766.804	37654.81
767.14	37513.8
767.476	37496.4
767.812	37442.39
768.148	37483.52
768.485	37195.39
768.821	36923.08
769.157	36971.9
769.492	36907.72
769.828	36779.81
770.164	36386.83
770.5	36342.76
770.836	36364.45
771.171	36059.83
771.507	35987.51
771.842	35743.9
772.178	35661.42
772.513	35518.37
772.849	35391.15
773.184	35287.87
773.519	35289.23
773.855	34998.61
774.19	34951.38
774.525	34844.49
774.86	34777.15
775.195	34694.67
775.53	34579.42
775.865	34286.09
776.2	34109.82
776.535	33838.64
776.87	33702.38
777.205	33723.39
777.539	33489.05
777.874	33535.38
778.209	33192.79
778.543	33189.85
778.878	33023.3
779.212	32929.74
779.547	32623.53
779.881	32772.46
780.215	32582.86
780.55	32666.92
780.884	32246.82
781.218	32185.58
781.552	32223.09
781.886	31972.03
782.22	31812.03
782.554	31699.94
782.888	31503.56
783.222	31327.75
783.556	31351.48
783.889	31188.32
784.223	30947.65
784.557	30773.87
784.89	30939.06
785.224	30699.52
785.557	30609.35
785.891	30548.34
786.224	30374.33
786.558	30335.91
786.891	30128.91
787.224	30085.97
787.557	29833.55
787.891	29950.38
788.224	29757.4
788.557	29724.85
788.89	29638.53
789.223	29627.68
789.556	29308.82
789.888	29373.9
790.221	29226.11
790.554	29007.81
790.887	29183.85
791.219	28870.87
791.552	28879.68
791.884	28726.46
792.217	28666.12
792.549	28447.15
792.882	28352.23
793.214	28189.3
793.546	28321.28
793.879	28023.66
794.211	27939.14
794.543	28101.39
794.875	27810.55
795.207	28056.65
795.539	27713.16
795.871	27608.98
796.203	27426.61
796.535	27292.83
796.867	27348.19
797.198	27175.54
797.53	27179.16
797.862	27014.87
798.193	27057.58
798.525	26942.1
798.856	26859.17
799.188	26574.65
799.519	26463.02
799.85	26343.7
800.182	26372.17
800.513	26336.92
800.844	26161.78
801.175	26210.37
801.506	26101.22
801.837	25996.82
802.168	25867.1
802.499	25865.97
802.83	25790.49
803.161	25507.11
803.491	25610.16
803.822	25588.47
804.153	25515.7
804.483	25183.73
804.814	25178.76
805.145	25058.08
805.475	25121.59
805.805	24983.96
806.136	24964.08
806.466	24902.16
806.796	24812.44
807.126	24553.24
807.457	24514.6
807.787	24526.8
808.117	24292.91
808.447	24350.08
808.777	24503.97
809.107	24248.39
809.436	24154.15
809.766	24154.15
810.096	23966.59
810.426	24038.45
810.755	24021.05
811.085	23897.66
811.414	23797.33
811.744	23677.33
812.073	23603.21
812.403	23623.09
812.732	23370.9
813.061	23475.98
813.39	23352.59
813.719	23223.1
814.049	23317.11
814.378	23203.9
814.707	23126.38
815.036	23040.74
815.365	23116.21
815.693	22885.26
816.022	22793.74
816.351	22760.74
816.68	22609.79
817.008	22737.92
817.337	22698.37
817.665	22537.7
817.994	22723.23
818.322	22558.71
818.651	22381.09
818.979	22353.07
819.307	22444.37
819.636	22319.17
819.964	22306.74
820.292	22323.69
820.62	22280.76
820.948	22218.16
821.276	22302.9
821.604	22087.99
821.932	22194.66
822.259	22212.06
822.587	22241.21
822.915	22203.92
823.243	22198.05
823.57	22089.57
823.898	22205.73
824.225	22089.57
824.553	22195.11
824.88	22082.34
825.207	22174.09
825.535	22019.29
825.862	22250.93
826.189	22019.75
826.516	22130.48
826.843	22128.22
827.17	22121.66
827.497	22128.67
827.824	22149.01
828.151	22219.97
828.478	22087.99
828.805	22179.52
829.131	22102.46
829.458	22205.96
829.785	22006.19
830.111	22000.54
830.438	22139.97
830.764	22076.92
831.09	22114.21
831.417	21908.11
831.743	22118.05
832.069	21973.19
832.395	21944.27
832.722	21966.41
833.048	21866.08
833.374	21876.7
833.7	21759.41
834.026	21901.56
834.351	21717.15
834.677	21812.75
835.003	21809.58
835.329	21798.96
835.654	21692.07
835.98	21546.76
836.306	21686.65
836.631	21530.72
836.956	21673.31
837.282	21554.9
837.607	21380.21
837.932	21498.4
838.258	21459.99
838.583	21373.44
838.908	21233.78
839.233	21268.13
839.558	21191.75
839.883	21160.33
840.208	21104.52
840.533	21134.57
840.858	21064.29
841.182	21091.18
841.507	21115.81
841.832	20990.17
842.156	20913.56
842.481	20999.66
842.805	20832.88
843.13	20686.22
843.454	20775.71
843.778	20691.87
844.103	20613.23
844.427	20443.52
844.751	20700.91
845.075	20505.21
845.399	20393.57
845.723	20358.77
846.047	20463.85
846.371	20271.77
846.695	20219.57
847.019	20050.31
847.343	19980.03
847.666	19952.23
847.99	19899.8
848.313	19930.99
848.637	19678.34
848.96	19808.28
849.284	19693.48
849.607	19585.01
849.931	19563.77
850.254	19298.01
850.577	19366.48
850.9	19152.93
851.223	19191.12
851.546	18873.16
851.869	18953.16
852.192	19012.82
852.515	18855.31
852.838	18743
853.161	18731.47
853.483	18683.56
853.806	18518.37
854.129	18678.82
854.451	18448.09
854.774	18449.44
855.096	18352.95
855.419	18423.68
855.741	18333.06
856.063	18301.2
856.385	18157.02
856.708	18133.52
857.03	18077.25
857.352	18038.38
857.674	17963.13
857.996	17910.02
858.318	17816.69
858.64	17919.74
858.961	17819.63
859.283	17691.5
859.605	17686.98
859.926	17669.58
860.248	17554.1
860.57	17520.88
860.891	17573.31
861.212	17527.43
861.534	17357.72
861.855	17288.34
862.176	17366.76
862.498	17378.06
862.819	17295.58
863.14	17170.38
863.461	17273.2
863.782	17148.24
864.103	17059.65
864.424	17021.69
864.745	17048.58
865.065	16948.69
865.386	17008.13
865.707	16992.53
866.027	16975.81
866.348	16958.64
866.668	16994.79
866.989	16859.66
867.309	16755.25
867.63	16698.08
867.95	16729.04
868.27	16643.16
868.59	16729.04
868.91	16632.09
869.23	16650.17
869.55	16574.92
869.87	16657.18
870.19	16485.65
870.51	16553.67
870.83	16586.22
871.15	16397.29
871.469	16470.29
871.789	16495.6
872.109	16376.28
872.428	16301.48
872.748	16341.25
873.067	16345.77
873.386	16420.57
873.706	16327.24
874.025	16311.42
874.344	16146.91
874.663	16378.99
874.982	16179
875.301	16262.16
875.62	16150.3
875.939	16058.09
876.258	16101.48
876.577	16078.66
876.896	15926.57
877.214	16014.93
877.533	16077.76
877.852	16083.18
878.17	15941.94
878.489	15952.33
878.807	16013.8
879.125	15967.25
879.444	16011.54
879.762	15863.75
880.08	15884.99
880.398	15833.47
880.716	15891.09
881.034	15840.02
881.352	15849.74
881.67	15749.85
881.988	15708.95
882.306	15661.95
882.624	15787.14
882.941	15634.15
883.259	15613.36
883.577	15574.49
883.894	15472.12
884.212	15536.53
884.529	15466.25
884.846	15397.32
885.164	15527.94
885.481	15442.07
885.798	15430.77
886.115	15350.09
886.432	15393.93
886.75	15187.84
887.067	15293.6
887.383	15214.95
887.7	15259.92
888.017	15101.28
888.334	15182.86
888.651	15161.4
888.967	15120.94
889.284	14989.65
889.6	15013.6
889.917	14851.35
890.233	14933.6
890.55	14880.72
890.866	14862.19
891.182	14771.57
891.498	14752.37
891.815	14581.98
892.131	14589.88
892.447	14557.57
892.763	14578.13
893.079	14522.77
893.395	14449.55
893.71	14500.62
894.026	14433.96
894.342	14419.04
894.657	14381.3
894.973	14227.63
895.289	14247.75
895.604	14186.73
895.92	14097.02
896.235	14142.66
896.55	14075.55
896.865	14040.97
897.181	13926.4
897.496	14008.21
897.811	13864.93
898.126	13855.21
898.441	13777.25
898.756	13794.43
899.071	13650.25
899.386	13688.67
899.7	13482.8
900.015	13525.73
900.33	13358.28
900.644	13437.15
900.959	13391.95
901.273	13367.54
901.588	13285.06
901.902	13179.53
902.216	13165.74
902.531	13107.66
902.845	13070.38
903.159	13067.89
903.473	12985.41
903.787	12966.88
904.101	12934.11
904.415	12932.08
904.729	12895.69
905.042	12771.4
905.356	12721.01
905.67	12800.55
905.984	12677.39
906.297	12641.46
906.611	12488.92
906.924	12581.58
907.237	12514.46
907.551	12402.37
907.864	12372.99
908.177	12321.7
908.491	12403.05
908.804	12238.31
909.117	12258.42
909.43	12143.17
909.743	12049.16
910.056	12056.84
910.368	11952.44
910.681	11950.41
910.994	11893.01
911.307	11935.49
911.619	11787.47
911.932	11833.35
912.244	11661.6
912.557	11660.92
912.869	11596.97
913.181	11562.17
913.494	11540.7
913.806	11503.41
914.118	11462.28
914.43	11346.35
914.742	11364.43
915.054	11346.81
915.366	11324.21
915.678	11291.89
915.99	11218.67
916.302	11122.86
916.613	11077.89
916.925	11052.35
917.236	11133.7
917.548	10985.23
917.859	11000.15
918.171	10916.08
918.482	10918.79
918.794	10848.51
919.105	10858.91
919.416	10745.47
919.727	10688.52
920.038	10721.06
920.349	10575.98
920.66	10604.45
920.971	10576.88
921.282	10587.28
921.593	10502.99
921.903	10456.43
922.214	10383.44
922.525	10327.62
922.835	10266.61
923.146	10184.35
923.456	10199.72
923.767	10138.93
924.077	10127.63
924.387	10095.09
924.697	10100.74
925.008	10067.29
925.318	10006.5
925.628	10019.38
925.938	9964.7
926.248	9831.37
926.558	9861.87
926.867	9742.1
927.177	9766.06
927.487	9689.22
927.796	9658.04
928.106	9656.23
928.416	9573.75
928.725	9519.06
929.034	9540.98
929.344	9472.73
929.653	9464.6
929.962	9381.66
930.271	9277.48
930.581	9315.67
930.89	9209.91
931.199	9200.42
931.508	9113.64
931.817	9194.09
932.125	9123.81
932.434	9130.14
932.743	9032.97
933.051	9048.11
933.36	8988
933.669	8923.82
933.977	8786.87
934.286	8848.57
934.594	8763.6
934.902	8695.8
935.21	8681.11
935.519	8600.21
935.827	8660.55
936.135	8551.4
936.443	8482.7
936.751	8375.13
937.059	8475.7
937.367	8397.28
937.674	8398.41
937.982	8343.95
938.29	8312.99
938.597	8321.57
938.905	8159.55
939.213	8206.1
939.52	8158.64
939.827	8167.23
940.135	8078.19
940.442	8084.07
940.749	7998.87
941.056	8078.64
941.363	7985.54
941.67	7983.73
941.977	7865.32
942.284	7839.1
942.591	7844.3
942.898	7825.77
943.205	7773.79
943.511	7744.19
943.818	7680.46
944.125	7688.37
944.431	7626.68
944.738	7564.76
945.044	7512.78
945.35	7494.93
945.657	7435.27
945.963	7411.54
946.269	7402.05
946.575	7417.64
946.881	7340.36
947.187	7345.78
947.493	7331.09
947.799	7305.1
948.105	7217.42
948.41	7141.72
948.716	7141.49
949.022	7093.13
949.327	7089.29
949.633	7056.3
949.938	7028.73
950.244	6993.93
950.549	6948.28
950.854	7001.38
951.16	6923.65
951.465	6892.91
951.77	6842.52
952.075	6828.51
952.38	6778.79
952.685	6807.94
952.99	6685.69
953.294	6723.42
953.599	6678.91
953.904	6647.72
954.209	6579.47
954.513	6661.96
954.818	6572.47
955.122	6582.86
955.426	6534.05
955.731	6538.57
956.035	6496.54
956.339	6444.79
956.643	6494.5
956.948	6418.35
957.252	6416.99
957.556	6358.01
957.86	6364.34
958.163	6271.69
958.467	6272.59
958.771	6281.63
959.075	6251.35
959.378	6145.14
959.682	6201.86
959.985	6120.28
960.289	6101.75
960.592	6075.76
960.896	6106.27
961.199	6066.49
961.502	6027.17
961.805	6013.16
962.108	5991.69
962.411	5927.97
962.714	5940.17
963.017	5906.05
963.32	5946.72
963.623	5871.92
963.926	5930.45
964.228	5830.79
964.531	5834.18
964.833	5805.71
965.136	5750.34
965.438	5672.61
965.741	5683.45
966.043	5659.95
966.345	5672.38
966.648	5639.61
966.95	5562.78
967.252	5580.4
967.554	5565.04
967.856	5523
968.158	5482.1
968.46	5475.1
968.761	5443.23
969.063	5431.48
969.365	5427.41
969.666	5404.82
969.968	5324.37
970.269	5335.89
970.571	5264.93
970.872	5276.91
971.174	5226.74
971.475	5217.48
971.776	5199.4
972.077	5187.87
972.378	5148.55
972.679	5098.61
972.98	5129.57
973.281	5071.49
973.582	5049.8
973.883	5009.35
974.183	5031.72
974.484	5000.08
974.785	4941.55
975.085	4950.82
975.386	4939.29
975.686	4887.99
975.986	4857.49
976.287	4837.82
976.587	4806.19
976.887	4816.36
977.187	4770.71
977.487	4775.45
977.787	4754.89
978.087	4681.9
978.387	4679.86
978.687	4657.04
978.987	4632.41
979.286	4639.86
979.586	4613.2
979.885	4572.3
980.185	4532.75
980.484	4523.71
980.784	4506.99
981.083	4481.68
981.382	4503.82
981.682	4446.87
981.981	4430.38
982.28	4426.31
982.579	4393.32
982.878	4363.03
983.177	4321.68
983.475	4333.43
983.774	4276.26
984.073	4272.42
984.372	4213.21
984.67	4217.05
984.969	4206.65
985.267	4188.12
985.566	4206.2
985.864	4108.58
986.162	4148.13
986.461	4154
986.759	4138.63
987.057	4069.48
987.355	4043.04
987.653	4054.57
987.951	4021.12
988.249	3996.72
988.547	3999.65
988.844	3987.9
989.142	3928.7
989.44	3941.13
989.737	3934.12
990.035	3912.88
990.332	3898.19
990.63	3870.62
990.927	3830.85
991.224	3800.56
991.521	3827.91
991.819	3770.96
992.116	3813.67
992.413	3776.16
992.71	3744.75
993.006	3744.29
993.303	3732.09
993.6	3684.41
993.897	3668.36
994.193	3660.45
994.49	3638.31
994.787	3671.53
995.083	3582.49
995.379	3554.92
995.676	3565.77
995.972	3589.27
996.268	3513.11
996.565	3475.15
996.861	3432.66
997.157	3480.35
997.453	3478.54
997.749	3405.55
998.044	3422.49
998.34	3398.99
998.636	3336.4
998.932	3348.37
999.227	3353.12
999.523	3356.96
999.818	3305.89
1000.114	3301.82
1000.409	3269.96
1000.704	3273.8
1001	3305.21
1001.295	3239.22
1001.59	3227.25
1001.885	3215.95
1002.18	3203.07
1002.475	3201.71
1002.77	3132.78
1003.065	3125.1
1003.359	3127.81
1003.654	3079.9
1003.949	3126.01
1004.243	3055.72
1004.538	3035.84
1004.832	3068.83
1005.127	3037.65
1005.421	3014.14
1005.715	2978.66
1006.009	2944.77
1006.304	2947.25
1006.598	2945.67
1006.892	2941.6
1007.186	2888.05
1007.48	2860.7
1007.773	2877.65
1008.067	2831.55
1008.361	2863.87
1008.655	2816.63
1008.948	2762.63
1009.242	2801.72
1009.535	2773.02
1009.829	2743.64
1010.122	2731.67
1010.415	2714.04
1010.708	2676.3
1011.001	2664.1
1011.295	2678.56
1011.588	2629.52
1011.881	2618.67
1012.173	2645.11
1012.466	2604.44
1012.759	2586.58
1013.052	2562.63
1013.344	2565.79
1013.637	2540.03
1013.93	2503.87
1014.222	2493.25
1014.514	2468.62
1014.807	2466.81
1015.099	2432.46
1015.391	2469.75
1015.683	2468.85
1015.976	2415.06
1016.268	2380.94
1016.56	2370.55
1016.851	2358.12
1017.143	2366.93
1017.435	2350.88
1017.727	2321.96
1018.018	2312.92
1018.31	2293.03
1018.602	2278.34
1018.893	2240.6
1019.185	2260.27
1019.476	2236.54
1019.767	2211.68
1020.058	2210.1
1020.35	2159.03
1020.641	2152.92
1020.932	2138.69
1021.223	2112.02
1021.514	2118.12
1021.804	2096.43
1022.095	2081.06
1022.386	2058.01
1022.677	2059.82
1022.967	2063.43
1023.258	2013.04
1023.548	2030.67
1023.839	1990.67
1024.129	1993.61
1024.419	2000.16
1024.709	1934.4
1025	1967.17
1025.29	1927.17
1025.58	1923.33
1025.87	1891.69
1026.16	1877.9
1026.449	1896.43
1026.739	1855.08
1027.029	1862.99
1027.319	1823.67
1027.608	1817.34
1027.898	1794.74
1028.187	1776.89
1028.477	1781.41
1028.766	1766.27
1029.055	1758.13
1029.344	1749.09
1029.634	1720.39
1029.923	1721.75
1030.212	1689.43
1030.501	1696.21
1030.79	1653.95
1031.078	1651.24
1031.367	1634.07
1031.656	1625.48
1031.945	1620.96
1032.233	1603.11
1032.522	1608.98
1032.81	1600.62
1033.099	1590.45
1033.387	1547.06
1033.675	1535.31
1033.963	1559.94
1034.251	1530.34
1034.54	1506.61
1034.828	1518.36
1035.116	1509.1
1035.403	1475.43
1035.691	1486.27
1035.979	1445.15
1036.267	1464.13
1036.554	1439.5
1036.842	1450.57
1037.129	1426.84
1037.417	1382.32
1037.704	1405.82
1037.992	1402.43
1038.279	1372.15
1038.566	1390.01
1038.853	1390.01
1039.14	1390.01
