Data from aluminium_macbook_case_FLMS001491_075.txt Node
Date: Tue Feb 07 10:44:11 GMT 2017
User: dcchb
Spectrometer: FLMS00149
Trigger mode: 0
Integration Time (sec): 2.000000E-2
Scans to average: 10
Electric dark correction enabled: true
Nonlinearity correction enabled: false
Boxcar width: 0
XAxis mode: Wavelengths
Number of Pixels in Spectrum: 2048
>>>>>Begin Spectral Data<<<<<
341.393	-19.76
341.776	-19.76
342.16	-19.76
342.543	-67.89
342.927	-63.15
343.31	-70.15
343.693	-76.71
344.077	-65.18
344.46	-37.84
344.843	-56.59
345.226	-32.19
345.61	-50.72
345.993	-11.85
346.376	-15.01
346.759	6.68
347.142	26.12
347.525	50.07
347.908	54.36
348.291	73.8
348.674	103.85
349.057	101.37
349.44	131.2
349.823	124.19
350.206	209.39
350.588	249.39
350.971	256.62
351.354	286.9
351.737	285.77
352.119	315.37
352.502	310.85
352.884	342.04
353.267	337.07
353.65	338.2
354.032	359.21
354.414	366.67
354.797	373.9
355.179	387.46
355.562	396.05
355.944	405.09
356.326	407.57
356.709	432.43
357.091	402.38
357.473	409.16
357.855	409.61
358.238	411.42
358.62	413.68
359.002	415.26
359.384	414.13
359.766	427.46
360.148	439.66
360.53	448.48
360.912	410.96
361.294	440.57
361.676	434.92
362.057	434.24
362.439	423.62
362.821	429.72
363.203	443.51
363.584	442.83
363.966	417.29
364.348	437.63
364.729	430.17
365.111	435.14
365.493	434.01
365.874	451.87
366.256	435.6
366.637	436.73
367.019	429.95
367.4	438.31
367.781	430.85
368.163	441.47
368.544	433.11
368.925	450.28
369.306	459.1
369.688	433.56
370.069	443.96
370.45	456.84
370.831	448.25
371.212	464.97
371.593	474.92
371.974	474.01
372.355	458.19
372.736	451.19
373.117	463.84
373.498	469.49
373.879	442.15
374.26	479.21
374.641	466.56
375.021	455.26
375.402	486.67
375.783	501.36
376.163	536.16
376.544	539.55
376.925	504.29
377.305	517.63
377.686	513.56
378.066	516.72
378.447	543.84
378.827	552.43
379.208	548.14
379.588	551.3
379.968	568.25
380.349	571.86
380.729	569.15
381.109	563.95
381.489	583.39
381.87	572.77
382.25	600.79
382.63	611.64
383.01	609.15
383.39	601.24
383.77	590.17
384.15	602.6
384.53	613.9
384.91	641.01
385.29	618.19
385.67	655.93
386.049	664.74
386.429	681.47
386.809	685.31
387.189	677.17
387.568	679.66
387.948	679.66
388.328	698.87
388.707	688.24
389.087	716.72
389.466	709.04
389.846	743.38
390.225	755.36
390.605	749.71
390.984	760.56
391.363	768.24
391.743	763.5
392.122	794.46
392.501	802.59
392.881	815.02
393.26	820.67
393.639	837.39
394.018	824.51
394.397	854.12
394.776	870.16
395.155	903.15
395.534	910.16
395.913	918.07
396.292	885.75
396.671	913.55
397.05	917.17
397.429	922.14
397.808	926.88
398.186	948.35
398.565	949.03
398.944	946.54
399.323	970.05
399.701	973.89
400.08	991.51
400.458	989.03
400.837	1010.27
401.215	1019.76
401.594	1055.92
401.972	1063.15
402.351	1087.56
402.729	1066.31
403.107	1105.41
403.486	1108.8
403.864	1102.02
404.242	1152.19
404.62	1127.56
404.999	1165.97
405.377	1169.81
405.755	1188.12
406.133	1183.15
406.511	1218.17
406.889	1255.46
407.267	1259.08
407.645	1279.19
408.023	1284.16
408.401	1326.42
408.779	1314.44
409.156	1347.21
409.534	1379.3
409.912	1377.27
410.29	1421.56
410.667	1448.68
411.045	1443.25
411.422	1487.32
411.8	1469.47
412.178	1497.94
412.555	1565.51
412.933	1568.22
413.31	1571.84
413.687	1602.34
414.065	1615.9
414.442	1637.6
414.819	1651.61
415.197	1689.12
415.574	1688.22
415.951	1728.44
416.328	1749.46
416.705	1749.23
417.082	1753.75
417.46	1783.81
417.837	1821.55
418.214	1864.03
418.591	1882.34
418.967	1850.25
419.344	1895.22
419.721	1961.43
420.098	1934.09
420.475	1973.41
420.852	2010.47
421.228	2019.28
421.605	2010.7
421.982	2021.09
422.358	2058.6
422.735	2128.21
423.111	2109.45
423.488	2177.7
423.864	2166.4
424.241	2205.27
424.617	2225.83
424.994	2278.94
425.37	2243.23
425.746	2301.54
426.123	2311.03
426.499	2347.18
426.875	2387.86
427.251	2404.81
427.627	2473.28
428.003	2494.52
428.379	2516.45
428.756	2551.47
429.132	2612.26
429.507	2616.78
429.883	2654.75
430.259	2774.07
430.635	2729.55
431.011	2790.11
431.387	2853.61
431.763	2889.32
432.138	2907.85
432.514	2953.72
432.89	3009.09
433.265	3048.18
433.641	3103.77
434.016	3110.78
434.392	3157.11
434.767	3242.98
435.143	3229.87
435.518	3240.04
435.894	3315.29
436.269	3364.11
436.644	3411.56
437.02	3459.47
437.395	3444.33
437.77	3488.85
438.145	3537.89
438.52	3620.37
438.895	3628.73
439.271	3673.93
439.646	3746.47
440.021	3764.77
440.395	3807.26
440.77	3815.85
441.145	3834.15
441.52	3910.76
441.895	3922.74
442.27	3998.67
442.645	3957.09
443.019	4054.26
443.394	4013.35
443.769	4091.09
444.143	4048.83
444.518	4151.88
444.892	4127.25
445.267	4210.19
445.641	4228.49
446.016	4221.03
446.39	4274.14
446.764	4371.76
447.139	4337.87
447.513	4418.54
447.887	4404.98
448.262	4432.1
448.636	4505.32
449.01	4529.05
449.384	4596.39
449.758	4652.21
450.132	4721.58
450.506	4716.84
450.88	4795.71
451.254	4781.47
451.628	4873.9
452.002	4885.65
452.376	4999.32
452.75	5000.9
453.123	5061.69
453.497	5113.21
453.871	5154.12
454.244	5282.47
454.618	5272.53
454.992	5388.91
455.365	5428.01
455.739	5532.86
456.112	5580.77
456.486	5630.04
456.859	5679.98
457.232	5832.97
457.606	5796.81
457.979	5960.2
458.352	6015.34
458.725	6135.78
459.099	6190.92
459.472	6285.39
459.845	6401.99
460.218	6469.11
460.591	6500.75
460.964	6524.7
461.337	6715.66
461.71	6813.51
462.083	6837.01
462.456	6872.49
462.829	6921.3
463.201	7065.93
463.574	7083.33
463.947	7211.69
464.32	7411.68
464.692	7450.33
465.065	7502.08
465.438	7610.77
465.81	7749.98
466.183	7845.34
466.555	8033.14
466.928	8057.77
467.3	8051.67
467.672	8242.85
468.045	8495.72
468.417	8485.55
468.789	8543.41
469.161	8691.65
469.534	8830.86
469.906	8936.39
470.278	9089.15
470.65	9231.52
471.022	9348.36
471.394	9502.02
471.766	9560.78
472.138	9760.55
472.51	10039.19
472.882	10106.53
473.253	10266.3
473.625	10417.25
473.997	10661.09
474.369	10654.99
474.74	10788.32
475.112	11008.2
475.484	11248.42
475.855	11366.61
476.227	11479.15
476.598	11943.32
476.97	11970.89
477.341	12242.74
477.713	12481.15
478.084	12584.43
478.455	12943.29
478.827	12998.88
479.198	13442.26
479.569	13428.7
479.94	13814.68
480.311	13935.13
480.682	14313.2
481.053	14593.42
481.424	14818.27
481.795	14934.65
482.166	15201.99
482.537	15394.52
482.908	15698.7
483.279	15838.81
483.65	16172.81
484.021	16469.07
484.391	16584.55
484.762	16890.76
485.133	17028.83
485.503	17340.91
485.874	17708.14
486.244	17918.53
486.615	18223.38
486.985	18354.22
487.356	18868.33
487.726	18921.66
488.097	19479.39
488.467	19413.18
488.837	19844.58
489.207	20113.04
489.578	20452.47
489.948	20593.48
490.318	20901.95
490.688	21021.04
491.058	21343.07
491.428	21564.31
491.798	21796.16
492.168	22271.86
492.538	22324.51
492.908	22578.74
493.278	22853.54
493.648	22816.02
494.017	23113.87
494.387	23452.39
494.757	23590.24
495.126	23888.99
495.496	23914.3
495.866	24145.03
496.235	24465.25
496.605	24684.45
496.974	24855.52
497.344	25083.76
497.713	25263.87
498.082	25475.16
498.452	25762.39
498.821	25989.95
499.19	26138.87
499.559	26379.77
499.928	26468.13
500.298	26747.45
500.667	26911.51
501.036	26996.71
501.405	27247.77
501.774	27294.1
502.143	27683.47
502.512	27756.23
502.88	28052.27
503.249	28051.82
503.618	28174.3
503.987	28389.66
504.356	28376.33
504.724	28707.62
505.093	28887.5
505.462	29019.25
505.83	29348.96
506.199	29566.36
506.567	29874.37
506.936	29769.97
507.304	30317.3
507.672	30423.73
508.041	30521.81
508.409	30816.27
508.777	31103.72
509.145	31361.34
509.514	31352.52
509.882	31783.92
510.25	31841.32
510.618	32017.82
510.986	32286.06
511.354	32682.66
511.722	32976.44
512.09	33091.01
512.458	33325.35
512.826	33564.44
513.193	33741.84
513.561	33759.01
513.929	34130.3
514.297	34494.14
514.664	34690.29
515.032	34652.1
515.4	35071.52
515.767	35147.9
516.135	35472.87
516.502	35342.02
516.869	35967.77
517.237	36091.61
517.604	36135.45
517.972	36546.06
518.339	36754.41
518.706	36798.71
519.073	37094.29
519.44	37460.61
519.808	37818.34
520.175	37988.28
520.542	38498.1
520.909	38651.77
521.276	38632.78
521.643	39027.58
522.009	39359.09
522.376	39723.15
522.743	40042.24
523.11	40395.68
523.477	40712.5
523.843	40991.82
524.21	41406.5
524.577	41672.93
524.943	41767.16
525.31	42126.48
525.676	42429.97
526.043	42662.28
526.409	42819.57
526.776	43289.61
527.142	43311.08
527.508	43594.24
527.874	43985.86
528.241	44188.8
528.607	44390.6
528.973	44747.43
529.339	44760.98
529.705	45036.01
530.071	45427.63
530.437	45590.11
530.803	45818.58
531.169	46176.31
531.535	46083.89
531.901	46340.6
532.267	46547.38
532.632	46875.28
532.998	47040.92
533.364	47103.97
533.73	47376.96
534.095	47722.49
534.461	47932.65
534.826	48151.18
535.192	48255.81
535.557	48505.97
535.923	48476.82
536.288	48792.97
536.653	48973.75
537.019	48938.5
537.384	49158.61
537.749	49225.5
538.114	49289.23
538.479	49515.89
538.845	49666.84
539.21	49637.92
539.575	49797.01
539.94	49976.21
540.305	50197.23
540.67	50134.4
541.034	50347.05
541.399	50417.56
541.764	50586.82
542.129	50611.23
542.494	50742.52
542.858	50890.99
543.223	50815.97
543.587	51244.2
543.952	51181.83
544.316	51345.9
544.681	51300.02
545.045	51572.33
545.41	51650.29
545.774	51748.82
546.138	51813.45
546.503	51941.59
546.867	52045.99
547.231	52385.87
547.595	52372.54
547.959	52553.1
548.324	52542.7
548.688	52672.87
549.052	52755.12
549.416	52897.04
549.779	53026.98
550.143	53127.09
550.507	53351.94
550.871	53373.19
551.235	53404.82
551.599	53638.49
551.962	53713.74
552.326	53739.96
552.689	53961.87
553.053	53763.69
553.417	53964.58
553.78	54438.47
554.143	54242.99
554.507	54412.03
554.87	54511.46
555.234	54724.79
555.597	54604.12
555.96	54756.65
556.323	54885.01
556.686	54871.68
557.05	55054.05
557.413	55137.66
557.776	55256.3
558.139	55396.18
558.502	55404.55
558.865	55630.75
559.228	55850.18
559.59	55875.27
559.953	55972.67
560.316	56209.04
560.679	56216.73
561.041	56383.96
561.404	56491.75
561.767	56705.75
562.129	56642.93
562.492	56962.25
562.854	56985.52
563.217	57041.79
563.579	57171.05
563.941	57301.9
564.304	57400.88
564.666	57578.27
565.028	57532.17
565.39	57723.36
565.753	57819.62
566.115	57876.12
566.477	58101.88
566.839	58095.1
567.201	58274.53
567.563	58297.58
567.925	58459.38
568.287	58478.59
568.648	58522.66
569.01	58704.57
569.372	58731.01
569.734	58694.63
570.095	58881.29
570.457	58941.85
570.819	59021.85
571.18	59003.1
571.542	59173.71
571.903	59275.4
572.265	59321.73
572.626	59376.64
572.987	59351.56
573.349	59452.8
573.71	59662.74
574.071	59633.81
574.432	59781.38
574.794	59893.92
575.155	59842.4
575.516	59853.92
575.877	60017.98
576.238	60010.53
576.599	60123.29
576.96	60104.99
577.32	60158.77
577.681	60279.9
578.042	60307.69
578.403	60344.53
578.763	60371.87
579.124	60428.59
579.485	60480.8
579.845	60537.74
580.206	60457.29
580.566	60455.94
580.927	60563.73
581.287	60603.28
581.648	60520.12
582.008	60670.85
582.368	60547.69
582.728	60645.99
583.089	60566.9
583.449	60606.67
583.809	60658.19
584.169	60652.09
584.529	60637.18
584.889	60790.17
585.249	60597.4
585.609	60538.87
585.969	60715.14
586.329	60552.21
586.688	60663.16
587.048	60609.38
587.408	60551.08
587.768	60596.95
588.127	60634.24
588.487	60605.09
588.846	60808.25
589.206	60666.1
589.565	60667.91
589.925	60808.02
590.284	60741.58
590.643	60836.72
591.003	60775.93
591.362	60848.47
591.721	60768.7
592.08	60791.97
592.44	60862.48
592.799	60892.09
593.158	60830.17
593.517	60868.81
593.876	60877.17
594.235	60896.61
594.593	60899.32
594.952	60958.52
595.311	60828.58
595.67	60849.83
596.029	61025.87
596.387	60998.98
596.746	61048.24
597.104	60904.51
597.463	60910.62
597.822	61006.21
598.18	60901.58
598.538	60880.56
598.897	61086.43
599.255	60890.96
599.613	61191.96
599.972	61008.01
600.33	61015.92
600.688	60958.07
601.046	61011.63
601.404	61136.15
601.762	61035.81
602.12	61152.87
602.478	61146.77
602.836	61158.29
603.194	61066.32
603.552	61142.7
603.91	61031.29
604.268	61216.6
604.625	61129.37
604.983	61279.19
605.341	61142.7
605.698	61305.63
606.056	61369.59
606.413	61339.31
606.771	61430.6
607.128	61500.66
607.485	61409.13
607.843	61405.74
608.2	61537.72
608.557	61619.98
608.914	61502.69
609.272	61680.31
609.629	61666.75
609.986	61780.88
610.343	61645.29
610.7	61753.98
611.057	61761.44
611.414	61703.82
611.771	61709.69
612.127	61885.73
612.484	61801.67
612.841	61806.64
613.198	61710.37
613.554	61789.24
613.911	61903.13
614.267	61816.81
614.624	61862.23
614.98	61898.61
615.337	61967.54
615.693	61940.65
616.05	61867.88
616.406	62026.29
616.762	61962.11
617.118	61956.69
617.475	61970.25
617.831	62048.89
618.187	61971.15
618.543	62026.97
618.899	62100.19
619.255	62063.35
619.611	62037.37
619.967	62117.36
620.323	62179.51
620.678	62046.18
621.034	62010.7
621.39	62041.21
621.746	61995.11
622.101	62329.56
622.457	62045.28
622.812	62157.14
623.168	62227.87
623.523	62183.12
623.879	62194.65
624.234	62087.99
624.589	62198.94
624.945	62301.54
625.3	62257.93
625.655	62285.04
626.01	62289.56
626.365	62288.88
626.72	62247.76
627.075	62185.61
627.43	62247.53
627.785	62225.84
628.14	62246.63
628.495	62220.19
628.85	62200.53
629.205	62082.11
629.559	62192.84
629.914	62111.26
630.269	62021.1
630.623	62048.44
630.978	62033.75
631.332	62107.42
631.687	62032.85
632.041	61927.76
632.396	61968.67
632.75	61771.38
633.104	61869.69
633.459	61769.58
633.813	61759.63
634.167	61770.93
634.521	61674.21
634.875	61739.52
635.229	61624.95
635.583	61554.44
635.937	61570.49
636.291	61547.66
636.645	61523.03
636.999	61405.52
637.352	61487.1
637.706	61330.72
638.06	61460.21
638.413	61382.69
638.767	61319.87
639.121	61373.88
639.474	61182.02
639.828	61184.73
640.181	61270.38
640.534	61235.81
640.888	61190.61
641.241	61056.83
641.594	61145.64
641.947	61137.73
642.301	61071.52
642.654	61119.65
643.007	61133.89
643.36	61123.94
643.713	60995.59
644.066	61128.92
644.419	60975.92
644.771	60895.7
645.124	60610.06
645.477	60588.14
645.83	60433.79
646.182	60313.57
646.535	60244.42
646.888	60207.36
647.24	60102.05
647.593	60275.6
647.945	60149.05
648.298	60072.22
648.65	59989.96
649.002	59933.24
649.355	60051.2
649.707	59987.7
650.059	60014.59
650.411	60271.76
650.763	60316.96
651.115	60539.1
651.467	60438.09
651.819	60389.5
652.171	60333.23
652.523	60280.12
652.875	60283.29
653.227	60155.38
653.578	60253.91
653.93	60182.05
654.282	60078.32
654.633	59996.29
654.985	60048.72
655.337	60084.42
655.688	60006.68
656.039	60040.58
656.391	59837.2
656.742	59883.98
657.094	59963.07
657.445	59977.31
657.796	59939.79
658.147	59908.16
658.498	59830.64
658.849	59943.18
659.2	59869.29
659.551	59850.53
659.902	59921.04
660.253	59845.11
660.604	59893.24
660.955	59768.27
661.306	59840.36
661.656	59772.11
662.007	59815.73
662.358	59836.75
662.708	59803.3
663.059	59746.13
663.409	59670.87
663.76	59829.51
664.11	59778.89
664.461	59836.07
664.811	59858.67
665.161	59823.19
665.511	59697.31
665.862	59687.37
666.212	59719.01
666.562	59756.52
666.912	59685.79
667.262	59646.47
667.612	59669.52
667.962	59599.69
668.312	59546.36
668.662	59715.17
669.011	59525.12
669.361	59541.61
669.711	59436.76
670.06	59448.96
670.41	59403.76
670.76	59313.82
671.109	59310.66
671.459	59345.91
671.808	59226.82
672.157	59290.09
672.507	59119.25
672.856	59129.87
673.205	59151.11
673.554	59253.26
673.904	59100.27
674.253	59231.11
674.602	59100.27
674.951	58672.26
675.3	58555.2
675.649	58988.18
675.998	58907.73
676.346	59008.75
676.695	58995.64
677.044	58721.52
677.393	58931.91
677.741	58938.92
678.09	58854.62
678.438	58837
678.787	58834.29
679.135	58841.97
679.484	58690.79
679.832	58791.12
680.181	58708.41
680.529	58705.25
680.877	58669.54
681.225	58636.55
681.573	58788.41
681.922	58598.81
682.27	58458.03
682.618	58595.65
682.966	58505.48
683.314	58569.43
683.661	58464.13
684.009	58338.25
684.357	58323.79
684.705	58315.43
685.053	58308.65
685.4	58271.36
685.748	58163.8
686.095	58133.29
686.443	57969.45
686.79	58017.13
687.138	58035.44
687.485	57959.96
687.832	57946.4
688.18	57866.18
688.527	57734.65
688.874	57710.7
689.221	57660.08
689.568	57588.44
689.915	57470.25
690.262	57459.63
690.609	57345.29
690.956	57252.18
691.303	57239.3
691.65	57016.93
691.997	57093.99
692.344	56881.8
692.69	56816.49
693.037	56762.93
693.383	56575.14
693.73	56719.09
694.077	56462.82
694.423	56436.84
694.769	56311.19
695.116	56284.3
695.462	56209.95
695.808	56174.24
696.155	56143.06
696.501	56042.72
696.847	55963.4
697.193	55719.11
697.539	55831.88
697.885	55684.31
698.231	55602.73
698.577	55535.62
698.923	55541.04
699.269	55351.67
699.614	55300.82
699.96	55205.46
700.306	55297.88
700.651	55135.63
700.997	55064.22
701.342	55003.2
701.688	54993.48
702.033	54827.61
702.379	54857.67
702.724	54679.37
703.069	54922.07
703.415	54552.37
703.76	54520.05
704.105	54567.28
704.45	54517.34
704.795	54251.36
705.14	54211.36
705.485	54269.21
705.83	54081.64
706.175	54184.24
706.52	53991.48
706.865	53906.28
707.209	53877.81
707.554	53766.17
707.899	53847.75
708.243	53758.04
708.588	53664.93
708.932	53453.18
709.277	53461.09
709.621	53431.72
709.966	53158.5
710.31	53275.11
710.654	52979.07
710.998	53032.63
711.342	53064.72
711.687	52841.68
712.031	52730.72
712.375	52587.9
712.719	52626.77
713.063	52402.37
713.407	52651.62
713.75	52324.63
714.094	52387.68
714.438	52131.19
714.782	52195.82
715.125	51996.73
715.469	52000.79
715.812	51837.41
716.156	51709.05
716.499	51622.72
716.843	51701.37
717.186	51432.45
717.53	51633.57
717.873	51477.42
718.216	51421.37
718.559	51189.52
718.902	51093.25
719.246	51096.18
719.589	51042.85
719.932	50968.28
720.275	50804.44
720.617	50750.21
720.96	50703.88
721.303	50646.71
721.646	50661.62
721.989	50530.55
722.331	50611.23
722.674	50411.01
723.016	50487.61
723.359	50367.16
723.701	50351.57
724.044	50291.46
724.386	50095.99
724.729	50217.56
725.071	50064.8
725.413	50044.69
725.755	50107.96
726.097	49909.1
726.439	49732.15
726.782	49871.58
727.124	49969.66
727.465	49760.4
727.807	49740.06
728.149	49674.98
728.491	49539.62
728.833	49617.35
729.175	49481.76
729.516	49322.9
729.858	49250.13
730.199	49357.7
730.541	49297.81
730.882	49155.9
731.224	49440.41
731.565	49024.83
731.906	49039.29
732.248	49062.57
732.589	48727.66
732.93	48616.93
733.271	48693.31
733.612	48612.86
733.953	48665.29
734.294	48571.96
734.635	48512.75
734.976	48582.13
735.317	48179.65
735.658	48208.13
735.999	48026.21
736.339	47961.58
736.68	48027.56
737.021	47832.77
737.361	47642.94
737.702	47809.72
738.042	47760.91
738.383	47581.47
738.723	47447.02
739.063	47287.92
739.404	47357.07
739.744	47272.1
740.084	46948.27
740.424	47007.93
740.764	46917.31
741.104	46948.5
741.444	46804.32
741.784	46665.34
742.124	46685.23
742.464	46705.79
742.804	46453.59
743.143	46360.49
743.483	46365.91
743.823	46139.7
744.162	46074.17
744.502	46303.09
744.841	45856.1
745.181	46088.86
745.52	45813.61
745.86	45871.92
746.199	45796.66
746.538	45671.92
746.877	45733.39
747.216	45698.36
747.556	45612.26
747.895	45548.99
748.234	45459.27
748.573	45220.86
748.911	45231.25
749.25	45267.41
749.589	45098.83
749.928	45169.11
750.267	45218.6
750.605	44967.76
750.944	44865.84
751.283	44851.15
751.621	44866.07
751.96	44670.14
752.298	44666.3
752.636	44688.9
752.975	44509.69
753.313	44295.46
753.651	44603.47
753.989	44243.71
754.327	44173.65
754.666	44064.73
755.004	43920.33
755.342	44023.83
755.679	43913.1
756.017	43661.8
756.355	43668.13
756.693	43501.13
757.031	43577.74
757.368	43289.16
757.706	43294.36
758.044	43172.33
758.381	43190.4
758.719	42900.24
759.056	42864.54
759.394	42735.27
759.731	42473.59
760.068	42331.22
760.405	42142.75
760.743	42083.77
761.08	42069.08
761.417	41834.28
761.754	41762.87
762.091	41683.1
762.428	41564.01
762.765	41109.33
763.102	41299.61
763.438	41010.57
763.775	40732.16
764.112	40745.5
764.449	40758.83
764.785	40614.43
765.122	40291.72
765.458	40148.22
765.795	40053.99
766.131	39958.85
766.467	39830.04
766.804	39614.9
767.14	39350.05
767.476	39387.11
767.812	39103.73
768.148	39152.32
768.485	38956.84
768.821	38686.79
769.157	38670.75
769.492	38611.54
769.828	38512.56
770.164	38163.64
770.5	38040.93
770.836	38073.48
771.171	37714.16
771.507	37610.89
771.842	37378.13
772.178	37358.01
772.513	37409.31
772.849	37275.08
773.184	37007.52
773.519	37028.98
773.855	36776.56
774.19	36759.16
774.525	36631.03
774.86	36556.45
775.195	36438.49
775.53	36241.21
775.865	36104.04
776.2	35907.66
776.535	35839.86
776.87	35680.09
777.205	35621.11
777.539	35410.27
777.874	35534.33
778.209	35075.14
778.543	35262.25
778.878	35029.04
779.212	34989.72
779.547	34881.47
779.881	34877.85
780.215	34580.46
780.55	34643.96
780.884	34481.25
781.218	34425.89
781.552	34304.08
781.886	34145.9
782.22	33791.33
782.554	33823.64
782.888	33703.87
783.222	33472.69
783.556	33289.42
783.889	33235.86
784.223	32987.28
784.557	33114.74
784.89	33074.29
785.224	32955.42
785.557	32721.07
785.891	32584.36
786.224	32534.86
786.558	32490.12
786.891	32098.04
787.224	31876.13
787.557	31934.88
787.891	31759.97
788.224	31648.79
788.557	31781.89
788.89	31657.6
789.223	31518.39
789.556	31311.39
789.888	31117.95
790.221	30931.29
790.554	30929.48
790.887	30724.29
791.219	30630.51
791.552	30529.04
791.884	30325.88
792.217	30174.93
792.549	30205.21
792.882	29886.35
793.214	29850.64
793.546	29731.55
793.879	29525.68
794.211	29370.2
794.543	29466.7
794.875	29313.48
795.207	29277.1
795.539	29153.71
795.871	29151.23
796.203	28823.55
796.535	28680.28
796.867	28642.99
797.198	28485.71
797.53	28553.5
797.862	28330.23
798.193	28200.06
798.525	28137.92
798.856	28020.18
799.188	27881.2
799.519	27712.39
799.85	27590.14
800.182	27622.23
800.513	27666.52
800.844	27281.67
801.175	27468.78
801.506	27309.24
801.837	27315.57
802.168	27295.45
802.499	27032.18
802.83	26998.06
803.161	26991.06
803.491	26887.33
803.822	26863.38
804.153	26725.07
804.483	26573.67
804.814	26476.49
805.145	26490.73
805.475	26451.41
805.805	26259.55
806.136	26292.77
806.466	26290.74
806.796	26334.58
807.126	26211.19
807.457	26107.46
807.787	26194.92
808.117	26053.91
808.447	25911.08
808.777	26020.91
809.107	25939.78
809.436	25799.45
809.766	25720.58
810.096	25654.82
810.426	25475.84
810.755	25597.42
811.085	25575.95
811.414	25527.37
811.744	25297.99
812.073	25215.28
812.403	25238.11
812.732	25065.46
813.061	25077.89
813.39	24990.66
813.719	25043.76
814.049	24984.78
814.378	24872.02
814.707	24888.74
815.036	24705.47
815.365	24661.17
815.693	24428.64
816.022	24463.66
816.351	24391.58
816.68	24200.62
817.008	24218.93
817.337	24128.08
817.665	24069.1
817.994	24023.68
818.322	24043.56
818.651	23960.18
818.979	23794.08
819.307	23870.69
819.636	23691.71
819.964	23606.51
820.292	23696.68
820.62	23568.55
820.948	23509.11
821.276	23589.56
821.604	23421.21
821.932	23476.12
822.259	23531.26
822.587	23509.34
822.915	23350.47
823.243	23456.69
823.57	23338.04
823.898	23381.89
824.225	23338.04
824.553	23234.32
824.88	23299.85
825.207	23326.97
825.535	23227.09
825.862	23186.86
826.189	23128.11
826.516	23274.77
826.843	23258.72
827.17	23169.24
827.497	23208.1
827.824	23097.15
828.151	23216.01
828.478	23131.72
828.805	23204.49
829.131	23139.86
829.458	23139.86
829.785	22972.63
830.111	23026.87
830.438	23128.11
830.764	23011.95
831.09	23064.61
831.417	23030.26
831.743	22936.7
832.069	23026.64
832.395	22970.14
832.722	23070.25
833.048	22958.17
833.374	22897.15
833.7	22827.78
834.026	22886.31
834.351	22933.76
834.677	22891.95
835.003	22974.21
835.329	22970.14
835.654	22896.7
835.98	22800.66
836.306	22982.8
836.631	22788.68
836.956	22804.95
837.282	22966.75
837.607	22796.36
837.932	22679.76
838.258	22769.47
838.583	22779.42
838.908	22558.4
839.233	22741.68
839.558	22626.42
839.883	22568.8
840.208	22663.26
840.533	22593.21
840.858	22600.89
841.182	22526.09
841.507	22549.14
841.832	22503.49
842.156	22385.75
842.481	22374.45
842.805	22318.86
843.13	22269.82
843.454	22154.12
843.778	22177.62
844.103	22123.16
844.427	21963.17
844.751	22098.98
845.075	22118.87
845.399	21905.31
845.723	21921.58
846.047	21828.48
846.371	21700.12
846.695	21632.33
847.019	21546.68
847.343	21466
847.666	21283.41
847.99	21160.7
848.313	21216.97
848.637	21067.82
848.96	20982.85
849.284	20935.85
849.607	20856.75
849.931	20842.74
850.254	20752.35
850.577	20508.74
850.9	20433.26
851.223	20335.19
851.546	20229.88
851.869	20063.78
852.192	20129.09
852.515	20036.21
852.838	19995.76
853.161	19988.98
853.483	19745.14
853.806	19652.04
854.129	19707.86
854.451	19599.16
854.774	19457.24
855.096	19477.13
855.419	19428.32
855.741	19364.59
856.063	19239.62
856.385	19089.79
856.708	19137.7
857.03	18986.29
857.352	18956.01
857.674	18980.42
857.996	18794.21
858.318	18695.68
858.64	18623.82
858.961	18668.79
859.283	18539.75
859.605	18456.82
859.926	18600.09
860.248	18392.86
860.57	18356.25
860.891	18470.38
861.212	18304.28
861.534	18264.96
861.855	18162.36
862.176	18181.12
862.498	18206.2
862.819	18065.64
863.14	18114.68
863.461	18054.34
863.782	17969.37
864.103	17951.07
864.424	17851.86
864.745	17936.83
865.065	17864.06
865.386	17732.54
865.707	17798.53
866.027	17831.75
866.348	17849.6
866.668	17855.25
866.989	17834.23
867.309	17670.62
867.63	17757.17
867.95	17763.28
868.27	17667.91
868.59	17678.31
868.91	17641.02
869.23	17648.7
869.55	17607.8
869.87	17627.23
870.19	17672.88
870.51	17572.09
870.83	17531.42
871.15	17486.67
871.469	17479.89
871.789	17596.5
872.109	17557.41
872.428	17348.37
872.748	17437.86
873.067	17420.46
873.386	17444.19
873.706	17414.13
874.025	17340.91
874.344	17359.22
874.663	17377.3
874.982	17344.76
875.301	17285.55
875.62	17396.96
875.939	17335.49
876.258	17279.9
876.577	17181.6
876.896	17207.58
877.214	17112.67
877.533	17196.96
877.852	17218.21
878.17	17140.47
878.489	17159.9
878.807	17177.53
879.125	17060.7
879.444	17008.04
879.762	17032.9
880.08	17147.7
880.398	16940.25
880.716	16933.69
881.034	16883.3
881.352	16841.72
881.67	16859.12
881.988	16919.68
882.306	16739.57
882.624	16680.14
882.941	16625.9
883.259	16553.59
883.577	16542.29
883.894	16583.19
884.212	16475.17
884.529	16550.2
884.846	16517.43
885.164	16432.01
885.481	16389.75
885.798	16367.61
886.115	16278.34
886.432	16175.07
886.75	16171.45
887.067	16229.53
887.383	16092.81
887.7	16081.29
888.017	16070.21
888.334	16068.41
888.651	15992.02
888.967	15972.36
889.284	15961.74
889.6	15771.46
889.917	15658.02
890.233	15782.09
890.55	15709.09
890.866	15675.42
891.182	15635.65
891.498	15608.08
891.815	15461.64
892.131	15399.72
892.447	15427.97
892.763	15320.18
893.079	15286.96
893.395	15206.51
893.71	15219.16
894.026	15115.66
894.342	15055.1
894.657	15006.06
894.973	14971.71
895.289	15034.76
895.604	14822.11
895.92	14749.8
896.235	14737.37
896.55	14730.59
896.865	14744.37
897.181	14757.48
897.496	14670.48
897.811	14564.49
898.126	14593.19
898.441	14336.7
898.756	14372.63
899.071	14254.22
899.386	14329.47
899.7	14138.51
900.015	14122.02
900.33	14013.32
900.644	14070.04
900.959	14087.44
901.273	14042.24
901.588	13944.85
901.902	13895.58
902.216	13896.26
902.531	13849.25
902.845	13779.65
903.159	13728.58
903.473	13671.41
903.787	13660.78
904.101	13664.17
904.415	13623.27
904.729	13528.81
905.042	13498.3
905.356	13465.76
905.67	13455.37
905.984	13457.85
906.297	13286.56
906.611	13270.74
906.924	13237.07
907.237	13293.11
907.551	13134.47
907.864	13138.09
908.177	13141.48
908.491	13074.13
908.804	12944.65
909.117	12890.64
909.43	12926.57
909.743	12812.67
910.056	12844.54
910.368	12774.71
910.681	12765.89
910.994	12720.92
911.307	12715.95
911.619	12630.76
911.932	12632.56
912.244	12512.11
912.557	12454.26
912.869	12387.37
913.181	12422.63
913.494	12375.17
913.806	12310.54
914.118	12199.81
914.43	12178.56
914.742	12273.25
915.054	12150.99
915.366	12146.47
915.678	12007.5
915.99	11917.55
916.302	11913.71
916.613	11913.94
916.925	11937.89
917.236	11866.48
917.548	11711.68
917.859	11768.63
918.171	11723.21
918.482	11617.45
918.794	11618.58
919.105	11584
919.416	11423.33
919.727	11486.15
920.038	11449.77
920.349	11299.27
920.66	11253.62
920.971	11206.16
921.282	11203.9
921.593	11139.5
921.903	11063.79
922.214	11016.79
922.525	10921.42
922.835	10971.36
923.146	10892.95
923.456	10883
923.767	10807.98
924.077	10809.56
924.387	10756.23
924.697	10736.34
925.008	10641.66
925.318	10632.84
925.628	10582.45
925.938	10431.49
926.248	10389.23
926.558	10323.47
926.867	10364.15
927.177	10316.01
927.487	10207.99
927.796	10117.38
928.106	10142.23
928.416	10096.36
928.725	10089.35
929.034	9938.85
929.344	9996.02
929.653	9895.23
929.962	9824.95
930.271	9796.48
930.581	9799.42
930.89	9767.33
931.199	9684.62
931.508	9640.33
931.817	9624.96
932.125	9581.8
932.434	9537.28
932.743	9459.77
933.051	9383.38
933.36	9357.17
933.669	9290.73
933.977	9349.49
934.286	9280.56
934.594	9168.25
934.902	9168.02
935.21	9066.56
935.519	9140.68
935.827	9088.25
936.135	9013.68
936.443	8980.91
936.751	8849.61
937.059	8897.75
937.367	8805.32
937.674	8770.74
937.982	8740.46
938.29	8703.63
938.597	8727.13
938.905	8628.83
939.213	8589.28
939.52	8572.33
939.827	8531.88
940.135	8589.96
940.442	8533.24
940.749	8417.98
941.056	8496.85
941.363	8370.53
941.67	8344.54
941.977	8285.33
942.284	8253.02
942.591	8247.82
942.898	8239.46
943.205	8246.92
943.511	8203.75
943.818	8124.89
944.125	8114.49
944.431	8094.6
944.738	8071.78
945.044	8004.44
945.35	7976.64
945.657	7913.59
945.963	7896.42
946.269	7822.52
946.575	7834.72
946.881	7788.62
947.187	7812.13
947.493	7719.7
947.799	7744.56
948.105	7698.91
948.41	7678.34
948.716	7638.34
949.022	7532.13
949.327	7549.76
949.633	7575.3
949.938	7535.07
950.244	7535.07
950.549	7407.16
950.854	7373.49
951.16	7454.62
951.465	7355.19
951.77	7305.02
952.075	7288.52
952.38	7234.29
952.685	7268.64
952.99	7225.7
953.294	7198.36
953.599	7154.52
953.904	7081.52
954.209	7082.65
954.513	7057.79
954.818	7028.42
955.122	7038.36
955.426	6994.29
955.731	6893.05
956.035	6882.88
956.339	6885.14
956.643	6883.34
956.948	6777.12
957.252	6729.89
957.556	6808.31
957.86	6767.41
958.163	6698.71
958.467	6676.34
958.771	6672.72
959.075	6654.19
959.378	6643.34
959.682	6607.86
959.985	6574.64
960.289	6509.11
960.592	6459.17
960.896	6448.32
961.199	6432.5
961.502	6407.87
961.805	6361.54
962.108	6294.88
962.411	6257.36
962.714	6259.4
963.017	6227.08
963.32	6206.29
963.623	6219.62
963.926	6204.94
964.228	6172.62
964.531	6114.09
964.833	6083.13
965.136	6052.4
965.438	6003.36
965.741	6000.2
966.043	5950.71
966.345	5918.84
966.648	5933.53
966.95	5879.75
967.252	5891.05
967.554	5828.45
967.856	5776.47
968.158	5712.75
968.46	5739.19
968.761	5699.19
969.063	5708
969.365	5628
969.666	5651.5
969.968	5605.86
970.269	5568.34
970.571	5587.32
970.872	5528.34
971.174	5504.39
971.475	5445.18
971.776	5450.38
972.077	5419.65
972.378	5377.84
972.679	5391.17
972.98	5334.22
973.281	5280.21
973.582	5281.34
973.883	5265.3
974.183	5190.73
974.484	5242.7
974.785	5216.94
975.085	5167.22
975.386	5150.73
975.686	5117.51
975.986	5082.48
976.287	5089.94
976.587	5005.65
976.887	4965.87
977.187	5018.3
977.487	4982.37
977.787	4948.47
978.087	4974.69
978.387	4888.81
978.687	4904.18
978.987	4866.44
979.286	4839.77
979.586	4808.14
979.885	4796.84
980.185	4761.13
980.484	4717.97
980.784	4710.06
981.083	4711.19
981.382	4721.81
981.682	4659.44
981.981	4649.72
982.28	4613.79
982.579	4557.97
982.878	4555.71
983.177	4479.78
983.475	4540.12
983.774	4527.69
984.073	4510.07
984.372	4421.48
984.67	4453.57
984.969	4476.39
985.267	4479.56
985.566	4402.05
985.864	4371.31
986.162	4369.96
986.461	4313.23
986.759	4296.06
987.057	4270.98
987.355	4238.21
987.653	4276.85
987.951	4247.02
988.249	4204.31
988.547	4247.7
988.844	4188.04
989.142	4165.67
989.44	4144.2
989.737	4148.94
990.035	4130.41
990.332	4084.99
990.63	4050.19
990.927	3999.34
991.224	4049.74
991.521	4029.63
991.819	4009.29
992.116	4005.45
992.413	4002.06
992.71	4003.86
993.006	3978.55
993.303	3945.11
993.6	3899.23
993.897	3886.58
994.193	3864.66
994.49	3857.2
994.787	3829.18
995.083	3771.55
995.379	3790.99
995.676	3757.09
995.972	3760.03
996.268	3758.45
996.565	3733.81
996.861	3727.49
997.157	3702.85
997.453	3673.25
997.749	3642.52
998.044	3654.49
998.34	3633.03
998.636	3595.96
998.932	3607.26
999.227	3603.65
999.523	3563.65
999.818	3555.74
1000.114	3505.35
1000.409	3493.59
1000.704	3431.9
1001	3482.52
1001.295	3412.92
1001.59	3401.62
1001.885	3385.57
1002.18	3414.5
1002.475	3374.28
1002.77	3330.66
1003.065	3293.83
1003.359	3298.12
1003.654	3319.36
1003.949	3252.02
1004.243	3260.15
1004.538	3220.38
1004.832	3213.15
1005.127	3227.16
1005.421	3134.73
1005.715	3138.12
1006.009	3106.26
1006.304	3095.19
1006.598	3103.55
1006.892	3087.05
1007.186	3033.27
1007.48	3058.35
1007.773	2982.42
1008.067	3023.32
1008.361	2938.13
1008.655	2923.21
1008.948	2943.55
1009.242	2946.72
1009.535	2882.76
1009.829	2869.88
1010.122	2892.71
1010.415	2856.78
1010.708	2840.28
1011.001	2794.18
1011.295	2777
1011.588	2765.7
1011.881	2786.27
1012.173	2769.77
1012.466	2689.1
1012.759	2714.86
1013.052	2675.99
1013.344	2685.03
1013.637	2632.83
1013.93	2614.3
1014.222	2595.54
1014.514	2606.61
1014.807	2574.52
1015.099	2560.96
1015.391	2540.85
1015.683	2542.89
1015.976	2537.69
1016.268	2494.07
1016.56	2478.48
1016.851	2452.72
1017.143	2443.23
1017.435	2464.7
1017.727	2450.01
1018.018	2405.49
1018.31	2368.2
1018.602	2353.96
1018.893	2316.68
1019.185	2355.77
1019.476	2312.61
1019.767	2292.95
1020.058	2236.68
1020.35	2246.62
1020.641	2225.15
1020.932	2217.92
1021.223	2197.58
1021.514	2197.36
1021.804	2191.03
1022.095	2149.68
1022.386	2134.99
1022.677	2116.46
1022.967	2081.65
1023.258	2091.82
1023.548	2083.91
1023.839	2069.45
1024.129	2041.66
1024.419	2035.55
1024.709	2029.68
1025	1998.49
1025.29	2002.11
1025.58	1975.89
1025.87	1995.33
1026.16	1938.38
1026.449	1961.88
1026.739	1911.49
1027.029	1919.62
1027.319	1873.75
1027.608	1892.73
1027.898	1905.39
1028.187	1852.06
1028.477	1836.46
1028.766	1836.91
1029.055	1803.47
1029.344	1802.79
1029.634	1765.28
1029.923	1775
1030.212	1762.79
1030.501	1757.82
1030.79	1740.65
1031.078	1740.65
1031.367	1682.57
1031.656	1720.31
1031.945	1723.47
1032.233	1687.31
1032.522	1664.72
1032.81	1635.79
1033.099	1662.23
1033.387	1628.33
1033.675	1635.34
1033.963	1595.34
1034.251	1632.4
1034.54	1573.42
1034.828	1590.37
1035.116	1560.54
1035.403	1544.27
1035.691	1542.01
1035.979	1548.33
1036.267	1515.57
1036.554	1523.02
1036.842	1504.04
1037.129	1478.96
1037.417	1457.26
1037.704	1471.05
1037.992	1438.28
1038.279	1445.96
1038.566	1463.82
1038.853	1463.82
1039.14	1463.82
