Data from aluminium_surface_pro_back_FLMS001491_00066.txt Node
Date: Wed Feb 08 15:34:23 GMT 2017
User: dcchb
Spectrometer: FLMS00149
Trigger mode: 0
Integration Time (sec): 2.000000E-2
Scans to average: 10
Electric dark correction enabled: true
Nonlinearity correction enabled: false
Boxcar width: 0
XAxis mode: Wavelengths
Number of Pixels in Spectrum: 2048
>>>>>Begin Spectral Data<<<<<
341.393	0.97
341.776	0.97
342.16	0.97
342.543	-65.01
342.927	-62.07
343.31	-56.88
343.693	-84.45
344.077	-54.84
344.46	-47.61
344.843	-53.94
345.226	-58.23
345.61	-27.5
345.993	-23.88
346.376	-6.93
346.759	25.83
347.142	22.22
347.525	56.79
347.908	58.15
348.291	62.44
348.674	87.75
349.057	101.08
349.44	127.52
349.823	134.53
350.206	177.02
350.588	210.01
350.971	244.36
351.354	248.2
351.737	284.81
352.119	274.19
352.502	313.51
352.884	317.8
353.267	320.06
353.65	328.65
354.032	332.27
354.414	338.14
354.797	367.52
355.179	349.21
355.562	344.69
355.944	369.1
356.326	359.84
356.709	365.94
357.091	363.45
357.473	401.64
357.855	370
358.238	386.05
358.62	380.85
359.002	365.26
359.384	380.4
359.766	383.34
360.148	362.55
360.53	370.46
360.912	382.43
361.294	377.24
361.676	371.13
362.057	382.89
362.439	384.02
362.821	382.66
363.203	358.25
363.584	381.08
363.966	375.65
364.348	356.67
364.729	383.79
365.111	352.83
365.493	376.11
365.874	399.16
366.256	363.22
366.637	384.02
367.019	369.55
367.4	360.29
367.781	358.48
368.163	361.64
368.544	366.39
368.925	375.43
369.306	392.6
369.688	370.68
370.069	385.15
370.45	378.59
370.831	398.48
371.212	389.66
371.593	397.35
371.974	384.24
372.355	396.44
372.736	400.06
373.117	374.07
373.498	390.57
373.879	412.94
374.26	385.82
374.641	374.98
375.021	387.41
375.402	408.2
375.783	403.22
376.163	424.92
376.544	444.8
376.925	424.01
377.305	398.7
377.686	419.04
378.066	437.12
378.447	450.68
378.827	418.36
379.208	438.48
379.588	431.92
379.968	433.05
380.349	436.67
380.729	435.09
381.109	437.8
381.489	462.88
381.87	458.14
382.25	459.27
382.63	465.82
383.01	471.02
383.39	474.18
383.77	481.41
384.15	468.31
384.53	468.08
384.91	496.55
385.29	485.71
385.67	497.46
386.049	489.32
386.429	501.07
386.809	508.76
387.189	518.48
387.568	524.58
387.948	524.35
388.328	532.03
388.707	544.92
389.087	537.23
389.466	567.74
389.846	560.28
390.225	559.38
390.605	551.92
390.984	568.64
391.363	590.34
391.743	562.54
392.122	602.99
392.501	603.67
392.881	625.14
393.26	618.81
393.639	629.66
394.018	651.58
394.397	642.09
394.776	635.31
395.155	624.91
395.534	643.67
395.913	668.75
396.292	668.98
396.671	672.37
397.05	714.4
397.429	679.83
397.808	672.82
398.186	697.23
398.565	697.23
398.944	729.77
399.323	743.1
399.701	728.64
400.08	729.09
400.458	736.1
400.837	777.45
401.215	743.55
401.594	727.51
401.972	795.53
402.351	797.79
402.729	771.12
403.107	802.31
403.486	829.2
403.864	819.03
404.242	838.24
404.62	843.89
404.999	867.84
405.377	847.28
405.755	874.85
406.133	886.6
406.511	878.92
406.889	885.47
407.267	908.75
407.645	934.28
408.023	947.84
408.401	944.23
408.779	942.87
409.156	966.15
409.534	1009.54
409.912	1005.02
410.29	1010.44
410.667	1038.46
411.045	1048.18
411.422	1024.45
411.8	1080.72
412.178	1089.08
412.555	1099.25
412.933	1100.15
413.31	1127.05
413.687	1136.09
414.065	1156.2
414.442	1130.89
414.819	1188.97
415.197	1192.81
415.574	1219.7
415.951	1221.73
416.328	1240.94
416.705	1222.64
417.082	1229.64
417.46	1282.3
417.837	1292.69
418.214	1331.11
418.591	1328.17
418.967	1334.05
419.344	1331.11
419.721	1370.66
420.098	1352.35
420.475	1388.06
420.852	1385.34
421.228	1423.99
421.605	1423.99
421.982	1441.39
422.358	1449.75
422.735	1474.83
423.111	1489.97
423.488	1516.64
423.864	1538.11
424.241	1545.34
424.617	1553.48
424.994	1542.18
425.37	1554.83
425.746	1610.42
426.123	1611.1
426.499	1622.17
426.875	1664.66
427.251	1697.2
427.627	1679.35
428.003	1721.38
428.379	1740.59
428.756	1761.61
429.132	1780.81
429.507	1839.57
429.883	1818.78
430.259	1870.08
430.635	1884.09
431.011	1902.39
431.387	1910.53
431.763	1974.48
432.138	2028.27
432.514	2019.9
432.89	2032.56
433.265	2076.17
433.641	2087.47
434.016	2114.59
434.392	2127.92
434.767	2200.46
435.143	2200.92
435.518	2214.25
435.894	2230.52
436.269	2252.67
436.644	2292.21
437.02	2307.58
437.395	2301.48
437.77	2355.49
438.145	2370.18
438.52	2415.37
438.895	2434.81
439.271	2483.4
439.646	2544.64
440.021	2519.55
440.395	2524.3
440.77	2511.87
441.145	2569.49
441.52	2605.88
441.895	2584.86
442.27	2654.46
442.645	2623.28
443.019	2696.72
443.394	2683.62
443.769	2769.04
444.143	2726.78
444.518	2774.23
444.892	2780.11
445.267	2791.86
445.641	2792.54
446.016	2843.61
446.39	2899.88
446.764	2885.19
447.139	2866.89
447.513	2910.73
447.887	2950.73
448.262	2955.93
448.636	2987.56
449.01	3004.29
449.384	3050.39
449.758	3049.93
450.132	3079.76
450.506	3139.65
450.88	3164.73
451.254	3186.43
451.628	3213.09
452.002	3282.7
452.376	3294.9
452.75	3310.27
453.123	3324.73
453.497	3390.04
453.871	3406.99
454.244	3494.67
454.618	3508
454.992	3515.23
455.365	3541.67
455.739	3680.65
456.112	3645.4
456.486	3711.84
456.859	3714.1
457.232	3827.77
457.606	3806.75
457.979	3860.53
458.352	3975.33
458.725	4042.45
459.099	4027.31
459.472	4131.26
459.845	4090.36
460.218	4179.17
460.591	4280.41
460.964	4260.52
461.337	4398.37
461.71	4377.81
462.083	4491.48
462.456	4525.38
462.829	4554.75
463.201	4648.99
463.574	4652.38
463.947	4713.84
464.32	4810.11
464.692	4852.82
465.065	4899.15
465.438	5003.33
465.81	5022.54
466.183	5063.21
466.555	5181.4
466.928	5195.87
467.3	5246.71
467.672	5354.28
468.045	5416.2
468.417	5455.52
468.789	5446.48
469.161	5607.15
469.534	5695.97
469.906	5823.65
470.278	5836.08
470.65	5916.98
471.022	6069.52
471.394	6179.34
471.766	6182.73
472.138	6294.37
472.51	6367.36
472.882	6466.79
473.253	6540.24
473.625	6716.28
473.997	6817.97
474.369	6891.41
474.74	6917.18
475.112	7088.25
475.484	7243.5
475.855	7337.73
476.227	7407.79
476.598	7624.5
476.97	7643.94
477.341	7852.52
477.713	7998.73
478.084	7961.44
478.455	8246.63
478.827	8366.63
479.198	8587.19
479.569	8565.27
479.94	8877.35
480.311	8910.12
480.682	9087.52
481.053	9318.24
481.424	9486.15
481.795	9506.94
482.166	9692.7
482.537	9846.82
482.908	10055.85
483.279	10115.28
483.65	10348.05
484.021	10495.16
484.391	10740.81
484.762	10787.36
485.133	10901.03
485.503	10985.32
485.874	11299.43
486.244	11394.57
486.615	11596.38
486.985	11704.85
487.356	11936.93
487.726	12105.29
488.097	12330.82
488.467	12418.73
488.837	12689.91
489.207	12788.89
489.578	13024.81
489.948	13100.97
490.318	13317.69
490.688	13368.08
491.058	13654.4
491.428	13843.55
491.798	13963.32
492.168	14206.93
492.538	14309.52
492.908	14498.9
493.278	14682.4
493.648	14761.04
494.017	14951.32
494.387	15033.57
494.757	15204.87
495.126	15400.12
495.496	15434.47
495.866	15508.14
496.235	15757.17
496.605	15841.69
496.974	15992.42
497.344	16191.74
497.713	16150.83
498.082	16345.86
498.452	16574.78
498.821	16646.41
499.19	16644.6
499.559	16780.65
499.928	17034.42
500.298	17094.76
500.667	17202.56
501.036	17337.24
501.405	17538.82
501.774	17516.22
502.143	17700.62
502.512	17732.71
502.88	17949.2
503.249	18005.25
503.618	18146.26
503.987	18209.54
504.356	18466.25
504.724	18566.59
505.093	18579.02
505.462	18705.57
505.83	18789.41
506.199	19008.61
506.567	19290.41
506.936	19222.62
507.304	19471.42
507.672	19529.5
508.041	19720.68
508.409	19863.28
508.777	19989.15
509.145	20195.02
509.514	20278.86
509.882	20469.36
510.25	20494.22
510.618	20753.2
510.986	20725.63
511.354	21057.82
511.722	21263.01
512.09	21495.78
512.458	21489.45
512.826	21627.3
513.193	21814.64
513.561	21896.9
513.929	22056.67
514.297	22271.58
514.664	22414.62
515.032	22570.78
515.4	22711.56
515.767	22884.21
516.135	22999.92
516.502	22885.57
516.869	23489.4
517.237	23404.2
517.604	23476.06
517.972	23808.71
518.339	24019.1
518.706	24037.4
519.073	24334.57
519.44	24403.72
519.808	24791.06
520.175	24725.52
520.542	25044.61
520.909	25244.38
521.276	25302.91
521.643	25569.12
522.009	25765.04
522.376	25966.17
522.743	26159.38
523.11	26397.57
523.477	26709.42
523.843	26868.29
524.21	27021.73
524.577	27330.65
524.943	27412.91
525.31	27597.54
525.676	27964.99
526.043	28098.77
526.409	28214.02
526.776	28519.32
527.142	28541.69
527.508	28828.92
527.874	29200.21
528.241	29245.63
528.607	29292.63
528.973	29564.27
529.339	29668.9
529.705	29931.04
530.071	30240.86
530.437	30298.03
530.803	30564.01
531.169	30689.43
531.535	30748.64
531.901	31015.3
532.267	31119.03
532.632	31306.37
532.998	31439.92
533.364	31700.71
533.73	31716.75
534.095	32013.24
534.461	32145.89
534.826	32344.98
535.192	32431.53
535.557	32688.93
535.923	32734.58
536.288	32695.26
536.653	32989.26
537.019	32963.27
537.384	33148.13
537.749	33435.58
538.114	33429.93
538.479	33618.4
538.845	33702.24
539.21	33686.42
539.575	33993.98
539.94	34017.26
540.305	34264.93
540.67	34174.31
541.034	34405.04
541.399	34508.77
541.764	34492.05
542.129	34589.9
542.494	34725.26
542.858	34942.65
543.223	35053.16
543.587	35358.24
543.952	35194.85
544.316	35364.11
544.681	35378.58
545.045	35631
545.41	35874.16
545.774	35961.16
546.138	35989.63
546.503	36118.89
546.867	36110.53
547.231	36408.15
547.595	36459.9
547.959	36714.36
548.324	36722.49
548.688	36929.95
549.052	36949.83
549.416	37083.84
549.779	37100.79
550.143	37280.22
550.507	37520.67
550.871	37715.46
551.235	37568.57
551.599	37853.99
551.962	38000.2
552.326	38065.28
552.689	38197.26
553.053	38165.62
553.417	38415.33
553.78	38855.32
554.143	38762.44
554.507	38878.6
554.87	39083.34
555.234	39390
555.597	39302.99
555.96	39511.57
556.323	39796.09
556.686	39739.82
557.05	40180.48
557.413	40337.09
557.776	40307.03
558.139	40659.11
558.502	40688.27
558.865	40897.75
559.228	41234.01
559.59	41276.73
559.953	41499.77
560.316	41898.4
560.679	41961.91
561.041	42198.06
561.404	42313.53
561.767	42648.67
562.129	42535
562.492	42976.34
562.854	43039.39
563.217	43052.5
563.579	43326.16
563.941	43664.91
564.304	43823.1
564.666	44064.9
565.028	44096.76
565.39	44289.3
565.753	44485.45
566.115	44723.64
566.477	44964.99
566.839	44953.24
567.201	45232.1
567.563	45428.71
567.925	45568.82
568.287	45615.82
568.648	45785.31
569.01	45992.31
569.372	46350.49
569.734	46286.31
570.095	46736.02
570.457	46831.38
570.819	46980.98
571.18	47094.2
571.542	47299.39
571.903	47418.71
572.265	47602.66
572.626	47670.23
572.987	47823.45
573.349	47954.52
573.71	48117.22
574.071	48213.72
574.432	48350.21
574.794	48657.1
575.155	48608.74
575.516	48564.44
575.877	48726.25
576.238	48782.29
576.599	48977.54
576.96	48992
577.32	49123.75
577.681	49207.36
578.042	49389.96
578.403	49471.99
578.763	49460.69
579.124	49568.94
579.485	49732.55
579.845	49792.66
580.206	49719.67
580.566	49756.05
580.927	49851.42
581.287	50105.42
581.648	49902.26
582.008	50042.14
582.368	50009.6
582.728	50060.68
583.089	49989.94
583.449	50086.21
583.809	50197.85
584.169	50245.76
584.529	50156.72
584.889	50431.06
585.249	50216.6
585.609	50190.84
585.969	50417.73
586.329	50280.78
586.688	50297.96
587.048	50233.55
587.408	50238.3
587.768	50295.25
588.127	50208.92
588.487	50210.5
588.846	50422.93
589.206	50216.6
589.565	50392.87
589.925	50623.6
590.284	50406.2
590.643	50512.19
591.003	50572.3
591.362	50713.31
591.721	50526.65
592.08	50553.54
592.44	50620.43
592.799	50678.74
593.158	50561.9
593.517	50694.78
593.876	50680.32
594.235	50648
594.593	50701.79
594.952	50740.88
595.311	50850.48
595.67	50751.5
596.029	50989.92
596.387	51004.38
596.746	51104.72
597.104	50966.19
597.463	50917.15
597.822	51036.69
598.18	50976.81
598.538	50875.8
598.897	51215.45
599.255	50931.16
599.613	51310.59
599.972	51071.27
600.33	51194.66
600.688	51035.56
601.046	51196.01
601.404	51371.38
601.762	51285.5
602.12	51390.36
602.478	51422.45
602.836	51397.36
603.194	51359.4
603.552	51430.36
603.91	51244.15
604.268	51525.5
604.625	51407.53
604.983	51486.63
605.341	51496.8
605.698	51657.47
606.056	51648.43
606.413	51629.45
606.771	51673.29
607.128	51821.76
607.485	51658.15
607.843	51725.94
608.2	51895.43
608.557	51950.34
608.914	51825.83
609.272	51969.55
609.629	52053.17
609.986	52110.11
610.343	51951.92
610.7	52207.06
611.057	52129.77
611.414	52046.61
611.771	52161.64
612.127	52203.44
612.484	52154.63
612.841	52346.72
613.198	52277.11
613.554	52225.36
613.911	52550.78
614.267	52498.58
614.624	52545.36
614.98	52448.41
615.337	52627.39
615.693	52603.43
616.05	52539.48
616.406	52680.27
616.762	52598.24
617.118	52526.37
617.475	52580.38
617.831	52690.44
618.187	52725.69
618.543	52712.36
618.899	52869.19
619.255	52772.47
619.611	52735.41
619.967	52824.67
620.323	52938.11
620.678	52797.33
621.034	52748.29
621.39	52706.93
621.746	52749.42
622.101	53043.42
622.457	52739.7
622.812	52819.02
623.168	52883.43
623.523	52819.02
623.879	52994.84
624.234	52871.22
624.589	52891.34
624.945	52922.75
625.3	52881.17
625.655	52866.25
626.01	52821.51
626.365	52955.29
626.72	52872.35
627.075	52892.24
627.43	52872.58
627.785	52726.82
628.14	52747.61
628.495	52821.51
628.85	52805.24
629.205	52757.1
629.559	52918.68
629.914	52769.98
630.269	52744.9
630.623	52735.63
630.978	52738.8
631.332	52839.36
631.687	52917.32
632.041	52717.1
632.396	52820.6
632.75	52616.09
633.104	52768.17
633.459	52549.65
633.813	52553.04
634.167	52555.3
634.521	52503.55
634.875	52563.21
635.229	52516.43
635.583	52233.05
635.937	52316.66
636.291	52167.51
636.645	52270.79
636.999	52186.04
637.352	52273.72
637.706	52119.6
638.06	52260.17
638.413	52106.95
638.767	51973.62
639.121	52011.13
639.474	51820.85
639.828	51880.97
640.181	51967.97
640.534	51897.46
640.888	51875.99
641.241	51807.52
641.594	51658.83
641.947	51789.67
642.301	51636.9
642.654	51732.04
643.007	51576.79
643.36	51665.6
643.713	51540.41
644.066	51680.75
644.419	51350.58
644.771	51236.01
645.124	50837.38
645.477	50960.09
645.83	50739.3
646.182	50605.52
646.535	50574.33
646.888	50553.54
647.24	50280.56
647.593	50551.74
647.945	50368.46
648.298	50256.83
648.65	50059.55
649.002	50050.05
649.355	50210.05
649.707	50128.7
650.059	50307
650.411	50576.59
650.763	50638.97
651.115	50935.23
651.467	50775.91
651.819	50835.57
652.171	50746.08
652.523	50729.58
652.875	50679.19
653.227	50454.11
653.578	50767.32
653.93	50573.43
654.282	50533.43
654.633	50328.01
654.985	50433.32
655.337	50370.95
655.688	50321.46
656.039	50507.22
656.391	50145.87
656.742	50232.87
657.094	50255.92
657.445	50364.17
657.796	50263.16
658.147	50175.25
658.498	50203.72
658.849	50209.6
659.2	50175.7
659.551	50036.04
659.902	50239.65
660.253	50019.55
660.604	50182.93
660.955	49929.38
661.306	50063.39
661.656	49976.84
662.007	49968.02
662.358	49889.15
662.708	49978.19
663.059	49981.58
663.409	49794.47
663.76	49954.46
664.11	49980.9
664.461	49961.92
664.811	49868.82
665.161	49862.04
665.511	49816.39
665.862	49940.9
666.212	50004.41
666.562	49909.72
666.912	49850.29
667.262	49769.38
667.612	49696.39
667.962	49740.68
668.312	49749.5
668.662	49792.66
669.011	49763.06
669.361	49592.66
669.711	49647.58
670.06	49533.68
670.41	49421.37
670.76	49457.53
671.109	49547.24
671.459	49396.74
671.808	49500.69
672.157	49417.08
672.507	49263.41
672.856	49267.7
673.205	49341.37
673.554	49440.13
673.904	49249.62
674.253	49411.65
674.602	49293.69
674.951	48680.6
675.3	48488.51
675.649	49056.41
675.998	48875.4
676.346	49022.74
676.695	49183.86
677.044	48813.02
677.393	48745.68
677.741	48872.91
678.09	48764.21
678.438	48667.72
678.787	48690.09
679.135	48756.75
679.484	48462.07
679.832	48490.32
680.181	48321.29
680.529	48584.56
680.877	48322.42
681.225	48320.38
681.573	48514.28
681.922	48181.85
682.27	48075.42
682.618	48238.12
682.966	48093.72
683.314	48191.57
683.661	47999.03
684.009	47831.81
684.357	47789.32
684.705	47900.96
685.053	47835.87
685.4	47747.29
685.748	47470.23
686.095	47560.85
686.443	47283.8
686.79	47299.62
687.138	47442.66
687.485	47453.51
687.832	47324.48
688.18	47172.84
688.527	47001.77
688.874	47064.82
689.221	47047.42
689.568	46826.64
689.915	46675.23
690.262	46681.1
690.609	46573.99
690.956	46445.63
691.303	46569.47
691.65	46305.75
691.997	46167.22
692.344	46017.62
692.69	46021.69
693.037	46029.82
693.383	45583.73
693.73	45704.18
694.077	45543.73
694.423	45460.57
694.769	45451.08
695.116	45406.79
695.462	45315.26
695.808	45153.91
696.155	45162.27
696.501	44694.49
696.847	44896.97
697.193	44543.98
697.539	44770.19
697.885	44363.2
698.231	44196.2
698.577	44274.39
698.923	44215.18
699.269	43936.99
699.614	43820.61
699.96	43835.08
700.306	43791.91
700.651	43534.97
700.997	43473.05
701.342	43366.61
701.688	43317.8
702.033	43260.85
702.379	43047.75
702.724	42970.01
703.069	42977.02
703.415	42619.51
703.76	42544.71
704.105	42629.46
704.45	42444.15
704.795	42232.86
705.14	42146.76
705.485	42094.56
705.83	41924.39
706.175	41979.76
706.52	41775.7
706.865	41659.09
707.209	41478.98
707.554	41328.93
707.899	41672.87
708.243	41376.84
708.588	41266.1
708.932	41124.19
709.277	41045.77
709.621	41058.88
709.966	40865.89
710.31	40896.17
710.654	40624.31
710.998	40637.19
711.342	40569.63
711.687	40552
712.031	40336.86
712.375	40401.95
712.719	40303.42
713.063	40249.86
713.407	40373.7
713.75	40120.6
714.094	40002.63
714.438	39873.15
714.782	39922.41
715.125	39810.1
715.469	39848.97
715.812	39605.13
716.156	39326.72
716.499	39487.17
716.843	39563.78
717.186	39157.01
717.53	39340.51
717.873	39300.51
718.216	39173.28
718.559	38990.46
718.902	38583.46
719.246	38839.5
719.589	38649.9
719.932	38376.69
720.275	38489.23
720.617	38437.03
720.96	38217.82
721.303	38289.23
721.646	38233.42
721.989	37973.76
722.331	38159.97
722.674	37941.9
723.016	37926.76
723.359	37907.55
723.701	37871.17
724.044	37467.11
724.386	37459.42
724.729	37572.87
725.071	37468.92
725.413	37359.99
725.755	37291.07
726.097	37264.63
726.439	37102.37
726.782	37202.26
727.124	37278.64
727.465	37008.82
727.807	37009.94
728.149	36856.73
728.491	36902.15
728.833	36927.91
729.175	36853.79
729.516	36694.02
729.858	36664.64
730.199	36807.01
730.541	36453.58
730.882	36497.64
731.224	36500.35
731.565	36220.36
731.906	36364.76
732.248	36278.21
732.589	36068.05
732.93	35932.01
733.271	35905.12
733.612	35979.92
733.953	35881.39
734.294	35789.86
734.635	35682.52
734.976	35759.81
735.317	35514.62
735.658	35482.08
735.999	35376.99
736.339	35415.18
736.68	35588.74
737.021	35392.13
737.361	35187.39
737.702	35287.73
738.042	35182.2
738.383	35022.88
738.723	35081.63
739.063	35024.91
739.404	34993.73
739.744	34946.04
740.084	34744.24
740.424	34792.83
740.764	34696.56
741.104	34675.54
741.444	34591.93
741.784	34407.08
742.124	34503.8
742.464	34338.38
742.804	34344.25
743.143	34182.22
743.483	34272.84
743.823	34032.4
744.162	34129.12
744.502	34172.73
744.841	33900.42
745.181	34049.12
745.52	33958.05
745.86	33962.79
746.199	33832.63
746.538	33757.15
746.877	33931.38
747.216	33802.8
747.556	33579.98
747.895	33705.85
748.234	33452.98
748.573	33535.23
748.911	33423.37
749.25	33476.7
749.589	33297.5
749.928	33248.24
750.267	33308.35
750.605	33167.11
750.944	33144.28
751.283	32809.38
751.621	32956.49
751.96	32744.52
752.298	32854.12
752.636	32678.76
752.975	32590.63
753.313	32556.28
753.651	32655.71
753.989	32468.82
754.327	32378.43
754.666	32147.7
755.004	32244.42
755.342	32243.52
755.679	32190.64
756.017	31975.5
756.355	32000.36
756.693	31770.53
757.031	31721.04
757.368	31539.58
757.706	31568.96
758.044	31517.89
758.381	31406.48
758.719	31312.47
759.056	31271.79
759.394	31077.22
759.731	30940.05
760.068	30965.58
760.405	30671.35
760.743	30550.45
761.08	30766.49
761.417	30590.45
761.754	30398.37
762.091	30273.85
762.428	30331.93
762.765	30066.17
763.102	30140.97
763.438	29938.04
763.775	29814.65
764.112	29867.76
764.449	29828.66
764.785	29729.91
765.122	29448.56
765.458	29405.4
765.795	29292.41
766.131	29177.61
766.467	29228.23
766.804	29036.14
767.14	28968.57
767.476	29004.05
767.812	28788.24
768.148	28901.23
768.485	28699.88
768.821	28454.24
769.157	28397.52
769.492	28330.85
769.828	28241.81
770.164	27885.67
770.5	27880.69
770.836	27830.3
771.171	27686.57
771.507	27563.19
771.842	27301.27
772.178	27448.84
772.513	27322.29
772.849	27125.69
773.184	27131.33
773.519	27111.67
773.855	26842.98
774.19	26785.13
774.525	26765.02
774.86	26784.68
775.195	26655.19
775.53	26468.3
775.865	26345.82
776.2	26161.42
776.535	25928.88
776.87	25972.27
777.205	25789.9
777.539	25670.81
777.874	25789.9
778.209	25489.12
778.543	25410.48
778.878	25299.29
779.212	25305.62
779.547	25109.24
779.881	25075.34
780.215	24975.69
780.55	24975.23
780.884	24866.54
781.218	24726.65
781.552	24622.02
781.886	24640.1
782.22	24507.22
782.554	24343.39
782.888	24172.54
783.222	24130.28
783.556	23997.18
783.889	23986.33
784.223	23806
784.557	23905.66
784.89	23843.29
785.224	23751.76
785.557	23582.73
785.891	23453.24
786.224	23356.74
786.558	23323.07
786.891	23170.53
787.224	23010.99
787.557	23041.95
787.891	23081.5
788.224	22998.11
788.557	22920.82
788.89	22873.14
789.223	22755.4
789.556	22624.11
789.888	22549.08
790.221	22482.64
790.554	22294.4
790.887	22320.16
791.219	22244.68
791.552	22187.51
791.884	22061.86
792.217	21995.88
792.549	21896.22
792.882	21848.99
793.214	21677.92
793.546	21744.81
793.879	21491.93
794.211	21386.17
794.543	21456.46
794.875	21346.18
795.207	21382.79
795.539	21272.73
795.871	21146.86
796.203	20994.09
796.535	20961.1
796.867	20931.5
797.198	20892.85
797.53	20840.2
797.862	20755.23
798.193	20654.89
798.525	20525.63
798.856	20633.2
799.188	20432.08
799.519	20233.66
799.85	20286.09
800.182	20252.87
800.513	20239.09
800.844	20030.05
801.175	20126.77
801.506	20070.96
801.837	19959.09
802.168	19922.26
802.499	19755.94
802.83	19716.61
803.161	19612.44
803.491	19610.63
803.822	19512.78
804.153	19420.12
804.483	19325.89
804.814	19267.81
805.145	19169.51
805.475	19299.45
805.805	19063.75
806.136	19065.11
806.466	19042.51
806.796	18960.7
807.126	18715.28
807.457	18748.5
807.787	18725.68
808.117	18746.7
808.447	18597.77
808.777	18737.43
809.107	18637.55
809.436	18560.94
809.766	18512.8
810.096	18459.7
810.426	18414.05
810.755	18328.63
811.085	18303.54
811.414	18184.45
811.744	18116.43
812.073	18084.34
812.403	18113.94
812.732	17956.21
813.061	17958.47
813.39	17935.64
813.719	17921.86
814.049	17953.27
814.378	17820.84
814.707	17798.47
815.036	17737.23
815.365	17615.43
815.693	17407.97
816.022	17518.93
816.351	17426.05
816.68	17360.97
817.008	17556.45
817.337	17301.76
817.665	17292.5
817.994	17332.04
818.322	17191.48
818.651	17200.75
818.979	16974.54
819.307	17228.32
819.636	17094.08
819.964	16915.33
820.292	17048.21
820.62	17022.9
820.948	16947.2
821.276	17003.47
821.604	16937.7
821.932	17006.4
822.259	16988.32
822.587	17010.7
822.915	16887.54
823.243	17026.29
823.57	16840.08
823.898	16946.29
824.225	16746.52
824.553	16772.74
824.88	16974.99
825.207	16950.59
825.535	16898.38
825.862	16792.17
826.189	16788.1
826.516	16896.35
826.843	16935.44
827.17	16949.91
827.497	16904.48
827.824	16917.59
828.151	16938.83
828.478	16767.31
828.805	16891.83
829.131	16726.64
829.458	16795.56
829.785	16715.11
830.111	16751.95
830.438	16850.48
830.764	16758.05
831.09	16797.14
831.417	16706.3
831.743	16783.58
832.069	16716.47
832.395	16629.24
832.722	16674.66
833.048	16711.5
833.374	16686.64
833.7	16532.97
834.026	16642.57
834.351	16621.78
834.677	16520.09
835.003	16657.26
835.329	16622.01
835.654	16520.31
835.98	16529.58
836.306	16488.22
836.631	16430.83
836.956	16510.14
837.282	16488
837.607	16455.68
837.932	16340.66
838.258	16376.82
838.583	16385.4
838.908	16272.64
839.233	16273.09
839.558	16275.35
839.883	16249.36
840.208	16252.07
840.533	16251.62
840.858	16263.15
841.182	16212.98
841.507	16171.4
841.832	15965.75
842.156	16126.65
842.481	16008.24
842.805	16040.78
843.13	15934.11
843.454	15908.13
843.778	15857.05
844.103	15777.51
844.427	15775.48
844.751	15772.54
845.075	15720.56
845.399	15710.62
845.723	15610.96
846.047	15558.08
846.371	15487.57
846.695	15480.79
847.019	15276.05
847.343	15282.38
847.666	15261.59
847.99	15139.11
848.313	15199.67
848.637	15060.01
848.96	15112.22
849.284	15079.67
849.607	14955.38
849.931	14883.07
850.254	14791.32
850.577	14744.09
850.9	14630.19
851.223	14624.77
851.546	14513.14
851.869	14446.47
852.192	14553.13
852.515	14302.97
852.838	14434.49
853.161	14333.25
853.483	14313.82
853.806	14185.23
854.129	14158.12
854.451	14114.28
854.774	14018.91
855.096	13983.66
855.419	13936.2
855.741	13960.16
856.063	13903.43
856.385	13854.17
856.708	13766.49
857.03	13785.7
857.352	13726.49
857.674	13797.67
857.996	13656.21
858.318	13530.11
858.64	13646.94
858.961	13610.11
859.283	13530.11
859.605	13412.37
859.926	13460.51
860.248	13480.39
860.57	13393.84
860.891	13437.46
861.212	13372.83
861.534	13381.87
861.855	13319.27
862.176	13307.52
862.498	13280.85
862.819	13279.95
863.14	13192.94
863.461	13149.1
863.782	13155.88
864.103	13125.6
864.424	13110.23
864.745	13090.57
865.065	13071.37
865.386	13042.89
865.707	13010.35
866.027	12934.19
866.348	12942.33
866.668	12921.99
866.989	12917.92
867.309	12903.46
867.63	12883.12
867.95	12836.12
868.27	12747.08
868.59	12837.7
868.91	12832.28
869.23	12736.46
869.55	12656.01
869.87	12711.37
870.19	12689
870.51	12734.65
870.83	12849
871.15	12658.49
871.469	12666.18
871.789	12721.54
872.109	12541.44
872.428	12582.56
872.748	12595.9
873.067	12613.52
873.386	12618.5
873.706	12519.97
874.025	12433.42
874.344	12459.63
874.663	12534.2
874.982	12480.87
875.301	12413.98
875.62	12411.95
875.939	12444.49
876.258	12399.29
876.577	12319.07
876.896	12313.87
877.214	12329.01
877.533	12297.37
877.852	12303.02
878.17	12278.17
878.489	12233.42
878.807	12325.85
879.125	12189.35
879.444	12221.44
879.762	12199.75
880.08	12237.94
880.398	12180.99
880.716	12156.36
881.034	12086.53
881.352	12102.35
881.67	12112.29
881.988	12097.15
882.306	12118.4
882.624	11997.04
882.941	11952.3
883.259	11979.87
883.577	11945.97
883.894	11952.52
884.212	11983.03
884.529	11948.01
884.846	11870.72
885.164	11793.66
885.481	11890.38
885.798	11836.6
886.115	11776.48
886.432	11785.07
886.75	11750.95
887.067	11849.25
887.383	11689.25
887.7	11759.99
888.017	11733.77
888.334	11704.85
888.651	11653.55
888.967	11682.48
889.284	11529.71
889.6	11499.2
889.917	11556.83
890.233	11530.61
890.55	11449.94
890.866	11467.34
891.182	11425.08
891.498	11364.74
891.815	11326.55
892.131	11318.87
892.447	11308.7
892.763	11155.03
893.079	11250.17
893.395	11132.66
893.71	11157.29
894.026	11124.07
894.342	11089.72
894.657	10983.06
894.973	10976.96
895.289	10969.27
895.604	10879.33
895.92	10857.19
896.235	10821.93
896.55	10784.87
896.865	10753.01
897.181	10720.01
897.496	10705.55
897.811	10640.02
898.126	10691.77
898.441	10594.59
898.756	10596.85
899.071	10477.76
899.386	10544.2
899.7	10515.05
900.015	10449.29
900.33	10429.17
900.644	10369.29
900.959	10364.32
901.273	10403.64
901.588	10271.44
901.902	10261.5
902.216	10229.41
902.531	10196.41
902.845	10141.05
903.159	10053.37
903.473	10039.81
903.787	9997.1
904.101	10014.27
904.415	10013.37
904.729	9940.83
905.042	9937.44
905.356	9962.75
905.67	9888.62
905.984	9862.41
906.297	9802.3
906.611	9806.59
906.924	9765.46
907.237	9741.28
907.551	9759.36
907.864	9651.12
908.177	9572.7
908.491	9549.65
908.804	9599.37
909.117	9455.19
909.43	9482.08
909.743	9419.03
910.056	9408.18
910.368	9342.2
910.681	9304.23
910.994	9277.57
911.307	9239.6
911.619	9243.67
911.932	9195.99
912.244	9122.77
912.557	9128.87
912.869	9061.3
913.181	9048.65
913.494	9034.86
913.806	8931.36
914.118	8992.15
914.43	8906.05
914.742	8882.77
915.054	8844.81
915.366	8833.96
915.678	8785.38
915.99	8712.84
916.302	8624.02
916.613	8667.19
916.925	8608.43
917.236	8649.33
917.548	8563.69
917.859	8509.9
918.171	8476.46
918.482	8476.91
918.794	8421.09
919.105	8439.17
919.416	8366.63
919.727	8376.12
920.038	8363.92
920.349	8276.24
920.66	8256.12
920.971	8252.73
921.282	8218.39
921.593	8213.19
921.903	8149.69
922.214	8118.28
922.525	8065.4
922.835	8044.83
923.146	7979.97
923.456	7988.11
923.767	7939.52
924.077	7902.91
924.387	7883.93
924.697	7847.32
925.008	7828.57
925.318	7709.47
925.628	7718.74
925.938	7708.79
926.248	7686.87
926.558	7664.5
926.867	7609.81
927.177	7652.98
927.487	7519.42
927.796	7454.56
928.106	7512.42
928.416	7480.78
928.725	7450.95
929.034	7435.36
929.344	7452.3
929.653	7334.34
929.962	7319.43
930.271	7297.28
930.581	7230.39
930.89	7282.14
931.199	7150.62
931.508	7137.74
931.817	7181.35
932.125	7047.34
932.434	7078.75
932.743	7014.8
933.051	7000.34
933.36	6983.16
933.669	7000.79
933.977	6944.29
934.286	6934.35
934.594	6950.85
934.902	6822.72
935.21	6777.75
935.519	6828.14
935.827	6840.12
936.135	6745.88
936.443	6690.29
936.751	6717.63
937.059	6711.08
937.367	6601.7
937.674	6651.65
937.982	6613.23
938.29	6555.15
938.597	6577.3
938.905	6499.79
939.213	6458.21
939.52	6504.76
939.827	6446.23
940.135	6354.25
940.442	6419.11
940.749	6370.75
941.056	6396.06
941.363	6306.8
941.67	6259.57
941.977	6228.61
942.284	6238.1
942.591	6158.1
942.898	6124.2
943.205	6137.99
943.511	6148.84
943.818	6057.54
944.125	6053.02
944.431	6092.34
944.738	6010.31
945.044	6006.92
945.35	5994.49
945.657	5937.77
945.963	5952.91
946.269	5904.1
946.575	5856.64
946.881	5901.16
947.187	5861.16
947.493	5843.31
947.799	5813.7
948.105	5722.41
948.41	5737.55
948.716	5708.85
949.022	5682.86
949.327	5727.83
949.633	5631.79
949.938	5655.06
950.244	5638.79
950.549	5620.71
950.854	5527.83
951.16	5548.63
951.465	5547.95
951.77	5546.37
952.075	5456.65
952.38	5472.92
952.685	5428.18
952.99	5394.51
953.294	5334.62
953.599	5331.91
953.904	5317.67
954.209	5306.6
954.513	5244.68
954.818	5232.25
955.122	5256.66
955.426	5205.58
955.731	5196.32
956.035	5196.77
956.339	5190.44
956.643	5144.79
956.948	5122.42
957.252	5087.85
957.556	5112.25
957.86	5064.8
958.163	5057.34
958.467	4994.52
958.771	4959.04
959.075	4991.8
959.378	4938.25
959.682	4934.18
959.985	4934.86
960.289	4848.98
960.592	4869.77
960.896	4785.26
961.199	4868.87
961.502	4777.12
961.805	4765.14
962.108	4767.4
962.411	4729.89
962.714	4714.52
963.017	4726.73
963.32	4713.84
963.623	4645.82
963.926	4631.14
964.228	4662.77
964.531	4609.21
964.833	4562.66
965.136	4559.05
965.438	4579.16
965.741	4490.57
966.043	4501.2
966.345	4520.86
966.648	4476.56
966.95	4492.61
967.252	4399.95
967.554	4375.32
967.856	4336.45
968.158	4354.53
968.46	4373.74
968.761	4315.44
969.063	4318.15
969.365	4284.48
969.666	4265.04
969.968	4243.57
970.269	4251.48
970.571	4260.75
970.872	4219.85
971.174	4162.9
971.475	4154.54
971.776	4131.94
972.077	4141.88
972.378	4114.76
972.679	4108.21
972.98	4082.9
973.281	4077.03
973.582	4048.1
973.883	4006.74
974.183	3957.71
974.484	4003.13
974.785	3953.86
975.085	3926.75
975.386	3950.25
975.686	3890.59
975.986	3915.45
976.287	3915
976.587	3900.76
976.887	3851.95
977.187	3846.3
977.487	3832.29
977.787	3807.65
978.087	3808.11
978.387	3774.89
978.687	3783.47
978.987	3784.6
979.286	3743.25
979.586	3698.5
979.885	3695.79
980.185	3655.79
980.484	3667.32
980.784	3639.07
981.083	3622.12
981.382	3621.9
981.682	3576.02
981.981	3567.66
982.28	3553.2
982.579	3561.78
982.878	3532.41
983.177	3534.89
983.475	3502.8
983.774	3498.51
984.073	3495.12
984.372	3482.24
984.67	3439.98
984.969	3452.41
985.267	3435.01
985.566	3439.3
985.864	3344.84
986.162	3401.34
986.461	3380.32
986.759	3340.55
987.057	3313.2
987.355	3316.14
987.653	3282.24
987.951	3283.6
988.249	3275.46
988.547	3270.04
988.844	3270.72
989.142	3256.48
989.44	3208.8
989.737	3176.48
990.035	3188.24
990.332	3179.87
990.63	3166.77
990.927	3099.2
991.224	3101.01
991.521	3131.29
991.819	3110.95
992.116	3057.17
992.413	3050.61
992.71	3023.72
993.006	3016.04
993.303	3011.06
993.6	3010.84
993.897	3043.38
994.193	2974.23
994.49	2969.94
994.787	2935.36
995.083	2934.91
995.379	2912.54
995.676	2926.32
995.972	2922.93
996.268	2920.67
996.565	2851.3
996.861	2871.63
997.157	2885.42
997.453	2804.29
997.749	2819.43
998.044	2805.42
998.34	2859.43
998.636	2786.21
998.932	2736.27
999.227	2741.02
999.523	2731.98
999.818	2724.07
1000.114	2706.89
1000.409	2700.11
1000.704	2663.96
1001	2642.26
1001.295	2642.94
1001.59	2615.37
1001.885	2614.01
1002.18	2603.62
1002.475	2583.51
1002.77	2580.12
1003.065	2566.1
1003.359	2547.35
1003.654	2526.78
1003.949	2519.55
1004.243	2500.8
1004.538	2481.59
1004.832	2486.56
1005.127	2475.03
1005.421	2436.84
1005.715	2451.76
1006.009	2454.47
1006.304	2383.06
1006.598	2345.77
1006.892	2384.19
1007.186	2378.99
1007.48	2370.4
1007.773	2334.92
1008.067	2309.16
1008.361	2311.87
1008.655	2286.79
1008.948	2308.26
1009.242	2267.81
1009.535	2252.44
1009.829	2255.6
1010.122	2219
1010.415	2244.31
1010.708	2171.54
1011.001	2198.2
1011.295	2186
1011.588	2166.12
1011.881	2139.45
1012.173	2172.44
1012.466	2140.13
1012.759	2134.03
1013.052	2120.69
1013.344	2102.16
1013.637	2061.71
1013.93	2060.13
1014.222	2041.37
1014.514	2044.31
1014.807	2011.77
1015.099	2019
1015.391	2027.81
1015.683	2017.19
1015.976	1994.37
1016.268	1974.71
1016.56	1977.65
1016.851	1915.73
1017.143	1936.97
1017.435	1949.17
1017.727	1904.43
1018.018	1909.85
1018.31	1867.82
1018.602	1890.87
1018.893	1879.8
1019.185	1833.47
1019.476	1820.59
1019.767	1803.64
1020.058	1790.53
1020.35	1795.05
1020.641	1788.95
1020.932	1797.99
1021.223	1737.2
1021.514	1759.12
1021.804	1732.91
1022.095	1723.64
1022.386	1722.51
1022.677	1713.47
1022.967	1694.94
1023.258	1688.39
1023.548	1657.88
1023.839	1676.64
1024.129	1632.34
1024.419	1643.19
1024.709	1631.89
1025	1617.88
1025.29	1612.68
1025.58	1614.27
1025.87	1589.63
1026.16	1588.73
1026.449	1544.21
1026.739	1590.99
1027.029	1549.86
1027.319	1561.16
1027.608	1534.27
1027.898	1516.64
1028.187	1504.44
1028.477	1496.75
1028.766	1475.51
1029.055	1472.35
1029.344	1457.66
1029.634	1436.87
1029.923	1439.81
1030.212	1421.95
1030.501	1420.82
1030.79	1402.52
1031.078	1385.57
1031.367	1376.98
1031.656	1393.03
1031.945	1386.47
1032.233	1354.16
1032.522	1367.94
1032.81	1359.36
1033.099	1340.83
1033.387	1329.08
1033.675	1306.25
1033.963	1321.62
1034.251	1279.13
1034.54	1295.86
1034.828	1289.75
1035.116	1261.28
1035.403	1263.54
1035.691	1280.04
1035.979	1252.92
1036.267	1254.5
1036.554	1244.56
1036.842	1227.61
1037.129	1232.58
1037.417	1224.9
1037.704	1202.07
1037.992	1187.16
1038.279	1179.02
1038.566	1185.58
1038.853	1185.58
1039.14	1185.58
