Data from aluminium_surface_pro_back_FLMS001491_00083.txt Node
Date: Wed Feb 08 15:34:39 GMT 2017
User: dcchb
Spectrometer: FLMS00149
Trigger mode: 0
Integration Time (sec): 2.000000E-2
Scans to average: 10
Electric dark correction enabled: true
Nonlinearity correction enabled: false
Boxcar width: 0
XAxis mode: Wavelengths
Number of Pixels in Spectrum: 2048
>>>>>Begin Spectral Data<<<<<
341.393	-19.25
341.776	-19.25
342.16	-19.25
342.543	-58.35
342.927	-58.12
343.31	-71.45
343.693	-70.77
344.077	-56.76
344.46	-61.28
344.843	-51.79
345.226	-25.13
345.61	-20.15
345.993	-17.67
346.376	-14.73
346.759	5.61
347.142	34.76
347.525	32.95
347.908	54.87
348.291	73.4
348.674	72.72
349.057	115.43
349.44	111.37
349.823	151.82
350.206	169.44
350.588	223.45
350.971	248.09
351.354	261.42
351.737	254.87
352.119	260.74
352.502	279.5
352.884	287.41
353.267	317.46
353.65	313.4
354.032	313.4
354.414	349.78
354.797	359.04
355.179	337.35
355.562	359.5
355.944	346.16
356.326	381.19
356.709	372.38
357.091	360.85
357.473	372.15
357.855	360.85
358.238	389.78
358.62	384.58
359.002	383.9
359.384	364.02
359.766	394.07
360.148	366.5
360.53	372.15
360.912	359.04
361.294	379.38
361.676	364.24
362.057	370.8
362.439	379.16
362.821	375.09
363.203	370.34
363.584	371.25
363.966	351.13
364.348	361.98
364.729	360.4
365.111	384.58
365.493	355.65
365.874	353.17
366.256	340.74
366.637	364.02
367.019	375.54
367.4	383.9
367.781	360.85
368.163	368.54
368.544	375.54
368.925	378.03
369.306	367.86
369.688	385.03
370.069	374.19
370.45	374.86
370.831	375.54
371.212	394.75
371.593	387.97
371.974	357.46
372.355	395.65
372.736	407.18
373.117	388.87
373.498	391.13
373.879	391.13
374.26	398.37
374.641	387.07
375.021	391.36
375.402	388.65
375.783	397.69
376.163	422.77
376.544	423.9
376.925	412.15
377.305	431.36
377.686	422.55
378.066	418.7
378.447	439.72
378.827	441.53
379.208	427.74
379.588	435.2
379.968	431.81
380.349	436.33
380.729	439.04
381.109	439.27
381.489	457.8
381.87	453.96
382.25	470
382.63	450.79
383.01	438.14
383.39	460.96
383.77	483.11
384.15	475.88
384.53	479.49
384.91	478.36
385.29	489.66
385.67	496.89
386.049	494.18
386.429	513.39
386.809	504.35
387.189	519.49
387.568	520.4
387.948	532.15
388.328	551.36
388.707	539.38
389.087	554.07
389.466	552.71
389.846	554.97
390.225	543.45
390.605	563.78
390.984	580.28
391.363	581.86
391.743	582.77
392.122	578.02
392.501	611.02
392.881	602.65
393.26	628.19
393.639	628.64
394.018	631.81
394.397	636.55
394.776	651.24
395.155	633.61
395.534	674.52
395.913	656.21
396.292	667.06
396.671	677.45
397.05	666.83
397.429	665.7
397.808	678.58
398.186	695.08
398.565	700.96
398.944	710
399.323	718.81
399.701	739.15
400.08	730.11
400.458	763.1
400.837	752.03
401.215	768.07
401.594	748.64
401.972	769.43
402.351	793.61
402.729	803.1
403.107	806.04
403.486	831.35
403.864	811.46
404.242	853.49
404.62	838.58
404.999	861.86
405.377	858.69
405.755	862.53
406.133	891.23
406.511	875.87
406.889	934.85
407.267	930.55
407.645	927.84
408.023	946.83
408.401	959.48
408.779	961.06
409.156	974.4
409.534	997.22
409.912	1011.23
410.29	1018.24
410.667	1025.02
411.045	1051.68
411.422	1069.53
411.8	1079.7
412.178	1100.04
412.555	1153.6
412.933	1141.4
413.31	1142.98
413.687	1162.41
414.065	1174.39
414.442	1166.71
414.819	1200.6
415.197	1186.59
415.574	1230.89
415.951	1215.07
416.328	1269.98
416.705	1268.85
417.082	1245.57
417.46	1287.38
417.837	1306.59
418.214	1293.26
418.591	1309.08
418.967	1334.61
419.344	1343.2
419.721	1359.47
420.098	1363.31
420.475	1382.75
420.852	1432.91
421.228	1437.21
421.605	1453.25
421.982	1433.14
422.358	1474.95
422.735	1458
423.111	1475.63
423.488	1540.03
423.864	1532.35
424.241	1573.48
424.617	1575.06
424.994	1596.53
425.37	1612.57
425.746	1625.23
426.123	1657.32
426.499	1663.19
426.875	1679.69
427.251	1685.56
427.627	1717.43
428.003	1755.84
428.379	1760.82
428.756	1793.81
429.132	1795.62
429.507	1845.33
429.883	1847.82
430.259	1888.27
430.635	1883.3
431.011	1937.99
431.387	1963.97
431.763	1995.16
432.138	1997.65
432.514	2043.29
432.89	2047.36
433.265	2090.52
433.641	2137.75
434.016	2149.28
434.392	2195.61
434.767	2209.84
435.143	2200.13
435.518	2253.46
435.894	2287.13
436.269	2302.27
436.644	2312.21
437.02	2371.19
437.395	2361.7
437.77	2417.3
438.145	2442.38
438.52	2473.34
438.895	2512.66
439.271	2469.05
439.646	2547.69
440.021	2591.53
440.395	2559.21
440.77	2556.27
441.145	2620.91
441.52	2671.53
441.895	2702.49
442.27	2708.59
442.645	2700
443.019	2736.61
443.394	2727.57
443.769	2792.43
444.143	2796.04
444.518	2815.02
444.892	2816.83
445.267	2829.04
445.641	2910.16
446.016	2892.08
446.39	2942.71
446.764	2933.89
447.139	2960.11
447.513	3020.22
447.887	2975.7
448.262	3025.87
448.636	3050.27
449.01	3065.87
449.384	3099.31
449.758	3134.34
450.132	3167.78
450.506	3192.42
450.88	3215.01
451.254	3208.91
451.628	3264.28
452.002	3293.43
452.376	3367.55
452.75	3370.72
453.123	3391.73
453.497	3485.74
453.871	3493.65
454.244	3556.93
454.618	3537.04
454.992	3617.49
455.365	3660.88
455.739	3763.93
456.112	3782.01
456.486	3782.91
456.859	3817.26
457.232	3905.39
457.606	3882.79
457.979	3974.32
458.352	4058.61
458.725	4129.79
459.099	4161.66
459.472	4204.82
459.845	4236.46
460.218	4264.25
460.591	4338.15
460.964	4379.5
461.337	4452.27
461.71	4497.47
462.083	4575.43
462.456	4602.77
462.829	4628.54
463.201	4724.13
463.574	4690.68
463.947	4847.06
464.32	4905.82
464.692	4962.31
465.065	5008.87
465.438	5064.01
465.81	5185.13
466.183	5170.9
466.555	5340.61
466.928	5319.14
467.3	5370.66
467.672	5466.93
468.045	5590.55
468.417	5618.57
468.789	5664.67
469.161	5734.95
469.534	5860.37
469.906	5979.46
470.278	5988.05
470.65	6071.89
471.022	6166.35
471.394	6281.6
471.766	6365.89
472.138	6501.48
472.51	6566.34
472.882	6730.4
473.253	6748.03
473.625	6831.19
473.997	7014.69
474.369	7047.46
474.74	7169.71
475.112	7245.87
475.484	7374.45
475.855	7506.65
476.227	7589.36
476.598	7874.55
476.97	7891.73
477.341	8086.52
477.713	8251.27
478.084	8335.56
478.455	8571.71
478.827	8575.33
479.198	8799.73
479.569	8911.36
479.94	9124.69
480.311	9220.05
480.682	9359.03
481.053	9634.96
481.424	9757.44
481.795	9858.91
482.166	10089.41
482.537	10231.1
482.908	10397.2
483.279	10466.58
483.65	10662.28
484.021	10927.58
484.391	11095.49
484.762	11202.37
485.133	11203.5
485.503	11488.24
485.874	11662.93
486.244	11806.88
486.615	12091.39
486.985	12128.23
487.356	12479.4
487.726	12502.23
488.097	12868.77
488.467	12938.15
488.837	13097.47
489.207	13292.49
489.578	13494.97
489.948	13630.11
490.318	13775.87
490.688	13914.85
491.058	14076.2
491.428	14295.63
491.798	14469.41
492.168	14734.94
492.538	14828.95
492.908	15012.22
493.278	15221.25
493.648	15209.73
494.017	15402.26
494.387	15521.58
494.757	15657.85
495.126	15916.83
495.496	15970.39
495.866	16075.69
496.235	16263.48
496.605	16367.21
496.974	16486.08
497.344	16725.39
497.713	16736.01
498.082	16882.23
498.452	17053.97
498.821	17240.86
499.19	17203.35
499.559	17465.04
499.928	17576.67
500.298	17701.64
500.667	17920.16
501.036	17875.42
501.405	18161.97
501.774	18164
502.143	18309.76
502.512	18445.57
502.88	18610.09
503.249	18698.68
503.618	18780.25
503.987	18963.07
504.356	19079.91
504.724	19218.21
505.093	19271.54
505.462	19422.05
505.83	19523.74
506.199	19719.67
506.567	19963.05
506.936	19980.22
507.304	20230.39
507.672	20314.9
508.041	20469.25
508.409	20539.53
508.777	20686.65
509.145	20876.92
509.514	20956.24
509.882	21180.87
510.25	21335.67
510.618	21379.73
510.986	21534.08
511.354	21760.74
511.722	21966.84
512.09	22180.84
512.458	22160.73
512.826	22460.61
513.193	22581.06
513.561	22855.63
513.929	22845.68
514.297	23137.43
514.664	23364.99
515.032	23421.04
515.4	23635.27
515.767	23715.94
516.135	23870.74
516.502	23771.76
516.869	24247.91
517.237	24387.34
517.604	24357.96
517.972	24732.87
518.339	24974.44
518.706	24908.46
519.073	25195.68
519.44	25318.61
519.808	25527.65
520.175	25639.74
520.542	25936.22
520.909	26114.07
521.276	26227.52
521.643	26471.13
522.009	26642.65
522.376	27044.44
522.743	26993.82
523.11	27433.13
523.477	27669.29
523.843	27782.73
524.21	28018.43
524.577	28303.62
524.943	28455.48
525.31	28592.43
525.676	28969.82
526.043	29182.69
526.409	29336.81
526.776	29647.31
527.142	29789.68
527.508	30048.43
527.874	30262.89
528.241	30351.7
528.607	30498.59
528.973	30779.71
529.339	30838.47
529.705	31217.22
530.071	31418.34
530.437	31506.93
530.803	31747.37
531.169	31917.99
531.535	32044.76
531.901	32090.41
532.267	32296.28
532.632	32540.12
532.998	32754.8
533.364	32929.94
533.73	33002.71
534.095	33240.44
534.461	33349.36
534.826	33657.6
535.192	33639.98
535.557	34032.06
535.923	33950.03
536.288	34137.37
536.653	34400.64
537.019	34441.09
537.384	34563.79
537.749	34662.32
538.114	34754.52
538.479	34733.73
538.845	35080.84
539.21	35000.17
539.575	35239.03
539.94	35291.91
540.305	35415.3
540.67	35452.81
541.034	35762.41
541.399	35781.39
541.764	35878.79
542.129	36107.93
542.494	36148.84
542.858	36289.4
543.223	36506.34
543.587	36606
543.952	36442.62
544.316	36772.32
544.681	36900.23
545.045	36968.48
545.41	37182.71
545.774	37241.69
546.138	37391.52
546.503	37606.88
546.867	37595.58
547.231	37846.65
547.595	37908.79
547.959	38120.76
548.324	38129.58
548.688	38322.34
549.052	38565.5
549.416	38571.37
549.779	38533.63
550.143	38803.01
550.507	38945.6
550.871	39117.57
551.235	39165.93
551.599	39268.08
551.962	39351.92
552.326	39348.53
552.689	39825.13
553.053	39636.88
553.417	39813.37
553.78	40139.47
554.143	40031.22
554.507	40241.16
554.87	40448.39
555.234	40790.98
555.597	40625.1
555.96	40837.98
556.323	41070.74
556.686	41026.45
557.05	41418.76
557.413	41547.34
557.776	41486.78
558.139	41879.08
558.502	41880.21
558.865	42025.75
559.228	42352.97
559.59	42441.33
559.953	42594.09
560.316	43075.21
560.679	43160.86
561.041	43370.57
561.404	43534.18
561.767	43889.43
562.129	43695.08
562.492	44196.76
562.854	44029.99
563.217	44326.25
563.579	44434.04
563.941	44652.57
564.304	44829.74
564.666	45144.76
565.028	45327.81
565.39	45573.9
565.753	45690.06
566.115	45970.27
566.477	45957.17
566.839	46217.5
567.201	46486.87
567.563	46501.33
567.925	46898.61
568.287	46710.37
568.648	46942.68
569.01	47127.53
569.372	47340.63
569.734	47483.68
570.095	47607.52
570.457	47861.52
570.819	47919.83
571.18	48049.77
571.542	48261.51
571.903	48315.98
572.265	48451.34
572.626	48625.57
572.987	48710.77
573.349	48833.48
573.71	49072.11
574.071	49194.14
574.432	49216.06
574.794	49447.92
575.155	49558.2
575.516	49426.23
575.877	49661.25
576.238	49680.91
576.599	49914.58
576.96	49949.38
577.32	49934.46
577.681	50110.5
578.042	50213.55
578.403	50302.82
578.763	50270.95
579.124	50326.77
579.485	50486.99
579.845	50740.32
580.206	50602.02
580.566	50554.56
580.927	50660.77
581.287	50746.19
581.648	50781.67
582.008	50837.04
582.368	50812.18
582.728	50912.97
583.089	50864.61
583.449	50881.56
583.809	50938.05
584.169	51019.63
584.529	51090.59
584.889	51335.56
585.249	51066.86
585.609	51097.82
585.969	51292.62
586.329	51204.71
586.688	51207.42
587.048	51115
587.408	51230.25
587.768	51219.4
588.127	51142.79
588.487	51157.93
588.846	51407.19
589.206	51182.57
589.565	51212.62
589.925	51254.43
590.284	51190.7
590.643	51340.08
591.003	51312.28
591.362	51467.53
591.721	51418.27
592.08	51357.48
592.44	51494.2
592.799	51426.4
593.158	51410.58
593.517	51409.91
593.876	51459.62
594.235	51396.35
594.593	51505.5
594.952	51537.81
595.311	51411.94
595.67	51473.86
596.029	51741.87
596.387	51720.86
596.746	51783.91
597.104	51574.42
597.463	51572.61
597.822	51790.46
598.18	51670.24
598.538	51653.97
598.897	51686.96
599.255	51623.91
599.613	52063
599.972	51888.08
600.33	51849.67
600.688	51759.27
601.046	51818.26
601.404	51976.9
601.762	51976.44
602.12	52131.47
602.478	52199.26
602.836	52183.22
603.194	51938.03
603.552	52118.14
603.91	51982.77
604.268	52111.13
604.625	52075.2
604.983	52345.7
605.341	52025.93
605.698	52176.21
606.056	52327.85
606.413	52222.99
606.771	52406.94
607.128	52383.67
607.485	52320.16
607.843	52307.96
608.2	52450.56
608.557	52474.74
608.914	52399.94
609.272	52567.16
609.629	52699.14
609.986	52745.92
610.343	52577.78
610.7	52849.64
611.057	52837.66
611.414	52713.15
611.771	52798.12
612.127	52937.1
612.484	52939.36
612.841	53015.74
613.198	52977.1
613.554	52877.66
613.911	53217.99
614.267	53148.16
614.624	53098.22
614.98	53112.69
615.337	53200.14
615.693	53251.66
616.05	53184.32
616.406	53367.82
616.762	53197.2
617.118	53177.54
617.475	53271.78
617.831	53311.55
618.187	53346.35
618.543	53295.05
618.899	53482.62
619.255	53420.93
619.611	53409.85
619.967	53551.32
620.323	53559.68
620.678	53570.98
621.034	53475.61
621.39	53439.91
621.746	53439
622.101	53717.87
622.457	53504.31
622.812	53556.29
623.168	53653.91
623.523	53704.31
623.879	53796.51
624.234	53620.02
624.589	53732.33
624.945	53706.34
625.3	53765.32
625.655	53755.15
626.01	53657.76
626.365	53695.27
626.72	53702.05
627.075	53598.77
627.43	53660.24
627.785	53676.96
628.14	53657.53
628.495	53707.47
628.85	53631.54
629.205	53532.79
629.559	53746.12
629.914	53520.58
630.269	53611.2
630.623	53538.89
630.978	53390.19
631.332	53564.2
631.687	53578.66
632.041	53432.45
632.396	53479.46
632.75	53330.53
633.104	53392.45
633.459	53339.57
633.813	53236.98
634.167	53321.72
634.521	53275.84
634.875	53201.72
635.229	53220.71
635.583	53095.06
635.937	52945.23
636.291	52970.32
636.645	52890.32
636.999	52824.56
637.352	52901.62
637.706	52680.61
638.06	52756.54
638.413	52681.96
638.767	52564.45
639.121	52530.33
639.474	52464.79
639.828	52365.59
640.181	52403.1
640.534	52421.86
640.888	52323.55
641.241	52178.02
641.594	52312.48
641.947	52425.25
642.301	52218.92
642.654	52315.64
643.007	52200.17
643.36	52238.81
643.713	52192.48
644.066	52202.2
644.419	52004.24
644.771	51844.7
645.124	51522.9
645.477	51452.84
645.83	51362.67
646.182	51233.19
646.535	51058.28
646.888	51174.21
647.24	50910.26
647.593	51199.29
647.945	51038.16
648.298	50824.61
648.65	50730.6
649.002	50560.21
649.355	50750.94
649.707	50665.52
650.059	50788.23
650.411	51234.54
650.763	51389.57
651.115	51543.24
651.467	51452.16
651.819	51348.21
652.171	51345.73
652.523	51204.04
652.875	51242.23
653.227	51076.81
653.578	51371.26
653.93	51200.19
654.282	51110.25
654.633	50963.82
654.985	51038.62
655.337	51009.01
655.688	51076.81
656.039	51124.49
656.391	50806.98
656.742	50994.32
657.094	50936.25
657.445	50993.65
657.796	50881.78
658.147	50761.33
658.498	50713.88
658.849	50798.17
659.2	50771.96
659.551	50676.59
659.902	50810.15
660.253	50717.95
660.604	50702.81
660.955	50518.18
661.306	50641.56
661.656	50465.75
662.007	50493.77
662.358	50507.1
662.708	50529.7
663.059	50426.43
663.409	50365.41
663.76	50475.69
664.11	50454.9
664.461	50456.03
664.811	50446.54
665.161	50375.81
665.511	50341.91
665.862	50256.94
666.212	50432.3
666.562	50416.03
666.912	50314.57
667.262	50254.91
667.612	50351.18
667.962	50220.56
668.312	50101.01
668.662	50400.67
669.011	50226.66
669.361	50138.3
669.711	50111.41
670.06	50037.51
670.41	50066.89
670.76	49963.62
671.109	50141.46
671.459	49972.43
671.808	49962.71
672.157	50043.84
672.507	49806.56
672.856	49838.87
673.205	49871.19
673.554	50028.02
673.904	49902.6
674.253	50115.02
674.602	49811.08
674.951	49396.17
675.3	49258.32
675.649	49751.19
675.998	49788.48
676.346	49852.21
676.695	49855.37
677.044	49570.63
677.393	49648.6
677.741	49784.41
678.09	49654.92
678.438	49580.8
678.787	49514.36
679.135	49596.17
679.484	49258.55
679.832	49361.6
680.181	49320.47
680.529	49324.99
680.877	49237.31
681.225	49170.87
681.573	49256.74
681.922	49024.21
682.27	48846.36
682.618	48946.47
682.966	48881.38
683.314	48959.57
683.661	48738.79
684.009	48580.15
684.357	48357.1
684.705	48532.24
685.053	48489.08
685.4	48369.53
685.748	48143.78
686.095	48228.07
686.443	48029.43
686.79	48082.99
687.138	48094.29
687.485	48032.37
687.832	47837.57
688.18	47821.3
688.527	47590.34
688.874	47611.14
689.221	47552.38
689.568	47511.02
689.915	47355.32
690.262	47341.99
690.609	47254.53
690.956	47189.68
691.303	47033.3
691.65	46847.99
691.997	46799.86
692.344	46572.07
692.69	46597.6
693.037	46628.34
693.383	46303.82
693.73	46325.07
694.077	46071.97
694.423	46123.04
694.769	45894.12
695.116	45856.83
695.462	45884.17
695.808	45750.39
696.155	45769.38
696.501	45378.88
696.847	45409.61
697.193	45130.97
697.539	45502.72
697.885	44951.54
698.231	44797.88
698.577	44890.53
698.923	44761.04
699.269	44649.18
699.614	44294.84
699.96	44256.87
700.306	44257.1
700.651	44124
700.997	43911.57
701.342	43842.65
701.688	43773.04
702.033	43853.04
702.379	43692.82
702.724	43455.76
703.069	43578.02
703.415	43186.39
703.76	43046.51
704.105	43171.48
704.45	43022.33
704.795	42828.66
705.14	42757.48
705.485	42754.09
705.83	42631.83
706.175	42711.6
706.52	42471.61
706.865	42423.93
707.209	42207.44
707.554	42162.92
707.899	42114.1
708.243	41948.01
708.588	41862.59
708.932	41582.82
709.277	41583.05
709.621	41668.47
709.966	41283.39
710.31	41444.52
710.654	41112.55
710.998	41016.73
711.342	41081.82
711.687	40911.42
712.031	40867.36
712.375	40732.67
712.719	40769.73
713.063	40622.62
713.407	40655.16
713.75	40483.41
714.094	40475.5
714.438	40216.08
714.782	40233.93
715.125	40056.08
715.469	40206.81
715.812	39922.75
716.156	39694.28
716.499	39693.38
716.843	39776.09
717.186	39564.12
717.53	39627.39
717.873	39706.48
718.216	39521.86
718.559	39401.63
718.902	39122.54
719.246	39258.36
719.589	39194.41
719.932	39064.24
720.275	39164.13
720.617	38978.37
720.96	38906.96
721.303	38973.85
721.646	38814.76
721.989	38537.25
722.331	38756.23
722.674	38542.9
723.016	38553.97
723.359	38420.19
723.701	38316.24
724.044	38138.39
724.386	37922.12
724.729	38175
725.071	38081.44
725.413	37940.88
725.755	37874.67
726.097	37775.69
726.439	37628.12
726.782	37540.44
727.124	37780.66
727.465	37506.54
727.807	37487.33
728.149	37409.37
728.491	37466.32
728.833	37344.29
729.175	37133.22
729.516	37119.66
729.858	37151.52
730.199	37152.43
730.541	36935.26
730.882	36923.28
731.224	36889.38
731.565	36668.82
731.906	36791.53
732.248	36736.62
732.589	36389.74
732.93	36464.08
733.271	36452.33
733.612	36352.45
733.953	36320.58
734.294	36297.76
734.635	36147.48
734.976	36109.06
735.317	35991.33
735.658	35961.5
735.999	35981.61
736.339	35743.65
736.68	35956.3
737.021	35741.16
737.361	35655.07
737.702	35937.54
738.042	35742.97
738.383	35531
738.723	35638.12
739.063	35344.57
739.404	35410.55
739.744	35511.11
740.084	35243.32
740.424	35208.98
740.764	35053.27
741.104	35206.72
741.444	34953.61
741.784	34998.59
742.124	34913.84
742.464	34913.16
742.804	34747.74
743.143	34643.57
743.483	34716.11
743.823	34449.45
744.162	34616.45
744.502	34520.41
744.841	34199.96
745.181	34420.75
745.52	34290.36
745.86	34335.33
746.199	34221.88
746.538	34154.54
746.877	34070.02
747.216	34040.42
747.556	33878.16
747.895	33879.52
748.234	33863.7
748.573	33815.34
748.911	33681.11
749.25	33614.22
749.589	33546.87
749.928	33538.06
750.267	33471.85
750.605	33365.63
750.944	33358.4
751.283	33052.42
751.621	33191.63
751.96	33097.62
752.298	33006.32
752.636	33069.6
752.975	32938.53
753.313	32884.52
753.651	32911.86
753.989	32660.34
754.327	32638.42
754.666	32545.99
755.004	32746.67
755.342	32658.08
755.679	32452.21
756.017	32277.75
756.355	32262.84
756.693	32251.09
757.031	32112.33
757.368	31973.35
757.706	31997.99
758.044	31798.22
758.381	31811.1
758.719	31688.39
759.056	31703.76
759.394	31609.3
759.731	31367.49
760.068	31252.24
760.405	31120.72
760.743	31027.39
761.08	31114.39
761.417	30893.61
761.754	30850.67
762.091	30634.18
762.428	30524.13
762.765	30474.18
763.102	30499.04
763.438	30350.35
763.775	30210.69
764.112	30213.63
764.449	30144.02
764.785	29959.85
765.122	29837.59
765.458	29753.07
765.795	29651.83
766.131	29739.97
766.467	29609.8
766.804	29511.95
767.14	29416.81
767.476	29348.11
767.812	29107.21
768.148	29210.04
768.485	29019.53
768.821	28899.99
769.157	28714.91
769.492	28769.37
769.828	28579.55
770.164	28316.28
770.5	28383.62
770.836	28233.79
771.171	28159.44
771.507	28142.04
771.842	27896.63
772.178	27848.04
772.513	27626.12
772.849	27665.9
773.184	27420.25
773.519	27523.98
773.855	27293.03
774.19	27214.16
774.525	27192.69
774.86	27079.7
775.195	26966.93
775.53	26810.1
775.865	26724
776.2	26577.34
776.535	26368.08
776.87	26454.86
777.205	26223.67
777.539	26153.62
777.874	26196.78
778.209	25864.36
778.543	25826.4
778.878	25633.18
779.212	25663.24
779.547	25586.4
779.881	25586.63
780.215	25350.7
780.55	25472.28
780.884	25261.44
781.218	25006.98
781.552	25078.39
781.886	24951.39
782.22	24852.86
782.554	24703.26
782.888	24505.98
783.222	24397.28
783.556	24217.4
783.889	24342.14
784.223	24178.76
784.557	24172.43
784.89	24191.41
785.224	24036.16
785.557	23963.4
785.891	23957.07
786.224	23747.81
786.558	23701.71
786.891	23521.83
787.224	23401.15
787.557	23369.74
787.891	23319.57
788.224	23277.09
788.557	23269.85
788.89	23094.04
789.223	23040.48
789.556	22963.2
789.888	22851.56
790.221	22856.31
790.554	22671.23
790.887	22676.65
791.219	22580.61
791.552	22562.98
791.884	22398.92
792.217	22255.64
792.549	22283.21
792.882	22152.14
793.214	22006.61
793.546	22021.3
793.879	21897.46
794.211	21816.56
794.543	21681.42
794.875	21649.56
795.207	21720.06
795.539	21622.89
795.871	21548.54
796.203	21309.91
796.535	21243.24
796.867	21207.08
797.198	21134.77
797.53	21042.57
797.862	20954.21
798.193	20930.25
798.525	20743.59
798.856	20831.05
799.188	20555.8
799.519	20512.64
799.85	20546.99
800.182	20472.87
800.513	20489.14
800.844	20241.69
801.175	20354.22
801.506	20284.17
801.837	20251.4
802.168	20130.5
802.499	20018.87
802.83	19931.18
803.161	19881.47
803.491	19874.24
803.822	19887.12
804.153	19691.19
804.483	19607.58
804.814	19480.8
805.145	19572.32
805.475	19536.62
805.805	19457.98
806.136	19403.29
806.466	19332.33
806.796	19347.02
807.126	19116.74
807.457	19011.44
807.787	19096.63
808.117	19054.82
808.447	18893.92
808.777	19024.99
809.107	18935.96
809.436	18806.92
809.766	18787.94
810.096	18755.62
810.426	18674.95
810.755	18679.92
811.085	18559.47
811.414	18586.81
811.744	18428.63
812.073	18330.55
812.403	18454.39
812.732	18243.32
813.061	18296.88
813.39	18138.92
813.719	18124.45
814.049	18227.27
814.378	18016.43
814.707	18016.89
815.036	17949.09
815.365	17910.22
815.693	17708.64
816.022	17784.35
816.351	17612.38
816.68	17632.49
817.008	17620.29
817.337	17539.16
817.665	17506.62
817.994	17433.85
818.322	17448.76
818.651	17372.38
818.979	17276.11
819.307	17260.97
819.636	17234.98
819.964	17211.03
820.292	17191.37
820.62	17274.31
820.948	17042.45
821.276	17224.59
821.604	17141.88
821.932	17186.62
822.259	17169.22
822.587	17190.24
822.915	17129.68
823.243	17143.46
823.57	17132.84
823.898	17223.01
824.225	17102.11
824.553	17038.83
824.88	17056.68
825.207	17066.63
825.535	17010.81
825.862	17059.62
826.189	16884.26
826.516	17081.09
826.843	17149.11
827.17	17038.38
827.497	17110.24
827.824	16982.34
828.151	17023.92
828.478	17022.33
828.805	17106.17
829.131	17002.67
829.458	16940.08
829.785	16803.81
830.111	16922.68
830.438	17033.86
830.764	16980.08
831.09	16861.44
831.417	16832.06
831.743	16907.31
832.069	16916.35
832.395	16867.76
832.722	16890.13
833.048	16757.94
833.374	16822.57
833.7	16766.07
834.026	16853.98
834.351	16794.77
834.677	16801.32
835.003	16818.72
835.329	16766.75
835.654	16800.87
835.98	16676.36
836.306	16639.75
836.631	16589.58
836.956	16651.95
837.282	16637.94
837.607	16466.42
837.932	16458.06
838.258	16450.6
838.583	16473.65
838.908	16395.23
839.233	16456.02
839.558	16340.09
839.883	16280.89
840.208	16235.46
840.533	16299.87
840.858	16286.08
841.182	16210.15
841.507	16270.26
841.832	16192.75
842.156	16193.66
842.481	16078.86
842.805	16027.78
843.13	16134
843.454	16080.21
843.778	15980.55
844.103	15971.29
844.427	15920.22
844.751	15917.73
845.075	15951.4
845.399	15871.18
845.723	15753.89
846.047	15742.14
846.371	15591.19
846.695	15627.57
847.019	15454.69
847.343	15421.7
847.666	15401.81
847.99	15319.78
848.313	15330.4
848.637	15260.12
848.96	15200.91
849.284	15096.51
849.607	14987.59
849.931	14912.33
850.254	14818.78
850.577	14792.56
850.9	14658.1
851.223	14727.03
851.546	14711.66
851.869	14530.42
852.192	14600.48
852.515	14474.61
852.838	14413.59
853.161	14421.5
853.483	14362.52
853.806	14355.74
854.129	14321.61
854.451	14204.56
854.774	14180.83
855.096	14114.84
855.419	14043.66
855.741	14081.4
856.063	13974.05
856.385	13920.5
856.708	13944.68
857.03	13869.42
857.352	13924.56
857.674	13823.32
857.996	13750.1
858.318	13738.13
858.64	13798.69
858.961	13699.94
859.283	13651.8
859.605	13587.85
859.926	13585.59
860.248	13522.99
860.57	13534.29
860.891	13657.68
861.212	13412.26
861.534	13435.08
861.855	13403.22
862.176	13385.37
862.498	13432.6
862.819	13380.17
863.14	13375.43
863.461	13321.64
863.782	13273.28
864.103	13392.6
864.424	13261.3
864.745	13314.86
865.065	13235.09
865.386	13159.84
865.707	13175.2
866.027	13176.79
866.348	13098.14
866.668	13084.36
866.989	13083.68
867.309	13033.51
867.63	13057.24
867.95	13031.03
868.27	12906.51
868.59	12951.03
868.91	12934.08
869.23	12897.7
869.55	12822.67
869.87	12957.13
870.19	12807.08
870.51	12916.68
870.83	12810.02
871.15	12802.11
871.469	12795.55
871.789	12838.26
872.109	12713.3
872.428	12814.99
872.748	12837.81
873.067	12749.23
873.386	12745.39
873.706	12696.35
874.025	12750.58
874.344	12619.96
874.663	12718.95
874.982	12656.8
875.301	12688.21
875.62	12652.51
875.939	12612.96
876.258	12602.11
876.577	12545.39
876.896	12550.36
877.214	12556.01
877.533	12553.53
877.852	12533.41
878.17	12516.92
878.489	12524.6
878.807	12498.61
879.125	12415.9
879.444	12412.51
879.762	12408.44
880.08	12376.58
880.398	12355.11
880.716	12319.41
881.034	12342.46
881.352	12358.5
881.67	12260.65
881.988	12262.23
882.306	12136.36
882.624	12186.98
882.941	12089.81
883.259	12074.22
883.577	12036.93
883.894	12058.4
884.212	12116.48
884.529	12112.86
884.846	12015.91
885.164	11991.51
885.481	11954.67
885.798	12029.7
886.115	11941.34
886.432	11925.29
886.75	11937.72
887.067	11913.99
887.383	11886.88
887.7	11899.53
888.017	11786.77
888.334	11927.33
888.651	11772.98
888.967	11741.57
889.284	11628.58
889.6	11644.17
889.917	11597.84
890.233	11616.38
890.55	11565.53
890.866	11535.47
891.182	11481.24
891.498	11467.9
891.815	11519.88
892.131	11434.23
892.447	11377.51
892.763	11362.37
893.079	11379.32
893.395	11295.25
893.71	11295.93
894.026	11303.16
894.342	11153.34
894.657	11195.14
894.973	11125.09
895.289	11191.53
895.604	11162.83
895.92	11118.99
896.235	11046.22
896.55	11054.81
896.865	11017.3
897.181	10969.84
897.496	10972.1
897.811	10886.23
898.126	10864.08
898.441	10821.14
898.756	10811.88
899.071	10722.16
899.386	10749.73
899.7	10639.68
900.015	10572.34
900.33	10560.81
900.644	10554.48
900.959	10542.05
901.273	10569.4
901.588	10479
901.902	10400.36
902.216	10330.99
902.531	10376.18
902.845	10377.54
903.159	10286.24
903.473	10233.13
903.787	10159.92
904.101	10203.76
904.415	10212.34
904.729	10155.85
905.042	10111.1
905.356	10062.29
905.67	10048.96
905.984	10093.03
906.297	10038.79
906.611	9945.23
906.924	9937.78
907.237	9914.05
907.551	9841.51
907.864	9873.82
908.177	9789.76
908.491	9813.71
908.804	9775.97
909.117	9696.88
909.43	9647.61
909.743	9627.28
910.056	9587.28
910.368	9521.97
910.681	9470.9
910.994	9398.58
911.307	9378.92
911.619	9356.77
911.932	9320.62
912.244	9359.49
912.557	9267.51
912.869	9273.61
913.181	9180.51
913.494	9218.7
913.806	9134.18
914.118	9101.87
914.43	9076.78
914.742	9093.5
915.054	8950
915.366	8967.86
915.678	9024.35
915.99	8975.09
916.302	8786.62
916.613	8814.42
916.925	8872.04
917.236	8802.66
917.548	8686.06
917.859	8707.07
918.171	8623.91
918.482	8598.6
918.794	8592.73
919.105	8565.83
919.416	8508.66
919.727	8431.6
920.038	8360.64
920.349	8357.48
920.66	8339.63
920.971	8413.52
921.282	8298.27
921.593	8346.18
921.903	8257.59
922.214	8225.05
922.525	8190.7
922.835	8180.53
923.146	8164.04
923.456	8146.18
923.767	8018.5
924.077	8012.4
924.387	8003.14
924.697	7969.24
925.008	7937.83
925.318	7895.8
925.628	7933.08
925.938	7823.93
926.248	7772.18
926.558	7707.78
926.867	7688.57
927.177	7653.54
927.487	7670.26
927.796	7563.37
928.106	7584.62
928.416	7475.47
928.725	7499.65
929.034	7544.39
929.344	7469.37
929.653	7452.87
929.962	7420.55
930.271	7299.65
930.581	7282.48
930.89	7275.25
931.199	7260.78
931.508	7218.07
931.817	7222.14
932.125	7240.9
932.434	7181.92
932.743	7135.82
933.051	7131.97
933.36	7074.57
933.669	6943.5
933.977	7023.5
934.286	6977.63
934.594	7010.62
934.902	7000
935.21	6909.38
935.519	6908.93
935.827	6884.97
936.135	6830.06
936.443	6750.06
936.751	6739.89
937.059	6710.74
937.367	6710.97
937.674	6694.92
937.982	6706
938.29	6670.06
938.597	6682.27
938.905	6555.04
939.213	6555.04
939.52	6559.11
939.827	6505.32
940.135	6494.7
940.442	6463.52
940.749	6480.92
941.056	6541.25
941.363	6410.18
941.67	6372.9
941.977	6337.19
942.284	6299.68
942.591	6265.1
942.898	6267.36
943.205	6227.14
943.511	6198.44
943.818	6229.17
944.125	6118.21
944.431	6112.34
944.738	6114.6
945.044	6087.93
945.35	6101.72
945.657	6061.04
945.963	6021.04
946.269	5996.64
946.575	5975.17
946.881	5916.64
947.187	5944.21
947.493	5879.8
947.799	5821.05
948.105	5832.35
948.41	5819.69
948.716	5820.37
949.022	5784.66
949.327	5719.58
949.633	5692.92
949.938	5738.56
950.244	5649.98
950.549	5641.39
950.854	5572.92
951.16	5608.85
951.465	5531.56
951.77	5538.57
952.075	5479.14
952.38	5498.12
952.685	5506.03
952.99	5391.91
953.294	5398.91
953.599	5392.58
953.904	5404.79
954.209	5327.5
954.513	5330.44
954.818	5303.77
955.122	5289.54
955.426	5263.1
955.731	5258.58
956.035	5223.32
956.339	5210.89
956.643	5170.67
956.948	5136.77
957.252	5138.58
957.556	5104.46
957.86	5070.78
958.163	5069.43
958.467	5068.52
958.771	5054.51
959.075	5017.9
959.378	4947.4
959.682	4962.31
959.985	4948.08
960.289	4987.62
960.592	4932.26
960.896	4919.83
961.199	4841.86
961.502	4866.72
961.805	4848.42
962.108	4797.35
962.411	4743.11
962.714	4767.74
963.017	4718.93
963.32	4793.05
963.623	4728.42
963.926	4717.35
964.228	4677.8
964.531	4665.82
964.833	4642.32
965.136	4617.24
965.438	4577.24
965.741	4619.27
966.043	4579.95
966.345	4517.58
966.648	4509.67
966.95	4514.42
967.252	4494.75
967.554	4454.08
967.856	4440.52
968.158	4430.35
968.46	4408.2
968.761	4404.36
969.063	4370.92
969.365	4373.63
969.666	4368.66
969.968	4355.55
970.269	4255.89
970.571	4326.62
970.872	4198.94
971.174	4212.28
971.475	4213.41
971.776	4174.54
972.077	4161.43
972.378	4171.83
972.679	4125.05
972.98	4154.2
973.281	4120.08
973.582	4127.53
973.883	4089.34
974.183	4015.45
974.484	4043.24
974.785	4037.82
975.085	3985.39
975.386	4000.08
975.686	3966.41
975.986	3975.9
976.287	3985.16
976.587	3936.35
976.887	3890.93
977.187	3886.18
977.487	3894.09
977.787	3873.3
978.087	3824.04
978.387	3860.42
978.687	3817.71
978.987	3804.83
979.286	3741.78
979.586	3770.93
979.885	3712.85
980.185	3726.41
980.484	3681.67
980.784	3692.52
981.083	3675.79
981.382	3652.06
981.682	3610.26
981.981	3655.91
982.28	3615
982.579	3608.22
982.878	3564.84
983.177	3571.39
983.475	3545.4
983.774	3492.97
984.073	3510.83
984.372	3475.8
984.67	3505.4
984.969	3487.32
985.267	3485.74
985.566	3472.41
985.864	3444.84
986.162	3417.27
986.461	3423.14
986.759	3416.14
987.057	3386.99
987.355	3370.94
987.653	3372.3
987.951	3326.42
988.249	3324.84
988.547	3305.41
988.844	3289.59
989.142	3340.89
989.44	3261.34
989.737	3277.61
990.035	3267.44
990.332	3229.03
990.63	3204.62
990.927	3194.68
991.224	3165.07
991.521	3118.29
991.819	3129.59
992.116	3127.78
992.413	3122.81
992.71	3084.62
993.006	3082.59
993.303	3098.63
993.6	3051.85
993.897	3039.43
994.193	3056.83
994.49	3050.05
994.787	3007.56
995.083	2995.81
995.379	2976.15
995.676	2974.34
995.972	2944.51
996.268	2933.67
996.565	2905.19
996.861	2880.79
997.157	2885.31
997.453	2856.61
997.749	2838.75
998.044	2840.79
998.34	2843.5
998.636	2804.86
998.932	2850.28
999.227	2773.67
999.523	2756.72
999.818	2752.88
1000.114	2771.86
1000.409	2732.09
1000.704	2730.28
1001	2700.23
1001.295	2672.88
1001.59	2672.2
1001.885	2694.12
1002.18	2611.41
1002.475	2637.63
1002.77	2616.16
1003.065	2619.32
1003.359	2594.01
1003.654	2549.27
1003.949	2582.04
1004.243	2544.75
1004.538	2521.47
1004.832	2490.97
1005.127	2494.13
1005.421	2479.21
1005.715	2447.35
1006.009	2469.5
1006.304	2452.32
1006.598	2429.05
1006.892	2394.47
1007.186	2392.89
1007.48	2386.79
1007.773	2353.57
1008.067	2389.95
1008.361	2343.85
1008.655	2314.25
1008.948	2342.95
1009.242	2297.75
1009.535	2318.54
1009.829	2303.17
1010.122	2250.52
1010.415	2252.55
1010.708	2274.02
1011.001	2239.9
1011.295	2198.77
1011.588	2192.22
1011.881	2157.19
1012.173	2159.9
1012.466	2183.86
1012.759	2159
1013.052	2182.05
1013.344	2153.35
1013.637	2101.6
1013.93	2106.57
1014.222	2082.61
1014.514	2082.61
1014.807	2083.74
1015.099	2050.75
1015.391	2038.1
1015.683	2053.91
1015.976	2013.01
1016.268	2012.79
1016.56	1999.45
1016.851	1975.72
1017.143	1974.59
1017.435	1945.67
1017.727	1938.21
1018.018	1929.62
1018.31	1917.87
1018.602	1890.76
1018.893	1860.7
1019.185	1877.65
1019.476	1850.98
1019.767	1857.99
1020.058	1825.22
1020.35	1813.92
1020.641	1835.84
1020.932	1799.46
1021.223	1795.16
1021.514	1769.4
1021.804	1730.99
1022.095	1738.89
1022.386	1734.15
1022.677	1737.54
1022.967	1716.97
1023.258	1690.76
1023.548	1676.3
1023.839	1671.55
1024.129	1687.37
1024.419	1648.73
1024.709	1622.06
1025	1662.51
1025.29	1623.42
1025.58	1605.57
1025.87	1611.89
1026.16	1567.6
1026.449	1601.5
1026.739	1596.98
1027.029	1581.61
1027.319	1554.49
1027.608	1548.39
1027.898	1537.77
1028.187	1500.94
1028.477	1530.31
1028.766	1499.35
1029.055	1473.37
1029.344	1492.8
1029.634	1474.95
1029.923	1460.71
1030.212	1449.86
1030.501	1438.11
1030.79	1450.09
1031.078	1427.72
1031.367	1396.76
1031.656	1399.92
1031.945	1411.45
1032.233	1408.51
1032.522	1414.16
1032.81	1361.05
1033.099	1371.45
1033.387	1356.08
1033.675	1341.62
1033.963	1320.15
1034.251	1295.06
1034.54	1302.07
1034.828	1310.43
1035.116	1295.52
1035.403	1279.25
1035.691	1224.11
1035.979	1256.65
1036.267	1253.48
1036.554	1253.48
1036.842	1239.7
1037.129	1236.54
1037.417	1178.46
1037.704	1189.08
1037.992	1225.01
1038.279	1218.68
1038.566	1172.13
1038.853	1172.13
1039.14	1172.13
