Data from aluminium_macbook_case_FLMS001491_081.txt Node
Date: Tue Feb 07 10:44:16 GMT 2017
User: dcchb
Spectrometer: FLMS00149
Trigger mode: 0
Integration Time (sec): 2.000000E-2
Scans to average: 10
Electric dark correction enabled: true
Nonlinearity correction enabled: false
Boxcar width: 0
XAxis mode: Wavelengths
Number of Pixels in Spectrum: 2048
>>>>>Begin Spectral Data<<<<<
341.393	-4.92
341.776	-4.92
342.16	-4.92
342.543	-44.69
342.927	-86.49
343.31	-70.9
343.693	-72.03
344.077	-74.97
344.46	-48.53
344.843	-56.67
345.226	-30
345.61	-38.81
345.993	-7.17
346.376	5.25
346.759	-8.3
347.142	28.76
347.525	23.78
347.908	63.78
348.291	65.59
348.674	92.26
349.057	127.96
349.44	113.95
349.823	149.88
350.206	178.58
350.588	252.71
350.971	267.85
351.354	273.04
351.737	281.86
352.119	301.07
352.502	314.62
352.884	325.92
353.267	326.6
353.65	359.82
354.032	355.3
354.414	386.04
354.797	380.39
355.179	377.9
355.562	385.58
355.944	415.19
356.326	411.35
356.709	404.57
357.091	402.31
357.473	412.93
357.855	417.9
358.238	407.73
358.62	425.58
359.002	419.25
359.384	409.31
359.766	426.94
360.148	424.9
360.53	415.41
360.912	428.75
361.294	407.73
361.676	415.41
362.057	437.79
362.439	443.66
362.821	432.14
363.203	415.41
363.584	412.48
363.966	416.99
364.348	422.42
364.729	420.61
365.111	441.4
365.493	415.41
365.874	438.01
366.256	411.8
366.637	430.55
367.019	448.63
367.4	429.65
367.781	425.36
368.163	430.55
368.544	450.67
368.925	434.4
369.306	459.93
369.688	471.23
370.069	450.89
370.45	437.33
370.831	447.95
371.212	460.38
371.593	472.36
371.974	455.41
372.355	477.78
372.736	470.1
373.117	468.97
373.498	464.45
373.879	471.46
374.26	468.74
374.641	469.65
375.021	477.33
375.402	479.14
375.783	500.38
376.163	513.49
376.544	531.34
376.925	547.39
377.305	521.4
377.686	530.44
378.066	541.96
378.447	527.05
378.827	553.94
379.208	527.5
379.588	537.22
379.968	559.14
380.349	573.15
380.729	576.76
381.109	569.76
381.489	618.57
381.87	590.78
382.25	557.56
382.63	602.53
383.01	598.01
383.39	597.33
383.77	620.83
384.15	612.7
384.53	622.64
384.91	626.48
385.29	634.39
385.67	637.33
386.049	668.29
386.429	653.82
386.809	671.23
387.189	674.62
387.568	686.37
387.948	675.74
388.328	703.31
388.707	705.8
389.087	708.29
389.466	735.4
389.846	711
390.225	735.18
390.605	762.75
390.984	771.56
391.363	783.99
391.743	794.84
392.122	801.84
392.501	783.76
392.881	812.46
393.26	838
393.639	816.08
394.018	851.11
394.397	822.63
394.776	848.62
395.155	873.93
395.534	874.84
395.913	884.78
396.292	868.06
396.671	908.96
397.05	912.35
397.429	935.85
397.808	944.44
398.186	944.21
398.565	969.97
398.944	961.84
399.323	985.57
399.701	968.39
400.08	1010.43
400.458	1025.34
400.837	1044.1
401.215	1053.81
401.594	1025.79
401.972	1087.03
402.351	1075.73
402.729	1066.92
403.107	1112.12
403.486	1096.07
403.864	1122.74
404.242	1121.16
404.62	1145.56
404.999	1152.57
405.377	1195.28
405.755	1175.39
406.133	1202.28
406.511	1224.88
406.889	1214.49
407.267	1265.56
407.645	1266.92
408.023	1297.2
408.401	1313.47
408.779	1315.05
409.156	1359.12
409.534	1371.09
409.912	1395.95
410.29	1421.26
410.667	1426.91
411.045	1463.29
411.422	1473.46
411.8	1486.35
412.178	1497.87
412.555	1555.04
412.933	1562.5
413.31	1601.6
413.687	1602.5
414.065	1613.8
414.442	1635.49
414.819	1657.87
415.197	1683.18
415.574	1747.13
415.951	1742.61
416.328	1748.49
416.705	1760.24
417.082	1761.82
417.46	1808.14
417.837	1815.6
418.214	1857.41
418.591	1884.75
418.967	1877.52
419.344	1907.12
419.721	1954.81
420.098	1940.8
420.475	1954.81
420.852	1976.5
421.228	1975.6
421.605	2038.42
421.982	2049.04
422.358	2081.81
422.735	2098.31
423.111	2126.1
423.488	2160.45
423.864	2171.52
424.241	2199.32
424.617	2230.51
424.994	2251.52
425.37	2269.38
425.746	2288.58
426.123	2334.01
426.499	2366.1
426.875	2362.93
427.251	2418.3
427.627	2466.21
428.003	2488.8
428.379	2528.58
428.756	2536.49
429.132	2607.22
429.507	2660.55
429.883	2676.82
430.259	2678.86
430.635	2741.45
431.011	2802.24
431.387	2855.57
431.763	2891.05
432.138	2903.26
432.514	2944.84
432.89	2962.92
433.265	3056.47
433.641	3107.55
434.016	3081.56
434.392	3170.14
434.767	3233.64
435.143	3223.93
435.518	3281.78
435.894	3284.94
436.269	3387.09
436.644	3413.53
437.02	3452.17
437.395	3436.58
437.77	3517.48
438.145	3566.06
438.52	3571.49
438.895	3666.63
439.271	3625.27
439.646	3769.22
440.021	3760.64
440.395	3797.47
440.77	3768.54
441.145	3819.84
441.52	3892.16
441.895	3916.56
442.27	3965.15
442.645	3929.44
443.019	4026.39
443.394	4012.83
443.769	4086.05
444.143	4080.85
444.518	4157.91
444.892	4187.97
445.267	4163.34
445.641	4219.15
446.016	4222.09
446.39	4295.76
446.764	4306.84
447.139	4361.75
447.513	4382.54
447.887	4409.43
448.262	4420.51
448.636	4453.05
449.01	4517
449.384	4550.22
449.758	4606.94
450.132	4662.53
450.506	4755.19
450.88	4773.26
451.254	4779.82
451.628	4813.94
452.002	4945.92
452.376	4942.3
452.75	4996.31
453.123	5038.57
453.497	5125.8
453.871	5137.1
454.244	5269.07
454.618	5309.52
454.992	5357.43
455.365	5380.48
455.739	5573.47
456.112	5618.21
456.486	5651.21
456.859	5692.79
457.232	5797.64
457.606	5845.1
457.979	5947.47
458.352	6034.47
458.725	6101.14
459.099	6161.02
459.472	6299.1
459.845	6390.17
460.218	6389.27
460.591	6496.16
460.964	6540.9
461.337	6645.08
461.71	6702.93
462.083	6905.19
462.456	6890.5
462.829	6877.62
463.201	6996.48
463.574	7105.86
463.947	7219.53
464.32	7390.82
464.692	7472.18
465.065	7549.46
465.438	7593.76
465.81	7746.97
466.183	7899.51
466.555	7967.98
466.928	8037.36
467.3	8103.8
467.672	8214.53
468.045	8395.32
468.417	8386.5
468.789	8482.77
469.161	8664.69
469.534	8799.15
469.906	9047.5
470.278	9135.41
470.65	9158.46
471.022	9391.9
471.394	9502.86
471.766	9620.14
472.138	9697.88
472.51	9923.41
472.882	10071.2
473.253	10150.07
473.625	10366.56
473.997	10596.61
474.369	10697.63
474.74	10776.5
475.112	11095.81
475.484	11188.24
475.855	11388.23
476.227	11517.72
476.598	11882.23
476.97	11935.56
477.341	12261.2
477.713	12438.83
478.084	12595.88
478.455	12876.1
478.827	13079.71
479.198	13373.49
479.569	13418.69
479.94	13905.68
480.311	13836.75
480.682	14300.25
481.053	14571.65
481.424	14860.68
481.795	14900
482.166	15199.2
482.537	15392.19
482.908	15711.06
483.279	15838.28
483.65	16108.56
484.021	16487.31
484.391	16686.62
484.762	16748.99
485.133	17000.51
485.503	17366.61
485.874	17693.6
486.244	17910.77
486.615	18188.96
486.985	18496.52
487.356	18702.84
487.726	18974.47
488.097	19361.81
488.467	19473.67
488.837	19932.19
489.207	20131.05
489.578	20390.03
489.948	20544.83
490.318	20788.21
490.688	21050.58
491.058	21288.08
491.428	21525.14
491.798	21687.4
492.168	22170.32
492.538	22221.62
492.908	22486.92
493.278	22844.2
493.648	22868.61
494.017	23200.12
494.387	23379.55
494.757	23622.49
495.126	23862.48
495.496	23917.17
495.866	24117.61
496.235	24419.75
496.605	24661.1
496.974	24862
497.344	25131.83
497.713	25242.33
498.082	25474.64
498.452	25749.21
498.821	25880.51
499.19	26105.13
499.559	26310.33
499.928	26457.44
500.298	26794.15
500.667	26955.51
501.036	26997.09
501.405	27241.6
501.774	27360.69
502.143	27530.41
502.512	27586.68
502.88	27946.67
503.249	27985.76
503.618	28135.36
503.987	28349.59
504.356	28489.93
504.724	28632.3
505.093	28879.98
505.462	28907.77
505.83	29191.38
506.199	29553.18
506.567	29814.19
506.936	29791.14
507.304	30224.57
507.672	30266.83
508.041	30565.58
508.409	30783.43
508.777	31121.95
509.145	31229.29
509.514	31374.37
509.882	31590.64
510.25	31821.82
510.618	32010.97
510.986	32171.87
511.354	32569.6
511.722	32865.86
512.09	33249.8
512.458	33193.31
512.826	33380.87
513.193	33558.04
513.561	33871.26
513.929	34152.15
514.297	34368.87
514.664	34611.12
515.032	34868.52
515.4	35020.15
515.767	35057.21
516.135	35351.44
516.502	35308.51
516.869	35920.24
517.237	36090.41
517.604	36058.77
517.972	36491.98
518.339	36749.15
518.706	36843.38
519.073	37070.49
519.44	37358.17
519.808	37735.56
520.175	37695.11
520.542	38295.77
520.909	38620.06
521.276	38803.33
521.643	39156.77
522.009	39386.14
522.376	39677.43
522.743	39902.06
523.11	40351.31
523.477	40696.16
523.843	40882.82
524.21	41536.59
524.577	41642.58
524.943	41891.38
525.31	42060.65
525.676	42457.47
526.043	42603.91
526.409	42802.55
526.776	43315.3
527.142	43319.82
527.508	43626.93
527.874	43924.1
528.241	44124.77
528.607	44278.21
528.973	44617.41
529.339	44661.26
529.705	45199.09
530.071	45394.8
530.437	45682.25
530.803	45918.17
531.169	46155.23
531.535	46063.7
531.901	46274.77
532.267	46492.85
532.632	46824.36
532.998	46914.08
533.364	47178.48
533.73	47292.6
534.095	47799.48
534.461	47774.62
534.826	48134.61
535.192	48170.77
535.557	48497.54
535.923	48561.27
536.288	48734.37
536.653	48945.44
537.019	48902.5
537.384	49107.69
537.749	49335.26
538.114	49303.39
538.479	49445.31
538.845	49704.29
539.21	49583.39
539.575	49827.67
539.94	49932.53
540.305	50157.61
540.67	50139.98
541.034	50170.94
541.399	50425.62
541.764	50535
542.129	50688.22
542.494	50770.02
542.858	50970.69
543.223	50807.76
543.587	51083.46
543.952	51108.09
544.316	51236
544.681	51271.7
545.045	51477.35
545.41	51621.98
545.774	51734.74
546.138	51816.77
546.503	51925.7
546.867	51966.6
547.231	52397.77
547.595	52458.11
547.959	52530.43
548.324	52552.8
548.688	52651.55
549.052	52798.67
549.416	52885.67
549.779	52890.19
550.143	53107.81
550.507	53253.57
550.871	53337.19
551.235	53410.63
551.599	53650.62
551.962	53698.76
552.326	53742.82
552.689	53927.68
553.053	53804.07
553.417	53970.84
553.78	54231.85
554.143	54231.17
554.507	54350.94
554.87	54472.52
555.234	54678.39
555.597	54595.01
555.96	54738.96
556.323	54821.89
556.686	54844.94
557.05	55064.82
557.413	55176.01
557.776	55202.9
558.139	55471.82
558.502	55469.56
558.865	55570.8
559.228	55794.07
559.59	55838.59
559.953	55874.52
560.316	56190.9
560.679	56218.01
561.041	56346.82
561.404	56538.68
561.767	56718.34
562.129	56622.07
562.492	56951.55
562.854	56957.65
563.217	56981.61
563.579	57084.88
563.941	57363.97
564.304	57449.85
564.666	57554.02
565.028	57573.01
565.39	57649.61
565.753	57811.19
566.115	57931.19
566.477	57992.66
566.839	58096.38
567.201	58215.7
567.563	58279.65
567.925	58468.35
568.287	58430.38
568.648	58491.17
569.01	58584.5
569.372	58770.04
569.734	58689.81
570.095	58914.89
570.457	58890.26
570.819	59020.88
571.18	59024.49
571.542	59175.68
571.903	59182
572.265	59290.93
572.626	59341.55
572.987	59362.56
573.349	59491.6
573.71	59568.43
574.071	59684.81
574.432	59705.38
574.794	59863.12
575.155	59880.06
575.516	59819.27
575.877	59949.44
576.238	59986.05
576.599	60105.82
576.96	60097.69
577.32	60116.89
577.681	60254.74
578.042	60296.55
578.403	60320.96
578.763	60331.58
579.124	60352.37
579.485	60497.45
579.845	60541.29
580.206	60525.02
580.566	60469.2
580.927	60521.4
581.287	60654.05
581.648	60518.92
582.008	60649.99
582.368	60566.37
582.728	60668.97
583.089	60561.85
583.449	60537.45
583.809	60606.6
584.169	60608.63
584.529	60591.23
584.889	60763.88
585.249	60542.65
585.609	60504.68
585.969	60714.17
586.329	60605.47
586.688	60623.32
587.048	60617.67
587.408	60601.4
587.768	60631.46
588.127	60637.33
588.487	60628.97
588.846	60765.24
589.206	60620.38
589.565	60602.53
589.925	60749.65
590.284	60791.45
590.643	60797.33
591.003	60786.93
591.362	60782.87
591.721	60716.88
592.08	60778.12
592.44	60851.11
592.799	60850.21
593.158	60788.74
593.517	60872.58
593.876	60930.66
594.235	60820.83
594.593	60890.21
594.952	60939.92
595.311	60857.44
595.67	60838.46
596.029	61066.47
596.387	60992.58
596.746	61065.34
597.104	60919.58
597.463	60906.93
597.822	60990.54
598.18	60870.77
598.538	60924.33
598.897	61013.59
599.255	60860.6
599.613	61152.12
599.972	60938.57
600.33	61021.05
600.688	60917.1
601.046	61044.33
601.404	61079.13
601.762	61066.25
602.12	61124.1
602.478	61179.69
602.836	61176.3
603.194	61040.94
603.552	61084.1
603.91	60961.84
604.268	61158
604.625	61100.14
604.983	61263.76
605.341	61160.03
605.698	61296.98
606.056	61346.01
606.413	61302.85
606.771	61393.02
607.128	61485.9
607.485	61365.9
607.843	61341.49
608.2	61574.26
608.557	61562.96
608.914	61523.64
609.272	61599.34
609.629	61620.36
609.986	61715.95
610.343	61636.85
610.7	61748.49
611.057	61707.59
611.414	61746.68
611.771	61752.11
612.127	61847.24
612.484	61771.54
612.841	61831.88
613.198	61751.2
613.554	61757.98
613.911	61856.28
614.267	61888.82
614.624	61931.54
614.98	61887.69
615.337	61960.91
615.693	61930.41
616.05	61828.04
616.406	62025.77
616.762	61930.86
617.118	61964.98
617.475	61959.33
617.831	61973.12
618.187	62027.13
618.543	62017.86
618.899	62103.28
619.255	62055.15
619.611	62005.88
619.967	62115.26
620.323	62159.55
620.678	62085.2
621.034	62004.75
621.39	62025.77
621.746	62015.38
622.101	62223.96
622.457	62120.68
622.812	62182.83
623.168	62234.35
623.523	62150.74
623.879	62190.29
624.234	62100.12
624.589	62181.25
624.945	62227.8
625.3	62289.72
625.655	62253.79
626.01	62268.25
626.365	62291.75
626.72	62257.63
627.075	62233.22
627.43	62234.8
627.785	62153.45
628.14	62218.76
628.495	62239.78
628.85	62195.03
629.205	62122.04
629.559	62199.55
629.914	62069.16
630.269	62137.41
630.623	62028.26
630.978	61967.47
631.332	62043.62
631.687	62107.35
632.041	61982.83
632.396	61995.71
632.75	61841.82
633.104	61854.25
633.459	61766.12
633.813	61723.18
634.167	61762.05
634.521	61673.46
634.875	61657.19
635.229	61691.77
635.583	61562.28
635.937	61528.16
636.291	61527.25
636.645	61524.99
636.999	61449.51
637.352	61461.27
637.706	61268.05
638.06	61423.75
638.413	61345.11
638.767	61332
639.121	61423.98
639.474	61180.14
639.828	61241.16
640.181	61248.84
640.534	61225.57
640.888	61163.65
641.241	61045.91
641.594	61109.86
641.947	61164.32
642.301	61084.78
642.654	61111.44
643.007	61075.51
643.36	61118.22
643.713	61049.3
644.066	61112.8
644.419	60887.95
644.771	60848.4
645.124	60630.1
645.477	60523.21
645.83	60414.06
646.182	60288.41
646.535	60263.33
646.888	60242.99
647.24	60148.31
647.593	60273.05
647.945	60174.29
648.298	60042.77
648.65	59980.85
649.002	59990.57
649.355	59977.01
649.707	59935.2
650.059	60025.37
650.411	60294.97
650.763	60341.07
651.115	60488.18
651.467	60365.02
651.819	60326.61
652.171	60327.51
652.523	60264.69
652.875	60235.08
653.227	60187.17
653.578	60315.98
653.93	60223.33
654.282	60048.87
654.633	60009.33
654.985	60099.04
655.337	60059.49
655.688	60005.03
656.039	60094.75
656.391	59837.58
656.742	59957.8
657.094	59928.42
657.445	59977.01
657.796	59876.67
658.147	59871.48
658.498	59884.36
658.849	59962.55
659.2	59890.23
659.551	59844.13
659.902	59921.19
660.253	59776.79
660.604	59933.4
660.955	59803.68
661.306	59833.06
661.656	59785.83
662.007	59760.52
662.358	59811.82
662.708	59775.43
663.059	59793.74
663.409	59659.96
663.76	59772.5
664.11	59759.16
664.461	59836.68
664.811	59793.96
665.161	59800.52
665.511	59692.05
665.862	59716.23
666.212	59762.33
666.562	59781.76
666.912	59696.57
667.262	59596.91
667.612	59632.39
667.962	59593.29
668.312	59562.33
668.662	59685.04
669.011	59611.6
669.361	59496.35
669.711	59500.86
670.06	59433.3
670.41	59370.02
670.76	59260.42
671.109	59378.61
671.459	59321.89
671.808	59207.99
672.157	59342.9
672.507	59166.41
672.856	59101.33
673.205	59199.63
673.554	59243.47
673.904	59142.46
674.253	59193.08
674.602	59140.2
674.951	58732.3
675.3	58596.93
675.649	58968.45
675.998	58964.83
676.346	58967.09
676.695	59031.72
677.044	58791.96
677.393	58914.67
677.741	58928.22
678.09	58803.93
678.438	58809.58
678.787	58810.94
679.135	58812.52
679.484	58660.43
679.832	58820.88
680.181	58740.88
680.529	58813.65
680.877	58670.83
681.225	58564.84
681.573	58770.26
681.922	58560.32
682.27	58534.56
682.618	58530.49
682.966	58481.91
683.314	58535.24
683.661	58481.68
684.009	58366.21
684.357	58305.19
684.705	58215.93
685.053	58269.48
685.4	58239.66
685.748	58102.48
686.095	58129.15
686.443	58036.5
686.79	57982.94
687.138	58031.3
687.485	58021.81
687.832	57879.66
688.18	57866.33
688.527	57692.32
688.874	57732.32
689.221	57632.21
689.568	57492.78
689.915	57441.94
690.262	57460.24
690.609	57314.71
690.956	57312.9
691.303	57272
691.65	57062.74
691.997	57103.87
692.344	56885.11
692.69	56895.06
693.037	56829.07
693.383	56641.05
693.73	56671.11
694.077	56458.68
694.423	56466.82
694.769	56369.2
695.116	56253.04
695.462	56252.14
695.808	56109.99
696.155	56193.61
696.501	55884.01
696.847	55938.7
697.193	55742.32
697.539	55848.98
697.885	55691.7
698.231	55557.24
698.577	55472.95
698.923	55578.26
699.269	55434.08
699.614	55208.1
699.96	55324.48
700.306	55193.41
700.651	55151.83
700.997	55007.65
701.342	54985.28
701.688	54917.48
702.033	54911.16
702.379	54875.22
702.724	54818.28
703.069	54884.72
703.415	54549.58
703.76	54617.38
704.105	54559.07
704.45	54437.72
704.795	54371.06
705.14	54284.73
705.485	54206.99
705.83	54136.49
706.175	54199.54
706.52	54091.97
706.865	53896.49
707.209	53847
707.554	53754.12
707.899	53909.15
708.243	53695.82
708.588	53678.42
708.932	53454.02
709.277	53500.57
709.621	53425.09
709.966	53211.76
710.31	53346
710.654	52983.07
710.998	53061.26
711.342	52993.01
711.687	52857.88
712.031	52779.69
712.375	52577.43
712.719	52652.91
713.063	52586.7
713.407	52629.41
713.75	52311.45
714.094	52388.28
714.438	52138.57
714.782	52117.78
715.125	51966.15
715.469	52044.56
715.812	51836.43
716.156	51681.86
716.499	51708.75
716.843	51692.48
717.186	51458.14
717.53	51591.69
717.873	51533.39
718.216	51433.51
718.559	51274.87
718.902	50947.64
719.246	51192.16
719.589	50928.66
719.932	50759.4
720.275	50876.01
720.617	50664.71
720.96	50705.84
721.303	50878.27
721.646	50635.34
721.989	50437.83
722.331	50575.9
722.674	50403.48
723.016	50434.66
723.359	50441.22
723.701	50384.95
724.044	50272.86
724.386	49959.87
724.729	50125.97
725.071	50185.18
725.413	50060.44
725.755	49985.63
726.097	49893.66
726.439	49702.93
726.782	49879.65
727.124	49882.81
727.465	49756.04
727.807	49828.8
728.149	49683.5
728.491	49525.99
728.833	49599.43
729.175	49518.98
729.516	49430.4
729.858	49358.08
730.199	49389.72
730.541	49233.79
730.882	49167.8
731.224	49323.28
731.565	48900.24
731.906	48927.36
732.248	49003.29
732.589	48813.91
732.93	48616.18
733.271	48765.33
733.612	48582.96
733.953	48680.13
734.294	48579.57
734.635	48403.53
734.976	48406.47
735.317	48145.23
735.658	48062.75
735.999	48034.73
736.339	47985.24
736.68	48019.36
737.021	47785.92
737.361	47733.26
737.702	47827.73
738.042	47691.68
738.383	47533.95
738.723	47586.83
739.063	47346.83
739.404	47256.44
739.744	47180.96
740.084	46998.37
740.424	47006.73
740.764	47054.19
741.104	47035.88
741.444	46749.11
741.784	46602.45
742.124	46705.95
742.464	46533.52
742.804	46540.08
743.143	46459.17
743.483	46318.84
743.823	46049.24
744.162	46068.68
744.502	46160.65
744.841	45825.29
745.181	46064.16
745.52	45837.5
745.86	45892.41
746.199	45764.05
746.538	45809.7
746.877	45768.57
747.216	45709.36
747.556	45611.74
747.895	45530.16
748.234	45385.98
748.573	45322.03
748.911	45363.61
749.25	45281.13
749.589	45064.41
749.928	45139.43
750.267	45192.77
750.605	45155.25
750.944	44850.63
751.283	44821.25
751.621	44785.09
751.96	44503.07
752.298	44593.23
752.636	44669.39
752.975	44497.64
753.313	44458.1
753.651	44423.97
753.989	44251.1
754.327	44279.34
754.666	44035.28
755.004	44061.95
755.342	44026.47
755.679	43908.05
756.017	43591.45
756.355	43817.66
756.693	43456.77
757.031	43643.43
757.368	43251.12
757.706	43200.28
758.044	43142.65
758.381	43121.41
758.719	42905.37
759.056	42922.54
759.394	42705.6
759.731	42491.14
760.068	42342.22
760.405	42246.86
760.743	42083.24
761.08	42212.05
761.417	41776.13
761.754	41758.51
762.091	41656.59
762.428	41575.91
762.765	41142.48
763.102	41214.79
763.438	41081.24
763.775	40668.59
764.112	40785.42
764.449	40661.36
764.785	40546.34
765.122	40319.9
765.458	40268.6
765.795	40025.9
766.131	39983.19
766.467	39709.97
766.804	39627.26
767.14	39363.54
767.476	39288.29
767.812	39121.51
768.148	39099.59
768.485	39004.91
768.821	38741.64
769.157	38644.46
769.492	38773.5
769.828	38547.97
770.164	38056.23
770.5	38053.75
770.836	38020.3
771.171	37620.76
771.507	37762.91
771.842	37391.84
772.178	37371.73
772.513	37365.63
772.849	37220.55
773.184	37119.08
773.519	37064.62
773.855	36952.98
774.19	36637.51
774.525	36674.57
774.86	36538.08
775.195	36519.55
775.53	36300.8
775.865	36143.06
776.2	35875.27
776.535	35617.88
776.87	35814.93
777.205	35464.43
777.539	35552.12
777.874	35518.67
778.209	35144.44
778.543	35226.7
778.878	34930.66
779.212	34931.57
779.547	34865.35
779.881	34841.4
780.215	34619.94
780.55	34752.36
780.884	34528.64
781.218	34382.66
781.552	34320.51
781.886	34082.55
782.22	34006.17
782.554	33831.26
782.888	33540.19
783.222	33383.81
783.556	33344.72
783.889	33293.87
784.223	33011.84
784.557	33115.34
784.89	33171.61
785.224	32877.84
785.557	32746.54
785.891	32504.74
786.224	32457.73
786.558	32402.59
786.891	32102.72
787.224	31946.79
787.557	31850.52
787.891	31897.3
788.224	31791.99
788.557	31712.44
788.89	31580.24
789.223	31447.14
789.556	31195.85
789.888	31163.08
790.221	30931.9
790.554	30661.62
790.887	30682.19
791.219	30576.2
791.552	30555.41
791.884	30450.33
792.217	30231.58
792.549	30039.04
792.882	29934.86
793.214	29733.06
793.546	29874.53
793.879	29715.66
794.211	29405.84
794.543	29423.01
794.875	29330.81
795.207	29260.3
795.539	29076.81
795.871	29082.23
796.203	28792.07
796.535	28757.04
796.867	28622.81
797.198	28583.49
797.53	28433.43
797.862	28249.48
798.193	28375.58
798.525	28012.2
798.856	28007.23
799.188	27826.44
799.519	27736.28
799.85	27587.58
800.182	27676.16
800.513	27585.09
800.844	27291.32
801.175	27467.58
801.506	27372.67
801.837	27246.57
802.168	27275.27
802.499	27142.62
802.83	26950.53
803.161	26974.94
803.491	26873.7
803.822	26881.16
804.153	26703.54
804.483	26494.73
804.814	26419.02
805.145	26402.75
805.475	26406.37
805.805	26346.26
806.136	26415.41
806.466	26356.65
806.796	26330.66
807.126	26184.23
807.457	26083.44
807.787	26170.67
808.117	25928.41
808.447	25945.59
808.777	26048.86
809.107	25812.03
809.436	25853.39
809.766	25841.41
810.096	25606.84
810.426	25490.46
810.755	25501.53
811.085	25550.57
811.414	25532.49
811.744	25236.46
812.073	25339.5
812.403	25262.22
812.732	25155.55
813.061	25118.72
813.39	24977.7
813.719	24903.58
814.049	25048.44
814.378	24874.88
814.707	24726.64
815.036	24742.23
815.365	24571.84
815.693	24443.93
816.022	24497.04
816.351	24315.35
816.68	24228.35
817.008	24319.19
817.337	24024.96
817.665	24156.03
817.994	24096.37
818.322	23960.1
818.651	23970.27
818.979	23666.33
819.307	23782.26
819.636	23810.73
819.964	23583.39
820.292	23648.25
820.62	23487.8
820.948	23379.78
821.276	23566.89
821.604	23359.89
821.932	23407.8
822.259	23463.85
822.587	23295.26
822.915	23349.5
823.243	23431.3
823.57	23480.12
823.898	23439.21
824.225	23227.47
824.553	23289.39
824.88	23123.29
825.207	23154.48
825.535	23176.85
825.862	23309.05
826.189	23074.25
826.516	23247.81
826.843	23145.44
827.17	23194.02
827.497	23176.4
827.824	23153.8
828.151	23086.46
828.478	23143.18
828.805	23168.94
829.131	23154.93
829.458	23067.7
829.785	23077.64
830.111	22945.22
830.438	23113.35
830.764	23047.36
831.09	22977.53
831.417	23033.8
831.743	23083.97
832.069	23038.77
832.395	22994.71
832.722	23024.76
833.048	22947.02
833.374	22957.19
833.7	22823.64
834.026	22896.86
834.351	22962.39
834.677	22918.1
835.003	22860.02
835.329	23008.49
835.654	22877.65
835.98	22831.09
836.306	22869.06
836.631	22741.38
836.956	22778.44
837.282	22915.84
837.607	22726.46
837.932	22680.82
838.258	22733.47
838.583	22809.17
838.908	22655.05
839.233	22775.05
839.558	22670.19
839.883	22588.62
840.208	22595.85
840.533	22488.73
840.858	22546.13
841.182	22549.29
841.507	22615.51
841.832	22388.39
842.156	22426.59
842.481	22349.98
842.805	22294.61
843.13	22245.12
843.454	22286.48
843.778	22222.3
844.103	22099.81
844.427	22029.76
844.751	22126.25
845.075	22047.16
845.399	21977.33
845.723	21744.8
846.047	21892.59
846.371	21640.39
846.695	21702.99
847.019	21489.43
847.343	21435.88
847.666	21251.93
847.99	21136
848.313	21209.22
848.637	21121.76
848.96	20966.06
849.284	20950.01
849.607	20746.63
849.931	20772.84
850.254	20691.94
850.577	20562.23
850.9	20367.2
851.223	20328.11
851.546	20159.75
851.869	20109.36
852.192	20246.76
852.515	20059.87
852.838	19895.35
853.161	19836.15
853.483	19787.56
853.806	19629.37
854.129	19697.39
854.451	19623.95
854.774	19487.68
855.096	19433.9
855.419	19355.03
855.741	19276.61
856.063	19184.86
856.385	19178.76
856.708	19015.38
857.03	18957.75
857.352	19097.63
857.674	18998.65
857.996	18900.35
858.318	18666.91
858.64	18640.92
858.961	18606.57
859.283	18502.39
859.605	18502.39
859.926	18530.64
860.248	18456.97
860.57	18317.31
860.891	18415.84
861.212	18284.55
861.534	18229.41
861.855	18191.22
862.176	18173.82
862.498	18265.56
862.819	18221.27
863.14	18087.94
863.461	18020.6
863.782	17967.27
864.103	17913.26
864.424	17897.89
864.745	17954.61
865.065	17875.97
865.386	17695.64
865.707	17800.27
866.027	17882.3
866.348	17870.1
866.668	17809.31
866.989	17828.06
867.309	17635.3
867.63	17782.64
867.95	17782.41
868.27	17587.39
868.59	17712.13
868.91	17639.59
869.23	17608.41
869.55	17583.55
869.87	17654.73
870.19	17614.73
870.51	17555.08
870.83	17601.18
871.15	17450.9
871.469	17470.33
871.789	17478.24
872.109	17496.55
872.428	17382.65
872.748	17473.04
873.067	17435.3
873.386	17460.16
873.706	17453.83
874.025	17335.42
874.344	17227.17
874.663	17364.35
874.982	17275.76
875.301	17383.33
875.62	17331.35
875.939	17294.29
876.258	17239.38
876.577	17245.7
876.896	17230.79
877.214	17168.19
877.533	17165.03
877.852	17195.54
878.17	17194.18
878.489	17216.33
878.807	17074.64
879.125	17101.3
879.444	17136.56
879.762	17060.85
880.08	17111.92
880.398	17003.45
880.716	16971.36
881.034	16865.38
881.352	16790.58
881.67	16809.33
881.988	16842.33
882.306	16824.47
882.624	16758.26
882.941	16715.32
883.259	16579.96
883.577	16624.25
883.894	16584.93
884.212	16540.19
884.529	16437.14
884.846	16485.27
885.164	16432.62
885.481	16489.11
885.798	16440.3
886.115	16247.76
886.432	16227.88
886.75	16193.08
887.067	16203.92
887.383	16107.2
887.7	16126.86
888.017	16038.05
888.334	16091.16
888.651	15953.08
888.967	15819.98
889.284	15832.63
889.6	15703.37
889.917	15674.9
890.233	15644.62
890.55	15689.14
890.866	15714.45
891.182	15663.6
891.498	15615.69
891.815	15498.86
892.131	15351.74
892.447	15393.78
892.763	15310.84
893.079	15203.5
893.395	15206.66
893.71	15180.9
894.026	15203.95
894.342	15044.41
894.657	14968.7
894.973	14996.95
895.289	14974.13
895.604	14901.36
895.92	14750.4
896.235	14693.23
896.55	14727.35
896.865	14750.18
897.181	14634.47
897.496	14655.94
897.811	14537.08
898.126	14579.79
898.441	14410.07
898.756	14361.49
899.071	14244.43
899.386	14335.72
899.7	14168.95
900.015	14071.78
900.33	14072.68
900.644	14088.27
900.959	14086.69
901.273	14032.91
901.588	13935.06
901.902	13967.82
902.216	13989.29
902.531	13904.55
902.845	13857.77
903.159	13699.13
903.473	13660.49
903.787	13652.58
904.101	13568.29
904.415	13592.69
904.729	13503.43
905.042	13416.88
905.356	13456.65
905.67	13430.66
905.984	13421.85
906.297	13338.46
906.611	13302.08
906.924	13246.49
907.237	13256.88
907.551	13222.76
907.864	12994.74
908.177	13083.78
908.491	13108.64
908.804	13069.32
909.117	12934.41
909.43	12852.6
909.743	12831.36
910.056	12780.96
910.368	12792.71
910.681	12795.43
910.994	12703.9
911.307	12710
911.619	12666.62
911.932	12597.92
912.244	12492.61
912.557	12520.18
912.869	12428.43
913.181	12383.91
913.494	12297.13
913.806	12323.12
914.118	12331.48
914.43	12168.78
914.742	12263.01
915.054	12107.08
915.366	12145.27
915.678	12031.15
915.99	12003.81
916.302	11882.68
916.613	11883.59
916.925	11882.23
917.236	11776.47
917.548	11696.92
917.859	11803.14
918.171	11724.27
918.482	11597.72
918.794	11569.92
919.105	11557.04
919.416	11478.4
919.727	11461.68
920.038	11431.17
920.349	11460.09
920.66	11289.93
920.971	11244.73
921.282	11220.33
921.593	11128.13
921.903	11058.75
922.214	11054.91
922.525	10922.03
922.835	10910.96
923.146	10928.36
923.456	10900.11
923.767	10738.98
924.077	10754.8
924.387	10683.39
924.697	10629.61
925.008	10650.17
925.318	10590.06
925.628	10545.99
925.938	10437.07
926.248	10380.57
926.558	10364.08
926.867	10315.27
927.177	10260.13
927.487	10235.49
927.796	10065.78
928.106	10096.97
928.416	10061.03
928.725	10072.11
929.034	9956.18
929.344	10005.9
929.653	9978.33
929.962	9841.83
930.271	9883.64
930.581	9741.27
930.89	9666.02
931.199	9660.82
931.508	9623.53
931.817	9612.91
932.125	9604.32
932.434	9538.11
932.743	9440.71
933.051	9409.98
933.36	9306.93
933.669	9367.49
933.977	9254.5
934.286	9243.2
934.594	9169.31
934.902	9153.49
935.21	9058.12
935.519	9121.4
935.827	9081.4
936.135	8968.63
936.443	8888.41
936.751	8846.6
937.059	8822.42
937.367	8845.47
937.674	8870.11
937.982	8775.19
938.29	8755.98
938.597	8718.92
938.905	8615.2
939.213	8589.89
939.52	8535.2
939.827	8593.5
940.135	8560.74
940.442	8474.18
940.749	8425.37
941.056	8490.45
941.363	8374.98
941.67	8339.72
941.977	8285.94
942.284	8228.31
942.591	8213.63
942.898	8269.44
943.205	8191.48
943.511	8110.13
943.818	8072.61
944.125	8087.3
944.431	8070.13
944.738	8065.38
945.044	7940.41
945.35	7971.82
945.657	7941.77
945.963	7946.51
946.269	7875.56
946.575	7893.41
946.881	7759.85
947.187	7778.61
947.493	7754.65
947.799	7724.6
948.105	7681.21
948.41	7630.14
948.716	7662.68
949.022	7540.2
949.327	7584.26
949.633	7484.61
949.938	7557.37
950.244	7551.72
950.549	7461.56
950.854	7404.61
951.16	7346.76
951.465	7322.58
951.77	7306.76
952.075	7237.38
952.38	7276.7
952.685	7298.4
952.99	7187.89
953.294	7180.21
953.599	7205.97
953.904	7120.77
954.209	7092.53
954.513	7065.41
954.818	7029.93
955.122	6963.04
955.426	7016.14
955.731	6965.07
956.035	6956.26
956.339	6868.8
956.643	6841.68
956.948	6808.69
957.252	6782.93
957.556	6798.3
957.86	6775.02
958.163	6712.2
958.467	6675.14
958.771	6657.73
959.075	6608.7
959.378	6643.05
959.682	6612.31
959.985	6556.27
960.289	6460.45
960.592	6449.15
960.896	6441.24
961.199	6390.62
961.502	6379.32
961.805	6304.07
962.108	6280.8
962.411	6263.85
962.714	6283.06
963.017	6224.75
963.32	6284.86
963.623	6218.65
963.926	6180.46
964.228	6133
964.531	6123.29
964.833	6060.91
965.136	6027.92
965.438	6036.51
965.741	5986.11
966.043	5992.89
966.345	5928.94
966.648	5901.6
966.95	5897.08
967.252	5828.38
967.554	5868.83
967.856	5765.33
968.158	5726.91
968.46	5706.12
968.761	5707.7
969.063	5683.52
969.365	5660.92
969.666	5625.9
969.968	5568.27
970.269	5583.19
970.571	5500.7
970.872	5530.08
971.174	5498.89
971.475	5514.49
971.776	5477.88
972.077	5420.7
972.378	5402.4
972.679	5355.4
972.98	5344.77
973.281	5272.91
973.582	5265.23
973.883	5260.94
974.183	5237.43
974.484	5241.95
974.785	5132.58
975.085	5170.32
975.386	5178.68
975.686	5129.19
975.986	5101.17
976.287	5075.4
976.587	5009.87
976.887	4985.91
977.187	5007.16
977.487	4982.07
977.787	4940.04
978.087	4921.06
978.387	4909.31
978.687	4873.37
978.987	4850.32
979.286	4835.86
979.586	4840.83
979.885	4763.32
980.185	4754.28
980.484	4752.47
980.784	4722.19
981.083	4662.98
981.382	4682.65
981.682	4643.1
981.981	4623.89
982.28	4646.71
982.579	4565.59
982.878	4550.9
983.177	4518.58
983.475	4563.33
983.774	4518.58
984.073	4456.44
984.372	4455.98
984.67	4478.13
984.969	4430.9
985.267	4440.62
985.566	4376.89
985.864	4357
986.162	4389.77
986.461	4338.02
986.759	4327.63
987.057	4269.32
987.355	4269.55
987.653	4237.01
987.951	4226.39
988.249	4227.97
988.547	4221.87
988.844	4172.6
989.142	4177.57
989.44	4148.65
989.737	4146.39
990.035	4078.37
990.332	4094.41
990.63	4091.7
990.927	4067.29
991.224	4041.98
991.521	4020.29
991.819	4018.71
992.116	4001.08
992.413	3970.57
992.71	3951.14
993.006	3952.72
993.303	3936.45
993.6	3905.49
993.897	3896
994.193	3844.93
994.49	3851.48
994.787	3829.79
995.083	3841.31
995.379	3819.39
995.676	3780.75
995.972	3763.35
996.268	3745.27
996.565	3719.28
996.861	3746.17
997.157	3687.87
997.453	3659.17
997.749	3625.95
998.044	3655.78
998.34	3629.34
998.636	3636.57
998.932	3623.69
999.227	3578.27
999.523	3526.07
999.818	3505.5
1000.114	3513.86
1000.409	3514.99
1000.704	3503.24
1001	3481.09
1001.295	3414.2
1001.59	3443.81
1001.885	3399.06
1002.18	3392.51
1002.475	3366.75
1002.77	3296.92
1003.065	3289.24
1003.359	3319.07
1003.654	3293.76
1003.949	3295.11
1004.243	3251.72
1004.538	3214.21
1004.832	3211.5
1005.127	3168.33
1005.421	3136.02
1005.715	3184.83
1006.009	3147.54
1006.304	3102.8
1006.598	3071.61
1006.892	3092.86
1007.186	3028
1007.48	3042.24
1007.773	3059.64
1008.067	2975.8
1008.361	2976.25
1008.655	2907.32
1008.948	2931.96
1009.242	2938.96
1009.535	2870.49
1009.829	2888.57
1010.122	2870.72
1010.415	2852.18
1010.708	2847.67
1011.001	2798.4
1011.295	2772.19
1011.588	2781.45
1011.881	2746.42
1012.173	2741.91
1012.466	2704.84
1012.759	2712.75
1013.052	2655.35
1013.344	2671.85
1013.637	2644.51
1013.93	2608.58
1014.222	2625.07
1014.514	2587.11
1014.807	2585.07
1015.099	2540.33
1015.391	2553.44
1015.683	2551.4
1015.976	2514.79
1016.268	2493.32
1016.56	2431.86
1016.851	2485.41
1017.143	2432.08
1017.435	2425.98
1017.727	2391.18
1018.018	2365.19
1018.31	2359.54
1018.602	2354.12
1018.893	2358.41
1019.185	2367.45
1019.476	2290.62
1019.767	2305.76
1020.058	2281.8
1020.35	2248.58
1020.641	2222.37
1020.932	2202.26
1021.223	2202.71
1021.514	2188.02
1021.804	2176.72
1022.095	2156.38
1022.386	2113.9
1022.677	2097.85
1022.967	2101.24
1023.258	2093.79
1023.548	2071.87
1023.839	2047.23
1024.129	2037.07
1024.419	2064.41
1024.709	2015.14
1025	2029.61
1025.29	1974.02
1025.58	1967.91
1025.87	1953
1026.16	1957.07
1026.449	1921.36
1026.739	1891.76
1027.029	1914.58
1027.319	1859.22
1027.608	1906
1027.898	1890.85
1028.187	1859.44
1028.477	1852.21
1028.766	1853.79
1029.055	1790.74
1029.344	1805.43
1029.634	1793.91
1029.923	1761.82
1030.212	1753.23
1030.501	1762.27
1030.79	1721.14
1031.078	1731.31
1031.367	1727.47
1031.656	1687.02
1031.945	1653.35
1032.233	1670.97
1032.522	1670.97
1032.81	1654.48
1033.099	1633.91
1033.387	1626.45
1033.675	1613.57
1033.963	1614.93
1034.251	1602.27
1034.54	1578.77
1034.828	1594.82
1035.116	1571.77
1035.403	1573.57
1035.691	1539
1035.979	1539.45
1036.267	1519.34
1036.554	1506.01
1036.842	1487.25
1037.129	1498.1
1037.417	1469.85
1037.704	1478.21
1037.992	1462.16
1038.279	1417.87
1038.566	1450.64
1038.853	1450.64
1039.14	1450.64
