Data from aluminium_macbook_case_FLMS001491_069.txt Node
Date: Tue Feb 07 10:44:02 GMT 2017
User: dcchb
Spectrometer: FLMS00149
Trigger mode: 0
Integration Time (sec): 2.000000E-2
Scans to average: 10
Electric dark correction enabled: true
Nonlinearity correction enabled: false
Boxcar width: 0
XAxis mode: Wavelengths
Number of Pixels in Spectrum: 2048
>>>>>Begin Spectral Data<<<<<
341.393	-9.27
341.776	-9.27
342.16	-9.27
342.543	-68.92
342.927	-73.9
343.31	-55.82
343.693	-74.12
344.077	-69.38
344.46	-72.77
344.843	-61.47
345.226	-51.3
345.61	-30.51
345.993	-30.06
346.376	17.63
346.759	18.76
347.142	28.25
347.525	44.52
347.908	60.79
348.291	77.51
348.674	86.33
349.057	111.64
349.44	132.88
349.823	161.13
350.206	151.18
350.588	228.24
350.971	251.07
351.354	280.44
351.737	296.49
352.119	304.17
352.502	320.22
352.884	338.97
353.267	349.6
353.65	350.05
354.032	341.23
354.414	375.58
354.797	371.52
355.179	375.81
355.562	370.84
355.944	388.69
356.326	379.88
356.709	380.78
357.091	413.1
357.473	398.63
357.855	403.61
358.238	407.67
358.62	400.44
359.002	432.31
359.384	412.42
359.766	425.98
360.148	416.03
360.53	412.64
360.912	417.84
361.294	420.55
361.676	426.66
362.057	430.5
362.439	436.82
362.821	408.58
363.203	428.01
363.584	433.89
363.966	412.64
364.348	433.21
364.729	414.23
365.111	404.74
365.493	420.55
365.874	417.62
366.256	428.01
366.637	424.17
367.019	405.64
367.4	401.8
367.781	413.1
368.163	428.46
368.544	428.24
368.925	441.12
369.306	438.18
369.688	440.44
370.069	432.31
370.45	427.79
370.831	436.37
371.212	435.02
371.593	450.61
371.974	445.19
372.355	459.42
372.736	473.21
373.117	453.32
373.498	469.14
373.879	465.3
374.26	454.68
374.641	464.62
375.021	448.12
375.402	482.7
375.783	469.82
376.163	519.76
376.544	538.29
376.925	509.82
377.305	493.32
377.686	496.71
378.066	528.57
378.447	536.94
378.827	534
379.208	531.29
379.588	528.57
379.968	545.52
380.349	553.21
380.729	550.27
381.109	561.12
381.489	574.67
381.87	576.26
382.25	569.02
382.63	570.61
383.01	592.75
383.39	585.52
383.77	597.72
384.15	609.7
384.53	604.73
384.91	636.59
385.29	629.59
385.67	622.81
386.049	657.38
386.429	661.68
386.809	670.72
387.189	651.73
387.568	673.2
387.948	654.45
388.328	684.73
388.707	663.94
389.087	683.15
389.466	714.11
389.846	720.43
390.225	740.77
390.605	737.16
390.984	748.68
391.363	754.33
391.743	781.45
392.122	763.14
392.501	783.26
392.881	780.09
393.26	796.14
393.639	795.23
394.018	793.43
394.397	823.71
394.776	845.85
395.155	844.05
395.534	868.23
395.913	843.82
396.292	864.38
396.671	876.14
397.05	909.81
397.429	879.07
397.808	893.76
398.186	886.08
398.565	926.53
398.944	927.66
399.323	908.45
399.701	980.09
400.08	966.98
400.458	972.86
400.837	999.07
401.215	984.15
401.594	1024.38
401.972	1020.99
402.351	1028.22
402.729	1038.84
403.107	1035.23
403.486	1079.07
403.864	1058.96
404.242	1062.12
404.62	1092.17
404.999	1147.54
405.377	1131.04
405.755	1143.92
406.133	1173.53
406.511	1208.56
406.889	1185.73
407.267	1215.11
407.645	1215.34
408.023	1261.44
408.401	1267.09
408.779	1261.44
409.156	1323.58
409.534	1335.78
409.912	1331.72
410.29	1387.99
410.667	1416.91
411.045	1389.57
411.422	1430.92
411.8	1442.22
412.178	1480.64
412.555	1471.15
412.933	1475.44
413.31	1524.25
413.687	1563.8
414.065	1555.67
414.442	1581.43
414.819	1605.38
415.197	1601.77
415.574	1659.39
415.951	1663.01
416.328	1693.06
416.705	1664.36
417.082	1668.88
417.46	1729.22
417.837	1759.28
418.214	1804.25
418.591	1801.53
418.967	1807.41
419.344	1818.48
419.721	1871.36
420.098	1865.94
420.475	1922.21
420.852	1886.73
421.228	1918.14
421.605	1943
421.982	2001.53
422.358	1995.88
422.735	2020.29
423.111	2010.12
423.488	2099.61
423.864	2112.03
424.241	2144.12
424.617	2118.59
424.994	2157.01
425.37	2193.16
425.746	2192.26
426.123	2231.13
426.499	2246.72
426.875	2285.82
427.251	2341.18
427.627	2368.3
428.003	2346.6
428.379	2455.08
428.756	2448.75
429.132	2469.77
429.507	2543.66
429.883	2589.99
430.259	2643.77
430.635	2634.28
431.011	2676.31
431.387	2754.05
431.763	2767.84
432.138	2759.02
432.514	2836.08
432.89	2865.69
433.265	2902.97
433.641	2978.45
434.016	3024.78
434.392	3051.9
434.767	3103.2
435.143	3131.44
435.518	3154.72
435.894	3208.73
436.269	3262.74
436.644	3314.94
437.02	3323.53
437.395	3330.08
437.77	3410.76
438.145	3457.08
438.52	3466.8
438.895	3524.43
439.271	3516.52
439.646	3634.03
440.021	3624.76
440.395	3665.67
440.77	3633.8
441.145	3731.88
441.52	3759.9
441.895	3832.89
442.27	3842.38
442.645	3835.38
443.019	3860.46
443.394	3912.89
443.769	3955.6
444.143	3931.2
444.518	4008.48
444.892	3998.09
445.267	4017.75
445.641	4090.06
446.016	4072.89
446.39	4135.94
446.764	4179.33
447.139	4226.78
447.513	4238.08
447.887	4303.39
448.262	4254.58
448.636	4307.01
449.01	4327.12
449.384	4444.85
449.758	4473.55
450.132	4535.93
450.506	4560.78
450.88	4565.08
451.254	4593.1
451.628	4700.67
452.002	4742.25
452.376	4795.81
452.75	4864.05
453.123	4912.64
453.497	4988.8
453.871	5025.4
454.244	5099.07
454.618	5179.98
454.992	5219.3
455.365	5219.3
455.739	5392.17
456.112	5406.86
456.486	5438.95
456.859	5521.21
457.232	5582.23
457.606	5629.46
457.979	5752.62
458.352	5844.59
458.725	5886.85
459.099	5886.4
459.472	6103.34
459.845	6139.95
460.218	6165.94
460.591	6250.68
460.964	6317.12
461.337	6453.84
461.71	6547.4
462.083	6660.39
462.456	6636.21
462.829	6712.82
463.201	6844.79
463.574	6834.85
463.947	7001.4
464.32	7176.53
464.692	7161.17
465.065	7239.13
465.438	7391.67
465.81	7466.02
466.183	7609.52
466.555	7723.19
466.928	7741.27
467.3	7774.94
467.672	7917.08
468.045	8103.52
468.417	8178.32
468.789	8268.94
469.161	8356.62
469.534	8456.5
469.906	8648.36
470.278	8723.84
470.65	8827.79
471.022	9026.88
471.394	9162.02
471.766	9244.5
472.138	9410.83
472.51	9623.93
472.882	9779.86
473.253	9844.94
473.625	10037.02
473.997	10178.72
474.369	10353.17
474.74	10426.39
475.112	10648.99
475.484	10781.86
475.855	10980.73
476.227	11063.21
476.598	11382.3
476.97	11499.36
477.341	11820.48
477.713	11979.35
478.084	12118.1
478.455	12358.55
478.827	12477.41
479.198	12815.03
479.569	12922.15
479.94	13252.76
480.311	13330.27
480.682	13727.32
481.053	14026.75
481.424	14205.73
481.795	14280.08
482.166	14610.69
482.537	14861.08
482.908	15118.7
483.279	15287.73
483.65	15537.22
484.021	15986.92
484.391	16113.47
484.762	16326.35
485.133	16431.66
485.503	16735.38
485.874	17047.46
486.244	17235.48
486.615	17583.27
486.985	17763.83
487.356	18148
487.726	18154.78
488.097	18683.8
488.467	18725.16
488.837	19039.95
489.207	19294.86
489.578	19567.62
489.948	19729.88
490.318	20114.05
490.688	20071.11
491.058	20403.53
491.428	20693.02
491.798	20919.45
492.168	21338.42
492.538	21501.13
492.908	21775.47
493.278	22032.19
493.648	22147.44
494.017	22346.53
494.387	22601.44
494.757	22796.01
495.126	23022.9
495.496	23165.27
495.866	23361.19
496.235	23647.74
496.605	23877.56
496.974	24006.6
497.344	24254.5
497.713	24511.67
498.082	24653.36
498.452	24794.38
498.821	24915.73
499.19	25032.56
499.559	25321.14
499.928	25585.09
500.298	25690.17
500.667	25875.25
501.036	25913.67
501.405	26276.6
501.774	26237.73
502.143	26585.06
502.512	26736.92
502.88	26969.91
503.249	26935.34
503.618	27245.84
503.987	27203.35
504.356	27521.08
504.724	27695.32
505.093	27865.26
505.462	28207.17
505.83	28327.16
506.199	28604.22
506.567	28899.58
506.936	28926.92
507.304	29286.69
507.672	29436.06
508.041	29572.33
508.409	29807.35
508.777	30092.09
509.145	30409.82
509.514	30375.25
509.882	30613.21
510.25	30766.2
510.618	31034.21
510.986	31076.47
511.354	31403.24
511.722	31765.72
512.09	32005.03
512.458	31867.41
512.826	32280.28
513.193	32458.36
513.561	32591.01
513.929	32924.56
514.297	33132.01
514.664	33327.71
515.032	33431.66
515.4	33752.56
515.767	33955.49
516.135	34195.49
516.502	34126.79
516.869	34853.77
517.237	34937.61
517.604	34840.67
517.972	35351.61
518.339	35566.07
518.706	35776.91
519.073	35945.95
519.44	36328.99
519.808	36528.76
520.175	36683.33
520.542	37229.08
520.909	37627.49
521.276	37552.68
521.643	37980.24
522.009	38143.63
522.376	38499.33
522.743	38602.15
523.11	39078.97
523.477	39562.12
523.843	39688.22
524.21	40108.1
524.577	40171.83
524.943	40393.97
525.31	40593.96
525.676	41043.89
526.043	41223.77
526.409	41410.44
526.776	41798.22
527.142	41974.72
527.508	42175.39
527.874	42595.04
528.241	42762.72
528.607	42768.59
528.973	43284.51
529.339	43413.55
529.705	43774.89
530.071	44043.81
530.437	44392.51
530.803	44669.79
531.169	44911.81
531.535	44911.81
531.901	45048.53
532.267	45256.44
532.632	45660.49
532.998	45880.38
533.364	46196.53
533.73	46149.75
534.095	46583.86
534.461	46684.87
534.826	46765.1
535.192	47047.35
535.557	47327.57
535.923	47187.23
536.288	47400.79
536.653	47500.22
537.019	47502.48
537.384	47677.16
537.749	47968
538.114	48031.51
538.479	47968.68
538.845	48361.89
539.21	48191.28
539.575	48421.1
539.94	48605.5
540.305	48877.81
540.67	48880.07
541.034	49137.24
541.399	49244.13
541.764	49356.44
542.129	49449.1
542.494	49591.92
542.858	49798.46
543.223	49836.88
543.587	50045.46
543.952	50097.89
544.316	50235.29
544.681	50292.69
545.045	50453.81
545.41	50705.11
545.774	50756.41
546.138	50767.48
546.503	51052.89
546.867	50969.96
547.231	51488.82
547.595	51373.34
547.959	51601.58
548.324	51516.16
548.688	51592.32
549.052	51822.37
549.416	51821.46
549.779	51861.01
550.143	52068.46
550.507	52152.75
550.871	52267.78
551.235	52296.25
551.599	52521.56
551.962	52599.29
552.326	52651.27
552.689	52828.22
553.053	52777.37
553.417	52846.97
553.78	53245.38
554.143	53002.22
554.507	53348.2
554.87	53426.84
555.234	53668.87
555.597	53592.04
555.96	53752.71
556.323	53865.25
556.686	53949.32
557.05	54219.14
557.413	54240.83
557.776	54376.42
558.139	54597.89
558.502	54653.25
558.865	54790.65
559.228	54975.96
559.59	55064.09
559.953	55145.22
560.316	55455.72
560.679	55495.49
561.041	55621.36
561.404	55723.51
561.767	55883.05
562.129	55863.39
562.492	56138.86
562.854	56171.63
563.217	56261.35
563.579	56306.77
563.941	56475.13
564.304	56539.98
564.666	56666.08
565.028	56645.97
565.39	56789.24
565.753	56963.25
566.115	56980.42
566.477	57057.48
566.839	57146.52
567.201	57276.23
567.563	57295.44
567.925	57505.38
568.287	57515.32
568.648	57558.71
569.01	57734.08
569.372	57845.71
569.734	57791.02
570.095	58047.74
570.457	58139.26
570.819	58210.45
571.18	58180.17
571.542	58382.65
571.903	58384.91
572.265	58503.32
572.626	58575.86
572.987	58629.64
573.349	58739.25
573.71	58818.79
574.071	58854.72
574.432	59049.75
574.794	59181.27
575.155	59174.04
575.516	59113.02
575.877	59235.73
576.238	59309.4
576.599	59406.8
576.96	59531.77
577.32	59461.71
577.681	59506.46
578.042	59640.69
578.403	59600.69
578.763	59618.09
579.124	59703.51
579.485	59706.9
579.845	59782.61
580.206	59669.17
580.566	59635.95
580.927	59680.69
581.287	59770.86
581.648	59664.42
582.008	59785.32
582.368	59670.97
582.728	59711.2
583.089	59762.95
583.449	59772.67
583.809	59819.44
584.169	59828.03
584.529	59732.44
584.889	59939.89
585.249	59786.22
585.609	59720.01
585.969	59845.88
586.329	59816.28
586.688	59896.5
587.048	59821.93
587.408	59808.37
587.768	59856.28
588.127	59870.74
588.487	59853.12
588.846	60049.04
589.206	59835.94
589.565	59906.45
589.925	59982.6
590.284	59966.56
590.643	60046.78
591.003	60091.08
591.362	60150.51
591.721	60119.1
592.08	60189.83
592.44	60216.95
592.799	60242.94
593.158	60172.88
593.517	60183.28
593.876	60224.18
594.235	60136.72
594.593	60203.61
594.952	60137.4
595.311	60117.29
595.67	60089.95
596.029	60254.91
596.387	60165.42
596.746	60239.77
597.104	60121.13
597.463	60067.8
597.822	60137.85
598.18	60091.3
598.538	60089.72
598.897	60246.78
599.255	59994.58
599.613	60334.01
599.972	60176.04
600.33	60273.9
600.688	60114.35
601.046	60265.99
601.404	60289.49
601.762	60241.13
602.12	60375.59
602.478	60437.51
602.836	60423.5
603.194	60255.82
603.552	60371.29
603.91	60278.42
604.268	60482.03
604.625	60393.89
604.983	60479.09
605.341	60413.55
605.698	60612.64
606.056	60613.77
606.413	60599.54
606.771	60715.01
607.128	60697.84
607.485	60661.46
607.843	60701.23
608.2	60907.1
608.557	60889.92
608.914	60786.88
609.272	60956.59
609.629	61033.88
609.986	61062.8
610.343	60958.85
610.7	61140.09
611.057	61076.13
611.414	61069.58
611.771	61067.09
612.127	61099.86
612.484	61040.88
612.841	61066.19
613.198	60971.96
613.554	60979.41
613.911	61151.61
614.267	61133.76
614.624	61132.86
614.98	61124.95
615.337	61184.15
615.693	61122.46
616.05	61118.17
616.406	61198.84
616.762	61093.99
617.118	61150.03
617.475	61126.08
617.831	61143.25
618.187	61231.61
618.543	61221.67
618.899	61366.07
619.255	61265.96
619.611	61266.19
619.967	61390.48
620.323	61355.22
620.678	61307.99
621.034	61335.11
621.39	61312.51
621.746	61293.98
622.101	61536.24
622.457	61296.02
622.812	61431.83
623.168	61439.29
623.523	61481.1
623.879	61587.76
624.234	61426.63
624.589	61507.31
624.945	61525.16
625.3	61529.46
625.655	61559.74
626.01	61538.27
626.365	61548.21
626.72	61605.39
627.075	61547.08
627.43	61555.44
627.785	61533.98
628.14	61578.95
628.495	61550.92
628.85	61490.81
629.205	61402.68
629.559	61492.85
629.914	61403.36
630.269	61432.06
630.623	61299.41
630.978	61231.38
631.332	61324.04
631.687	61308.9
632.041	61181.44
632.396	61204.94
632.75	61071.39
633.104	61094.89
633.459	60989.36
633.813	60959.08
634.167	60918.17
634.521	60960.88
634.875	60953.43
635.229	60855.12
635.583	60784.62
635.937	60792.53
636.291	60750.27
636.645	60788.46
636.999	60699.65
637.352	60735.13
637.706	60562.02
638.06	60692.42
638.413	60533.78
638.767	60502.36
639.121	60543.27
639.474	60414.46
639.828	60432.31
640.181	60479.77
640.534	60520.44
640.888	60432.76
641.241	60275.7
641.594	60364.97
641.947	60403.61
642.301	60340.79
642.654	60326.1
643.007	60354.12
643.36	60341.69
643.713	60331.3
644.066	60445.64
644.419	60280
644.771	60153.9
645.124	59880.46
645.477	59850.86
645.83	59722.5
646.182	59560.92
646.535	59495.16
646.888	59551.2
647.24	59372.68
647.593	59485.67
647.945	59359.8
648.298	59300.59
648.65	59262.85
649.002	59153.7
649.355	59239.35
649.707	59184.88
650.059	59250.65
650.411	59573.8
650.763	59618.32
651.115	59781.25
651.467	59633.69
651.819	59647.25
652.171	59530.64
652.523	59478.66
652.875	59459.23
653.227	59359.8
653.578	59472.33
653.93	59432.34
654.282	59261.94
654.633	59156.64
654.985	59229.18
655.337	59252.45
655.688	59164.09
656.039	59296.97
656.391	59059.01
656.742	59128.61
657.094	59071.44
657.445	59119.35
657.796	58990.99
658.147	59015.62
658.498	58960.94
658.849	59073.47
659.2	58931.33
659.551	58904.89
659.902	58969.3
660.253	58948.28
660.604	58935.63
660.955	58883.65
661.306	58977.21
661.656	58930.88
662.007	58991.44
662.358	58911.9
662.708	58963.87
663.059	58986.25
663.409	58808.85
663.76	58978.56
664.11	59008.84
664.461	58986.47
664.811	58994.83
665.161	58994.61
665.511	58914.61
665.862	59014.49
666.212	59050.2
666.562	59020.82
666.912	58944.89
667.262	58945.12
667.612	58831.45
667.962	58872.58
668.312	58789.19
668.662	58923.2
669.011	58800.04
669.361	58728.4
669.711	58664.67
670.06	58694.95
670.41	58644.56
670.76	58605.01
671.109	58623.77
671.459	58507.39
671.808	58537.44
672.157	58513.49
672.507	58287.51
672.856	58319.82
673.205	58282.54
673.554	58369.09
673.904	58295.64
674.253	58372.48
674.602	58143.33
674.951	57885.48
675.3	57729.78
675.649	58108.08
675.998	58057
676.346	58136.55
676.695	58123.22
677.044	57935.2
677.393	58032.6
677.741	57993.05
678.09	57926.61
678.438	57835.99
678.787	57921.64
679.135	57940.17
679.484	57728.2
679.832	57812.04
680.181	57685.71
680.529	57720.97
680.877	57629.9
681.225	57720.06
681.573	57821.76
681.922	57642.1
682.27	57574.98
682.618	57659.95
682.966	57511.93
683.314	57596
683.661	57561.42
684.009	57505.15
684.357	57369.34
684.705	57353.52
685.053	57455.44
685.4	57393.07
685.748	57237.14
686.095	57124.6
686.443	57211.83
686.79	57155.33
687.138	57168.21
687.485	57082.79
687.832	57043.25
688.18	57046.86
688.527	56890.48
688.874	56879.18
689.221	56735.91
689.568	56732.29
689.915	56668.11
690.262	56672.18
690.609	56550.15
690.956	56515.12
691.303	56393.32
691.65	56252.76
691.997	56185.64
692.344	56095.93
692.69	56048.92
693.037	56019.77
693.383	55735.94
693.73	55784.52
694.077	55624.07
694.423	55616.84
694.769	55434.47
695.116	55410.97
695.462	55283.74
695.808	55230.64
696.155	55255.04
696.501	55019.8
696.847	54924.88
697.193	54717.43
697.539	54829.52
697.885	54641.05
698.231	54529.41
698.577	54541.39
698.923	54343.2
699.269	54327.84
699.614	54168.29
699.96	54168.75
700.306	54158.35
700.651	53991.57
700.997	53849.43
701.342	53847.85
701.688	53783.44
702.033	53820.05
702.379	53660.96
702.724	53652.83
703.069	53716.33
703.415	53393.62
703.76	53369.67
704.105	53394.98
704.45	53301.65
704.795	53049
705.14	53083.58
705.485	53090.36
705.83	52952.05
706.175	52972.62
706.52	52813.75
706.865	52685.85
707.209	52759.74
707.554	52705.28
707.899	52727.88
708.243	52615.34
708.588	52566.3
708.932	52308.91
709.277	52359.3
709.621	52402.92
709.966	52235.91
710.31	52262.81
710.654	51834.12
710.998	52070.5
711.342	51976.49
711.687	51945.98
712.031	51717.51
712.375	51612.2
712.719	51613.33
713.063	51536.27
713.407	51629.38
713.75	51329.27
714.094	51370.63
714.438	51171.31
714.782	51183.06
715.125	51035.27
715.469	51059.22
715.812	50860.13
716.156	50649.06
716.499	50651.1
716.843	50667.59
717.186	50342.63
717.53	50520.71
717.873	50535.62
718.216	50391.9
718.559	50111.45
718.902	49941.29
719.246	49988.74
719.589	49774.74
719.932	49650.45
720.275	49534.29
720.617	49507.62
720.96	49359.38
721.303	49375.88
721.646	49312.15
721.989	48968.2
722.331	49139.05
722.674	49047.07
723.016	48982.89
723.359	48915.32
723.701	48882.33
724.044	48573.41
724.386	48499.74
724.729	48519.63
725.071	48398.28
725.413	48404.38
725.755	48383.13
726.097	48172.74
726.439	47988.57
726.782	48105.63
727.124	48327.54
727.465	48155.12
727.807	48096.36
728.149	47984.5
728.491	47973.65
728.833	47966.65
729.175	47769.14
729.516	47715.36
729.858	47603.49
730.199	47781.79
730.541	47588.35
730.882	47750.83
731.224	47880.77
731.565	47474.23
731.906	47496.6
732.248	47601.01
732.589	47294.58
732.93	47313.78
733.271	47230.17
733.612	47366.66
733.953	47391.97
734.294	47128.03
734.635	47036.5
734.976	47188.82
735.317	46957.86
735.658	46918.31
735.999	46804.65
736.339	46658.89
736.68	46791.09
737.021	46614.37
737.361	46448.95
737.702	46573.92
738.042	46344.77
738.383	46210.54
738.723	46392.23
739.063	46110.88
739.404	46196.3
739.744	45889.19
740.084	45906.14
740.424	45842.41
740.764	45816.2
741.104	45779.59
741.444	45405.13
741.784	45299.83
742.124	45521.06
742.464	45303.22
742.804	45245.36
743.143	44884.7
743.483	45016.44
743.823	44753.63
744.162	44656
744.502	44721.31
744.841	44494.2
745.181	44715.21
745.52	44383.92
745.86	44408.32
746.199	44325.84
746.538	44134.88
746.877	44088.78
747.216	44182.57
747.556	43744.61
747.895	43741
748.234	43565.41
748.573	43550.27
748.911	43549.59
749.25	43450.16
749.589	43329.71
749.928	43338.52
750.267	43243.16
750.605	43222.14
750.944	43116.15
751.283	42899.44
751.621	43094.23
751.96	42805.88
752.298	42790.51
752.636	42767.92
752.975	42428.71
753.313	42524.76
753.651	42541.71
753.989	42455.61
754.327	42342.16
754.666	42202.05
755.004	42138.55
755.342	42237.08
755.679	42262.84
756.017	41779.01
756.355	42020.14
756.693	41781.73
757.031	41926.36
757.368	41576.08
757.706	41695.85
758.044	41482.98
758.381	41477.1
758.719	41392.36
759.056	41408.85
759.394	41456.99
759.731	41072.59
760.068	40983.56
760.405	40865.82
760.743	40884.12
761.08	40710.79
761.417	40604.13
761.754	40546.96
762.091	40287.3
762.428	40291.82
762.765	40174.76
763.102	40068.1
763.438	39912.17
763.775	39700.88
764.112	39540.2
764.449	39574.33
764.785	39410.04
765.122	39135.47
765.458	39164.85
765.795	38944.29
766.131	38890.73
766.467	38723.73
766.804	38366.9
767.14	38179.34
767.476	38377.52
767.812	38186.34
768.148	38103.18
768.485	37757.2
768.821	37624.55
769.157	37554.94
769.492	37422.07
769.828	37255.29
770.164	36905.24
770.5	36879.26
770.836	36809.2
771.171	36503.9
771.507	36554.29
771.842	36180.29
772.178	36206.05
772.513	35931.26
772.849	35842.45
773.184	35553.42
773.519	35665.05
773.855	35266.64
774.19	35449.01
774.525	35130.6
774.86	35138.74
775.195	35067.1
775.53	34735.36
775.865	34559.09
776.2	34367.68
776.535	34077.97
776.87	34231.87
777.205	34019.67
777.539	33912.78
777.874	33953.23
778.209	33539.23
778.543	33599.79
778.878	33473.7
779.212	33393.92
779.547	33202.52
779.881	33226.25
780.215	33011.56
780.55	33085.01
780.884	32953.94
781.218	32734.73
781.552	32693.15
781.886	32638.69
782.22	32449.09
782.554	32310.79
782.888	32243.67
783.222	32076.44
783.556	31867.64
783.889	31815.66
784.223	31640.07
784.557	31656.34
784.89	31640.3
785.224	31418.38
785.557	31378.38
785.891	31273.3
786.224	31163.7
786.558	31137.71
786.891	30963.03
787.224	30844.39
787.557	30754.22
787.891	30875.8
788.224	30604.39
788.557	30707.89
788.89	30751.96
789.223	30636.93
789.556	30247.11
789.888	30304.97
790.221	30142.71
790.554	29963.96
790.887	29880.34
791.219	29699.78
791.552	29683.29
791.884	29470.41
792.217	29462.05
792.549	29190.19
792.882	29077.88
793.214	29009.18
793.546	29072.68
793.879	28864.33
794.211	28662.3
794.543	28638.34
794.875	28479.25
795.207	28567.16
795.539	28346.6
795.871	28382.98
796.203	28067.74
796.535	27954.75
796.867	27993.39
797.198	27863
797.53	27807.63
797.862	27489.45
798.193	27593.85
798.525	27322.45
798.856	27288.55
799.188	27049.46
799.519	26952.74
799.85	26832.51
800.182	26758.17
800.513	26803.14
800.844	26463.26
801.175	26674.1
801.506	26585.06
801.837	26405.86
802.168	26273.89
802.499	26178.29
802.83	26027.79
803.161	25979.66
803.491	25984.63
803.822	25898.3
804.153	25583.73
804.483	25485.21
804.814	25353.91
805.145	25276.4
805.475	25299.22
805.805	25191.65
806.136	25199.79
806.466	25163.63
806.796	25082.5
807.126	24912.57
807.457	24816.97
807.787	24864.66
808.117	24804.55
808.447	24617.88
808.777	24622.18
809.107	24505.8
809.436	24464.44
809.766	24572.24
810.096	24373.14
810.426	24272.13
810.755	24291.79
811.085	24290.43
811.414	24342.18
811.744	24074.17
812.073	24029.2
812.403	23944.91
812.732	23861.07
813.061	23840.5
813.39	23778.81
813.719	23772.71
814.049	23908.52
814.378	23935.19
814.707	23639.83
815.036	23667.4
815.365	23482.55
815.693	23393.28
816.022	23475.54
816.351	23378.59
816.68	23244.59
817.008	23458.82
817.337	23198.94
817.665	23233.74
817.994	23213.4
818.322	23205.94
818.651	23147.64
818.979	23025.84
819.307	22998.94
819.636	23000.3
819.964	22882.56
820.292	22973.86
820.62	22822.45
820.948	22699.97
821.276	22826.52
821.604	22768.89
821.932	22814.09
822.259	22845.05
822.587	22722.11
822.915	22819.74
823.243	22932.28
823.57	22731.38
823.898	22773.86
824.225	22651.83
824.553	22761.89
824.88	22718.27
825.207	22847.08
825.535	22653.42
825.862	22707.65
826.189	22602.57
826.516	22666.75
826.843	22807.76
827.17	22657.26
827.497	22657.48
827.824	22615.9
828.151	22604.38
828.478	22441.22
828.805	22488
829.131	22553.98
829.458	22412.74
829.785	22306.31
830.111	22480.31
830.438	22567.32
830.764	22408
831.09	22497.94
831.417	22322.12
831.743	22361.9
832.069	22349.47
832.395	22156.03
832.722	22241
833.048	22177.95
833.374	22286.65
833.7	22140.89
834.026	22129.59
834.351	22184.95
834.677	22180.66
835.003	22042.36
835.329	22003.72
835.654	22006.65
835.98	21870.84
836.306	21949.71
836.631	21739.77
836.956	21795.81
837.282	21868.13
837.607	21627.68
837.932	21706.32
838.258	21544.52
838.583	21592.65
838.908	21471.75
839.233	21490.51
839.558	21501.36
839.883	21378.42
840.208	21316.95
840.533	21376.84
840.858	21268.59
841.182	21319.44
841.507	21289.16
841.832	21158.09
842.156	21246.22
842.481	21215.04
842.805	21122.83
843.13	21169.16
843.454	21082.84
843.778	21035.38
844.103	21000.35
844.427	20897.53
844.751	20993.12
845.075	20870.64
845.399	20827.25
845.723	20697.31
846.047	20889.62
846.371	20587.03
846.695	20617.99
847.019	20571.66
847.343	20414.6
847.666	20343.87
847.99	20239.69
848.313	20279.69
848.637	20203.99
848.96	20109.75
849.284	20241.05
849.607	19944.11
849.931	20083.77
850.254	19924.9
850.577	19852.59
850.9	19751.8
851.223	19682.19
851.546	19600.61
851.869	19485.14
852.192	19616.89
852.515	19464.35
852.838	19445.82
853.161	19296.89
853.483	19409.21
853.806	19194.52
854.129	19227.97
854.451	19084.7
854.774	19035.88
855.096	19009.67
855.419	18936.9
855.741	18883.57
856.063	18830.24
856.385	18762.44
856.708	18712.05
857.03	18537.37
857.352	18597.03
857.674	18407.2
857.996	18420.31
858.318	18380.31
858.64	18327.2
858.961	18217.6
859.283	18230.93
859.605	18121.11
859.926	18231.61
860.248	18066.19
860.57	18011.5
860.891	18017.38
861.212	17825.97
861.534	17856.93
861.855	17715.92
862.176	17807.67
862.498	17764.28
862.819	17728.57
863.14	17570.39
863.461	17645.86
863.782	17563.38
864.103	17582.14
864.424	17501.69
864.745	17486.55
865.065	17335.82
865.386	17269.6
865.707	17374.23
866.027	17421.46
866.348	17250.62
866.668	17233.22
866.989	17118.87
867.309	17075.26
867.63	17096.95
867.95	17021.25
868.27	16948.71
868.59	16962.04
868.91	16991.87
869.23	16989.38
869.55	16884.75
869.87	16914.58
870.19	16797.98
870.51	16863.06
870.83	16798.65
871.15	16518.21
871.469	16657.87
871.789	16758.66
872.109	16637.08
872.428	16504.42
872.748	16659.45
873.067	16610.18
873.386	16542.62
873.706	16544.42
874.025	16483.18
874.344	16452.67
874.663	16532.9
874.982	16372.68
875.301	16456.29
875.62	16393.24
875.939	16439.12
876.258	16372.22
876.577	16257.88
876.896	16228.05
877.214	16287.48
877.533	16335.16
877.852	16301.49
878.17	16223.08
878.489	16288.16
878.807	16274.37
879.125	16267.82
879.444	16254.04
879.762	16230.08
880.08	16266.24
880.398	16094.94
880.716	16105.34
881.034	16154.83
881.352	16125
881.67	16054.27
881.988	16059.24
882.306	16106.47
882.624	16115.96
882.941	16066.7
883.259	15916.19
883.577	15973.37
883.894	15897.66
884.212	15914.61
884.529	15857.89
884.846	15891.56
885.164	15874.84
885.481	15858.79
885.798	15865.57
886.115	15741.28
886.432	15807.49
886.75	15703.32
887.067	15685.92
887.383	15607.5
887.7	15626.93
888.017	15523.21
888.334	15652.02
888.651	15553.72
888.967	15548.07
889.284	15437.11
889.6	15497.45
889.917	15353.72
890.233	15325.02
890.55	15283.67
890.866	15320.5
891.182	15183.78
891.498	15135.87
891.815	15201.41
892.131	15149.66
892.447	15064.69
892.763	15061.75
893.079	15046.84
893.395	14889.55
893.71	14884.81
894.026	14871.93
894.342	14903.11
894.657	14820.18
894.973	14703.57
895.289	14664.02
895.604	14619.5
895.92	14566.17
896.235	14484.14
896.55	14433.52
896.865	14467.64
897.181	14298.61
897.496	14329.34
897.811	14194.43
898.126	14228.78
898.441	14144.94
898.756	14084.15
899.071	14045.28
899.386	13971.61
899.7	13837.6
900.015	13885.74
900.33	13753.76
900.644	13770.03
900.959	13704.72
901.273	13648.68
901.588	13623.82
901.902	13534.11
902.216	13496.82
902.531	13447.56
902.845	13367.56
903.159	13205.75
903.473	13204.17
903.787	13263.61
904.101	13051.41
904.415	13098.41
904.729	13054.12
905.042	12966.44
905.356	12943.16
905.67	12930.51
905.984	12900.23
906.297	12823.62
906.611	12743.17
906.924	12762.83
907.237	12676.5
907.551	12635.6
907.864	12652.32
908.177	12501.37
908.491	12471.99
908.804	12436.74
909.117	12305.89
909.43	12274.25
909.743	12232.9
910.056	12163.52
910.368	12105.44
910.681	12128.72
910.994	12063.41
911.307	12045.56
911.619	11949.06
911.932	11946.58
912.244	11847.37
912.557	11860.93
912.869	11748.39
913.181	11730.76
913.494	11723.53
913.806	11622.52
914.118	11555.85
914.43	11526.25
914.742	11486.25
915.054	11508.4
915.366	11433.15
915.678	11466.14
915.99	11345.69
916.302	11325.8
916.613	11317.44
916.925	11362.64
917.236	11220.5
917.548	11225.92
917.859	11234.51
918.171	11086.26
918.482	11066.38
918.794	11104.34
919.105	11105.7
919.416	10898.02
919.727	10938.02
920.038	10958.58
920.349	10874.52
920.66	10883.33
920.971	10818.47
921.282	10841.75
921.593	10633.39
921.903	10615.99
922.214	10598.37
922.525	10604.01
922.835	10532.83
923.146	10508.65
923.456	10497.13
923.767	10487.41
924.077	10471.36
924.387	10424.58
924.697	10290.8
925.008	10343.46
925.318	10340.29
925.628	10246.74
925.938	10245.38
926.248	10060.3
926.558	10074.99
926.867	10096.01
927.177	9957.93
927.487	9990.92
927.796	9900.98
928.106	9899.4
928.416	9836.35
928.725	9861.21
929.034	9800.42
929.344	9748.22
929.653	9788.44
929.962	9608.79
930.271	9610.59
930.581	9526.53
930.89	9616.47
931.199	9499.86
931.508	9437.27
931.817	9461.67
932.125	9432.52
932.434	9303.26
932.743	9292.64
933.051	9224.16
933.36	9221.68
933.669	9142.36
933.977	9162.7
934.286	9081.12
934.594	9109.82
934.902	8993.21
935.21	8929.71
935.519	8895.81
935.827	8922.03
936.135	8851.07
936.443	8748.47
936.751	8720
937.059	8685.42
937.367	8658.3
937.674	8640.9
937.982	8602.94
938.29	8560.68
938.597	8564.75
938.905	8475.94
939.213	8420.57
939.52	8371.53
939.827	8394.58
940.135	8302.61
940.442	8220.8
940.749	8275.26
941.056	8234.13
941.363	8103.52
941.67	8098.54
941.977	8104.42
942.284	7971.77
942.591	7929.28
942.898	7980.58
943.205	7954.82
943.511	7965.21
943.818	7894.48
944.125	7787.37
944.431	7741.04
944.738	7746.24
945.044	7715.28
945.35	7642.74
945.657	7589.18
945.963	7618.1
946.269	7541.5
946.575	7501.5
946.881	7511.44
947.187	7431.22
947.493	7454.95
947.799	7373.37
948.105	7348.96
948.41	7267.38
948.716	7322.52
949.022	7252.24
949.327	7185.8
949.633	7117.78
949.938	7133.37
950.244	7170.88
950.549	7094.05
950.854	7057.89
951.16	7082.53
951.465	7051.34
951.77	6967.95
952.075	6970.21
952.38	6908.74
952.685	6882.76
952.99	6818.58
953.294	6833.94
953.599	6744
953.904	6716.89
954.209	6748.07
954.513	6703.55
954.818	6723.67
955.122	6678.47
955.426	6625.81
955.731	6566.38
956.035	6572.93
956.339	6513.5
956.643	6532.03
956.948	6447.51
957.252	6487.51
957.556	6445.71
957.86	6384.01
958.163	6447.29
958.467	6355.31
958.771	6368.19
959.075	6339.27
959.378	6263.34
959.682	6254.75
959.985	6250.68
960.289	6228.76
960.592	6221.08
960.896	6200.74
961.199	6161.65
961.502	6171.82
961.805	6087.75
962.108	6115.32
962.411	6113.06
962.714	5986.74
963.017	5998.03
963.32	6044.36
963.623	5957.81
963.926	5939.28
964.228	5949
964.531	5917.13
964.833	5853.63
965.136	5870.35
965.438	5840.07
965.741	5817.47
966.043	5791.94
966.345	5768.66
966.648	5775.89
966.95	5758.49
967.252	5687.99
967.554	5671.72
967.856	5638.72
968.158	5594.2
968.46	5621.77
968.761	5521.66
969.063	5565.28
969.365	5502.23
969.666	5518.95
969.968	5454.55
970.269	5433.76
970.571	5436.92
970.872	5414.77
971.174	5403.47
971.475	5377.94
971.776	5367.32
972.077	5348.11
972.378	5270.6
972.679	5286.64
972.98	5296.36
973.281	5236.25
973.582	5176.59
973.883	5118.51
974.183	5135.68
974.484	5122.35
974.785	5050.26
975.085	5100.43
975.386	5095.23
975.686	5032.86
975.986	4984.28
976.287	4981.34
976.587	4958.29
976.887	4906.09
977.187	4924.62
977.487	4901.79
977.787	4894.11
978.087	4818.86
978.387	4785.64
978.687	4803.49
978.987	4753.32
979.286	4714.45
979.586	4740.67
979.885	4681.68
980.185	4627.22
980.484	4688.69
980.784	4601.91
981.083	4626.55
981.382	4607.11
981.682	4565.53
981.981	4520.79
982.28	4544.97
982.579	4528.47
982.878	4513.55
983.177	4466.55
983.475	4452.54
983.774	4392.2
984.073	4386.55
984.372	4389.04
984.67	4353.56
984.969	4376.61
985.267	4349.26
985.566	4244.18
985.864	4273.79
986.162	4243.28
986.461	4219.55
986.759	4213.45
987.057	4119.44
987.355	4165.31
987.653	4200.12
987.951	4117.41
988.249	4078.08
988.547	4057.97
988.844	4016.62
989.142	4051.19
989.44	3945.88
989.737	3981.82
990.035	3957.18
990.332	3927.13
990.63	3908.82
990.927	3909.95
991.224	3903.63
991.521	3852.78
991.819	3846.45
992.116	3860.46
992.413	3814.59
992.71	3801.48
993.006	3794.7
993.303	3792.89
993.6	3745.66
993.897	3725.33
994.193	3714.7
994.49	3720.58
994.787	3687.81
995.083	3604.42
995.379	3643.07
995.676	3570.08
995.972	3596.97
996.268	3563.52
996.565	3559.45
996.861	3547.03
997.157	3502.28
997.453	3509.06
997.749	3488.95
998.044	3443.75
998.34	3432.68
998.636	3434.49
998.932	3436.75
999.227	3410.98
999.523	3401.49
999.818	3356.52
1000.114	3339.57
1000.409	3326.01
1000.704	3276.98
1001	3287.6
1001.295	3267.94
1001.59	3258.9
1001.885	3266.35
1002.18	3241.95
1002.475	3222.06
1002.77	3214.6
1003.065	3183.65
1003.359	3187.26
1003.654	3131.67
1003.949	3133.02
1004.243	3116.75
1004.538	3082.86
1004.832	3033.82
1005.127	3076.08
1005.421	3038.11
1005.715	3037.89
1006.009	3023.42
1006.304	2953.14
1006.598	2983.65
1006.892	2972.8
1007.186	2926.7
1007.48	2924.89
1007.773	2934.61
1008.067	2898.23
1008.361	2871.56
1008.655	2895.29
1008.948	2837.89
1009.242	2855.97
1009.535	2792.47
1009.829	2784.33
1010.122	2756.09
1010.415	2768.97
1010.708	2771.68
1011.001	2767.16
1011.295	2728.52
1011.588	2737.33
1011.881	2650.55
1012.173	2672.7
1012.466	2677.9
1012.759	2689.42
1013.052	2632.93
1013.344	2629.31
1013.637	2615.98
1013.93	2571.91
1014.222	2581.63
1014.514	2583.66
1014.807	2520.39
1015.099	2517.22
1015.391	2504.79
1015.683	2496.21
1015.976	2493.95
1016.268	2462.31
1016.56	2405.59
1016.851	2422.76
1017.143	2382.54
1017.435	2394.51
1017.727	2371.92
1018.018	2358.13
1018.31	2337.34
1018.602	2331.69
1018.893	2325.36
1019.185	2310.22
1019.476	2256.89
1019.767	2263.44
1020.058	2237.68
1020.35	2217.12
1020.641	2229.55
1020.932	2214.18
1021.223	2172.82
1021.514	2192.48
1021.804	2137.34
1022.095	2163.56
1022.386	2124.24
1022.677	2082.43
1022.967	2090.79
1023.258	2056.44
1023.548	2061.41
1023.839	2033.84
1024.129	2031.13
1024.419	2011.02
1024.709	2014.41
1025	2006.05
1025.29	1975.54
1025.58	1977.58
1025.87	1942.1
1026.16	1930.12
1026.449	1920.4
1026.739	1866.84
1027.029	1865.49
1027.319	1861.42
1027.608	1855.09
1027.898	1855.54
1028.187	1804.92
1028.477	1829.1
1028.766	1794.53
1029.055	1774.42
1029.344	1785.04
1029.634	1766.06
1029.923	1746.39
1030.212	1715.89
1030.501	1729.9
1030.79	1711.59
1031.078	1687.41
1031.367	1677.24
1031.656	1649.67
1031.945	1664.14
1032.233	1641.99
1032.522	1634.31
1032.81	1644.25
1033.099	1607.19
1033.387	1581.65
1033.675	1561.09
1033.963	1579.39
1034.251	1536.91
1034.54	1500.3
1034.828	1526.29
1035.116	1529.68
1035.403	1501.43
1035.691	1490.13
1035.979	1475.44
1036.267	1474.99
1036.554	1451.94
1036.842	1435.67
1037.129	1435.22
1037.417	1430.7
1037.704	1395.22
1037.992	1418.95
1038.279	1407.42
1038.566	1357.93
1038.853	1357.93
1039.14	1357.93
