Data from aluminium_surface_pro_back_FLMS001491_00018.txt Node
Date: Wed Feb 08 15:33:42 GMT 2017
User: dcchb
Spectrometer: FLMS00149
Trigger mode: 0
Integration Time (sec): 2.000000E-2
Scans to average: 10
Electric dark correction enabled: true
Nonlinearity correction enabled: false
Boxcar width: 0
XAxis mode: Wavelengths
Number of Pixels in Spectrum: 2048
>>>>>Begin Spectral Data<<<<<
341.393	-18.09
341.776	-18.09
342.16	-18.09
342.543	-51.09
342.927	-81.82
343.31	-80.69
343.693	-64.65
344.077	-56.06
344.46	-60.13
344.843	-59.45
345.226	-28.49
345.61	-35.95
345.993	-28.26
346.376	-20.8
346.759	22.13
347.142	26.43
347.525	36.82
347.908	49.93
348.291	88.8
348.674	95.35
349.057	115.01
349.44	138.06
349.823	152.98
350.206	172.86
350.588	221.22
350.971	221.22
351.354	248.57
351.737	257.15
352.119	268.68
352.502	268.68
352.884	293.76
353.267	303.25
353.65	311.16
354.032	301.45
354.414	332.86
354.797	323.82
355.179	360.2
355.562	353.65
355.944	332.63
356.326	356.13
356.709	346.42
357.091	354.33
357.473	378.96
357.855	355.91
358.238	373.76
358.62	370.82
359.002	378.51
359.384	381.22
359.766	367.43
360.148	370.6
360.53	375.8
360.912	378.28
361.294	360.43
361.676	355.68
362.057	365.4
362.439	365.4
362.821	360.2
363.203	355.46
363.584	376.7
363.966	377.15
364.348	375.57
364.729	356.81
365.111	345.06
365.493	385.74
365.874	368.79
366.256	360.43
366.637	365.4
367.019	375.34
367.4	362.69
367.781	370.15
368.163	373.31
368.544	348.45
368.925	379.86
369.306	374.89
369.688	357.94
370.069	369.24
370.45	374.67
370.831	361.33
371.212	387.55
371.593	369.02
371.974	388.45
372.355	366.98
372.736	391.39
373.117	375.34
373.498	379.41
373.879	395.46
374.26	393.2
374.641	383.48
375.021	378.06
375.402	402.24
375.783	401.11
376.163	400.43
376.544	434.32
376.925	400.43
377.305	409.92
377.686	406.3
378.066	396.13
378.447	420.77
378.827	427.09
379.208	402.69
379.588	426.64
379.968	435.68
380.349	426.42
380.729	423.93
381.109	446.98
381.489	446.3
381.87	456.47
382.25	450.37
382.63	430.26
383.01	460.31
383.39	466.41
383.77	457.15
384.15	455.79
384.53	478.17
384.91	486.98
385.29	484.04
385.67	477.49
386.049	510.48
386.429	498.05
386.809	491.05
387.189	510.03
387.568	508
387.948	527.2
388.328	519.07
388.707	542.34
389.087	537.6
389.466	553.87
389.846	543.47
390.225	537.6
390.605	550.03
390.984	582.57
391.363	564.04
391.743	567.65
392.122	569.91
392.501	586.86
392.881	591.83
393.26	592.74
393.639	594.77
394.018	598.39
394.397	604.94
394.776	616.24
395.155	620.31
395.534	632.51
395.913	624.83
396.292	645.17
396.671	665.05
397.05	659.63
397.429	674.09
397.808	690.82
398.186	655.34
398.565	711.15
398.944	691.95
399.323	703.7
399.701	721.32
400.08	708.44
400.458	718.39
400.837	738.5
401.215	744.83
401.594	738.05
401.972	766.52
402.351	781.43
402.729	769.01
403.107	774.2
403.486	786.86
403.864	803.35
404.242	791.6
404.62	830.02
404.999	804.71
405.377	807.87
405.755	835.9
406.133	855.78
406.511	852.84
406.889	864.37
407.267	879.51
407.645	912.73
408.023	896.69
408.401	932.39
408.779	889
409.156	960.19
409.534	950.92
409.912	961.77
410.29	996.8
410.667	1009.45
411.045	1006.97
411.422	1028.43
411.8	1047.42
412.178	1051.94
412.555	1083.8
412.933	1062.1
413.31	1084.48
413.687	1126.51
414.065	1130.13
414.442	1153.18
414.819	1129
415.197	1130.58
415.574	1147.98
415.951	1192.27
416.328	1210.35
416.705	1179.84
417.082	1230.24
417.46	1212.61
417.837	1245.83
418.214	1268.88
418.591	1258.94
418.967	1282.66
419.344	1302.32
419.721	1308.65
420.098	1306.39
420.475	1318.82
420.852	1361.31
421.228	1358.59
421.605	1406.73
421.982	1414.64
422.358	1414.19
422.735	1422.1
423.111	1451.7
423.488	1427.07
423.864	1431.81
424.241	1466.39
424.617	1496.44
424.994	1500.06
425.37	1516.1
425.746	1533.28
426.123	1555.43
426.499	1577.35
426.875	1619.83
427.251	1603.11
427.627	1617.34
428.003	1667.96
428.379	1707.96
428.756	1674.52
429.132	1706.61
429.507	1751.8
429.883	1758.13
430.259	1810.79
430.635	1797.68
431.011	1822.54
431.387	1865.93
431.763	1872.48
432.138	1931.69
432.514	1933.04
432.89	1964.68
433.265	1989.31
433.641	2024.11
434.016	2064.56
434.392	2073.15
434.767	2075.86
435.143	2121.96
435.518	2140.49
435.894	2138.23
436.269	2201.96
436.644	2193.15
437.02	2255.29
437.395	2267.95
437.77	2281.73
438.145	2328.74
438.52	2351.11
438.895	2364.22
439.271	2381.84
439.646	2432.69
440.021	2461.84
440.395	2457.77
440.77	2443.76
441.145	2465.68
441.52	2533.25
441.895	2476.3
442.27	2516.76
442.645	2533.25
443.019	2591.1
443.394	2613.93
443.769	2638.33
444.143	2629.75
444.518	2664.55
444.892	2641.27
445.267	2689.86
445.641	2717.88
446.016	2715.17
446.39	2738.44
446.764	2775.73
447.139	2760.59
447.513	2818.44
447.887	2863.19
448.262	2827.26
448.636	2893.24
449.01	2915.62
449.384	2950.87
449.758	2942.96
450.132	2961.49
450.506	3023.41
450.88	3065.89
451.254	3029.74
451.628	3102.96
452.002	3119.45
452.376	3190.41
452.75	3164.87
453.123	3203.07
453.497	3301.37
453.871	3298.66
454.244	3364.42
454.618	3371.65
454.992	3389.05
455.365	3444.87
455.739	3508.37
456.112	3558.76
456.486	3604.86
456.859	3610.29
457.232	3691.41
457.606	3643.73
457.979	3751.07
458.352	3850.28
458.725	3852.54
459.099	3909.71
459.472	3941.8
459.845	4075.13
460.218	4098.86
460.591	4116.49
460.964	4098.18
461.337	4245.98
461.71	4254.79
462.083	4362.58
462.456	4335.47
462.829	4314.9
463.201	4450.72
463.574	4468.34
463.947	4512.86
464.32	4650.71
464.692	4656.36
465.065	4711.27
465.438	4786.3
465.81	4845.73
466.183	4896.58
466.555	4978.39
466.928	5003.02
467.3	5017.03
467.672	5121.66
468.045	5263.58
468.417	5282.11
468.789	5344.48
469.161	5383.12
469.534	5466.96
469.906	5631.7
470.278	5679.61
470.65	5709.44
471.022	5823.79
471.394	5985.14
471.766	5986.04
472.138	6057.45
472.51	6184.68
472.882	6287.96
473.253	6319.59
473.625	6449.31
473.997	6583.54
474.369	6603.88
474.74	6743.09
475.112	6836.19
475.484	6936.3
475.855	7067.6
476.227	7131.1
476.598	7324.54
476.97	7356.85
477.341	7589.39
477.713	7686.34
478.084	7731.31
478.455	8030.74
478.827	8040.45
479.198	8294.23
479.569	8299.65
479.94	8517.5
480.311	8612.87
480.682	8827.32
481.053	9007.88
481.424	9078.39
481.795	9232.29
482.166	9357.25
482.537	9456.23
482.908	9637.02
483.279	9776.68
483.65	9991.59
484.021	10215.54
484.391	10282.2
484.762	10366.94
485.133	10536.88
485.503	10588.86
485.874	10872.02
486.244	10969.19
486.615	11198.34
486.985	11312.68
487.356	11529.63
487.726	11663.18
488.097	11893.01
488.467	11961.48
488.837	12214.35
489.207	12330.74
489.578	12604.17
489.948	12619.09
490.318	12828.35
490.688	12925.07
491.058	13069.92
491.428	13306.08
491.798	13416.58
492.168	13667.2
492.538	13780.87
492.908	13895.21
493.278	14150.35
493.648	14107.64
494.017	14396.44
494.387	14455.65
494.757	14600.73
495.126	14705.81
495.496	14900.16
495.866	14923.89
496.235	15206.14
496.605	15188.74
496.974	15306.7
497.344	15489.3
497.713	15692.91
498.082	15755.96
498.452	15944.2
498.821	16065.33
499.19	16109.39
499.559	16302.16
499.928	16410.4
500.298	16527.46
500.667	16661.69
501.036	16667.34
501.405	16879.32
501.774	16894.68
502.143	17210.61
502.512	17151.63
502.88	17376.48
503.249	17416.93
503.618	17492.41
503.987	17589.35
504.356	17710.48
504.724	17861.21
505.093	17879.97
505.462	18073.18
505.83	18215.1
506.199	18458.94
506.567	18640.4
506.936	18679.04
507.304	18824.12
507.672	18884.24
508.041	18968.53
508.409	19127.39
508.777	19364
509.145	19500.49
509.514	19505.46
509.882	19637.44
510.25	19785
510.618	19947.48
510.986	19923.76
511.354	20242.17
511.722	20500.46
512.09	20577.3
512.458	20635.38
512.826	20775.71
513.193	20883.73
513.561	21014.12
513.929	21182.93
514.297	21407.11
514.664	21555.35
515.032	21680.32
515.4	21888
515.767	22048.67
516.135	22185.17
516.502	22101.33
516.869	22570.24
517.237	22704.25
517.604	22639.84
517.972	22909.89
518.339	23133.39
518.706	23209.09
519.073	23270.33
519.44	23434.85
519.808	23711.9
520.175	23756.88
520.542	24115.28
520.909	24327.26
521.276	24328.61
521.643	24694.7
522.009	24775.15
522.376	25020.57
522.743	25282.03
523.11	25324.52
523.477	25642.93
523.843	25783.26
524.21	26072.75
524.577	26358.39
524.943	26472.74
525.31	26607.2
525.676	26943.01
526.043	27133.28
526.409	27207.86
526.776	27516.1
527.142	27684.68
527.508	27919.48
527.874	28099.59
528.241	28233.37
528.607	28392.01
528.973	28660.48
529.339	28643.53
529.705	29104.98
530.071	29231.99
530.437	29370.29
530.803	29654.8
531.169	29746.55
531.535	29657.29
531.901	29911.74
532.267	30048.91
532.632	30271.05
532.998	30354.44
533.364	30642.8
533.73	30587.66
534.095	30800.53
534.461	31075.55
534.826	31185.83
535.192	31346.73
535.557	31607.74
535.923	31577.23
536.288	31753.05
536.653	31852.26
537.019	31832.6
537.384	32151
537.749	32144.23
538.114	32316.88
538.479	32318.01
538.845	32462.41
539.21	32491.79
539.575	32707.6
539.94	32753.93
540.305	32965.67
540.67	32954.83
541.034	33158.44
541.399	33155.05
541.764	33349.62
542.129	33503.06
542.494	33612.21
542.858	33753.22
543.223	33680.46
543.587	34136.04
543.952	34082.03
544.316	34036.38
544.681	34095.59
545.045	34375.81
545.41	34565.4
545.774	34589.58
546.138	34687.89
546.503	34718.17
546.867	34792.52
547.231	35140.53
547.595	35211.04
547.959	35315.44
548.324	35351.37
548.688	35451.94
549.052	35579.39
549.416	35711.82
549.779	35670.46
550.143	35958.81
550.507	36205.59
550.871	36343.66
551.235	36364.23
551.599	36576.88
551.962	36697.33
552.326	36912.46
552.689	37023.19
553.053	36871.56
553.417	36964.44
553.78	37461.37
554.143	37410.08
554.507	37705.89
554.87	37670.18
555.234	38064.97
555.597	37992.66
555.96	38180.45
556.323	38351.97
556.686	38356.27
557.05	38651.4
557.413	38706.31
557.776	38872.18
558.139	39143.36
558.502	39121.67
558.865	39330.93
559.228	39640.75
559.59	39637.36
559.953	39789.22
560.316	40265.37
560.679	40290.45
561.041	40485.7
561.404	40878.23
561.767	41063.31
562.129	40969.76
562.492	41360.25
562.854	41316.64
563.217	41402.51
563.579	41538.33
563.941	41824.2
564.304	42049.73
564.666	42224.86
565.028	42267.58
565.39	42558.19
565.753	42669.15
566.115	42763.16
566.477	42906.2
566.839	43117.27
567.201	43297.83
567.563	43392.07
567.925	43874.31
568.287	43830.47
568.648	43881.54
569.01	44321.31
569.372	44488.99
569.734	44327.63
570.095	44798.58
570.457	44980.95
570.819	45101.62
571.18	45200.61
571.542	45417.77
571.903	45468.85
572.265	45599.01
572.626	45693.93
572.987	46011.21
573.349	45902.28
573.71	46117.42
574.071	46293.01
574.432	46479.89
574.794	46759.89
575.155	46621.81
575.516	46642.15
575.877	46827
576.238	46931.18
576.599	47076.04
576.96	47203.94
577.32	47175.47
577.681	47442.13
578.042	47557.83
578.403	47579.75
578.763	47613.2
579.124	47724.83
579.485	47938.61
579.845	47887.54
580.206	47942.23
580.566	48030.14
580.927	48054.99
581.287	48268.77
581.648	48145.84
582.008	48358.49
582.368	48286.4
582.728	48280.75
583.089	48340.86
583.449	48398.04
583.809	48416.34
584.169	48405.49
584.529	48390.35
584.889	48741.53
585.249	48433.06
585.609	48430.58
585.969	48745.14
586.329	48634.64
586.688	48600.29
587.048	48542.44
587.408	48439.62
587.768	48517.81
588.127	48489.78
588.487	48418.6
588.846	48804.13
589.206	48480.52
589.565	48493.4
589.925	48614.3
590.284	48552.61
590.643	48738.14
591.003	48740.17
591.362	48826.5
591.721	48766.39
592.08	48702.21
592.44	48849.55
592.799	48732.26
593.158	48660.18
593.517	48804.35
593.876	48790.79
594.235	48704.02
594.593	48720.51
594.952	48936.1
595.311	48721.87
595.67	48975.42
596.029	49139.48
596.387	49132.25
596.746	49169.31
597.104	48971.35
597.463	49011.13
597.822	49142.87
598.18	48995.31
598.538	48954.63
598.897	49207.28
599.255	48986.49
599.613	49385.35
599.972	49198.47
600.33	49301.97
600.688	49258.35
601.046	49381.96
601.404	49552.81
601.762	49496.54
602.12	49591.68
602.478	49613.14
602.836	49548.06
603.194	49420.16
603.552	49626.48
603.91	49470.55
604.268	49769.75
604.625	49689.75
604.983	49816.76
605.341	49686.14
605.698	49815.17
606.056	49980.37
606.413	49913.93
606.771	50021.72
607.128	49987.82
607.485	49845.68
607.843	49934.49
608.2	50206.8
608.557	50285.44
608.914	50331.54
609.272	50326.57
609.629	50438.66
609.986	50416.97
610.343	50243.64
610.7	50638.88
611.057	50501.26
611.414	50414.93
611.771	50350.3
612.127	50560.92
612.484	50622.16
612.841	50571.09
613.198	50559.79
613.554	50606.11
613.911	50771.76
614.267	50706.68
614.624	50720.23
614.98	50785.09
615.337	50972.43
615.693	50829.61
616.05	50925.2
616.406	51070.51
616.762	50917.97
617.118	50933.11
617.475	50844.98
617.831	50941.25
618.187	51016.5
618.543	51008.14
618.899	51227.11
619.255	51186.66
619.611	51252.88
619.967	51242.25
620.323	51415.58
620.678	51259.2
621.034	51192.31
621.39	51288.13
621.746	51196.61
622.101	51565.41
622.457	51214.46
622.812	51288.13
623.168	51462.36
623.523	51331.74
623.879	51468.69
624.234	51191.18
624.589	51410.16
624.945	51383.04
625.3	51402.7
625.655	51383.95
626.01	51401.57
626.365	51521.57
626.72	51415.58
627.075	51377.62
627.43	51418.29
627.785	51285.42
628.14	51308.02
628.495	51442.93
628.85	51310.28
629.205	51150.96
629.559	51324.29
629.914	51207.23
630.269	51362.93
630.623	51136.27
630.978	51054.69
631.332	51260.56
631.687	51220.33
632.041	51138.75
632.396	51251.97
632.75	51040.45
633.104	51217.4
633.459	50968.82
633.813	50886.11
634.167	50915.48
634.521	51049.72
634.875	51005.88
635.229	50890.85
635.583	50642.5
635.937	50757.75
636.291	50760.69
636.645	50717.07
636.999	50664.42
637.352	50727.24
637.706	50581.48
638.06	50648.82
638.413	50419.68
638.767	50473.69
639.121	50481.37
639.474	50288.61
639.828	50214.94
640.181	50260.59
640.534	50310.3
640.888	50194.15
641.241	50017.2
641.594	50003.19
641.947	50218.55
642.301	49989.86
642.654	50099.23
643.007	49977.88
643.36	49987.15
643.713	49982.17
644.066	50005.22
644.419	49800.48
644.771	49520.49
645.124	49125.25
645.477	49186.26
645.83	48840.28
646.182	48753.96
646.535	48619.27
646.888	48712.83
647.24	48411.59
647.593	48767.07
647.945	48535.66
648.298	48348.32
648.65	48355.1
649.002	48228.77
649.355	48400.07
649.707	48182
650.059	48356.23
650.411	48816.78
650.763	48896.78
651.115	49164.57
651.467	49023.1
651.819	49089.32
652.171	48874.86
652.523	48967.29
652.875	48886.16
653.227	48713.96
653.578	48911.47
653.93	48863.79
654.282	48642.32
654.633	48592.38
654.985	48651.81
655.337	48638.03
655.688	48521.42
656.039	48615.88
656.391	48311.48
656.742	48467.64
657.094	48397.81
657.445	48556.68
657.796	48371.82
658.147	48414.76
658.498	48320.52
658.849	48351.26
659.2	48389.22
659.551	48229.9
659.902	48340.18
660.253	48211.6
660.604	48211.6
660.955	48132.28
661.306	48206.18
661.656	48094.54
662.007	48164.14
662.358	47949.23
662.708	48054.99
663.059	48047.99
663.409	47768.45
663.76	48143.8
664.11	48029.91
664.461	48120.08
664.811	48103.58
665.161	47983.81
665.511	47802.34
665.862	47931.83
666.212	48000.53
666.562	47965.73
666.912	47883.02
667.262	47704.95
667.612	47811.61
667.962	47722.35
668.312	47625.85
668.662	47795.11
669.011	47637.38
669.361	47485.97
669.711	47525.06
670.06	47442.35
670.41	47384.05
670.76	47356.71
671.109	47525.74
671.459	47440.09
671.808	47354.45
672.157	47300.21
672.507	47101.35
672.856	47187.67
673.205	47223.38
673.554	47268.12
673.904	47182.7
674.253	47410.72
674.602	47169.59
674.951	46560.8
675.3	46357.86
675.649	47125.98
675.998	47077.84
676.346	47077.62
676.695	47191.29
677.044	46784.74
677.393	46904.97
677.741	46961.01
678.09	46819.55
678.438	46874.23
678.787	46883.27
679.135	46861.35
679.484	46697.29
679.832	46765.54
680.181	46480.12
680.529	46751.52
680.877	46535.03
681.225	46483.06
681.573	46758.76
681.922	46367.13
682.27	46163.07
682.618	46257.98
682.966	46068.83
683.314	46150.18
683.661	46052.79
684.009	45775.96
684.357	45683.3
684.705	45758.33
685.053	45635.17
685.4	45629.52
685.748	45477.43
686.095	45472.46
686.443	45378
686.79	45319.47
687.138	45413.03
687.485	45338.91
687.832	45133.26
688.18	45178.68
688.527	44951.8
688.874	44786.15
689.221	44825.7
689.568	44641.52
689.915	44522.43
690.262	44550.9
690.609	44336.67
690.956	44272.72
691.303	44079.05
691.65	44079.05
691.997	44027.53
692.344	43793.18
692.69	43722.68
693.037	43842.22
693.383	43353.42
693.73	43466.64
694.077	43224.16
694.423	43218.74
694.769	43159.53
695.116	42950.72
695.462	42896.26
695.808	42738.3
696.155	42886.99
696.501	42609.26
696.847	42545.99
697.193	42279.1
697.539	42403.84
697.885	42070.07
698.231	42105.09
698.577	41937.87
698.923	41946.23
699.269	41649.29
699.614	41633.24
699.96	41482.74
700.306	41433.92
700.651	41285.45
700.997	41125.91
701.342	41135.63
701.688	41148.28
702.033	40885.01
702.379	40872.58
702.724	40692.93
703.069	40861.28
703.415	40447.51
703.76	40450.22
704.105	40548.75
704.45	40222.21
704.795	40068.76
705.14	40094.75
705.485	40120.74
705.83	39866.73
706.175	39875.32
706.52	39737.47
706.865	39599.85
707.209	39642.11
707.554	39401.44
707.899	39415.9
708.243	39343.58
708.588	39243.25
708.932	38948.79
709.277	38919.19
709.621	38913.09
709.966	38700.21
710.31	38798.51
710.654	38360.11
710.998	38499.76
711.342	38480.56
711.687	38396.26
712.031	38087.12
712.375	38121.24
712.719	38325.31
713.063	38157.17
713.407	38198.08
713.75	37979.55
714.094	37901.14
714.438	37778.43
714.782	37813.91
715.125	37562.39
715.469	37657.07
715.812	37479.68
716.156	37378.66
716.499	37234.71
716.843	37361.04
717.186	37196.75
717.53	37306.8
717.873	37111.55
718.216	37039.01
718.559	36926.47
718.902	36576.2
719.246	36689.42
719.589	36669.98
719.932	36509.08
720.275	36572.81
720.617	36341.86
720.96	36341.86
721.303	36265.92
721.646	36229.54
721.989	36090.34
722.331	36131.92
722.674	36022.09
723.016	36061.86
723.359	35884.24
723.701	35835.88
724.044	35676.79
724.386	35446.29
724.729	35661.42
725.071	35436.34
725.413	35414.87
725.755	35411.26
726.097	35267.31
726.439	35102.79
726.782	35216.24
727.124	35192.28
727.465	34953.19
727.807	35000.42
728.149	34893.31
728.491	34658.28
728.833	34873.87
729.175	34623.71
729.516	34529.25
729.858	34551.85
730.199	34609.02
730.541	34413.32
730.882	34366.31
731.224	34453.09
731.565	34257.39
731.906	34082.48
732.248	34261.01
732.589	33936.04
732.93	34000.45
733.271	33966.1
733.612	33885.87
733.953	33878.42
734.294	33832.77
734.635	33852.43
734.976	33649.95
735.317	33550.29
735.658	33440.01
735.999	33494.25
736.339	33527.01
736.68	33713.45
737.021	33461.7
737.361	33426.9
737.702	33458.99
738.042	33369.5
738.383	33205.89
738.723	33258.55
739.063	33113.47
739.404	33103.97
739.744	33210.64
740.084	33064.65
740.424	33009.29
740.764	32710.54
741.104	32809.29
741.444	32613.14
741.784	32578.34
742.124	32673.25
742.464	32515.29
742.804	32383.54
743.143	32474.61
743.483	32432.13
743.823	32335.41
744.162	32225.81
744.502	32325.69
744.841	32066.04
745.181	32236.2
745.52	32050.44
745.86	32049.54
746.199	31958.02
746.538	31904.68
746.877	31859.04
747.216	31875.08
747.556	31731.81
747.895	31761.86
748.234	31617.69
748.573	31481.87
748.911	31595.54
749.25	31518.71
749.589	31521.64
749.928	31443.68
750.267	31443.9
750.605	31294.08
750.944	31290.69
751.283	31094.76
751.621	31195.1
751.96	31029.23
752.298	30980.64
752.636	31115.33
752.975	30770.48
753.313	30804.6
753.651	30820.87
753.989	30681.67
754.327	30505.4
754.666	30422.69
755.004	30409.13
755.342	30332.52
755.679	30354.89
756.017	30251.17
756.355	30128.23
756.693	29918.07
757.031	30086.65
757.368	29702.93
757.706	29772.76
758.044	29754.68
758.381	29703.61
758.719	29504.75
759.056	29482.37
759.394	29402.15
759.731	29214.58
760.068	29108.83
760.405	29108.37
760.743	28971.88
761.08	28965.1
761.417	28766.69
761.754	28837.42
762.091	28686.01
762.428	28749.29
762.765	28400.6
763.102	28520.14
763.438	28429.07
763.775	28192.46
764.112	28234.27
764.449	28271.11
764.785	28052.81
765.122	27871.8
765.458	27922.42
765.795	27830.67
766.131	27748.63
766.467	27577.57
766.804	27540.28
767.14	27343.67
767.476	27428.87
767.812	27309.32
768.148	27311.13
768.485	27104.13
768.821	26928.32
769.157	26783.91
769.492	26807.87
769.828	26785.27
770.164	26484.71
770.5	26515.67
770.836	26439.52
771.171	26168.34
771.507	26136.7
771.842	25925.63
772.178	25947.55
772.513	25931.28
772.849	25783.26
773.184	25596.15
773.519	25630.05
773.855	25582.82
774.19	25375.59
774.525	25413.78
774.86	25305.31
775.195	25232.09
775.53	25079.78
775.865	24910.07
776.2	24704.2
776.535	24661.03
776.87	24670.07
777.205	24546.23
777.539	24436.18
777.874	24498.32
778.209	24167.26
778.543	24092.69
778.878	24035.06
779.212	24108.05
779.547	23931.11
779.881	23956.42
780.215	23800.26
780.55	23753.94
780.884	23669.87
781.218	23547.84
781.552	23595.98
781.886	23378.81
782.22	23213.61
782.554	23238.24
782.888	22985.37
783.222	22904.69
783.556	22758.03
783.889	22759.61
784.223	22614.76
784.557	22579.73
784.89	22626.74
785.224	22523.91
785.557	22323.47
785.891	22323.24
786.224	22264.94
786.558	22163.24
786.891	21998.5
787.224	21903.82
787.557	21792.18
787.891	21830.6
788.224	21740.21
788.557	21709.25
788.89	21642.81
789.223	21566.2
789.556	21330.05
789.888	21264.96
790.221	21174.12
790.554	21100
790.887	21020.45
791.219	20965.31
791.552	20890.28
791.884	20832.88
792.217	20607.13
792.549	20590.86
792.882	20390.64
793.214	20462.27
793.546	20369.39
793.879	20329.39
794.211	20210.53
794.543	20187.25
794.875	20139.34
795.207	20189.29
795.539	19996.07
795.871	19986.35
796.203	19874.72
796.535	19832.01
796.867	19717.21
797.198	19716.76
797.53	19522.64
797.862	19419.36
798.193	19528.74
798.525	19356.09
798.856	19410.77
799.188	19187.05
799.519	19228.41
799.85	19023.21
800.182	19086.94
800.513	18998.81
800.844	18833.16
801.175	18961.3
801.506	18863.44
801.837	18861.18
802.168	18688.76
802.499	18670.91
802.83	18589.55
803.161	18466.84
803.491	18458.03
803.822	18436.79
804.153	18300.07
804.483	18325.83
804.814	18218.72
805.145	18147.08
805.475	18152.5
805.805	18115.22
806.136	17999.74
806.466	18101.43
806.796	17920.42
807.126	17762.23
807.457	17849.91
807.787	17837.48
808.117	17715.68
808.447	17591.16
808.777	17747.32
809.107	17641.78
809.436	17561.78
809.766	17505.29
810.096	17474.1
810.426	17381
810.755	17377.83
811.085	17375.57
811.414	17317.27
811.744	17182.36
812.073	17080.67
812.403	17105.98
812.732	17014.68
813.061	16970.61
813.39	16838.64
813.719	16881.12
814.049	16952.53
814.378	16903.04
814.707	16830.73
815.036	16743.05
815.365	16680.45
815.693	16444.75
816.022	16588.02
816.351	16396.39
816.68	16385.77
817.008	16519.78
817.337	16285.89
817.665	16377.63
817.994	16337.41
818.322	16278.65
818.651	16205.44
818.979	16088.6
819.307	16208.37
819.636	16094.93
819.964	16103.29
820.292	16155.04
820.62	16026.23
820.948	15951.66
821.276	15948.27
821.604	15927.25
821.932	16006.8
822.259	16067.81
822.587	15977.87
822.915	16034.14
823.243	15996.18
823.57	15932.22
823.898	15947.14
824.225	15892.22
824.553	15934.93
824.88	15965.89
825.207	15993.69
825.535	15921.15
825.862	16019.23
826.189	15853.13
826.516	15966.57
826.843	16033.46
827.17	16025.78
827.497	16017.42
827.824	15950.98
828.151	15953.92
828.478	15973.8
828.805	15990.3
829.131	15897.19
829.458	15934.93
829.785	15847.93
830.111	15913.69
830.438	16028.04
830.764	15879.12
831.09	15928.15
831.417	15861.94
831.743	15897.65
832.069	15861.72
832.395	15782.17
832.722	15849.51
833.048	15771.1
833.374	15845.67
833.7	15812.9
834.026	15687.26
834.351	15766.58
834.677	15732.91
835.003	15761.83
835.329	15750.31
835.654	15703.98
835.98	15604.32
836.306	15651.55
836.631	15637.77
836.956	15678.44
837.282	15560.71
837.607	15545.57
837.932	15525.68
838.258	15556.41
838.583	15497.43
838.908	15486.36
839.233	15470.99
839.558	15409.3
839.883	15207.72
840.208	15369.07
840.533	15289.98
840.858	15254.5
841.182	15252.47
841.507	15249.53
841.832	15141.96
842.156	15065.58
842.481	15137.89
842.805	15097.67
843.13	15038.69
843.454	15027.84
843.778	14963.66
844.103	14982.87
844.427	14853.15
844.751	14882.08
845.075	14775.87
845.399	14831.69
845.723	14674.4
846.047	14692.71
846.371	14651.13
846.695	14591.92
847.019	14424.92
847.343	14499.04
847.666	14397.57
847.99	14303.79
848.313	14355.54
848.637	14224.7
848.96	14250.23
849.284	14199.39
849.607	14148.99
849.931	14111.03
850.254	13955.33
850.577	13935.44
850.9	13838.72
851.223	13836.01
851.546	13729.34
851.869	13623.58
852.192	13753.97
852.515	13643.47
852.838	13553.08
853.161	13544.26
853.483	13452.29
853.806	13423.36
854.129	13414.32
854.451	13387.2
854.774	13377.04
855.096	13282.57
855.419	13295.46
855.741	13205.51
856.063	13154.44
856.385	13142.24
856.708	13097.49
857.03	13046.65
857.352	13066.99
857.674	12956.48
857.996	12936.59
858.318	12897.5
858.64	12924.17
858.961	12836.48
859.283	12782.47
859.605	12744.28
859.926	12734.34
860.248	12778.18
860.57	12590.16
860.891	12670.61
861.212	12605.76
861.534	12495.7
861.855	12421.35
862.176	12579.54
862.498	12538.19
862.819	12500.45
863.14	12398.76
863.461	12453.67
863.782	12407.57
864.103	12429.49
864.424	12370.73
864.745	12316.72
865.065	12348.14
865.386	12220.91
865.707	12183.17
866.027	12202.15
866.348	12200.34
866.668	12234.01
866.989	12217.29
867.309	12144.75
867.63	12177.07
867.95	12130.97
868.27	12032.21
868.59	12016.17
868.91	12018.2
869.23	12068.14
869.55	11939.33
869.87	12047.35
870.19	11999.44
870.51	11944.76
870.83	11984.76
871.15	11899.56
871.469	11924.64
871.789	11836.28
872.109	11942.04
872.428	11806.23
872.748	11888.49
873.067	11823.63
873.386	11850.07
873.706	11782.73
874.025	11809.39
874.344	11745.89
874.663	11802.84
874.982	11767.13
875.301	11778.89
875.62	11698.44
875.939	11714.48
876.258	11680.13
876.577	11674.03
876.896	11692.33
877.214	11646.01
877.533	11724.2
877.852	11656.63
878.17	11672.67
878.489	11672.45
878.807	11645.33
879.125	11636.06
879.444	11595.84
879.762	11543.19
880.08	11570.08
880.398	11553.81
880.716	11520.81
881.034	11494.37
881.352	11520.13
881.67	11435.62
881.988	11457.76
882.306	11415.5
882.624	11366.69
882.941	11342.96
883.259	11309.07
883.577	11309.29
883.894	11237.43
884.212	11245.79
884.529	11278.11
884.846	11331.44
885.164	11275.85
885.481	11160.37
885.798	11204.89
886.115	11163.76
886.432	11143.2
886.75	11138
887.067	11126.7
887.383	11073.37
887.7	11199.24
888.017	11037.89
888.334	11103.42
888.651	11017.55
888.967	11027.72
889.284	10888.29
889.6	10885.58
889.917	10797.22
890.233	10853.49
890.55	10800.83
890.866	10846.25
891.182	10762.87
891.498	10801.28
891.815	10791.34
892.131	10725.13
892.447	10618.92
892.763	10700.95
893.079	10684.22
893.395	10507.51
893.71	10597
894.026	10515.19
894.342	10543.89
894.657	10408.75
894.973	10424.57
895.289	10390.22
895.604	10376.89
895.92	10334.63
896.235	10227.29
896.55	10293.73
896.865	10231.81
897.181	10233.16
897.496	10147.52
897.811	10153.84
898.126	10081.08
898.441	10120.17
898.756	10067.07
899.071	10011.02
899.386	9991.14
899.7	9912.27
900.015	9889.9
900.33	9824.36
900.644	9876.11
900.959	9887.41
901.273	9813.06
901.588	9813.51
901.902	9672.5
902.216	9754.53
902.531	9669.79
902.845	9580.52
903.159	9671.6
903.473	9565.61
903.787	9576.23
904.101	9505.95
904.415	9465.05
904.729	9493.52
905.042	9393.64
905.356	9362.45
905.67	9411.94
905.984	9347.76
906.297	9315.45
906.611	9236.35
906.924	9272.28
907.237	9215.34
907.551	9183.7
907.864	9113.87
908.177	9131.72
908.491	9122.91
908.804	8974.21
909.117	9073.19
909.43	8990.26
909.743	8985.96
910.056	8953.42
910.368	8938.96
910.681	8912.29
910.994	8798.4
911.307	8823.71
911.619	8696.48
911.932	8727.44
912.244	8681.11
912.557	8736.93
912.869	8637.05
913.181	8644.96
913.494	8646.09
913.806	8566.31
914.118	8505.98
914.43	8482.02
914.742	8430.05
915.054	8457.39
915.366	8354.12
915.678	8423.95
915.99	8346.43
916.302	8295.81
916.613	8284.74
916.925	8237.28
917.236	8260.56
917.548	8162.26
917.859	8073.22
918.171	8048.36
918.482	8066.21
918.794	7982.37
919.105	8012.43
919.416	7931.08
919.727	8000.45
920.038	7929.04
920.349	7830.51
920.66	7804.53
920.971	7793.68
921.282	7818.31
921.593	7709.61
921.903	7758.43
922.214	7751.42
922.525	7640.46
922.835	7629.16
923.146	7590.97
923.456	7555.27
923.767	7563.63
924.077	7519.56
924.387	7502.39
924.697	7434.14
925.008	7414.93
925.318	7357.53
925.628	7375.84
925.938	7345.78
926.248	7283.64
926.558	7288.16
926.867	7223.75
927.177	7216.07
927.487	7205.67
927.796	7123.41
928.106	7085.22
928.416	7091.1
928.725	7101.95
929.034	7003.87
929.344	7035.06
929.653	6974.04
929.962	7008.84
930.271	6949.86
930.581	6861.5
930.89	6844.78
931.199	6842.07
931.508	6826.02
931.817	6787.15
932.125	6769.98
932.434	6753.48
932.743	6626.48
933.051	6652.92
933.36	6612.47
933.669	6604.33
933.977	6587.84
934.286	6584.22
934.594	6523.88
934.902	6491.57
935.21	6522.75
935.519	6503.32
935.827	6452.92
936.135	6379.71
936.443	6361.63
936.751	6383.77
937.059	6351.91
937.367	6314.62
937.674	6353.94
937.982	6298.13
938.29	6296.32
938.597	6244.79
938.905	6185.59
939.213	6214.96
939.52	6088.41
939.827	6151.01
940.135	6095.42
940.442	6092.71
940.749	6075.08
941.056	6040.51
941.363	5967.96
941.67	5981.52
941.977	5931.81
942.284	5941.52
942.591	5941.52
942.898	5842.54
943.205	5866.95
943.511	5851.36
943.818	5785.14
944.125	5788.99
944.431	5731.13
944.738	5750.12
945.044	5726.84
945.35	5647.3
945.657	5649.33
945.963	5632.61
946.269	5602.32
946.575	5551.48
946.881	5542.89
947.187	5536.11
947.493	5536.79
947.799	5461.54
948.105	5514.19
948.41	5505.6
948.716	5418.6
949.022	5413.63
949.327	5429.9
949.633	5388.32
949.938	5309.9
950.244	5354.42
950.549	5240.75
950.854	5305.16
951.16	5274.65
951.465	5246.85
951.77	5250.47
952.075	5201.66
952.38	5149
952.685	5219.74
952.99	5120.3
953.294	5112.62
953.599	5062.9
953.904	5070.59
954.209	5052.96
954.513	5054.54
954.818	5032.62
955.122	4959.63
955.426	4951.04
955.731	4958.5
956.035	4918.73
956.339	4897.26
956.643	4909.24
956.948	4890.03
957.252	4825.62
957.556	4850.48
957.86	4793.98
958.163	4807.54
958.467	4763.48
958.771	4760.09
959.075	4705.85
959.378	4739.97
959.682	4749.47
959.985	4676.02
960.289	4609.81
960.592	4655.46
960.896	4570.94
961.199	4591.05
961.502	4631.95
961.805	4517.83
962.108	4495.01
962.411	4518.06
962.714	4452.3
963.017	4471.05
963.32	4471.05
963.623	4435.12
963.926	4411.17
964.228	4420.89
964.531	4343.83
964.833	4402.81
965.136	4333.43
965.438	4297.95
965.741	4298.86
966.043	4263.6
966.345	4233.55
966.648	4232.87
966.95	4250.5
967.252	4207.11
967.554	4221.8
967.856	4193.77
968.158	4158.75
968.46	4132.76
968.761	4155.81
969.063	4143.38
969.365	4054.34
969.666	4086.43
969.968	4052.99
970.269	4032.65
970.571	4036.49
970.872	4021.35
971.174	4017.28
971.475	3964.63
971.776	3961.92
972.077	3940.22
972.378	3981.58
972.679	3909.04
972.98	3892.76
973.281	3863.16
973.582	3893.89
973.883	3839.43
974.183	3850.73
974.484	3827.68
974.785	3807.12
975.085	3776.84
975.386	3783.62
975.686	3747.01
975.986	3728.25
976.287	3745.88
976.587	3699.55
976.887	3696.39
977.187	3690.28
977.487	3660.68
977.787	3656.16
978.087	3591.08
978.387	3584.07
978.687	3575.94
978.987	3562.38
979.286	3575.71
979.586	3532.32
979.885	3484.87
980.185	3519.44
980.484	3472.66
980.784	3475.6
981.083	3457.52
981.382	3445.77
981.682	3425.43
981.981	3396.05
982.28	3396.73
982.579	3382.95
982.878	3369.84
983.177	3398.54
983.475	3402.83
983.774	3351.08
984.073	3314.47
984.372	3277.87
984.67	3291.2
984.969	3274.02
985.267	3307.02
985.566	3264.98
985.864	3207.59
986.162	3227.92
986.461	3198.09
986.759	3172.33
987.057	3137.76
987.355	3169.17
987.653	3171.2
987.951	3119.9
988.249	3156.74
988.547	3093.01
988.844	3090.53
989.142	3079.45
989.44	3046.91
989.737	3043.3
990.035	3053.69
990.332	3058.89
990.63	2965.56
990.927	3002.84
991.224	2989.74
991.521	2986.57
991.819	2954.03
992.116	2971.43
992.413	2928.95
992.71	2909.51
993.006	2898.67
993.303	2920.81
993.6	2893.92
993.897	2875.62
994.193	2877.2
994.49	2872.68
994.787	2817.99
995.083	2810.53
995.379	2793.81
995.676	2788.39
995.972	2799.23
996.268	2767.37
996.565	2757.2
996.861	2709.97
997.157	2737.32
997.453	2658.9
997.749	2697.09
998.044	2667.49
998.34	2662.74
998.636	2666.13
998.932	2620.03
999.227	2595.62
999.523	2618.45
999.818	2592.23
1000.114	2570.31
1000.409	2564.66
1000.704	2534.61
1001	2538.9
1001.295	2516.98
1001.59	2532.35
1001.885	2478.11
1002.18	2487.6
1002.475	2500.94
1002.77	2482.18
1003.065	2411.9
1003.359	2428.4
1003.654	2390.43
1003.949	2396.76
1004.243	2361.05
1004.538	2384.56
1004.832	2363.31
1005.127	2341.17
1005.421	2321.96
1005.715	2286.03
1006.009	2295.97
1006.304	2307.27
1006.598	2298
1006.892	2294.39
1007.186	2288.74
1007.48	2253.94
1007.773	2223.2
1008.067	2210.32
1008.361	2212.81
1008.655	2214.39
1008.948	2219.59
1009.242	2166.48
1009.535	2145.92
1009.829	2164.45
1010.122	2142.98
1010.415	2136.43
1010.708	2125.35
1011.001	2113.6
1011.295	2079.25
1011.588	2076.99
1011.881	2058.24
1012.173	2047.62
1012.466	2053.04
1012.759	2060.5
1013.052	2016.66
1013.344	2002.19
1013.637	1987.05
1013.93	1996.77
1014.222	1951.57
1014.514	1958.8
1014.807	1947.73
1015.099	1933.04
1015.391	1896.89
1015.683	1920.39
1015.976	1914.96
1016.268	1902.08
1016.56	1879.94
1016.851	1846.04
1017.143	1844.01
1017.435	1838.81
1017.727	1804.23
1018.018	1832.93
1018.31	1810.11
1018.602	1781.41
1018.893	1788.19
1019.185	1775.98
1019.476	1801.07
1019.767	1742.31
1020.058	1746.83
1020.35	1703.67
1020.641	1721.3
1020.932	1694.4
1021.223	1672.71
1021.514	1667.06
1021.804	1662.09
1022.095	1632.03
1022.386	1627.74
1022.677	1638.81
1022.967	1642.88
1023.258	1627.97
1023.548	1605.82
1023.839	1581.64
1024.129	1594.97
1024.419	1552.94
1024.709	1538.02
1025	1567.85
1025.29	1558.59
1025.58	1500.96
1025.87	1525.37
1026.16	1509.1
1026.449	1517.23
1026.739	1501.42
1027.029	1481.08
1027.319	1469.1
1027.608	1490.12
1027.898	1461.87
1028.187	1430.91
1028.477	1418.93
1028.766	1447.41
1029.055	1406.95
1029.344	1416.67
1029.634	1395.2
1029.923	1383.68
1030.212	1392.94
1030.501	1362.44
1030.79	1363.79
1031.078	1353.62
1031.367	1340.29
1031.656	1331.02
1031.945	1314.53
1032.233	1314.98
1032.522	1310.69
1032.81	1322.66
1033.099	1275.66
1033.387	1263.91
1033.675	1237.47
1033.963	1252.16
1034.251	1246.96
1034.54	1234.3
1034.828	1213.06
1035.116	1219.16
1035.403	1239.95
1035.691	1219.61
1035.979	1212.61
1036.267	1190.46
1036.554	1196.34
1036.842	1179.16
1037.129	1178.94
1037.417	1184.36
1037.704	1175.77
1037.992	1132.16
1038.279	1146.62
1038.566	1131.93
1038.853	1131.93
1039.14	1131.93
