Data from aluminium_macbook_case_FLMS001491_028.txt Node
Date: Tue Feb 07 10:43:26 GMT 2017
User: dcchb
Spectrometer: FLMS00149
Trigger mode: 0
Integration Time (sec): 2.000000E-2
Scans to average: 10
Electric dark correction enabled: true
Nonlinearity correction enabled: false
Boxcar width: 0
XAxis mode: Wavelengths
Number of Pixels in Spectrum: 2048
>>>>>Begin Spectral Data<<<<<
341.393	-1.69
341.776	-1.69
342.16	-1.69
342.543	-61.81
342.927	-51.19
343.31	-86.44
343.693	-48.25
344.077	-34.24
344.46	-74.69
344.843	-47.57
345.226	-59.09
345.61	-39.43
345.993	-13.67
346.376	-30.17
346.759	4.86
347.142	29.26
347.525	48.7
347.908	70.85
348.291	67
348.674	100.45
349.057	112.43
349.44	116.95
349.823	140.67
350.206	165.98
350.588	259.99
350.971	252.54
351.354	278.3
351.737	287.79
352.119	288.24
352.502	315.13
352.884	322.14
353.267	331.4
353.65	313.55
354.032	357.84
354.414	362.82
354.797	361.46
355.179	390.84
355.562	349.71
355.944	373.89
356.326	379.09
356.709	400.1
357.091	378.41
357.473	405.75
357.855	416.37
358.238	403.94
358.62	410.05
359.002	424.51
359.384	410.5
359.766	415.02
360.148	397.84
360.53	421.12
360.912	410.5
361.294	397.16
361.676	413.21
362.057	410.95
362.439	415.7
362.821	404.17
363.203	425.64
363.584	402.59
363.966	421.12
364.348	441.23
364.729	418.86
365.111	407.33
365.493	426.99
365.874	422.47
366.256	408.92
366.637	419.09
367.019	413.66
367.4	426.54
367.781	426.77
368.163	447.78
368.544	426.99
368.925	443.94
369.306	433.32
369.688	448.46
370.069	439.88
370.45	437.39
370.831	426.99
371.212	443.72
371.593	461.57
371.974	456.82
372.355	460.21
372.736	472.87
373.117	467.22
373.498	468.35
373.879	451.17
374.26	459.54
374.641	446.65
375.021	466.54
375.402	441.23
375.783	469.93
376.163	515.58
376.544	517.61
376.925	502.02
377.305	512.42
377.686	512.87
378.066	523.49
378.447	511.06
378.827	514.68
379.208	522.13
379.588	523.94
379.968	544.28
380.349	545.86
380.729	537.5
381.109	554.45
381.489	566.2
381.87	548.57
382.25	541.34
382.63	575.24
383.01	562.13
383.39	591.06
383.77	574.11
384.15	591.28
384.53	612.07
384.91	616.82
385.29	611.4
385.67	629.02
386.049	654.11
386.429	651.85
386.809	621.34
387.189	655.24
387.568	643.03
387.948	664.05
388.328	655.01
388.707	664.05
389.087	671.51
389.466	680.77
389.846	695.91
390.225	701.56
390.605	709.02
390.984	749.7
391.363	721.68
391.743	748.34
392.122	765.74
392.501	760.77
392.881	791.05
393.26	783.37
393.639	758.06
394.018	810.49
394.397	792.86
394.776	808.68
395.155	817.94
395.534	838.96
395.913	813.2
396.292	833.09
396.671	879.64
397.05	848.45
397.429	853.42
397.808	882.12
398.186	865.63
398.565	906.3
398.944	918.96
399.323	920.09
399.701	950.14
400.08	941.33
400.458	924.83
400.837	968.68
401.215	1001.22
401.594	966.19
401.972	964.38
402.351	1008.67
402.729	1013.19
403.107	991.05
403.486	1024.27
403.864	1031.72
404.242	1043.02
404.62	1083.47
404.999	1112.17
405.377	1105.85
405.755	1137.48
406.133	1133.64
406.511	1162.79
406.889	1178.61
407.267	1192.4
407.645	1205.51
408.023	1240.98
408.401	1213.19
408.779	1244.83
409.156	1264.03
409.534	1272.85
409.912	1283.24
410.29	1331.15
410.667	1358.27
411.045	1352.17
411.422	1405.95
411.8	1389.91
412.178	1417.25
412.555	1451.15
412.933	1459.28
413.31	1471.49
413.687	1527.53
414.065	1523.69
414.442	1522.78
414.819	1549.22
415.197	1595.33
415.574	1636
415.951	1632.16
416.328	1660.41
416.705	1636.91
417.082	1657.24
417.46	1680.29
417.837	1707.86
418.214	1734.53
418.591	1763.23
418.967	1726.4
419.344	1811.59
419.721	1801.2
420.098	1807.75
420.475	1852.49
420.852	1866.05
421.228	1892.49
421.605	1922.55
421.982	1934.3
422.358	1941.3
422.735	1983.34
423.111	1965.94
423.488	1994.64
423.864	2043
424.241	2081.87
424.617	2108.31
424.994	2130.9
425.37	2133.39
425.746	2143.11
426.123	2196.44
426.499	2223.11
426.875	2237.79
427.251	2249.77
427.627	2360.28
428.003	2337
428.379	2373.61
428.756	2396.89
429.132	2414.96
429.507	2478.69
429.883	2518.24
430.259	2592.36
430.635	2606.82
431.011	2624.68
431.387	2645.69
431.763	2703.54
432.138	2721.17
432.514	2741.74
432.89	2800.94
433.265	2880.94
433.641	2891.11
434.016	2887.04
434.392	2955.29
434.767	3068.96
435.143	3026.93
435.518	3067.38
435.894	3079.35
436.269	3222.18
436.644	3186.7
437.02	3241.84
437.395	3264.66
437.77	3279.12
438.145	3377.2
438.52	3357.76
438.895	3423.3
439.271	3446.35
439.646	3518.44
440.021	3527.03
440.395	3561.15
440.77	3557.08
441.145	3577.87
441.52	3651.09
441.895	3700.35
442.27	3702.61
442.645	3711.65
443.019	3793.46
443.394	3759.56
443.769	3845.66
444.143	3861.48
444.518	3890.86
444.892	3847.92
445.267	3946.22
445.641	3985.77
446.016	4039.78
446.39	4070.51
446.764	4079.78
447.139	4111.42
447.513	4172.43
447.887	4205.65
448.262	4212.43
448.636	4190.51
449.01	4254.46
449.384	4289.72
449.758	4350.51
450.132	4383.5
450.506	4442.71
450.88	4460.79
451.254	4534.46
451.628	4502.37
452.002	4616.04
452.376	4696.49
452.75	4725.41
453.123	4791.17
453.497	4879.08
453.871	4880.21
454.244	5002.47
454.618	5007.66
454.992	5091.28
455.365	5116.81
455.739	5253.31
456.112	5336.92
456.486	5340.99
456.859	5392.74
457.232	5540.53
457.606	5471.38
457.979	5608.78
458.352	5691.26
458.725	5747.76
459.099	5770.13
459.472	5962.67
459.845	5950.47
460.218	6052.84
460.591	6066.85
460.964	6117.92
461.337	6264.81
461.71	6376.67
462.083	6495.31
462.456	6487.17
462.829	6545.93
463.201	6713.83
463.574	6725.59
463.947	6812.59
464.32	6994.73
464.692	7049.19
465.065	7126.71
465.438	7198.57
465.81	7299.81
466.183	7377.77
466.555	7627.94
466.928	7575.06
467.3	7566.69
467.672	7710.19
468.045	7965.1
468.417	8012.11
468.789	8071.77
469.161	8198.32
469.534	8252.33
469.906	8482.6
470.278	8510.85
470.65	8615.71
471.022	8806.21
471.394	8995.58
471.766	9139.76
472.138	9222.24
472.51	9433.09
472.882	9544.04
473.253	9736.58
473.625	9792.17
473.997	10083.01
474.369	10117.81
474.74	10265.83
475.112	10444.36
475.484	10650
475.855	10825.82
476.227	10932.48
476.598	11312.36
476.97	11263.77
477.341	11680.03
477.713	11734.04
478.084	11699.01
478.455	12157.08
478.827	12224.65
479.198	12583.51
479.569	12609.05
479.94	13047
480.311	13123.84
480.682	13530.38
481.053	13716.36
481.424	13929.46
481.795	14112.28
482.166	14367.64
482.537	14533.52
482.908	14954.07
483.279	15131.92
483.65	15404
484.021	15707.5
484.391	15815.52
484.762	15981.16
485.133	16272
485.503	16421.15
485.874	16808.48
486.244	16895.71
486.615	17224.07
486.985	17506.09
487.356	17771.17
487.726	17872.41
488.097	18315.11
488.467	18307.43
488.837	18673.07
489.207	18948.54
489.578	19191.92
489.948	19356.89
490.318	19697.45
490.688	19720.72
491.058	20170.88
491.428	20337.88
491.798	20578.78
492.168	21050.63
492.538	21219.44
492.908	21339.44
493.278	21721.35
493.648	21833.89
494.017	22061.91
494.387	22301.67
494.757	22452.4
495.126	22825.28
495.496	22797.48
495.866	23072.05
496.235	23407.63
496.605	23463.45
496.974	23709.77
497.344	23884.23
497.713	24096.43
498.082	24138.46
498.452	24447.15
498.821	24488.28
499.19	24598.56
499.559	24826.8
499.928	25037.65
500.298	25213.91
500.667	25427.69
501.036	25413.91
501.405	25766.44
501.774	25810.06
502.143	26064.51
502.512	26285.75
502.88	26431.06
503.249	26522.58
503.618	26782.01
503.987	26967.31
504.356	27199.4
504.724	27401.88
505.093	27638.03
505.462	27813.17
505.83	27957.8
506.199	28277.79
506.567	28444.56
506.936	28569.08
507.304	28936.98
507.672	29037.77
508.041	29124.32
508.409	29383.3
508.777	29640.46
509.145	29790.97
509.514	29734.02
509.882	30164.52
510.25	30133.56
510.618	30461.91
510.986	30641.34
511.354	30925.85
511.722	31161.1
512.09	31334.88
512.458	31403.13
512.826	31697.81
513.193	31921.31
513.561	32032.49
513.929	32347.06
514.297	32687.62
514.664	32923.77
515.032	33077.66
515.4	33420.7
515.767	33629.96
516.135	33804.87
516.502	33933.23
516.869	34379.77
517.237	34700.44
517.604	34498.41
517.972	34891.4
518.339	35197.61
518.706	35309.47
519.073	35677.59
519.44	35717.37
519.808	36282.32
520.175	36051.14
520.542	36635.31
520.909	36803.67
521.276	36824
521.643	37421.05
522.009	37572.91
522.376	37725.22
522.743	38059
523.11	38326.34
523.477	38748.25
523.843	38924.74
524.21	39233.66
524.577	39715
524.943	39563.14
525.31	40110.24
525.676	40212.39
526.043	40656.9
526.409	40878.81
526.776	41177.34
527.142	41543.88
527.508	41807.15
527.874	42212.79
528.241	42231.77
528.607	42504.08
528.973	42921.47
529.339	43021.58
529.705	43543.83
530.071	43801.67
530.437	43868.56
530.803	44183.81
531.169	44376.12
531.535	44385.39
531.901	44509.23
532.267	44700.41
532.632	45026.5
532.998	45071.47
533.364	45354.85
533.73	45435.3
534.095	45710.32
534.461	45806.82
534.826	46119.35
535.192	46148.96
535.557	46585.78
535.923	46432.56
536.288	46640.92
536.653	46957.3
537.019	46850.63
537.384	46934.92
537.749	47117.07
538.114	47310.06
538.479	47426.44
538.845	47789.36
539.21	47731.06
539.575	47964.05
539.94	48174.89
540.305	48376.69
540.67	48492.4
541.034	48640.42
541.399	48781.43
541.764	48842.22
542.129	49123.34
542.494	49270.46
542.858	49321.3
543.223	49502.54
543.587	49639.94
543.952	49587.28
544.316	49657.56
544.681	49763.55
545.045	49938.01
545.41	50153.37
545.774	50101.85
546.138	50262.75
546.503	50328.73
546.867	50345.91
547.231	50715.62
547.595	50693.92
547.959	50865.89
548.324	50875.16
548.688	51027.7
549.052	51016.4
549.416	51163.06
549.779	51230.18
550.143	51417.97
550.507	51571.41
550.871	51717.4
551.235	51674.01
551.599	52067.9
551.962	51981.57
552.326	52172.53
552.689	52349.47
553.053	52216.82
553.417	52384.05
553.78	52772.06
554.143	52754.43
554.507	52938.16
554.87	53158.26
555.234	53312.38
555.597	53230.13
555.96	53395.77
556.323	53573.17
556.686	53630.79
557.05	53814.97
557.413	53919.83
557.776	53966.38
558.139	54169.99
558.502	54172.25
558.865	54243.88
559.228	54451.56
559.59	54577.66
559.953	54605.23
560.316	54818.78
560.679	54834.6
561.041	55044.99
561.404	55211.54
561.767	55298.77
562.129	55141.71
562.492	55438.43
562.854	55479.33
563.217	55570.18
563.579	55710.96
563.941	55856.27
564.304	56008.36
564.666	56074.57
565.028	56140.11
565.39	56224.85
565.753	56478.18
566.115	56557.72
566.477	56673.88
566.839	56736.02
567.201	56905.96
567.563	56943.93
567.925	57110.02
568.287	57162
568.648	57308.89
569.01	57432.95
569.372	57587.07
569.734	57545.94
570.095	57707.3
570.457	57743.45
570.819	57919.04
571.18	57857.8
571.542	57999.72
571.903	58113.61
572.265	58190.67
572.626	58246.27
572.987	58298.92
573.349	58295.3
573.71	58369.88
574.071	58378.92
574.432	58449.65
574.794	58624.11
575.155	58508.41
575.516	58493.94
575.877	58646.25
576.238	58652.13
576.599	58809.41
576.96	58774.61
577.32	58864.55
577.681	58896.64
578.042	58949.3
578.403	58953.82
578.763	58991.1
579.124	59036.07
579.485	59105.68
579.845	59186.81
580.206	59109.52
580.566	59178.22
580.927	59252.11
581.287	59373.02
581.648	59324.2
582.008	59415.73
582.368	59347.71
582.728	59440.81
583.089	59405.56
583.449	59407.14
583.809	59440.13
584.169	59499.34
584.529	59512.45
584.889	59677.41
585.249	59469.51
585.609	59438.32
585.969	59609.85
586.329	59520.81
586.688	59573.91
587.048	59552.67
587.408	59507.47
587.768	59519.68
588.127	59466.12
588.487	59437.19
588.846	59585.89
589.206	59389.96
589.565	59443.3
589.925	59595.16
590.284	59428.83
590.643	59405.33
591.003	59434.48
591.362	59529.85
591.721	59476.97
592.08	59504.09
592.44	59501.6
592.799	59450.98
593.158	59429.28
593.517	59418.44
593.876	59519.45
594.235	59499.11
594.593	59521.94
594.952	59600.35
595.311	59512.67
595.67	59557.19
596.029	59683.52
596.387	59675.38
596.746	59714.7
597.104	59659.11
597.463	59668.6
597.822	59798.77
598.18	59717.19
598.538	59678.77
598.897	59895.04
599.255	59729.62
599.613	60076.27
599.972	59879.89
600.33	59984.52
600.688	59928.93
601.046	59950.18
601.404	60111.75
601.762	60057.74
602.12	60183.39
602.478	60138.42
602.836	60127.12
603.194	59972.1
603.552	60006.44
603.91	59968.48
604.268	60140.68
604.625	59966.9
604.983	60080.12
605.341	59976.62
605.698	60055.71
606.056	60117.4
606.413	60005.31
606.771	60102.26
607.128	60166.21
607.485	60018.42
607.843	60006.22
608.2	60159.66
608.557	60198.08
608.914	60086.22
609.272	60233.56
609.629	60231.07
609.986	60313.33
610.343	60273.56
610.7	60379.09
611.057	60371.41
611.414	60374.34
611.771	60424.96
612.127	60549.71
612.484	60460.9
612.841	60592.64
613.198	60547.45
613.554	60506.09
613.911	60690.04
614.267	60650.72
614.624	60664.96
614.98	60729.59
615.337	60910.83
615.693	60820.66
616.05	60906.53
616.406	60926.87
616.762	60874.67
617.118	60943.14
617.475	60922.13
617.831	60973.43
618.187	61015.01
618.543	60979.3
618.899	61106.75
619.255	61023.82
619.611	60959.87
619.967	61065.63
620.323	61104.95
620.678	61057.72
621.034	60953.76
621.39	60960.09
621.746	60880.32
622.101	61154.66
622.457	60906.99
622.812	60919.64
623.168	60950.37
623.523	60929.13
623.879	60944.95
624.234	60816.59
624.589	60836.48
624.945	60870.15
625.3	60923.26
625.655	60794.45
626.01	60831.28
626.365	60777.27
626.72	60724.62
627.075	60776.37
627.43	60748.57
627.785	60717.39
628.14	60823.37
628.495	60798.51
628.85	60760.55
629.205	60690.49
629.559	60852.3
629.914	60715.35
630.269	60786.31
630.623	60765.75
630.978	60703.83
631.332	60809.14
631.687	60829.47
632.041	60716.03
632.396	60791.06
632.75	60699.53
633.104	60770.27
633.459	60589.03
633.813	60674
634.167	60636.48
634.521	60668.8
634.875	60627.67
635.229	60582.47
635.583	60496.83
635.937	60515.81
636.291	60559.42
636.645	60477.62
636.999	60470.61
637.352	60453.44
637.706	60358.98
638.06	60405.53
638.413	60304.97
638.767	60234.46
639.121	60225.87
639.474	60048.48
639.828	60104.52
640.181	60099.55
640.534	60073.11
640.888	59980.23
641.241	59806.22
641.594	59870.18
641.947	59883.96
642.301	59753.57
642.654	59716.96
643.007	59711.54
643.36	59671.76
643.713	59614.82
644.066	59646.23
644.419	59468.83
644.771	59371.89
645.124	59082.4
645.477	59104.1
645.83	58890.99
646.182	58773.71
646.535	58682.86
646.888	58757.89
647.24	58608.29
647.593	58798.11
647.945	58616.88
648.298	58546.82
648.65	58569.19
649.002	58427.28
649.355	58646.93
649.707	58567.84
650.059	58643.54
650.411	58997.66
650.763	59048.96
651.115	59193.81
651.467	59162.17
651.819	59179.12
652.171	59143.64
652.523	59119.01
652.875	59139.8
653.227	59042.85
653.578	59159.46
653.93	59096.64
654.282	58933.93
654.633	58948.17
654.985	58952.91
655.337	58951.11
655.688	58965.12
656.039	59002.63
656.391	58849.64
656.742	58755.63
657.094	58804.89
657.445	58837.66
657.796	58867.27
658.147	58791.56
658.498	58703.65
658.849	58753.37
659.2	58678.57
659.551	58608.52
659.902	58653.26
660.253	58554.51
660.604	58520.38
660.955	58408.29
661.306	58432.47
661.656	58409.42
662.007	58362.19
662.358	58338.92
662.708	58288.52
663.059	58214.4
663.409	58092.14
663.76	58218.02
664.11	58160.84
664.461	58229.09
664.811	58125.59
665.161	58074.07
665.511	58007.85
665.862	58034.29
666.212	58144.12
666.562	58109.09
666.912	58105.48
667.262	58027.06
667.612	58050.56
667.962	58054.18
668.312	58151.58
668.662	58181.86
669.011	58091.01
669.361	58093.5
669.711	58153.84
670.06	58111.35
670.41	58125.14
670.76	58086.04
671.109	58190.9
671.459	58088.3
671.808	58047.85
672.157	58213.5
672.507	57950.68
672.856	57978.48
673.205	58017.12
673.554	58075.2
673.904	57946.84
674.253	58143.44
674.602	58085.37
674.951	57684.25
675.3	57502.78
675.649	57925.37
675.998	57825.03
676.346	57903.68
676.695	57982.77
677.044	57704.36
677.393	57787.75
677.741	57796.79
678.09	57675.21
678.438	57651.25
678.787	57660.29
679.135	57642.89
679.484	57428.66
679.832	57528.77
680.181	57276.35
680.529	57389.34
680.877	57284.03
681.225	57200.42
681.573	57351.15
681.922	57092.85
682.27	56978.05
682.618	57032.96
682.966	56939.63
683.314	56949.35
683.661	56804.95
684.009	56686.76
684.357	56657.83
684.705	56641.11
685.053	56597.04
685.4	56577.61
685.748	56387.33
686.095	56412.87
686.443	56252.87
686.79	56234.57
687.138	56319.99
687.485	56228.92
687.832	56146.21
688.18	56209.03
688.527	56063.27
688.874	56032.76
689.221	55995.48
689.568	55957.29
689.915	55976.72
690.262	55912.99
690.609	55867.8
690.956	55779.44
691.303	55779.44
691.65	55642.04
691.997	55688.82
692.344	55428.26
692.69	55491.08
693.037	55529.05
693.383	55304.42
693.73	55315.72
694.077	55234.82
694.423	55170.87
694.769	55067.59
695.116	55060.59
695.462	55007.48
695.808	54923.87
696.155	54945.11
696.501	54792.12
696.847	54691.1
697.193	54538.79
697.539	54613.59
697.885	54422.18
698.231	54317.1
698.577	54365.69
698.923	54353.49
699.269	54081.4
699.614	53943.1
699.96	53880.05
700.306	53846.61
700.651	53640.28
700.997	53556.44
701.342	53475.09
701.688	53428.99
702.033	53291.82
702.379	53281.65
702.724	53181.09
703.069	53139.96
703.415	52780.87
703.76	52804.15
704.105	52772.96
704.45	52702.23
704.795	52378.17
705.14	52358.28
705.485	52311.73
705.83	52127.56
706.175	52142.47
706.52	52119.19
706.865	51879.43
707.209	51805.08
707.554	51718.08
707.899	51649.83
708.243	51538.42
708.588	51548.81
708.932	51291.19
709.277	51219.11
709.621	51382.72
709.966	51237.86
710.31	51180.24
710.654	50857.76
710.998	50968.49
711.342	51091.88
711.687	50914.71
712.031	50756.52
712.375	50571.44
712.719	50707.93
713.063	50517.43
713.407	50782.96
713.75	50497.32
714.094	50537.32
714.438	50370.54
714.782	50460.71
715.125	50281.28
715.469	50428.39
715.812	50179.36
716.156	49996.99
716.499	50126.25
716.843	50157.44
717.186	49800.39
717.53	49984.11
717.873	49921.74
718.216	49865.92
718.559	49614.85
718.902	49440.62
719.246	49593.16
719.589	49389.32
719.932	49235.88
720.275	49279.27
720.617	49062.1
720.96	49028.65
721.303	49065.72
721.646	48967.19
721.989	48808.77
722.331	48927.41
722.674	48821.43
723.016	48736.68
723.359	48537.59
723.701	48659.85
724.044	48315.23
724.386	48197.72
724.729	48310.03
725.071	48113.2
725.413	48030.49
725.755	48015.8
726.097	47777.61
726.439	47610.16
726.782	47600.67
727.124	47673.21
727.465	47403.84
727.807	47380.56
728.149	47245.2
728.491	47184.41
728.833	47242.26
729.175	46961.82
729.516	46819.67
729.858	46707.36
730.199	46830.52
730.541	46723.86
730.882	46579.23
731.224	46736.96
731.565	46335.62
731.906	46508.95
732.248	46360.25
732.589	46080.94
732.93	46019.02
733.271	45954.84
733.612	45971.33
733.953	46222.85
734.294	45731.34
734.635	45733.83
734.976	45920.26
735.317	45723.88
735.658	45696.31
735.999	45684.34
736.339	45522.76
736.68	45695.86
737.021	45529.54
737.361	45428.52
737.702	45475.98
738.042	45386.72
738.383	45289.32
738.723	45374.97
739.063	45323.89
739.404	45345.81
739.744	45113.96
740.084	44995.09
740.424	45177.46
740.764	44950.57
741.104	45126.16
741.444	44762.1
741.784	44835.54
742.124	44768.65
742.464	44646.17
742.804	44572.5
743.143	44462.45
743.483	44642.33
743.823	44351.72
744.162	44225.62
744.502	44375.9
744.841	44210.02
745.181	44277.82
745.52	43987.43
745.86	44121.66
746.199	43799.64
746.538	43825.18
746.877	43874.44
747.216	43796.48
747.556	43648.68
747.895	43601.23
748.234	43405.98
748.573	43321.23
748.911	43190.62
749.25	43294.34
749.589	42866.56
749.928	43013.22
750.267	42877.4
750.605	42822.49
750.944	42746.56
751.283	42624.53
751.621	42476.51
751.96	42341.15
752.298	42395.83
752.636	42331.2
752.975	42041.49
753.313	41946.58
753.651	41915.62
753.989	41712.69
754.327	41445.12
754.666	41384.56
755.004	41360.83
755.342	41330.1
755.679	41258.46
756.017	41058.47
756.355	41116.77
756.693	40937.12
757.031	41013.05
757.368	40760.17
757.706	40657.58
758.044	40451.48
758.381	40530.35
758.719	40308.21
759.056	40196.12
759.394	39995.22
759.731	39693.76
760.068	39777.6
760.405	39667.09
760.743	39476.36
761.08	39726.07
761.417	39342.81
761.754	39426.42
762.091	39433.88
762.428	39158.41
762.765	39059.42
763.102	39079.09
763.438	38921.35
763.775	38787.12
764.112	38867.11
764.449	38826.21
764.785	38516.39
765.122	38375.6
765.458	38246.34
765.795	38030.3
766.131	38038.21
766.467	37903.98
766.804	37578.56
767.14	37651.1
767.476	37593.47
767.812	37345.8
768.148	37367.94
768.485	37155.07
768.821	36929.76
769.157	36925.7
769.492	36870.56
769.828	36702.2
770.164	36412.94
770.5	36359.61
770.836	36260.4
771.171	36140.18
771.507	36167.52
771.842	35690.47
772.178	35712.39
772.513	35543.13
772.849	35535.68
773.184	35353.76
773.519	35285.06
773.855	35109.25
774.19	34947.44
774.525	34852.53
774.86	34873.55
775.195	34530.5
775.53	34406.44
775.865	34243.96
776.2	34103.62
776.535	33746.12
776.87	33802.16
777.205	33718.55
777.539	33411.21
777.874	33536.41
778.209	33169.41
778.543	33260.26
778.878	32961.73
779.212	33004.22
779.547	32855.75
779.881	32924.45
780.215	32612.14
780.55	32616.66
780.884	32393.61
781.218	32227.97
781.552	32318.13
781.886	31986.84
782.22	31865.94
782.554	31891.7
782.888	31617.59
783.222	31359.97
783.556	31305.96
783.889	31226.64
784.223	30980.09
784.557	30911.62
784.89	30930.6
785.224	30727.67
785.557	30509.82
785.891	30641.34
786.224	30434.57
786.558	30452.65
786.891	30121.58
787.224	30092.88
787.557	29922.94
787.891	29887.01
788.224	29816.73
788.557	29722.04
788.89	29546.45
789.223	29538.09
789.556	29427.36
789.888	29279.8
790.221	29139.46
790.554	29024.89
790.887	29079.35
791.219	28853.82
791.552	28821.95
791.884	28739.7
792.217	28657.66
792.549	28500.15
792.882	28295.19
793.214	28301.97
793.546	28324.79
793.879	28153.5
794.211	27991.02
794.543	28071.92
794.875	27882.09
795.207	28068.3
795.539	27850
795.871	27764.35
796.203	27507.19
796.535	27360.3
796.867	27340.64
797.198	27182
797.53	27325.27
797.862	27126.18
798.193	27183.13
798.525	26985.84
798.856	26875.11
799.188	26614.1
799.519	26500.43
799.85	26360.78
800.182	26404.84
800.513	26352.19
800.844	26152.42
801.175	26143.61
801.506	26118.52
801.837	25964.18
802.168	25966.89
802.499	25763.73
802.83	25668.36
803.161	25634.69
803.491	25596.28
803.822	25600.34
804.153	25369.84
804.483	25174.14
804.814	25117.19
805.145	25152.9
805.475	25060.7
805.805	24965.56
806.136	24943.19
806.466	24877.42
806.796	24829.52
807.126	24613.93
807.457	24478.34
807.787	24571.44
808.117	24590.43
808.447	24341.85
808.777	24496.42
809.107	24182.53
809.436	24250.1
809.766	24118.12
810.096	24142.76
810.426	23962.65
810.755	23974.62
811.085	23853.5
811.414	23824.8
811.744	23649.89
812.073	23672.48
812.403	23564.92
812.732	23432.04
813.061	23519.04
813.39	23204.25
813.719	23214.42
814.049	23329.9
814.378	23184.59
814.707	23190.69
815.036	23170.8
815.365	22896.01
815.693	22712.06
816.022	22900.53
816.351	22785.95
816.68	22660.99
817.008	22786.18
817.337	22536.24
817.665	22559.29
817.994	22661.66
818.322	22464.83
818.651	22492.4
818.979	22333.09
819.307	22528.79
819.636	22402.91
819.964	22152.07
820.292	22326.31
820.62	22209.92
820.948	22131.51
821.276	22291.96
821.604	22189.81
821.932	22257.61
822.259	22199.08
822.587	22149.14
822.915	22068.01
823.243	22213.99
823.57	22079.53
823.898	22111.85
824.225	22191.39
824.553	22122.47
824.88	22091.06
825.207	22227.78
825.535	22036.37
825.862	22181.45
826.189	22093.32
826.516	22210.15
826.843	22306.19
827.17	22098.97
827.497	22168.34
827.824	22112.75
828.151	22090.83
828.478	22110.94
828.805	22090.38
829.131	21954.11
829.458	22098.06
829.785	22010.16
830.111	22096.26
830.438	22070.72
830.764	22129.02
831.09	22046.76
831.417	21886.32
831.743	21977.16
832.069	21979.87
832.395	21844.06
832.722	21946.65
833.048	21839.31
833.374	21872.08
833.7	21828.24
834.026	21768.35
834.351	21821.01
834.677	21769.48
835.003	21844.74
835.329	21727.23
835.654	21620.56
835.98	21603.16
836.306	21569.26
836.631	21564.29
836.956	21635.25
837.282	21508.25
837.607	21442.71
837.932	21390.96
838.258	21480.23
838.583	21353.45
838.908	21232.78
839.233	21361.59
839.558	21275.94
839.883	21155.71
840.208	21075.49
840.533	21047.92
840.858	21089.5
841.182	21077.75
841.507	21078.65
841.832	20904.65
842.156	20897.42
842.481	20833.01
842.805	20904.42
843.13	20905.33
843.454	20782.39
843.778	20684.77
844.103	20620.36
844.427	20552.11
844.751	20567.03
845.075	20595.73
845.399	20563.87
845.723	20389.18
846.047	20423.76
846.371	20310.99
846.695	20292.91
847.019	19998.68
847.343	20002.07
847.666	19985.58
847.99	19818.35
848.313	19872.81
848.637	19797.33
848.96	19742.64
849.284	19698.8
849.607	19602.31
849.931	19494.29
850.254	19392.6
850.577	19331.36
850.9	19186.28
851.223	19093.85
851.546	19144.47
851.869	18943.34
852.192	19061.76
852.515	18847.3
852.838	18946.06
853.161	18802.78
853.483	18671.26
853.806	18654.76
854.129	18573.18
854.451	18534.77
854.774	18420.19
855.096	18422.91
855.419	18285.06
855.741	18320.08
856.063	18206.19
856.385	18217.71
856.708	18064.27
857.03	18043.93
857.352	18078.73
857.674	17939.98
857.996	17914.67
858.318	17882.35
858.64	17939.98
858.961	17787.67
859.283	17810.94
859.605	17687.33
859.926	17776.59
860.248	17605.3
860.57	17530.95
860.891	17569.82
861.212	17530.73
861.534	17375.7
861.855	17330.5
862.176	17300.9
862.498	17380.45
862.819	17328.92
863.14	17227.23
863.461	17229.72
863.782	17144.29
864.103	17066.1
864.424	17014.81
864.745	17061.13
865.065	17035.82
865.386	16923.96
865.707	16966.67
866.027	16961.25
866.348	16918.31
866.668	16888.03
866.989	16788.82
867.309	16777.75
867.63	16761.93
867.95	16781.14
868.27	16662.05
868.59	16744.98
868.91	16616.63
869.23	16680.8
869.55	16565.1
869.87	16582.28
870.19	16615.95
870.51	16555.16
870.83	16523.97
871.15	16404.65
871.469	16490.98
871.789	16462.73
872.109	16343.86
872.428	16332.11
872.748	16386.8
873.067	16329.85
873.386	16328.27
873.706	16364.2
874.025	16305.67
874.344	16242.17
874.663	16344.32
874.982	16204.66
875.301	16262.51
875.62	16169.18
875.939	16031.56
876.258	16207.14
876.577	16048.73
876.896	16100.71
877.214	16052.57
877.533	16057.32
877.852	16038.34
878.17	15933.25
878.489	15982.29
878.807	16044.89
879.125	15888.96
879.444	15933.25
879.762	15929.41
880.08	15896.42
880.398	15862.29
880.716	15867.94
881.034	15819.81
881.352	15841.5
881.67	15798.79
881.988	15789.53
882.306	15721.51
882.624	15695.52
882.941	15627.5
883.259	15628.18
883.577	15618.69
883.894	15599.93
884.212	15509.99
884.529	15428.63
884.846	15486.49
885.164	15509.54
885.481	15411.46
885.798	15475.86
886.115	15297.56
886.432	15292.82
886.75	15151.35
887.067	15371.91
887.383	15221.63
887.7	15215.76
888.017	15114.74
888.334	15202.2
888.651	15145.25
888.967	15091.92
889.284	15050.11
889.6	15040.62
889.917	14924.01
890.233	14844.92
890.55	14843.34
890.866	14834.75
891.182	14728.31
891.498	14631.14
891.815	14698.26
892.131	14627.75
892.447	14536.45
892.763	14591.82
893.079	14552.72
893.395	14530.8
893.71	14438.38
894.026	14454.42
894.342	14449.9
894.657	14336.01
894.973	14325.84
895.289	14299.17
895.604	14254.88
895.92	14194.99
896.235	14116.35
896.55	14101.89
896.865	14045.39
897.181	14032.51
897.496	13980.31
897.811	13826.64
898.126	13827.32
898.441	13751.16
898.756	13750.94
899.071	13762.91
899.386	13751.16
899.7	13567.67
900.015	13398.86
900.33	13414.45
900.644	13419.87
900.959	13473.66
901.273	13408.35
901.588	13289.26
901.902	13291.06
902.216	13252.19
902.531	13197.51
902.845	13138.75
903.159	13119.32
903.473	12912.32
903.787	12978.08
904.101	12815.14
904.415	12916.16
904.729	12848.36
905.042	12675.71
905.356	12805.88
905.67	12682.27
905.984	12686.33
906.297	12616.05
906.611	12569.27
906.924	12553
907.237	12471.42
907.551	12432.1
907.864	12337.87
908.177	12389.84
908.491	12319.11
908.804	12255.84
909.117	12147.14
909.43	12149.62
909.743	12057.88
910.056	12132
910.368	12057.42
910.681	11946.01
910.994	11930.87
911.307	11823.98
911.619	11737.43
911.932	11778.33
912.244	11624.44
912.557	11729.97
912.869	11629.64
913.181	11605.91
913.494	11559.36
913.806	11517.32
914.118	11485.69
914.43	11422.19
914.742	11438.68
915.054	11362.98
915.366	11341.06
915.678	11247.27
915.99	11176.99
916.302	11128.63
916.613	11129.99
916.925	11056.55
917.236	11059.94
917.548	11018.13
917.859	10996.21
918.171	10944.91
918.482	10894.74
918.794	10897.45
919.105	10773.62
919.416	10704.92
919.727	10775.2
920.038	10665.82
920.349	10576.11
920.66	10563.45
920.971	10536.56
921.282	10506.5
921.593	10438.48
921.903	10363.23
922.214	10420.18
922.525	10375.89
922.835	10348.77
923.146	10278.94
923.456	10282.78
923.767	10197.36
924.077	10123.91
924.387	10126.4
924.697	10082.11
925.008	10020.19
925.318	9947.2
925.628	9933.86
925.938	10001.43
926.248	9806.18
926.558	9805.5
926.867	9726.41
927.177	9721.67
927.487	9700.2
927.796	9631.27
928.106	9656.58
928.416	9592.63
928.725	9557.83
929.034	9464.04
929.344	9526.64
929.653	9515.12
929.962	9359.41
930.271	9353.77
930.581	9313.99
930.89	9228.57
931.199	9186.54
931.508	9205.52
931.817	9177.27
932.125	9138.4
932.434	9105.18
932.743	8987.9
933.051	8987.67
933.36	8953.32
933.669	8814.34
933.977	8817.73
934.286	8812.76
934.594	8820.22
934.902	8693.9
935.21	8751.3
935.519	8650.28
935.827	8688.47
936.135	8580
936.443	8505.2
936.751	8500.68
937.059	8435.15
937.367	8420.91
937.674	8431.08
937.982	8322.83
938.29	8349.95
938.597	8335.71
938.905	8266.56
939.213	8253.68
939.52	8164.19
939.827	8182.95
940.135	8093.23
940.442	8112.22
940.749	8125.78
941.056	8098.21
941.363	7933.24
941.67	7960.36
941.977	7917.87
942.284	7790.42
942.591	7795.39
942.898	7745.22
943.205	7790.87
943.511	7739.12
943.818	7668.61
944.125	7599.46
944.431	7627.26
944.738	7568.28
945.044	7532.34
945.35	7411.67
945.657	7480.14
945.963	7442.86
946.269	7439.92
946.575	7443.76
946.881	7293.71
947.187	7285.57
947.493	7265.46
947.799	7238.11
948.105	7218.68
948.41	7161.73
948.716	7227.72
949.022	7110.21
949.327	7069.53
949.633	7015.3
949.938	7056.42
950.244	7043.09
950.549	6976.65
950.854	6919.25
951.16	6911.12
951.465	6838.13
951.77	6830.67
952.075	6824.57
952.38	6859.37
952.685	6760.39
952.99	6681.52
953.294	6749.77
953.599	6739.6
953.904	6674.74
954.209	6592.03
954.513	6608.98
954.818	6591.35
955.122	6542.77
955.426	6542.09
955.731	6500.06
956.035	6453.95
956.339	6424.58
956.643	6457.57
956.948	6406.27
957.252	6346.61
957.556	6346.16
957.86	6280.4
958.163	6273.85
958.467	6269.1
958.771	6215.99
959.075	6197.24
959.378	6169.44
959.682	6144.58
959.985	6115.21
960.289	6108.2
960.592	6059.84
960.896	6104.59
961.199	6039.05
961.502	6028.43
961.805	5983.01
962.108	5956.34
962.411	5966.74
962.714	5900.52
963.017	5907.08
963.32	5952.72
963.623	5844.03
963.926	5849.9
964.228	5801.54
964.531	5790.24
964.833	5759.74
965.136	5744.59
965.438	5761.32
965.741	5739.17
966.043	5641.55
966.345	5612.85
966.648	5632.51
966.95	5637.03
967.252	5586.41
967.554	5505.5
967.856	5504.38
968.158	5468.9
968.46	5453.3
968.761	5432.06
969.063	5438.16
969.365	5426.41
969.666	5358.84
969.968	5348.45
970.269	5291.5
970.571	5338.28
970.872	5330.59
971.174	5212.86
971.475	5240.2
971.776	5172.18
972.077	5158.62
972.378	5129.47
972.679	5131.96
972.98	5101
973.281	5052.86
973.582	5049.25
973.883	5030.49
974.183	5032.98
974.484	4975.35
974.785	5007.21
975.085	4920.21
975.386	4935.8
975.686	4908.23
975.986	4848.35
976.287	4851.74
976.587	4840.21
976.887	4764.28
977.187	4792.76
977.487	4776.94
977.787	4748.69
978.087	4771.29
978.387	4695.13
978.687	4664.17
978.987	4655.58
979.286	4583.72
979.586	4569.48
979.885	4579.88
980.185	4574.23
980.484	4543.95
980.784	4493.78
981.083	4474.12
981.382	4486.77
981.682	4409.49
981.981	4427.12
982.28	4430.05
982.579	4421.92
982.878	4410.62
983.177	4354.35
983.475	4366.33
983.774	4313.67
984.073	4263.28
984.372	4230.06
984.67	4207.91
984.969	4238.87
985.267	4244.75
985.566	4191.42
985.864	4116.16
986.162	4166.78
986.461	4108.48
986.759	4111.42
987.057	4074.13
987.355	4061.02
987.653	4026.67
987.951	4053.34
988.249	4005.43
988.547	3986.22
988.844	3977.86
989.142	3933.57
989.44	3909.61
989.737	3901.48
990.035	3869.16
990.332	3856.73
990.63	3868.94
990.927	3811.09
991.224	3826.68
991.521	3800.01
991.819	3793.01
992.116	3768.6
992.413	3782.16
992.71	3709.85
993.006	3685.89
993.303	3682.73
993.6	3681.15
993.897	3656.29
994.193	3660.13
994.49	3643.18
994.787	3614.71
995.083	3568.38
995.379	3610.64
995.676	3538.33
995.972	3569.28
996.268	3527.03
996.565	3513.69
996.861	3483.19
997.157	3437.54
997.453	3424.66
997.749	3444.09
998.044	3382.17
998.34	3380.59
998.636	3362.28
998.932	3399.8
999.227	3316.86
999.523	3325
999.818	3314.15
1000.114	3310.31
1000.409	3294.49
1000.704	3263.53
1001	3233.25
1001.295	3201.61
1001.59	3177.66
1001.885	3182.18
1002.18	3167.26
1002.475	3186.7
1002.77	3122.97
1003.065	3113.25
1003.359	3150.76
1003.654	3104.89
1003.949	3113.03
1004.243	3053.14
1004.538	3054.95
1004.832	3039.13
1005.127	3019.47
1005.421	2987.83
1005.715	2978.79
1006.009	2980.83
1006.304	2936.53
1006.598	2905.8
1006.892	2899.92
1007.186	2888.85
1007.48	2880.94
1007.773	2884.1
1008.067	2833.26
1008.361	2788.97
1008.655	2815.63
1008.948	2777.22
1009.242	2765.01
1009.535	2763.88
1009.829	2729.98
1010.122	2733.37
1010.415	2714.17
1010.708	2711.23
1011.001	2646.37
1011.295	2673.04
1011.588	2651.79
1011.881	2628.29
1012.173	2617.45
1012.466	2586.71
1012.759	2561.85
1013.052	2552.36
1013.344	2544
1013.637	2534.28
1013.93	2514.62
1014.222	2501.97
1014.514	2486.6
1014.807	2474.62
1015.099	2454.29
1015.391	2459.94
1015.683	2413.83
1015.976	2427.62
1016.268	2399.6
1016.56	2398.02
1016.851	2361.41
1017.143	2367.51
1017.435	2355.31
1017.727	2342.42
1018.018	2292.48
1018.31	2282.31
1018.602	2246.61
1018.893	2261.97
1019.185	2228.98
1019.476	2229.88
1019.767	2196.21
1020.058	2195.54
1020.35	2140.62
1020.641	2158.47
1020.932	2130.68
1021.223	2136.55
1021.514	2115.31
1021.804	2109.21
1022.095	2074.63
1022.386	2077.12
1022.677	2034.41
1022.967	2020.62
1023.258	2007.74
1023.548	2012.49
1023.839	1991.02
1024.129	1962.77
1024.419	1976.33
1024.709	1937.69
1025	1934.75
1025.29	1917.8
1025.58	1924.36
1025.87	1885.49
1026.16	1911.02
1026.449	1886.39
1026.739	1854.08
1027.029	1862.21
1027.319	1829.22
1027.608	1807.75
1027.898	1786.73
1028.187	1779.5
1028.477	1777.92
1028.766	1745.6
1029.055	1737.02
1029.344	1728.43
1029.634	1691.82
1029.923	1704.02
1030.212	1667.87
1030.501	1651.14
1030.79	1665.83
1031.078	1621.09
1031.367	1619.28
1031.656	1616.34
1031.945	1625.38
1032.233	1598.94
1032.522	1623.8
1032.81	1556.46
1033.099	1573.4
1033.387	1565.04
1033.675	1561.65
1033.963	1543.58
1034.251	1504.03
1034.54	1493.63
1034.828	1504.93
1035.116	1495.89
1035.403	1459.74
1035.691	1473.52
1035.979	1445.27
1036.267	1443.01
1036.554	1420.41
1036.842	1407.76
1037.129	1427.87
1037.417	1417.48
1037.704	1395.33
1037.992	1374.54
1038.279	1393.52
1038.566	1367.99
1038.853	1367.99
1039.14	1367.99
