Data from aluminium_surface_pro_back_FLMS001491_00085.txt Node
Date: Wed Feb 08 15:34:39 GMT 2017
User: dcchb
Spectrometer: FLMS00149
Trigger mode: 0
Integration Time (sec): 2.000000E-2
Scans to average: 10
Electric dark correction enabled: true
Nonlinearity correction enabled: false
Boxcar width: 0
XAxis mode: Wavelengths
Number of Pixels in Spectrum: 2048
>>>>>Begin Spectral Data<<<<<
341.393	-3.62
341.776	-3.62
342.16	-3.62
342.543	-55.14
342.927	-60.11
343.31	-59.66
343.693	-72.09
344.077	-55.14
344.46	-65.99
344.843	-71.41
345.226	-40.68
345.61	-44.74
345.993	-19.43
346.376	8.14
346.759	-10.17
347.142	34.58
347.525	40.68
347.908	72.54
348.291	68.02
348.674	91.52
349.057	123.84
349.44	122.93
349.823	130.17
350.206	158.87
350.588	218.3
350.971	264.17
351.354	252.87
351.737	261.91
352.119	306.43
352.502	318.41
352.884	292.65
353.267	329.48
353.65	319.31
354.032	327.45
354.414	365.41
354.797	336.49
355.179	368.8
355.562	354.34
355.944	362.25
356.326	372.19
356.709	373.55
357.091	371.97
357.473	393.21
357.855	385.98
358.238	372.87
358.62	380.1
359.002	383.94
359.384	377.84
359.766	389.37
360.148	397.28
360.53	394.57
360.912	382.14
361.294	385.3
361.676	388.92
362.057	370.84
362.439	397.96
362.821	397.73
363.203	350.05
363.584	375.58
363.966	370.16
364.348	395.24
364.729	379.2
365.111	386.43
365.493	376.94
365.874	381.01
366.256	360.22
366.637	377.62
367.019	361.8
367.4	379.2
367.781	349.14
368.163	392.76
368.544	375.58
368.925	375.36
369.306	377.17
369.688	382.81
370.069	364.28
370.45	371.74
370.831	390.72
371.212	395.02
371.593	372.65
371.974	391.4
372.355	386.66
372.736	386.66
373.117	399.76
373.498	393.89
373.879	390.05
374.26	384.4
374.641	402.93
375.021	392.76
375.402	409.03
375.783	418.75
376.163	439.08
376.544	423.49
376.925	416.03
377.305	425.98
377.686	415.81
378.066	420.1
378.447	415.81
378.827	429.14
379.208	429.82
379.588	446.32
379.968	418.29
380.349	434.79
380.729	460.55
381.109	481.57
381.489	451.06
381.87	452.19
382.25	461.46
382.63	471.63
383.01	508.24
383.39	448.58
383.77	474.56
384.15	491.51
384.53	475.02
384.91	488.35
385.29	504.17
385.67	520.44
386.049	502.81
386.429	511.85
386.809	527.9
387.189	524.73
387.568	524.28
387.948	524.73
388.328	534.45
388.707	532.64
389.087	565.86
389.466	574.67
389.846	554.34
390.225	561.34
390.605	576.26
390.984	576.26
391.363	580.55
391.743	575.8
392.122	601.57
392.501	599.98
392.881	623.26
393.26	623.71
393.639	624.39
394.018	645.41
394.397	643.37
394.776	674.11
395.155	640.89
395.534	663.94
395.913	669.81
396.292	668.68
396.671	664.39
397.05	656.71
397.429	687.21
397.808	709.81
398.186	684.05
398.565	698.06
398.944	688.8
399.323	697.38
399.701	755.23
400.08	731.05
400.458	754.1
400.837	734.22
401.215	771.28
401.594	750.04
401.972	797.04
402.351	757.72
402.729	783.71
403.107	819.19
403.486	815.57
403.864	826.64
404.242	842.92
404.62	843.37
404.999	866.64
405.377	862.58
405.755	871.16
406.133	876.81
406.511	902.12
406.889	925.85
407.267	916.59
407.645	940.99
408.023	948.22
408.401	962.69
408.779	962.23
409.156	991.61
409.534	993.19
409.912	1025.28
410.29	1006.3
410.667	1049.69
411.045	1067.54
411.422	1066.41
411.8	1091.27
412.178	1073.64
412.555	1106.41
412.933	1141.21
413.31	1134.43
413.687	1188.22
414.065	1172.4
414.442	1185.05
414.819	1203.58
415.197	1196.13
415.574	1222.79
415.951	1248.1
416.328	1249.23
416.705	1269.35
417.082	1279.74
417.46	1286.52
417.837	1295.79
418.214	1317.48
418.591	1369
418.967	1352.96
419.344	1364.94
419.721	1376.91
420.098	1358.83
420.475	1408.78
420.852	1413.3
421.228	1451.26
421.605	1453.52
421.982	1463.24
422.358	1448.32
422.735	1487.19
423.111	1490.36
423.488	1525.38
423.864	1519.51
424.241	1550.24
424.617	1575.55
424.994	1599.73
425.37	1585.72
425.746	1614.87
426.123	1651.93
426.499	1651.48
426.875	1681.31
427.251	1695.77
427.627	1780.97
428.003	1752.27
428.379	1797.24
428.756	1779.61
429.132	1831.36
429.507	1824.58
429.883	1870.46
430.259	1888.31
430.635	1890.12
431.011	1909.55
431.387	1954.07
431.763	2017.12
432.138	2038.36
432.514	2079.04
432.89	2065.71
433.265	2120.17
433.641	2144.58
434.016	2133.5
434.392	2169.89
434.767	2242.2
435.143	2250.11
435.518	2234.74
435.894	2302.31
436.269	2293.95
436.644	2346.15
437.02	2375.76
437.395	2371.24
437.77	2416.21
438.145	2464.34
438.52	2438.13
438.895	2522.19
439.271	2500.27
439.646	2513.38
440.021	2572.81
440.395	2599.93
440.77	2574.85
441.145	2620.5
441.52	2655.52
441.895	2674.96
442.27	2711.12
442.645	2674.96
443.019	2767.16
443.394	2767.16
443.769	2778.68
444.143	2748.18
444.518	2827.72
444.892	2840.15
445.267	2845.57
445.641	2912.69
446.016	2890.55
446.39	2918.57
446.764	2972.8
447.139	2948.17
447.513	2991.56
447.887	3006.02
448.262	3049.64
448.636	3006.93
449.01	3040.6
449.384	3120.82
449.758	3117.88
450.132	3168.73
450.506	3149.3
450.88	3186.13
451.254	3197.88
451.628	3281.5
452.002	3340.93
452.376	3357.43
452.75	3399.01
453.123	3399.46
453.497	3461.15
453.871	3457.76
454.244	3574.14
454.618	3581.83
454.992	3617.31
455.365	3653.69
455.739	3747.25
456.112	3788.37
456.486	3834.02
456.859	3849.16
457.232	3946.11
457.606	3890.52
457.979	3960.57
458.352	4031.08
458.725	4144.75
459.099	4147.46
459.472	4224.52
459.845	4225.88
460.218	4302.71
460.591	4302.94
460.964	4369.38
461.337	4470.39
461.71	4554.46
462.083	4605.3
462.456	4644.85
462.829	4713.32
463.201	4703.83
463.574	4749.03
463.947	4843.94
464.32	4953.99
464.692	4976.82
465.065	5007.78
465.438	5071.73
465.81	5125.51
466.183	5224.72
466.555	5304.49
466.928	5358.5
467.3	5360.76
467.672	5465.39
468.045	5599.4
468.417	5617.48
468.789	5648.21
469.161	5751.26
469.534	5833.74
469.906	5992.61
470.278	6045.26
470.65	6102.21
471.022	6193.74
471.394	6326.39
471.766	6385.37
472.138	6478.7
472.51	6534.97
472.882	6642.31
473.253	6756.88
473.625	6848.18
473.997	6930.67
474.369	7056.76
474.74	7123.2
475.112	7321.84
475.484	7408.39
475.855	7590.53
476.227	7610.87
476.598	7828.72
476.97	7892.22
477.341	8050.18
477.713	8214.02
478.084	8316.84
478.455	8579.21
478.827	8594.8
479.198	8866.89
479.569	8861.01
479.94	9110.27
480.311	9119.31
480.682	9418.51
481.053	9615.57
481.424	9785.51
481.795	9848.1
482.166	10026.63
482.537	10157.92
482.908	10366.73
483.279	10474.3
483.65	10714.52
484.021	10864.12
484.391	11094.85
484.762	11138.92
485.133	11248.07
485.503	11437.21
485.874	11713.59
486.244	11869.97
486.615	12041.72
486.985	12177.31
487.356	12426.57
487.726	12505.89
488.097	12797.86
488.467	12900.9
488.837	13196.49
489.207	13321.01
489.578	13559.64
489.948	13576.14
490.318	13803.03
490.688	13927.09
491.058	14133.41
491.428	14307.42
491.798	14507.64
492.168	14752.61
492.538	14780.4
492.908	14975.65
493.278	15087.51
493.648	15182.88
494.017	15459.48
494.387	15512.59
494.757	15702.19
495.126	15969.52
495.496	15856.31
495.866	16035.51
496.235	16323.86
496.605	16346.69
496.974	16492.9
497.344	16686.57
497.713	16852.44
498.082	16903.74
498.452	17141.24
498.821	17198.87
499.19	17305.99
499.559	17494
499.928	17597.28
500.298	17695.58
500.667	17925.86
501.036	17927.66
501.405	18143.03
501.774	18232.29
502.143	18399.97
502.512	18430.25
502.88	18713.41
503.249	18559.06
503.618	18829.34
503.987	18973.51
504.356	19094.87
504.724	19192.04
505.093	19244.92
505.462	19411.92
505.83	19509.77
506.199	19705.92
506.567	20063.43
506.936	19926.26
507.304	20227.49
507.672	20298.22
508.041	20389.52
508.409	20570.53
508.777	20799.45
509.145	20897.3
509.514	20999.9
509.882	21200.57
510.25	21281.47
510.618	21416.39
510.986	21548.81
511.354	21924.62
511.722	22044.84
512.09	22203.26
512.458	22271.96
512.826	22371.39
513.193	22516.47
513.561	22676.47
513.929	22739.06
514.297	23119.62
514.664	23209.79
515.032	23268.54
515.4	23696.78
515.767	23672.15
516.135	23884.8
516.502	23793.95
516.869	24192.58
517.237	24454.5
517.604	24479.13
517.972	24727.49
518.339	24815.39
518.706	24892.45
519.073	25169.96
519.44	25187.81
519.808	25602.04
520.175	25613.56
520.542	25962.71
520.909	26153.89
521.276	26238.63
521.643	26441.11
522.009	26722.46
522.376	26909.12
522.743	27121.32
523.11	27292.39
523.477	27726.05
523.843	27780.29
524.21	28139.37
524.577	28334.85
524.943	28575.97
525.31	28623.43
525.676	29045.79
526.043	29124.21
526.409	29423.41
526.776	29647.13
527.142	29652.33
527.508	29928.93
527.874	30226.32
528.241	30422.25
528.607	30423.15
528.973	30818.4
529.339	30930.03
529.705	31042.8
530.071	31458.38
530.437	31505.61
530.803	31849.33
531.169	31981.76
531.535	32016.79
531.901	32165.26
532.267	32359.15
532.632	32671.46
532.998	32696.09
533.364	32928.63
533.73	32938.12
534.095	33297.88
534.461	33326.36
534.826	33558.89
535.192	33746.91
535.557	33969.73
535.923	34014.92
536.288	34144.19
536.653	34402.26
537.019	34234.81
537.384	34530.17
537.749	34663.27
538.114	34699.88
538.479	34788.24
538.845	35102.81
539.21	34888.35
539.575	35018.06
539.94	35236.81
540.305	35421.67
540.67	35439.52
541.034	35621.66
541.399	35678.38
541.764	35861.88
542.129	36070.92
542.494	36132.61
542.858	36281.98
543.223	36219.61
543.587	36505.71
543.952	36674.06
544.316	36632.03
544.681	36725.14
545.045	37135.75
545.41	37129.19
545.774	37238.79
546.138	37413.93
546.503	37430.2
546.867	37664.09
547.231	37912.45
547.595	37941.15
547.959	38140.47
548.324	38138.43
548.688	38238.99
549.052	38523.28
549.416	38429.95
549.779	38644.41
550.143	38659.1
550.507	38925.3
550.871	39014.12
551.235	39090.72
551.599	39187.67
551.962	39371.62
552.326	39487.32
552.689	39709.24
553.053	39565.97
553.417	39623.14
553.78	40191.03
554.143	40062.22
554.507	40166.4
554.87	40424.02
555.234	40675.31
555.597	40447.3
555.96	40813.16
556.323	41020.16
556.686	41012.03
557.05	41273.27
557.413	41441.85
557.776	41556.2
558.139	41830.31
558.502	41936.3
558.865	42179.46
559.228	42391.43
559.59	42462.61
559.953	42737.63
560.316	43053.78
560.679	43196.83
561.041	43374
561.404	43498.97
561.767	43857.15
562.129	43632.98
562.492	44126.07
562.854	44050.82
563.217	44195.45
563.579	44406.97
563.941	44800.4
564.304	45030
564.666	45170.34
565.028	45241.97
565.39	45536.2
565.753	45652.36
566.115	45871.79
566.477	46003.99
566.839	46208.73
567.201	46500.02
567.563	46514.94
567.925	46793.57
568.287	46775.72
568.648	47038.31
569.01	47145.2
569.372	47511.29
569.734	47378.42
570.095	47706.54
570.457	47780.89
570.819	47947.67
571.18	47972.98
571.542	48160.09
571.903	48316.02
572.265	48526.63
572.626	48640.75
572.987	48728.89
573.349	48904.7
573.71	49153.06
574.071	49157.58
574.432	49342.66
574.794	49467.4
575.155	49440.28
575.516	49327.97
575.877	49478.7
576.238	49721.4
576.599	49803.66
576.96	49879.14
577.32	49866.26
577.681	50113.48
578.042	50181.96
578.403	50254.95
578.763	50233.71
579.124	50415.4
579.485	50469.86
579.845	50572.46
580.206	50554.83
580.566	50555.96
580.927	50650.42
581.287	50764.31
581.648	50633.7
582.008	50862.84
582.368	50783.98
582.728	50931.54
583.089	50830.3
583.449	50888.61
583.809	50969.73
584.169	51113.91
584.529	51010.64
584.889	51258.09
585.249	51097.41
585.609	51126.34
585.969	51262.61
586.329	51259.44
586.688	51176.73
587.048	51203.63
587.408	51156.17
587.768	51181.03
588.127	51150.29
588.487	51167.02
588.846	51368.59
589.206	51153.91
589.565	51236.84
589.925	51238.65
590.284	51210.4
590.643	51295.6
591.003	51361.59
591.362	51484.75
591.721	51321.59
592.08	51329.72
592.44	51495.37
592.799	51432.09
593.158	51410.17
593.517	51353
593.876	51465.54
594.235	51374.02
594.593	51496.5
594.952	51520.91
595.311	51554.35
595.67	51529.94
596.029	51652.65
596.387	51717.28
596.746	51785.98
597.104	51631.86
597.463	51693.1
597.822	51682.26
598.18	51690.62
598.538	51588.02
598.897	51837.51
599.255	51520.23
599.613	52173.54
599.972	51880.22
600.33	51910.5
600.688	51860.33
601.046	51833.89
601.404	52000.67
601.762	51896.26
602.12	52174.67
602.478	52165.41
602.836	52197.95
603.194	52022.81
603.552	52061.23
603.91	51982.81
604.268	52118.86
604.625	51986.43
604.983	52269.59
605.341	52059.2
605.698	52188.01
606.056	52225.75
606.413	52198.4
606.771	52282.47
607.128	52411.96
607.485	52161.79
607.843	52337.15
608.2	52337.15
608.557	52567.88
608.914	52394.1
609.272	52570.37
609.629	52619.63
609.986	52773.98
610.343	52544.61
610.7	52870.93
611.057	52702.12
611.414	52758.84
611.771	52737.37
612.127	52917.03
612.484	52795.45
612.841	53085.16
613.198	52886.97
613.554	52976.01
613.911	53179.84
614.267	53068.21
614.624	53111.6
614.98	53199.73
615.337	53331.25
615.693	53227.3
616.05	53221.2
616.406	53401.53
616.762	53167.64
617.118	53227.3
617.475	53242.44
617.831	53331.93
618.187	53325.83
618.543	53333.96
618.899	53508.88
619.255	53465.03
619.611	53352.72
619.967	53533.06
620.323	53608.31
620.678	53392.49
621.034	53403.79
621.39	53470.23
621.746	53432.72
622.101	53703.22
622.457	53412.61
622.812	53634.07
623.168	53751.58
623.523	53630.45
623.879	53792.48
624.234	53543
624.589	53699.15
624.945	53725.14
625.3	53784.12
625.655	53755.87
626.01	53714.52
626.365	53682.66
626.72	53686.72
627.075	53617.35
627.43	53614.86
627.785	53529.44
628.14	53650.34
628.495	53735.76
628.85	53711.81
629.205	53491.93
629.559	53688.31
629.914	53537.12
630.269	53561.08
630.623	53517.24
630.978	53511.59
631.332	53480.4
631.687	53626.16
632.041	53506.39
632.396	53501.64
632.75	53385.94
633.104	53433.62
633.459	53360.86
633.813	53339.16
634.167	53290.8
634.521	53222.33
634.875	53227.75
635.229	53189.34
635.583	53069.57
635.937	52979.17
636.291	52928.78
636.645	52959.96
636.999	52851.49
637.352	52984.6
637.706	52700.54
638.06	52778.5
638.413	52629.58
638.767	52561.33
639.121	52595.68
639.474	52404.72
639.828	52446.08
640.181	52472.52
640.534	52399.53
640.888	52337.38
641.241	52247.21
641.594	52181.68
641.947	52392.07
642.301	52186.65
642.654	52252.64
643.007	52358.85
643.36	52221.68
643.713	52139.87
644.066	52200.66
644.419	52027.56
644.771	51856.72
645.124	51507.8
645.477	51534.69
645.83	51223.96
646.182	51222.16
646.535	51102.61
646.888	51077.08
647.24	50966.8
647.593	51138.32
647.945	51043.18
648.298	50796.4
648.65	50721.83
649.002	50547.82
649.355	50786.24
649.707	50678.67
650.059	50806.12
650.411	51225.55
650.763	51238.88
651.115	51456.73
651.467	51344.64
651.819	51356.62
652.171	51335.15
652.523	51278.65
652.875	51230.07
653.227	51097.87
653.578	51328.14
653.93	51226.9
654.282	51017.64
654.633	50974.7
654.985	51014.93
655.337	51053.8
655.688	51030.75
656.039	51155.94
656.391	50866.91
656.742	50872.11
657.094	50908.04
657.445	51035.95
657.796	50974.48
658.147	50709.4
658.498	50714.15
658.849	50832.56
659.2	50726.35
659.551	50590.76
659.902	50701.72
660.253	50633.47
660.604	50735.62
660.955	50435.96
661.306	50474.15
661.656	50482.51
662.007	50528.39
662.358	50545.34
662.708	50577.88
663.059	50372.23
663.409	50130.43
663.76	50454.94
664.11	50452.46
664.461	50483.42
664.811	50486.36
665.161	50439.58
665.511	50280.71
665.862	50450.65
666.212	50317.55
666.562	50527.26
666.912	50299.69
667.262	50352.8
667.612	50112.58
667.962	50177.21
668.312	50127.95
668.662	50365.91
669.011	50174.5
669.361	50130.89
669.711	50137.89
670.06	50082.3
670.41	50033.26
670.76	49848.18
671.109	50038.23
671.459	49951.91
671.808	49922.3
672.157	49976.31
672.507	49748.75
672.856	49793.49
673.205	49861.29
673.554	50097.89
673.904	49860.61
674.253	50030.32
674.602	49787.39
674.951	49278.48
675.3	49089.78
675.649	49799.59
675.998	49751.01
676.346	49784.45
676.695	49838.46
677.044	49685.02
677.393	49626.27
677.741	49624.23
678.09	49626.49
678.438	49537
678.787	49472.15
679.135	49484.12
679.484	49233.28
679.832	49409.55
680.181	49140.85
680.529	49346.27
680.877	49148.54
681.225	49147.63
681.573	49431.47
681.922	48907.41
682.27	48963.91
682.618	48936.79
682.966	48898.38
683.314	48818.83
683.661	48753.07
684.009	48458.16
684.357	48481.66
684.705	48441.89
685.053	48380.42
685.4	48486.63
685.748	48200.31
686.095	48141.56
686.443	48077.83
686.79	47925.75
687.138	48034.67
687.485	48099.07
687.832	47797.61
688.18	47852.08
688.527	47567.11
688.874	47714.23
689.221	47576.15
689.568	47488.92
689.915	47400.79
690.262	47421.13
690.609	47186.33
690.956	47166.9
691.303	47141.36
691.65	46937.3
691.997	46928.71
692.344	46546.57
692.69	46449.17
693.037	46536.4
693.383	46268.16
693.73	46242.85
694.077	46138.45
694.423	46152.91
694.769	46042.63
695.116	45840.83
695.462	45747.5
695.808	45645.58
696.155	45665.47
696.501	45316.32
696.847	45237.23
697.193	45072.49
697.539	45431.57
697.885	44994.3
698.231	44801.99
698.577	44804.7
698.923	44813.96
699.269	44638.15
699.614	44339.85
699.96	44231.38
700.306	44165.84
700.651	43945.74
700.997	43919.98
701.342	44025.51
701.688	43796.81
702.033	43618.51
702.379	43663.26
702.724	43450.16
703.069	43539.87
703.415	43165.87
703.76	43120.9
704.105	43195.02
704.45	43102.14
704.795	42842.94
705.14	42592.1
705.485	42710.74
705.83	42488.83
706.175	42596.62
706.52	42535.15
706.865	42265.56
707.209	42270.98
707.554	42132.9
707.899	42157.76
708.243	41931.78
708.588	41882.51
708.932	41689.3
709.277	41623.76
709.621	41690.88
709.966	41348.97
710.31	41402.98
710.654	41002.54
710.998	41231.46
711.342	41126.6
711.687	40919.83
712.031	40752.6
712.375	40685.71
712.719	40632.83
713.063	40531.14
713.407	40648.42
713.75	40574.53
714.094	40486.17
714.438	40184.03
714.782	40232.61
715.125	39975.22
715.469	40120.08
715.812	40001.21
716.156	39640.31
716.499	39799.18
716.843	39707.88
717.186	39561.22
717.53	39734.32
717.873	39644.16
718.216	39450.94
718.559	39351.06
718.902	39121.23
719.246	39222.25
719.589	39139.76
719.932	38999.2
720.275	39012.99
720.617	38960.56
720.96	38922.37
721.303	38980.9
721.646	38900.22
721.989	38520.57
722.331	38683.73
722.674	38556.27
723.016	38521.92
723.359	38563.28
723.701	38435.83
724.044	38227.92
724.386	37882.62
724.729	38178.66
725.071	38052.78
725.413	38092.78
725.755	37875.84
726.097	37827.48
726.439	37522.86
726.782	37726.24
727.124	37746.35
727.465	37328.96
727.807	37428.39
728.149	37391.11
728.491	37338
728.833	37502.06
729.175	37166.48
729.516	37145.92
729.858	36988.41
730.199	37027.95
730.541	36929.42
730.882	36877.67
731.224	36985.24
731.565	36734.4
731.906	36692.14
732.248	36678.13
732.589	36498.48
732.93	36431.81
733.271	36296.22
733.612	36380.96
733.953	36379.38
734.294	36335.09
734.635	36194.75
734.976	36166.51
735.317	35985.27
735.658	36021.88
735.999	35954.08
736.339	35804.93
736.68	35937.81
737.021	35726.29
737.361	35603.13
737.702	35715.22
738.042	35669.34
738.383	35505.28
738.723	35507.31
739.063	35420.09
739.404	35528.56
739.744	35421.89
740.084	35220.09
740.424	35185.29
740.764	35131.05
741.104	35156.36
741.444	34943.04
741.784	34817.39
742.124	35025.75
742.464	34910.04
742.804	34677.73
743.143	34665.76
743.483	34684.06
743.823	34545.76
744.162	34484.29
744.502	34397.06
744.841	34282.04
745.181	34445.2
745.52	34226.67
745.86	34288.36
746.199	34167.01
746.538	34120.23
746.877	34191.19
747.216	34075.71
747.556	33969.28
747.895	34009.05
748.234	33824.65
748.573	33674.82
748.911	33604.31
749.25	33636.4
749.589	33553.24
749.928	33544.65
750.267	33503.07
750.605	33304.89
750.944	33202.52
751.283	33179.47
751.621	33253.81
751.96	33008.62
752.298	33140.82
752.636	33074.38
752.975	32862.19
753.313	32963.88
753.651	33004.78
753.989	32770.66
754.327	32644.34
754.666	32507.39
755.004	32674.62
755.342	32600.95
755.679	32433.5
756.017	32340.39
756.355	32331.35
756.693	32196.22
757.031	32192.37
757.368	31927.52
757.706	31825.83
758.044	31918.26
758.381	31843.91
758.719	31636.46
759.056	31791.93
759.394	31527.53
759.731	31326.18
760.068	31298.84
760.405	31187.65
760.743	31096.58
761.08	31103.14
761.417	30873.31
761.754	30846.87
762.091	30716.93
762.428	30618.4
762.765	30397.62
763.102	30447.11
763.438	30368.47
763.775	30165.08
764.112	30101.58
764.449	30232.43
764.785	29985.65
765.122	29764.64
765.458	29728.94
765.795	29773
766.131	29800.12
766.467	29540.92
766.804	29533.01
767.14	29327.14
767.476	29181.38
767.812	29194.94
768.148	29288.5
768.485	29014.6
768.821	28957.43
769.157	28737.32
769.492	28831.33
769.828	28763.76
770.164	28351.57
770.5	28388.63
770.836	28289.65
771.171	28180.95
771.507	28050.79
771.842	27744.13
772.178	27904.13
772.513	27746.62
772.849	27627.97
773.184	27509.79
773.519	27439.73
773.855	27490.58
774.19	27131.26
774.525	27213.3
774.86	27158.16
775.195	26987.09
775.53	26803.82
775.865	26766.08
776.2	26472.98
776.535	26328.35
776.87	26331.96
777.205	26248.35
777.539	26063.04
777.874	26182.36
778.209	25948.02
778.543	25879.09
778.878	25632.32
779.212	25679.55
779.547	25505.77
779.881	25640.23
780.215	25453.12
780.55	25351.65
780.884	25205.89
781.218	25064.43
781.552	25072.34
781.886	25025.1
782.22	24882.96
782.554	24687.49
782.888	24470.09
783.222	24466.7
783.556	24328.4
783.889	24240.49
784.223	24102.87
784.557	24137.44
784.89	24210.21
785.224	24003.21
785.557	23810
785.891	23822.42
786.224	23789.43
786.558	23782.2
786.891	23543.11
787.224	23482.32
787.557	23338.37
787.891	23325.26
788.224	23305.83
788.557	23262.89
788.89	23143.12
789.223	23038.26
789.556	22999.17
789.888	22860.42
790.221	22809.12
790.554	22622.46
790.887	22603.7
791.219	22617.03
791.552	22528
791.884	22285.52
792.217	22363.03
792.549	22274.67
792.882	22115.12
793.214	22114.9
793.546	22002.81
793.879	21866.54
794.211	21671.52
794.543	21805.53
794.875	21693.67
795.207	21772.76
795.539	21557.4
795.871	21589.26
796.203	21307.24
796.535	21156.28
796.867	21133
797.198	21123.96
797.53	21012.55
797.862	20825.22
798.193	20951.99
798.525	20821.37
798.856	20854.37
799.188	20580.02
799.519	20540.7
799.85	20395.4
800.182	20482.85
800.513	20487.82
800.844	20276.98
801.175	20370.31
801.506	20293.03
801.837	20271.11
802.168	20215.51
802.499	20165.57
802.83	19999.25
803.161	19979.81
803.491	19863.66
803.822	19972.36
804.153	19765.81
804.483	19578.69
804.814	19608.3
805.145	19624.57
805.475	19631.12
805.805	19381.41
806.136	19497.34
806.466	19361.07
806.796	19366.04
807.126	19136.22
807.457	19089.44
807.787	19006.73
808.117	19001.76
808.447	18907.3
808.777	18966.05
809.107	18878.83
809.436	18734.87
809.766	18812.39
810.096	18681.09
810.426	18639.06
810.755	18626.18
811.085	18651.26
811.414	18473.64
811.744	18370.59
812.073	18473.64
812.403	18413.53
812.732	18261.89
813.061	18234.77
813.39	18138.73
813.719	18095.34
814.049	18165.62
814.378	18072.07
814.707	18075.23
815.036	18020.09
815.365	17914.11
815.693	17728.12
816.022	17689.25
816.351	17617.39
816.68	17523.61
817.008	17682.47
817.337	17587.33
817.665	17481.35
817.994	17527.45
818.322	17551.85
818.651	17349.37
818.979	17290.84
819.307	17360.22
819.636	17199.77
819.964	17168.81
820.292	17195.03
820.62	17218.3
820.948	17198.64
821.276	17165.42
821.604	17140.79
821.932	17089.72
822.259	17249.49
822.587	17100.12
822.915	17166.78
823.243	17220.56
823.57	17082.04
823.898	17116.39
824.225	17053.79
824.553	16964.07
824.88	16975.82
825.207	17115.71
825.535	16992.55
825.862	16981.47
826.189	16993
826.516	17169.49
826.843	17145.54
827.17	17033.9
827.497	17053.11
827.824	16964.75
828.151	17039.33
828.478	16971.76
828.805	17085.2
829.131	17021.25
829.458	16952.1
829.785	16962.49
830.111	16869.16
830.438	16994.58
830.764	16911.42
831.09	17008.37
831.417	16884.3
831.743	16887.01
832.069	16914.58
832.395	16858.99
832.722	16865.77
833.048	16839.78
833.374	16819.9
833.7	16744.87
834.026	16870.29
834.351	16870.06
834.677	16862.38
835.003	16875.71
835.329	16779.45
835.654	16710.75
835.98	16808.15
836.306	16752.78
836.631	16546.46
836.956	16660.35
837.282	16621.94
837.607	16453.58
837.932	16470.75
838.258	16545.78
838.583	16446.8
838.908	16393.92
839.233	16431.21
839.558	16371.32
839.883	16320.25
840.208	16188.5
840.533	16261.72
840.858	16236.86
841.182	16307.82
841.507	16271.44
841.832	16131.33
842.156	16072.57
842.481	16144.21
842.805	16007.26
843.13	16027.6
843.454	16064.89
843.778	15958.9
844.103	15966.36
844.427	15830.54
844.751	16004.1
845.075	15899.69
845.399	15908.28
845.723	15708.74
846.047	15697.89
846.371	15618.57
846.695	15522.98
847.019	15446.6
847.343	15433.49
847.666	15421.97
847.99	15319.37
848.313	15274.4
848.637	15162.09
848.96	15173.84
849.284	15100.17
849.607	15048.19
849.931	14987.18
850.254	14783.79
850.577	14819.5
850.9	14647.07
851.223	14640.52
851.546	14643.68
851.869	14495.66
852.192	14614.31
852.515	14438.72
852.838	14425.38
853.161	14421.32
853.483	14328.44
853.806	14371.83
854.129	14260.19
854.451	14180.87
854.774	14143.36
855.096	14142.9
855.419	14107.88
855.741	14088.44
856.063	14018.84
856.385	14008.22
856.708	13920.31
857.03	13907.66
857.352	13913.08
857.674	13871.95
857.996	13793.08
858.318	13772.97
858.64	13797.38
858.961	13695.23
859.283	13704.27
859.605	13540.89
859.926	13658.85
860.248	13579.53
860.57	13594.44
860.891	13578.85
861.212	13534.11
861.534	13436.03
861.855	13411.62
862.176	13445.97
862.498	13304.51
862.819	13428.8
863.14	13383.6
863.461	13334.34
863.782	13350.84
864.103	13320.55
864.424	13390.83
864.745	13272.65
865.065	13235.81
865.386	13148.81
865.707	13184.51
866.027	13225.41
866.348	13119.43
866.668	13127.79
866.989	13038.3
867.309	13060.22
867.63	12964.18
867.95	13034.46
868.27	12911.75
868.59	13027.91
868.91	12883.5
869.23	12878.53
869.55	12830.17
869.87	12954.01
870.19	12871.3
870.51	12849.61
870.83	12873.79
871.15	12784.3
871.469	12795.82
871.789	12797.18
872.109	12845.76
872.428	12787.91
872.748	12776.39
873.067	12822.04
873.386	12764.64
873.706	12779.78
874.025	12689.61
874.344	12652.55
874.663	12719.89
874.982	12597.18
875.301	12665.43
875.62	12622.27
875.939	12694.13
876.258	12601.25
876.577	12638.31
876.896	12602.38
877.214	12504.3
877.533	12579.78
877.852	12566
878.17	12414.59
878.489	12551.31
878.807	12474.25
879.125	12380.01
879.444	12401.03
879.762	12312.67
880.08	12388.37
880.398	12283.07
880.716	12326.91
881.034	12309.05
881.352	12304.54
881.67	12291.65
881.988	12346.34
882.306	12213.01
882.624	12227.7
882.941	12138.44
883.259	12151.32
883.577	12080.13
883.894	12028.84
884.212	12021.38
884.529	12065.22
884.846	12033.58
885.164	12004.2
885.481	11981.38
885.798	11960.59
886.115	11930.99
886.432	11919.23
886.75	11898.44
887.067	11924.21
887.383	11853.02
887.7	11911.55
888.017	11856.41
888.334	11886.24
888.651	11817.32
888.967	11677.89
889.284	11697.32
889.6	11681.5
889.917	11605.34
890.233	11553.59
890.55	11572.13
890.866	11523.76
891.182	11466.37
891.498	11493.71
891.815	11404.9
892.131	11364.45
892.447	11418
892.763	11367.84
893.079	11394.28
893.395	11333.04
893.71	11254.85
894.026	11217.11
894.342	11244
894.657	11185.47
894.973	11185.47
895.289	11113.38
895.604	11143.21
895.92	11066.15
896.235	11002.87
896.55	11104.34
896.865	10985.02
897.181	10881.75
897.496	10908.87
897.811	10879.71
898.126	10886.72
898.441	10778.93
898.756	10872.71
899.071	10719.72
899.386	10689.89
899.7	10649.89
900.015	10674.75
900.33	10451.93
900.644	10592.94
900.959	10636.33
901.273	10501.64
901.588	10468.43
901.902	10394.98
902.216	10399.95
902.531	10365.38
902.845	10326.28
903.159	10310.69
903.473	10233.63
903.787	10227.98
904.101	10156.34
904.415	10131.26
904.729	10148.21
905.042	10153.63
905.356	10097.36
905.67	10077.93
905.984	10021.43
906.297	10084.93
906.611	9949.34
906.924	9936.01
907.237	9868.67
907.551	9865.28
907.864	9806.07
908.177	9867.09
908.491	9804.94
908.804	9767.65
909.117	9714.32
909.43	9689.46
909.743	9616.7
910.056	9643.59
910.368	9538.73
910.681	9488.56
910.994	9485.85
911.307	9380.09
911.619	9384.16
911.932	9360.88
912.244	9321.11
912.557	9290.15
912.869	9303.71
913.181	9244.5
913.494	9271.17
913.806	9154.79
914.118	9154.11
914.43	9095.58
914.742	9081.8
915.054	9023.04
915.366	8966.54
915.678	8852.87
915.99	8936.49
916.302	8891.07
916.613	8865.08
916.925	8779.43
917.236	8757.74
917.548	8722.93
917.859	8686.55
918.171	8619.21
918.482	8564.07
918.794	8572.43
919.105	8533.11
919.416	8538.31
919.727	8483.39
920.038	8456.73
920.349	8438.42
920.66	8359.55
920.971	8387.35
921.282	8345.54
921.593	8267.81
921.903	8245.43
922.214	8276.39
922.525	8208.6
922.835	8190.97
923.146	8122.05
923.456	8079.11
923.767	8067.58
924.077	8013.57
924.387	8008.83
924.697	8014.7
925.008	7939.23
925.318	7837.08
925.628	7889.96
925.938	7881.83
926.248	7703.53
926.558	7716.63
926.867	7751.89
927.177	7698.55
927.487	7593.7
927.796	7613.81
928.106	7610.2
928.416	7637.09
928.725	7528.62
929.034	7467.15
929.344	7449.07
929.653	7471.89
929.962	7347.15
930.271	7317.32
930.581	7354.16
930.89	7380.37
931.199	7273.48
931.508	7247.04
931.817	7282.97
932.125	7227.15
932.434	7189.19
932.743	7142.19
933.051	7089.08
933.36	7074.16
933.669	7066.03
933.977	6955.98
934.286	6998.01
934.594	7047.05
934.902	6960.72
935.21	6931.57
935.519	6937.22
935.827	6852.7
936.135	6823.1
936.443	6777.22
936.751	6768.64
937.059	6730.67
937.367	6697.68
937.674	6670.11
937.982	6702.87
938.29	6626.94
938.597	6689.09
938.905	6567.96
939.213	6543.78
939.52	6555.76
939.827	6600.96
940.135	6457.68
940.442	6483.9
940.749	6493.39
941.056	6511.47
941.363	6390.11
941.67	6415.65
941.977	6361.19
942.284	6351.25
942.591	6296.11
942.898	6274.41
943.205	6294.75
943.511	6212.49
943.818	6198.71
944.125	6127.07
944.431	6104.47
944.738	6151.25
945.044	6101.99
945.35	6057.02
945.657	5970.46
945.963	6033.06
946.269	5978.37
946.575	5901.99
946.881	5898.6
947.187	5904.7
947.493	5892.5
947.799	5836
948.105	5832.16
948.41	5763.69
948.716	5766.18
949.022	5742
949.327	5745.84
949.633	5685.05
949.938	5712.17
950.244	5686.4
950.549	5656.35
950.854	5634.43
951.16	5606.86
951.465	5561.66
951.77	5495.9
952.075	5536.35
952.38	5478.05
952.685	5546.97
952.99	5495.22
953.294	5429.46
953.599	5419.07
953.904	5334.77
954.209	5364.15
954.513	5387.88
954.818	5310.14
955.122	5309.46
955.426	5268.11
955.731	5269.92
956.035	5181.33
956.339	5238.28
956.643	5239.86
956.948	5175.46
957.252	5110.83
957.556	5131.39
957.86	5134.55
958.163	5066.99
958.467	5075.12
958.771	5025.63
959.075	5044.61
959.378	5020.21
959.682	4992.19
959.985	4965.29
960.289	4897.27
960.592	4928.46
960.896	4913.32
961.199	4851.17
961.502	4848.69
961.805	4852.08
962.108	4782.02
962.411	4783.38
962.714	4790.38
963.017	4768.46
963.32	4763.26
963.623	4678.07
963.926	4768.91
964.228	4709.25
964.531	4676.49
964.833	4631.06
965.136	4600.11
965.438	4602.59
965.741	4615.47
966.043	4596.04
966.345	4546.55
966.648	4525.53
966.95	4526.66
967.252	4433.56
967.554	4444.85
967.856	4448.47
968.158	4371.41
968.46	4399.88
968.761	4408.25
969.063	4379.09
969.365	4368.25
969.666	4352.65
969.968	4286.44
970.269	4290.06
970.571	4282.6
970.872	4259.32
971.174	4201.02
971.475	4231.08
971.776	4201.02
972.077	4166.22
972.378	4170.29
972.679	4168.25
972.98	4148.37
973.281	4078.76
973.582	4102.49
973.883	4086.9
974.183	4073.11
974.484	4064.3
974.785	3974.58
975.085	4045.09
975.386	4024.53
975.686	3985.66
975.986	3955.83
976.287	3987.01
976.587	3935.94
976.887	3908.37
977.187	3922.83
977.487	3921.93
977.787	3871.76
978.087	3868.15
978.387	3820.24
978.687	3790.41
978.987	3810.97
979.286	3770.75
979.586	3776.62
979.885	3774.82
980.185	3733.24
980.484	3647.59
980.784	3651.88
981.083	3671.32
981.382	3688.04
981.682	3643.52
981.981	3619.57
982.28	3592.67
982.579	3586.8
982.878	3560.36
983.177	3563.52
983.475	3557.65
983.774	3542.28
984.073	3550.42
984.372	3490.3
984.67	3488.95
984.969	3500.25
985.267	3464.09
985.566	3453.47
985.864	3462.96
986.162	3414.15
986.461	3416.63
986.759	3368.72
987.057	3371.21
987.355	3365.56
987.653	3344.32
987.951	3324.21
988.249	3307.48
988.547	3281.27
988.844	3286.02
989.142	3274.49
989.44	3266.58
989.737	3214.38
990.035	3248.28
990.332	3219.58
990.63	3184.78
990.927	3173.02
991.224	3209.18
991.521	3163.08
991.819	3138.22
992.116	3098.68
992.413	3082.86
992.71	3109.97
993.006	3091.9
993.303	3104.1
993.6	3079.47
993.897	3033.37
994.193	3015.74
994.49	2988.62
994.787	2996.53
995.083	2987.49
995.379	2980.71
995.676	2954.72
995.972	2987.04
996.268	2952.69
996.565	2919.92
996.861	2925.8
997.157	2889.42
997.453	2822.98
997.749	2833.15
998.044	2837.67
998.34	2806.93
998.636	2807.16
998.932	2757.44
999.227	2808.06
999.523	2818.68
999.818	2749.08
1000.114	2787.72
1000.409	2718.12
1000.704	2702.75
1001	2719.7
1001.295	2702.3
1001.59	2666.14
1001.885	2657.56
1002.18	2600.61
1002.475	2634.73
1002.77	2609.42
1003.065	2589.54
1003.359	2584.79
1003.654	2594.96
1003.949	2559.93
1004.243	2503.66
1004.538	2496.66
1004.832	2528.3
1005.127	2530.1
1005.421	2484.91
1005.715	2502.53
1006.009	2495.3
1006.304	2474.51
1006.598	2436.32
1006.892	2425.25
1007.186	2389.99
1007.48	2399.03
1007.773	2349.54
1008.067	2385.25
1008.361	2318.13
1008.655	2346.38
1008.948	2344.35
1009.242	2349.77
1009.535	2295.08
1009.829	2296.44
1010.122	2272.26
1010.415	2270.67
1010.708	2223.67
1011.001	2248.08
1011.295	2189.09
1011.588	2221.41
1011.881	2194.52
1012.173	2225.7
1012.466	2179.6
1012.759	2189.09
1013.052	2180.28
1013.344	2124.01
1013.637	2105.48
1013.93	2113.39
1014.222	2113.39
1014.514	2049.66
1014.807	2079.27
1015.099	2046.27
1015.391	2059.61
1015.683	2057.12
1015.976	2002.21
1016.268	1998.37
1016.56	2013.96
1016.851	1991.59
1017.143	1993.85
1017.435	1966.5
1017.727	1948.88
1018.018	1930.57
1018.31	1917.24
1018.602	1928.76
1018.893	1907.29
1019.185	1884.92
1019.476	1862.55
1019.767	1861.87
1020.058	1837.92
1020.35	1826.62
1020.641	1817.35
1020.932	1766.73
1021.223	1774.42
1021.514	1777.13
1021.804	1771.48
1022.095	1762.89
1022.386	1752.72
1022.677	1714.31
1022.967	1723.34
1023.258	1684.02
1023.548	1693.29
1023.839	1699.62
1024.129	1665.49
1024.419	1687.87
1024.709	1636.79
1025	1639.73
1025.29	1623.46
1025.58	1604.93
1025.87	1618.04
1026.16	1585.5
1026.449	1583.91
1026.739	1569.68
1027.029	1580.52
1027.319	1582.78
1027.608	1548.43
1027.898	1532.39
1028.187	1563.35
1028.477	1530.36
1028.766	1487.64
1029.055	1486.97
1029.344	1468.44
1029.634	1470.02
1029.923	1458.49
1030.212	1453.52
1030.501	1441.54
1030.79	1439.74
1031.078	1437.48
1031.367	1416.69
1031.656	1391.15
1031.945	1407.87
1032.233	1391.38
1032.522	1390.47
1032.81	1351.38
1033.099	1405.39
1033.387	1347.08
1033.675	1336.91
1033.963	1338.95
1034.251	1359.06
1034.54	1300.08
1034.828	1288.33
1035.116	1278.38
1035.403	1261.66
1035.691	1287.42
1035.979	1254.88
1036.267	1260.76
1036.554	1235.9
1036.842	1235
1037.129	1206.3
1037.417	1189.12
1037.704	1215.11
1037.992	1231.15
1038.279	1233.87
1038.566	1214.66
1038.853	1214.66
1039.14	1214.66
