Data from aluminium_surface_pro_back_FLMS001491_00007.txt Node
Date: Wed Feb 08 15:33:30 GMT 2017
User: dcchb
Spectrometer: FLMS00149
Trigger mode: 0
Integration Time (sec): 2.000000E-2
Scans to average: 10
Electric dark correction enabled: true
Nonlinearity correction enabled: false
Boxcar width: 0
XAxis mode: Wavelengths
Number of Pixels in Spectrum: 2048
>>>>>Begin Spectral Data<<<<<
341.393	-3.84
341.776	-3.84
342.16	-3.84
342.543	-82.94
342.927	-52.65
343.31	-65.76
343.693	-65.99
344.077	-86.78
344.46	-55.14
344.843	-50.17
345.226	-53.78
345.61	-10.85
345.993	-3.62
346.376	-16.72
346.759	1.81
347.142	33.22
347.525	39.77
347.908	58.53
348.291	79.55
348.674	90.85
349.057	105.08
349.44	141.69
349.823	135.59
350.206	174.68
350.588	212.2
350.971	228.02
351.354	260.78
351.737	274.8
352.119	291.97
352.502	266.66
352.884	305.08
353.267	298.07
353.65	347.34
354.032	312.08
354.414	344.17
354.797	341.46
355.179	317.96
355.562	348.01
355.944	378.07
356.326	356.15
356.709	361.57
357.091	385.75
357.473	374
357.855	380.1
358.238	384.4
358.62	360.44
359.002	387.56
359.384	360.67
359.766	376.49
360.148	381.91
360.53	379.2
360.912	385.3
361.294	379.43
361.676	381.01
362.057	372.87
362.439	380.55
362.821	380.33
363.203	349.14
363.584	367.67
363.966	383.72
364.348	368.13
364.729	355.24
365.111	382.59
365.493	384.85
365.874	390.95
366.256	377.17
366.637	362.25
367.019	374
367.4	349.82
367.781	367
368.163	366.09
368.544	367.45
368.925	369.03
369.306	366.54
369.688	381.01
370.069	384.85
370.45	386.88
370.831	381.91
371.212	358.41
371.593	373.32
371.974	388.69
372.355	363.38
372.736	397.05
373.117	395.92
373.498	386.88
373.879	393.89
374.26	369.48
374.641	386.2
375.021	405.19
375.402	390.5
375.783	405.41
376.163	406.77
376.544	423.49
376.925	411.97
377.305	402.25
377.686	428.69
378.066	415.58
378.447	442.7
378.827	439.99
379.208	423.27
379.588	435.69
379.968	434.56
380.349	438.18
380.729	428.69
381.109	451.51
381.489	450.84
381.87	463.04
382.25	455.36
382.63	455.58
383.01	466.43
383.39	486.54
383.77	442.93
384.15	469.59
384.53	470.5
384.91	496.03
385.29	496.26
385.67	486.54
386.049	482.25
386.429	499.65
386.809	516.14
387.189	510.5
387.568	518.18
387.948	513.43
388.328	526.31
388.707	493.77
389.087	531.51
389.466	546.88
389.846	531.29
390.225	561.12
390.605	551.4
390.984	555.01
391.363	566.76
391.743	580.1
392.122	577.39
392.501	573.32
392.881	615.13
393.26	611.06
393.639	588.23
394.018	596.14
394.397	617.38
394.776	622.81
395.155	635.92
395.534	645.41
395.913	629.81
396.292	641.57
396.671	662.81
397.05	663.71
397.429	666.42
397.808	671.17
398.186	672.75
398.565	677.5
398.944	712.07
399.323	686.99
399.701	715.46
400.08	730.38
400.458	717.27
400.837	748.91
401.215	766.99
401.594	759.75
401.972	759.08
402.351	783.03
402.729	780.77
403.107	793.65
403.486	797.49
403.864	801.11
404.242	811.28
404.62	830.71
404.999	820.77
405.377	834.55
405.755	876.59
406.133	876.81
406.511	872.07
406.889	901.67
407.267	884.5
407.645	893.08
408.023	926.76
408.401	943.25
408.779	949.35
409.156	960.65
409.534	984.15
409.912	986.41
410.29	997.04
410.667	989.8
411.045	1037.26
411.422	1034.55
411.8	1038.39
412.178	1051.95
412.555	1098.5
412.933	1096.47
413.31	1110.48
413.687	1119.97
414.065	1114.09
414.442	1164.04
414.819	1162.68
415.197	1160.65
415.574	1183.47
415.951	1185.96
416.328	1208.56
416.705	1240.87
417.082	1250.59
417.46	1240.42
417.837	1237.93
418.214	1248.1
418.591	1289.01
418.967	1317.93
419.344	1305.73
419.721	1336.24
420.098	1326.52
420.475	1363.13
420.852	1388.44
421.228	1374.43
421.605	1380.3
421.982	1397.48
422.358	1419.85
422.735	1443.58
423.111	1436.35
423.488	1454.65
423.864	1474.99
424.241	1521.32
424.617	1527.42
424.994	1567.64
425.37	1568.09
425.746	1565.16
426.123	1574.2
426.499	1597.7
426.875	1638.37
427.251	1664.36
427.627	1689.45
428.003	1670.01
428.379	1705.49
428.756	1748.43
429.132	1748.65
429.507	1760.63
429.883	1813.51
430.259	1831.59
430.635	1843.57
431.011	1870.91
431.387	1888.09
431.763	1931.47
432.138	1983.68
432.514	1965.37
432.89	2019.61
433.265	2040.85
433.641	2055.99
434.016	2042.43
434.392	2121.53
434.767	2151.81
435.143	2147.51
435.518	2196.55
435.894	2233.39
436.269	2231.58
436.644	2279.04
437.02	2286.49
437.395	2298.02
437.77	2326.49
438.145	2363.55
438.52	2390.45
438.895	2404.46
439.271	2420.95
439.646	2490.1
440.021	2487.17
440.395	2517.9
440.77	2532.59
441.145	2551.12
441.52	2551.8
441.895	2557.22
442.27	2611.91
442.645	2601.06
443.019	2607.16
443.394	2685.58
443.769	2695.75
444.143	2686.94
444.518	2723.77
444.892	2741.17
445.267	2773.26
445.641	2776.65
446.016	2777.1
446.39	2839.7
446.764	2883.09
447.139	2822.52
447.513	2867.95
447.887	2938.23
448.262	2918.57
448.636	2962.63
449.01	3008.96
449.384	3010.54
449.758	3046.93
450.132	3074.27
450.506	3106.81
450.88	3116.98
451.254	3139.35
451.628	3178.9
452.002	3193.59
452.376	3227.03
452.75	3285.34
453.123	3317.43
453.497	3384.54
453.871	3386.8
454.244	3411.89
454.618	3494.82
454.992	3509.51
455.365	3571.88
455.739	3641.03
456.112	3621.83
456.486	3672.22
456.859	3700.24
457.232	3812.33
457.606	3771.65
457.979	3871.99
458.352	3964.19
458.725	3989.27
459.099	4039.89
459.472	4109.5
459.845	4149.95
460.218	4169.38
460.591	4169.61
460.964	4258.87
461.337	4361.24
461.71	4349.26
462.083	4476.27
462.456	4492.76
462.829	4495.02
463.201	4583.83
463.574	4617.05
463.947	4670.16
464.32	4764.62
464.692	4802.81
465.065	4830.83
465.438	4910.61
465.81	4985.86
466.183	5009.36
466.555	5178.39
466.928	5145.18
467.3	5252.29
467.672	5282.57
468.045	5402.8
468.417	5409.12
468.789	5436.02
469.161	5511.49
469.534	5627.87
469.906	5784.71
470.278	5800.3
470.65	5912.39
471.022	5964.14
471.394	6082.78
471.766	6211.59
472.138	6187.41
472.51	6320.06
472.882	6433.5
473.253	6519.15
473.625	6620.16
473.997	6815.41
474.369	6839.82
474.74	6875.3
475.112	7060.15
475.484	7139.25
475.855	7249.53
476.227	7347.83
476.598	7538.11
476.97	7543.3
477.341	7832.11
477.713	7917.76
478.084	7998.89
478.455	8162.72
478.827	8280.91
479.198	8589.83
479.569	8535.14
479.94	8744.85
480.311	8840.67
480.682	9032.76
481.053	9264.16
481.424	9409.7
481.795	9493.31
482.166	9667.77
482.537	9803.13
482.908	9942.79
483.279	10061.66
483.65	10249.22
484.021	10467.75
484.391	10590
484.762	10727.85
485.133	10837.46
485.503	10984.12
485.874	11241.96
486.244	11373.49
486.615	11477.21
486.985	11632.69
487.356	11830.65
487.726	11966.01
488.097	12137.53
488.467	12209.62
488.837	12559.9
489.207	12670.63
489.578	12846.89
489.948	13011.86
490.318	13190.84
490.688	13233.55
491.058	13335.69
491.428	13665.18
491.798	13791.95
492.168	14053.87
492.538	14118.27
492.908	14205.05
493.278	14494.76
493.648	14479.39
494.017	14718.71
494.387	14906.05
494.757	15062.43
495.126	15151.24
495.496	15199.6
495.866	15318.92
496.235	15542.42
496.605	15656.99
496.974	15772.01
497.344	15998.22
497.713	16075.74
498.082	16228.5
498.452	16421.49
498.821	16454.26
499.19	16595.27
499.559	16780.58
499.928	16969.05
500.298	16985.99
500.667	17155.71
501.036	17150.51
501.405	17266.89
501.774	17344.85
502.143	17557.5
502.512	17596.6
502.88	17786.88
503.249	17761.11
503.618	17976.93
503.987	18020.32
504.356	18154.55
504.724	18195.45
505.093	18400.42
505.462	18476.8
505.83	18700.98
506.199	18807.42
506.567	19020.97
506.936	19053.51
507.304	19354.97
507.672	19442.65
508.041	19418.47
508.409	19575.08
508.777	19923.32
509.145	20085.8
509.514	20159.92
509.882	20145.46
510.25	20336.19
510.618	20499.8
510.986	20488.73
511.354	20823.41
511.722	20997.41
512.09	21224.3
512.458	21255.49
512.826	21414.13
513.193	21549.49
513.561	21730.73
513.929	21903.6
514.297	22090.72
514.664	22202.13
515.032	22317.38
515.4	22626.75
515.767	22585.39
516.135	22741.55
516.502	22778.84
516.869	23141.09
517.237	23249.56
517.604	23312.61
517.972	23604.8
518.339	23685.03
518.706	23749.21
519.073	23897.22
519.44	24096.77
519.808	24422.63
520.175	24353.26
520.542	24847.93
520.909	24964.99
521.276	24913.7
521.643	25268.04
522.009	25312.55
522.376	25663.05
522.743	25722.94
523.11	26027.34
523.477	26365.63
523.843	26457.84
524.21	26644.72
524.577	26957.94
524.943	27051.04
525.31	27289
525.676	27540.29
526.043	27750.46
526.409	27888.53
526.776	28189.32
527.142	28262.08
527.508	28492.58
527.874	28718.57
528.241	28972.12
528.607	28999.69
528.973	29276.29
529.339	29270.87
529.705	29651.65
530.071	29904.07
530.437	30007.57
530.803	30251.86
531.169	30364.85
531.535	30358.52
531.901	30548.12
532.267	30643.94
532.632	30919.41
532.998	31097.49
533.364	31111.05
533.73	31224.49
534.095	31537.25
534.461	31641.2
534.826	31848.43
535.192	32078.93
535.557	32198.48
535.923	32143.11
536.288	32304.46
536.653	32610.89
537.019	32631.23
537.384	32790.78
537.749	33027.38
538.114	32992.8
538.479	33052.46
538.845	33401.83
539.21	33349.63
539.575	33595.95
539.94	33604.99
540.305	33830.07
540.67	33818.09
541.034	33911.88
541.399	34047.01
541.764	34073
542.129	34378.08
542.494	34438.19
542.858	34621.01
543.223	34588.02
543.587	34886.99
543.952	34746.43
544.316	34962.02
544.681	34898.97
545.045	35138.29
545.41	35450.14
545.774	35546.64
546.138	35684.71
546.503	35665.28
546.867	35562.91
547.231	35974.2
547.595	36051.93
547.959	36278.37
548.324	36325.15
548.688	36469.55
549.052	36556.55
549.416	36589.09
549.779	36657.34
550.143	36779.6
550.507	37100.04
550.871	37209.42
551.235	37157.44
551.599	37221.85
551.962	37484.66
552.326	37540.71
552.689	37730.08
553.053	37614.6
553.417	37790.87
553.78	38236.06
554.143	38098.66
554.507	38382.49
554.87	38448.03
555.234	38914.68
555.597	38658.42
555.96	38936.15
556.323	39165.52
556.686	39164.39
557.05	39381.56
557.413	39531.84
557.776	39743.14
558.139	39812.74
558.502	40066.29
558.865	40214.99
559.228	40451.14
559.59	40602.32
559.953	40642.32
560.316	41058.13
560.679	41116.21
561.041	41439.81
561.404	41578.12
561.767	41950.99
562.129	41665.57
562.492	42223.75
562.854	42226.46
563.217	42346.91
563.579	42536.73
563.941	42814.92
564.304	43069.38
564.666	43246.32
565.028	43317.28
565.39	43557.72
565.753	43813.54
566.115	44098.05
566.477	44053.53
566.839	44279.74
567.201	44469.79
567.563	44543.24
567.925	44839.05
568.287	44923.79
568.648	45032.26
569.01	45210.56
569.372	45413.5
569.734	45255.53
570.095	45709.53
570.457	45931.9
570.819	45975.29
571.18	45942.75
571.542	46287.6
571.903	46471.77
572.265	46551.54
572.626	46794.48
572.987	46864.3
573.349	46940.23
573.71	47140.23
574.071	47312.65
574.432	47501.8
574.794	47654.34
575.155	47758.74
575.516	47588.81
575.877	47853.21
576.238	47928.23
576.599	48162.58
576.96	48132.29
577.32	48081.9
577.681	48236.7
578.042	48413.42
578.403	48474.43
578.763	48404.6
579.124	48601.89
579.485	48812.95
579.845	49040.97
580.206	48897.47
580.566	48915.78
580.927	48960.07
581.287	49201.19
581.648	48978.37
582.008	49193.06
582.368	49153.96
582.728	49283.22
583.089	49224.69
583.449	49249.33
583.809	49314.64
584.169	49503.56
584.529	49314.86
584.889	49678.69
585.249	49363.9
585.609	49271.7
585.969	49503.56
586.329	49347.4
586.688	49562.54
587.048	49333.62
587.408	49446.16
587.768	49430.34
588.127	49400.96
588.487	49383.56
588.846	49806.83
589.206	49425.82
589.565	49442.32
589.925	49695.42
590.284	49575.65
590.643	49674.17
591.003	49838.92
591.362	49762.99
591.721	49823.32
592.08	49750.33
592.44	49901.29
592.799	49889.76
593.158	49827.16
593.517	49690.9
593.876	49851.34
594.235	49813.38
594.593	49880.72
594.952	50005.69
595.311	49855.41
595.67	49932.25
596.029	50038.23
596.387	50056.54
596.746	50212.24
597.104	49927.95
597.463	50065.8
597.822	50243.2
598.18	49982.41
598.538	50111.45
598.897	50243.2
599.255	50056.08
599.613	50457.66
599.972	50245.68
600.33	50340.15
600.688	50230.32
601.046	50381.73
601.404	50546.47
601.762	50503.3
602.12	50595.28
602.478	50722.06
602.836	50664.88
603.194	50417.88
603.552	50530.87
603.91	50426.02
604.268	50772.22
604.625	50583.98
604.983	50749.63
605.341	50543.3
605.698	50857.87
606.056	50841.6
606.413	50717.54
606.771	50909.17
607.128	50891.54
607.485	50738.78
607.843	50774.26
608.2	50884.09
608.557	51105.77
608.914	50893.8
609.272	51189.16
609.629	51124.31
609.986	51331.53
610.343	51106.9
610.7	51304.87
611.057	51404.75
611.414	51239.1
611.771	51254.25
612.127	51361.59
612.484	51320.68
612.841	51372.43
613.198	51352.32
613.554	51422.6
613.911	51548.02
614.267	51583.73
614.624	51500.57
614.98	51570.17
615.337	51818.52
615.693	51683.61
616.05	51716.15
616.406	51940.1
616.762	51831.41
617.118	51751.63
617.475	51792.31
617.831	51875.7
618.187	51919.76
618.543	51929.48
618.899	52099.65
619.255	52005.41
619.611	51980.78
619.967	52168.12
620.323	52169.48
620.678	52045.19
621.034	51890.61
621.39	51938.52
621.746	51877.05
622.101	52275.91
622.457	52010.84
622.812	52108.69
623.168	52088.57
623.523	52041.8
623.879	52082.47
624.234	51956.37
624.589	52139.87
624.945	52098.07
625.3	52178.29
625.655	52053.55
626.01	51919.31
626.365	51919.99
626.72	51930.39
627.075	51947.56
627.43	51979.65
627.785	51878.41
628.14	51927.45
628.495	51967.9
628.85	51879.54
629.205	51804.06
629.559	51980.33
629.914	51830.05
630.269	51919.31
630.623	51876.15
630.978	51819.2
631.332	51991.4
631.687	52034.56
632.041	51730.17
632.396	51783.27
632.75	51813.33
633.104	51873.66
633.459	51643.61
633.813	51611.3
634.167	51526.78
634.521	51567.91
634.875	51520.91
635.229	51420.79
635.583	51276.62
635.937	51371.3
636.291	51294.24
636.645	51251.08
636.999	51251.76
637.352	51376.73
637.706	51144.87
638.06	51328.14
638.413	51144.87
638.767	51038.43
639.121	51171.99
639.474	50825.33
639.828	50984.2
640.181	51007.02
640.534	50921.6
640.888	50785.56
641.241	50684.99
641.594	50734.26
641.947	50767.48
642.301	50666.24
642.654	50746.91
643.007	50630.99
643.36	50612.91
643.713	50605.9
644.066	50649.29
644.419	50402.74
644.771	50103.99
645.124	49825.13
645.477	49777.9
645.83	49658.58
646.182	49535.19
646.535	49445.48
646.888	49504.69
647.24	49227.41
647.593	49453.39
647.945	49284.35
648.298	49202.55
648.65	49034.64
649.002	49013.4
649.355	49094.3
649.707	49075.09
650.059	49257.46
650.411	49680.73
650.763	49764.79
651.115	50098.8
651.467	49941.51
651.819	49897.9
652.171	49837.11
652.523	49801.18
652.875	49751.01
653.227	49593.27
653.578	49737.9
653.93	49627.62
654.282	49442.32
654.633	49432.37
654.985	49382.43
655.337	49461.3
655.688	49401.19
656.039	49468.76
656.391	49049.11
656.742	49236.67
657.094	49249.33
657.445	49362.32
657.796	49263.56
658.147	49228.54
658.498	49074.19
658.849	49184.7
659.2	49141.08
659.551	48999.39
659.902	49127.07
660.253	49088.88
660.604	49084.59
660.955	48907.64
661.306	49126.62
661.656	48921.88
662.007	48919.17
662.358	48953.52
662.708	48847.98
663.059	48877.13
663.409	48567.54
663.76	48880.75
664.11	48807.08
664.461	48663.35
664.811	48647.76
665.161	48705.84
665.511	48550.59
665.862	48539.06
666.212	48644.6
666.562	48608.44
666.912	48585.39
667.262	48419.97
667.612	48374.77
667.962	48412.74
668.312	48433.98
668.662	48601.66
669.011	48445.28
669.361	48374.1
669.711	48361.21
670.06	48365.51
670.41	48191.73
670.76	48169.81
671.109	48361.89
671.459	48479.18
671.808	48206.42
672.157	48302.68
672.507	48087.78
672.856	48103.37
673.205	47985.18
673.554	48115.8
673.904	48262.69
674.253	48305.4
674.602	48125.29
674.951	47571.4
675.3	47355.37
675.649	48057.72
675.998	47928.01
676.346	47836.26
676.695	48102.92
677.044	47620.89
677.393	47778.4
677.741	47715.36
678.09	47493.89
678.438	47596.94
678.787	47634.68
679.135	47497.73
679.484	47387
679.832	47402.37
680.181	47161.02
680.529	47489.15
680.877	47211.41
681.225	47347.68
681.573	47283.73
681.922	47095.71
682.27	47010.52
682.618	47042.38
682.966	46953.57
683.314	47124.64
683.661	46949.5
684.009	46627.25
684.357	46537.76
684.705	46534.37
685.053	46609.62
685.4	46508.61
685.748	46312.23
686.095	46271.78
686.443	46117.21
686.79	45981.16
687.138	46125.79
687.485	46240.37
687.832	45828.63
688.18	46007.15
688.527	45722.19
688.874	45723.32
689.221	45577.56
689.568	45449.88
689.915	45371.24
690.262	45378.47
690.609	45389.54
690.956	45137.8
691.303	45231.35
691.65	44931.47
691.997	44892.83
692.344	44597.25
692.69	44572.61
693.037	44674.53
693.383	44274.99
693.73	44450.36
694.077	44197.93
694.423	44264.15
694.769	44108.44
695.116	43983.02
695.462	43831.62
695.808	43837.94
696.155	43757.95
696.501	43556.59
696.847	43378.29
697.193	43187.56
697.539	43325.64
697.885	43086.78
698.231	42896.05
698.577	43032.09
698.923	42778.99
699.269	42656.05
699.614	42360.69
699.96	42360.69
700.306	42483.63
700.651	42104.88
700.997	41893.36
701.342	42067.59
701.688	41963.19
702.033	41692.69
702.379	41888.16
702.724	41579.02
703.069	41680.49
703.415	41207.96
703.76	41181.06
704.105	41402.3
704.45	41112.37
704.795	40838.93
705.14	40663.56
705.485	40831.69
705.83	40567.75
706.175	40661.53
706.52	40491.82
706.865	40474.64
707.209	40282.33
707.554	40058.16
707.899	40154.42
708.243	39992.85
708.588	39934.54
708.932	39697.94
709.277	39669.01
709.621	39452.3
709.966	39214.56
710.31	39363.71
710.654	38958.3
710.998	39107.45
711.342	39050.72
711.687	39024.51
712.031	38822.93
712.375	38672.2
712.719	38632.66
713.063	38566.44
713.407	38733.22
713.75	38533.22
714.094	38462.94
714.438	38217.53
714.782	38352.66
715.125	38042.84
715.469	38210.07
715.812	38007.59
716.156	37853.92
716.499	37867.25
716.843	37785.67
717.186	37616.41
717.53	37918.1
717.873	37646.47
718.216	37584.32
718.559	37418
718.902	37108.63
719.246	37283.09
719.589	37107.27
719.932	37029.99
720.275	37051.91
720.617	36949.08
720.96	37003.09
721.303	36924.9
721.646	36787.96
721.989	36542.54
722.331	36652.6
722.674	36611.92
723.016	36476.33
723.359	36519.27
723.701	36484.69
724.044	36198.82
724.386	36186.39
724.729	36106.62
725.071	36309.55
725.413	36186.85
725.755	36190.46
726.097	35874.76
726.439	35692.85
726.782	35783.47
727.124	35857.14
727.465	35637.26
727.807	35638.38
728.149	35504.38
728.491	35496.02
728.833	35512.51
729.175	35494.66
729.516	35384.61
729.858	35141.67
730.199	35190.04
730.541	35176.93
730.882	35164.5
731.224	35252.41
731.565	34865.75
731.906	34992.07
732.248	34953.66
732.589	34767.22
732.93	34549.37
733.271	34567.23
733.612	34647.45
733.953	34523.61
734.294	34433.44
734.635	34244.75
734.976	34350.06
735.317	34135.83
735.658	34112.55
735.999	34135.15
736.339	34064.64
736.68	34204.3
737.021	33995.49
737.361	33873.46
737.702	33985.77
738.042	33776.74
738.383	33793.01
738.723	33932.44
739.063	33609.96
739.404	33666.46
739.744	33568.16
740.084	33500.36
740.424	33554.82
740.764	33408.16
741.104	33653.13
741.444	33372.91
741.784	33286.13
742.124	33336.3
742.464	33226.47
742.804	33021.96
743.143	33158.45
743.483	33044.55
743.823	32794.62
744.162	32754.62
744.502	32813.37
744.841	32620.84
745.181	32753.04
745.52	32634.4
745.86	32667.39
746.199	32540.39
746.538	32563.44
746.877	32461.29
747.216	32468.07
747.556	32283.9
747.895	32260.62
748.234	32178.36
748.573	32051.36
748.911	31897.47
749.25	32013.85
749.589	31887.3
749.928	31817.24
750.267	31827.86
750.605	31690.92
750.944	31700.41
751.283	31579.96
751.621	31492.51
751.96	31348.78
752.298	31312.62
752.636	31274.21
752.975	31186.75
753.313	30977.04
753.651	31140.42
753.989	30836.93
754.327	30817.95
754.666	30663.37
755.004	30708.35
755.342	30796.7
755.679	30867.21
756.017	30606.65
756.355	30569.14
756.693	30417.51
757.031	30410.73
757.368	30201.24
757.706	30132.54
758.044	30138.42
758.381	30184.52
758.719	29842.83
759.056	29819.55
759.394	29873.79
759.731	29606.91
760.068	29662.27
760.405	29512.44
760.743	29369.17
761.08	29435.84
761.417	29299.34
761.754	29157.43
762.091	29166.24
762.428	29017.99
762.765	28765.12
763.102	28949.97
763.438	28695.06
763.775	28524.45
764.112	28593.37
764.449	28666.36
764.785	28455.07
765.122	28288.07
765.458	28115.42
765.795	28087.17
766.131	28119.26
766.467	27807.63
766.804	27761.08
767.14	27684.02
767.476	27672.27
767.812	27618.26
768.148	27546.62
768.485	27407.87
768.821	27204.71
769.157	27145.5
769.492	27075.9
769.828	27042.9
770.164	26819.41
770.5	26664.16
770.836	26794.78
771.171	26563.82
771.507	26511.62
771.842	26256.03
772.178	26288.57
772.513	26219.88
772.849	26194.79
773.184	25979.2
773.519	25937.85
773.855	25889.71
774.19	25776.05
774.525	25542.61
774.86	25631.42
775.195	25666.44
775.53	25397.98
775.865	25337.41
776.2	25218.55
776.535	24950.76
776.87	25053.8
777.205	24924.32
777.539	24849.06
777.874	24782.85
778.209	24539.24
778.543	24494.27
778.878	24452.24
779.212	24396.87
779.547	24222.41
779.881	24231.23
780.215	24078.01
780.55	24046.83
780.884	23986.94
781.218	23893.84
781.552	23836.21
781.886	23748.08
782.22	23584.46
782.554	23528.87
782.888	23319.84
783.222	23226.51
783.556	23120.52
783.889	23075.55
784.223	22939.96
784.557	22890.02
784.89	22974.99
785.224	22805.73
785.557	22766.63
785.891	22642.79
786.224	22621.33
786.558	22477.83
786.891	22346.98
787.224	22304.27
787.557	22214.56
787.891	22218.17
788.224	22160.32
788.557	22045.97
788.89	21895.7
789.223	21876.94
789.556	21747.68
789.888	21681.92
790.221	21609.83
790.554	21429.72
790.887	21533.9
791.219	21342.72
791.552	21398.53
791.884	21199.67
792.217	21053.46
792.549	21070.41
792.882	20913.12
793.214	20775.72
793.546	20775.72
793.879	20669.51
794.211	20574.83
794.543	20713.13
794.875	20626.35
795.207	20558.33
795.539	20510.65
795.871	20420.03
796.203	20249.86
796.535	20163.31
796.867	20063.88
797.198	20036.76
797.53	19921.51
797.862	19850.78
798.193	19975.97
798.525	19669.77
798.856	19656.21
799.188	19542.09
799.519	19568.07
799.85	19383.22
800.182	19518.81
800.513	19397.46
800.844	19145.03
801.175	19299.15
801.506	19249.21
801.837	19173.73
802.168	19131.7
802.499	19087.41
802.83	18971.93
803.161	18827.98
803.491	18835.21
803.822	18876.34
804.153	18753.63
804.483	18607.87
804.814	18578.27
805.145	18509.8
805.475	18535.11
805.805	18443.13
806.136	18488.1
806.466	18400.65
806.796	18278.16
807.126	18157.49
807.457	18093.54
807.787	18149.58
808.117	18089.24
808.447	18001.56
808.777	18025.97
809.107	18031.62
809.436	17900.55
809.766	17774.22
810.096	17858.51
810.426	17713.66
810.755	17776.48
811.085	17705.75
811.414	17624.4
811.744	17425.76
812.073	17543.95
812.403	17439.09
812.732	17388.7
813.061	17300.11
813.39	17232.32
813.719	17154.35
814.049	17298.75
814.378	17212.65
814.707	17057.18
815.036	17062.6
815.365	17010.85
815.693	16847.01
816.022	16909.84
816.351	16807.24
816.68	16665.32
817.008	16816.06
817.337	16669.17
817.665	16643.63
817.994	16691.31
818.322	16628.04
818.651	16474.14
818.979	16464.88
819.307	16463.07
819.636	16435.05
819.964	16255.62
820.292	16385.56
820.62	16327.25
820.948	16270.31
821.276	16323.41
821.604	16288.84
821.932	16275.5
822.259	16254.49
822.587	16234.15
822.915	16249.74
823.243	16284.54
823.57	16219.69
823.898	16246.58
824.225	16300.14
824.553	16137.88
824.88	16218.1
825.207	16237.99
825.535	16188.73
825.862	16265.56
826.189	16255.62
826.516	16301.27
826.843	16295.16
827.17	16305.79
827.497	16245.9
827.824	16279.35
828.151	16363.86
828.478	16184.89
828.805	16295.84
829.131	16102.18
829.458	16136.98
829.785	16146.69
830.111	16213.13
830.438	16258.1
830.764	16226.24
831.09	16243.87
831.417	16122.97
831.743	16197.77
832.069	16205
832.395	16049.3
832.722	16156.86
833.048	16040.93
833.374	15998
833.7	15965.91
834.026	16076.41
834.351	16152.57
834.677	16047.94
835.003	16026.92
835.329	16042.06
835.654	15965
835.98	15812.47
836.306	15952.8
836.631	15930.2
836.956	15871.9
837.282	15849.53
837.607	15725.01
837.932	15649.98
838.258	15792.35
838.583	15675.29
838.908	15662.19
839.233	15565.92
839.558	15673.94
839.883	15554.85
840.208	15488.18
840.533	15540.83
840.858	15437.79
841.182	15444.11
841.507	15495.41
841.832	15391.69
842.156	15336.55
842.481	15359.6
842.805	15249.77
843.13	15314.4
843.454	15277.34
843.778	15089.55
844.103	15275.53
844.427	15073.95
844.751	15102.2
845.075	15029.44
845.399	14965.48
845.723	14960.74
846.047	15013.16
846.371	14877.12
846.695	14821.08
847.019	14747.63
847.343	14727.52
847.666	14741.31
847.99	14667.86
848.313	14697.01
848.637	14617.02
848.96	14508.77
849.284	14508.32
849.607	14387.87
849.931	14336.12
850.254	14298.61
850.577	14284.6
850.9	14061.1
851.223	14015.22
851.546	13962.8
851.869	13950.59
852.192	14033.53
852.515	13801.45
852.838	13837.15
853.161	13868.34
853.483	13763.71
853.806	13633.77
854.129	13626.76
854.451	13621.56
854.774	13538.18
855.096	13483.49
855.419	13451.4
855.741	13467.44
856.063	13396.48
856.385	13306.77
856.708	13323.72
857.03	13284.85
857.352	13262.7
857.674	13292.31
857.996	13131.41
858.318	13151.07
858.64	13136.6
858.961	13019.77
859.283	12998.53
859.605	12958.98
859.926	12991.07
860.248	12916.72
860.57	12903.62
860.891	12964.4
861.212	12836.27
861.534	12820
861.855	12805.09
862.176	12785.43
862.498	12813.22
862.819	12774.81
863.14	12730.51
863.461	12727.57
863.782	12661.14
864.103	12674.24
864.424	12688.48
864.745	12713.79
865.065	12625.2
865.386	12571.19
865.707	12504.53
866.027	12568.03
866.348	12539.78
866.668	12561.7
866.989	12520.35
867.309	12403.97
867.63	12424.08
867.95	12454.14
868.27	12329.39
868.59	12349.28
868.91	12280.81
869.23	12362.16
869.55	12237.19
869.87	12303.18
870.19	12313.8
870.51	12275.84
870.83	12301.6
871.15	12232.9
871.469	12186.8
871.789	12207.14
872.109	12119.91
872.428	12089.63
872.748	12177.08
873.067	12146.12
873.386	12135.27
873.706	12235.61
874.025	12130.3
874.344	12017.31
874.663	12128.04
874.982	12004.2
875.301	12046.01
875.62	12031.77
875.939	11941.83
876.258	11979.8
876.577	11925.79
876.896	11995.62
877.214	11924.43
877.533	11957.65
877.852	11901.61
878.17	11892.34
878.489	11950.65
878.807	11958.78
879.125	11829.07
879.444	11982.74
879.762	11879.01
880.08	11788.84
880.398	11835.85
880.716	11804.89
881.034	11769.41
881.352	11862.06
881.67	11740.93
881.988	11744.1
882.306	11738.9
882.624	11585.91
882.941	11646.02
883.259	11643.99
883.577	11639.92
883.894	11565.12
884.212	11566.7
884.529	11576.64
884.846	11482.86
885.164	11546.14
885.481	11413.49
885.798	11437.44
886.115	11387.05
886.432	11373.49
886.75	11265.69
887.067	11331.45
887.383	11268.63
887.7	11202.19
888.017	11268.18
888.334	11300.27
888.651	11219.14
888.967	11191.34
889.284	11191.57
889.6	11094.62
889.917	11020.95
890.233	11032.25
890.55	11008.98
890.866	10999.71
891.182	10999.71
891.498	10932.37
891.815	10976.66
892.131	10882.43
892.447	10827.51
892.763	10839.49
893.079	10769.66
893.395	10730.11
893.71	10775.54
894.026	10637.23
894.342	10687.85
894.657	10635.2
894.973	10580.74
895.289	10595.65
895.604	10653.73
895.92	10526.5
896.235	10535.32
896.55	10558.37
896.865	10532.38
897.181	10446.73
897.496	10407.86
897.811	10355.21
898.126	10343
898.441	10338.71
898.756	10308.2
899.071	10241.54
899.386	10239.5
899.7	10183.69
900.015	10197.25
900.33	10070.24
900.644	10100.53
900.959	10149.11
901.273	10141.65
901.588	9997.93
901.902	9985.95
902.216	9996.8
902.531	10004.03
902.845	9980.98
903.159	9814.43
903.473	9895.11
903.787	9805.17
904.101	9762.68
904.415	9825.5
904.729	9804.26
905.042	9726.75
905.356	9635.23
905.67	9641.55
905.984	9616.92
906.297	9631.39
906.611	9558.62
906.924	9587.32
907.237	9506.64
907.551	9506.87
907.864	9399.98
908.177	9410.6
908.491	9368.12
908.804	9304.39
909.117	9261.23
909.43	9301.9
909.743	9152.98
910.056	9243.6
910.368	9138.97
910.681	9091.51
910.994	9098.97
911.307	8962.25
911.619	9019.2
911.932	8975.58
912.244	8888.13
912.557	8943.72
912.869	8875.92
913.181	8849.03
913.494	8812.88
913.806	8713.44
914.118	8712.77
914.43	8720.22
914.742	8698.98
915.054	8731.07
915.366	8608.36
915.678	8618.08
915.99	8573.33
916.302	8489.27
916.613	8451.08
916.925	8506.22
917.236	8490.17
917.548	8391.87
917.859	8442.49
918.171	8351.64
918.482	8244.53
918.794	8251.31
919.105	8235.49
919.416	8157.3
919.727	8138.09
920.038	8076.62
920.349	8034.14
920.66	8028.72
920.971	8058.09
921.282	8034.82
921.593	7955.27
921.903	7884.99
922.214	7921.6
922.525	7886.12
922.835	7841.38
923.146	7788.72
923.456	7786.46
923.767	7754.82
924.077	7747.82
924.387	7674.15
924.697	7643.87
925.008	7597.09
925.318	7533.14
925.628	7608.61
925.938	7605
926.248	7508.28
926.558	7443.87
926.867	7419.01
927.177	7381.95
927.487	7387.15
927.796	7285.91
928.106	7309.19
928.416	7311.45
928.725	7338.34
929.034	7231.45
929.344	7244.78
929.653	7214.73
929.962	7129.98
930.271	7123.43
930.581	7088.18
930.89	7108.51
931.199	7002.75
931.508	7013.6
931.817	6997.33
932.125	6996.65
932.434	6971.79
932.743	6912.81
933.051	6861.51
933.36	6830.55
933.669	6807.96
933.977	6800.27
934.286	6769.54
934.594	6714.85
934.902	6624.68
935.21	6627.62
935.519	6695.64
935.827	6640.96
936.135	6597.79
936.443	6533.61
936.751	6510.56
937.059	6505.59
937.367	6450.68
937.674	6461.3
937.982	6430.34
938.29	6387.4
938.597	6448.87
938.905	6257.91
939.213	6293.62
939.52	6262.21
939.827	6283
940.135	6195.09
940.442	6217.92
940.749	6174.75
941.056	6214.75
941.363	6074.64
941.67	6079.39
941.977	6054.76
942.284	5996.68
942.591	5967.53
942.898	5960.3
943.205	5972.27
943.511	5989
943.818	5950.35
944.125	5905.38
944.431	5864.93
944.738	5892.27
945.044	5858.6
945.35	5801.43
945.657	5763.46
945.963	5734.99
946.269	5702.22
946.575	5696.12
946.881	5711.26
947.187	5700.42
947.493	5633.3
947.799	5592.17
948.105	5614.99
948.41	5516.01
948.716	5552.17
949.022	5499.52
949.327	5511.27
949.633	5482.12
949.938	5452.29
950.244	5469.23
950.549	5397.15
950.854	5403.93
951.16	5391.5
951.465	5314.21
951.77	5346.3
952.075	5309.24
952.38	5344.27
952.685	5234.66
952.99	5237.83
953.294	5223.14
953.599	5187.21
953.904	5150.83
954.209	5142.24
954.513	5159.64
954.818	5144.05
955.122	5071.51
955.426	5081.9
955.731	5032.18
956.035	5033.54
956.339	4995.8
956.643	4990.6
956.948	4945.18
957.252	4931.62
957.556	4946.99
957.86	4927.55
958.163	4898.4
958.467	4880.78
958.771	4888.69
959.075	4870.83
959.378	4835.81
959.682	4773.89
959.985	4739.99
960.289	4756.26
960.592	4680.55
960.896	4677.62
961.199	4666.77
961.502	4648.69
961.805	4637.17
962.108	4638.75
962.411	4564.85
962.714	4581.35
963.017	4524.17
963.32	4565.53
963.623	4503.38
963.926	4523.5
964.228	4496.15
964.531	4528.02
964.833	4423.84
965.136	4435.14
965.438	4377.96
965.741	4388.36
966.043	4384.52
966.345	4355.82
966.648	4372.77
966.95	4352.2
967.252	4263.84
967.554	4267.68
967.856	4228.82
968.158	4218.19
968.46	4225.43
968.761	4172.77
969.063	4191.08
969.365	4144.98
969.666	4138.2
969.968	4100.23
970.269	4104.3
970.571	4145.88
970.872	4118.76
971.174	4042.38
971.475	4052.77
971.776	4037.63
972.077	4048.03
972.378	4035.15
972.679	3993.34
972.98	3976.62
973.281	3914.02
973.582	3918.54
973.883	3910.41
974.183	3934.81
974.484	3890.29
974.785	3867.69
975.085	3876.96
975.386	3870.41
975.686	3850.97
975.986	3829.73
976.287	3825.89
976.587	3758.32
976.887	3735.72
977.187	3771.88
977.487	3717.64
977.787	3695.04
978.087	3717.19
978.387	3697.08
978.687	3708.38
978.987	3648.49
979.286	3642.62
979.586	3643.52
979.885	3630.86
980.185	3560.58
980.484	3588.15
980.784	3578.44
981.083	3514.03
981.382	3508.16
981.682	3528.27
981.981	3519.23
982.28	3477.2
982.579	3480.13
982.878	3469.74
983.177	3421.6
983.475	3440.59
983.774	3375.28
984.073	3389.97
984.372	3389.06
984.67	3417.09
984.969	3378.89
985.267	3338.67
985.566	3336.64
985.864	3336.86
986.162	3301.16
986.461	3275.17
986.759	3246.47
987.057	3230.2
987.355	3227.71
987.653	3254.83
987.951	3206.92
988.249	3230.42
988.547	3206.24
988.844	3190.88
989.142	3187.26
989.44	3141.61
989.737	3136.41
990.035	3072.46
990.332	3099.35
990.63	3039.69
990.927	3038.34
991.224	3068.39
991.521	3022.75
991.819	2995.63
992.116	2950.2
992.413	3010.77
992.71	2988.62
993.006	2988.17
993.303	2938
993.6	2953.82
993.897	2904.1
994.193	2896.2
994.49	2919.25
994.787	2877.89
995.083	2843.32
995.379	2880.83
995.676	2862.75
995.972	2797.44
996.268	2794.5
996.565	2817.78
996.861	2780.49
997.157	2787.95
997.453	2748.4
997.749	2750.21
998.044	2727.16
998.34	2752.02
998.636	2704.11
998.932	2691.91
999.227	2709.08
999.523	2637.9
999.818	2651.46
1000.114	2625.69
1000.409	2606.71
1000.704	2627.28
1001	2612.81
1001.295	2597.67
1001.59	2537.11
1001.885	2556.99
1002.18	2551.35
1002.475	2531.46
1002.77	2557.45
1003.065	2494.4
1003.359	2510.22
1003.654	2450.11
1003.949	2479.93
1004.243	2469.77
1004.538	2426.15
1004.832	2435.87
1005.127	2361.29
1005.421	2396.55
1005.715	2382.08
1006.009	2375.98
1006.304	2356.1
1006.598	2356.55
1006.892	2305.25
1007.186	2343.89
1007.48	2310.45
1007.773	2302.09
1008.067	2265.7
1008.361	2258.92
1008.655	2243.1
1008.948	2234.52
1009.242	2227.06
1009.535	2202.65
1009.829	2196.33
1010.122	2181.19
1010.415	2203.56
1010.708	2173.95
1011.001	2160.62
1011.295	2150.45
1011.588	2123.56
1011.881	2103.45
1012.173	2124.46
1012.466	2083.11
1012.759	2099.38
1013.052	2044.69
1013.344	2079.49
1013.637	2055.77
1013.93	2045.37
1014.222	2058.02
1014.514	2000.63
1014.807	2009.21
1015.099	1965.6
1015.391	2013.73
1015.683	1971.02
1015.976	1949.78
1016.268	1961.53
1016.56	1951.14
1016.851	1928.31
1017.143	1900.97
1017.435	1848.99
1017.727	1863.91
1018.018	1853.51
1018.31	1827.75
1018.602	1851.25
1018.893	1807.41
1019.185	1818.94
1019.476	1812.83
1019.767	1792.72
1020.058	1809.22
1020.35	1756.34
1020.641	1767.64
1020.932	1772.38
1021.223	1724.93
1021.514	1726.51
1021.804	1696
1022.095	1699.39
1022.386	1704.59
1022.677	1695.32
1022.967	1653.97
1023.258	1646.51
1023.548	1665.72
1023.839	1631.82
1024.129	1641.09
1024.419	1605.61
1024.709	1597.92
1025	1586.62
1025.29	1559.96
1025.58	1548.89
1025.87	1572.61
1026.16	1522.67
1026.449	1560.18
1026.739	1493.97
1027.029	1500.98
1027.319	1479.74
1027.608	1511.82
1027.898	1498.94
1028.187	1510.69
1028.477	1486.51
1028.766	1483.8
1029.055	1415.56
1029.344	1411.04
1029.634	1425.95
1029.923	1406.97
1030.212	1408.55
1030.501	1405.39
1030.79	1399.51
1031.078	1378.72
1031.367	1380.75
1031.656	1354.31
1031.945	1356.35
1032.233	1315.45
1032.522	1338.27
1032.81	1333.98
1033.099	1339.85
1033.387	1311.38
1033.675	1287.42
1033.963	1303.47
1034.251	1291.72
1034.54	1254.66
1034.828	1262.11
1035.116	1251.94
1035.403	1247.88
1035.691	1244.94
1035.979	1256.69
1036.267	1230.48
1036.554	1230.25
1036.842	1179.63
1037.129	1172.85
1037.417	1179.4
1037.704	1191.83
1037.992	1155.9
1038.279	1161.55
1038.566	1146.18
1038.853	1146.18
1039.14	1146.18
