Data from aluminium_macbook_case_FLMS001491_056.txt Node
Date: Tue Feb 07 10:43:50 GMT 2017
User: dcchb
Spectrometer: FLMS00149
Trigger mode: 0
Integration Time (sec): 2.000000E-2
Scans to average: 10
Electric dark correction enabled: true
Nonlinearity correction enabled: false
Boxcar width: 0
XAxis mode: Wavelengths
Number of Pixels in Spectrum: 2048
>>>>>Begin Spectral Data<<<<<
341.393	-14.46
341.776	-14.46
342.16	-14.46
342.543	-58.98
342.927	-70.28
343.31	-58.3
343.693	-76.61
344.077	-45.87
344.46	-78.42
344.843	-76.61
345.226	-51.07
345.61	-22.82
345.993	-19.21
346.376	4.75
346.759	17.4
347.142	17.63
347.525	34.8
347.908	53.56
348.291	82.94
348.674	100.34
349.057	117.51
349.44	140.34
349.823	160.9
350.206	177.17
350.588	244.29
350.971	252.2
351.354	283.16
351.737	263.5
352.119	305.75
352.502	307.11
352.884	330.84
353.267	328.8
353.65	341.23
354.032	361.8
354.414	359.09
354.797	385.98
355.179	394.79
355.562	363.83
355.944	395.47
356.326	408.35
356.709	402.25
357.091	409.71
357.473	404.06
357.855	401.12
358.238	405.19
358.62	407.45
359.002	416.49
359.384	423.72
359.766	412.19
360.148	419.42
360.53	424.4
360.912	423.72
361.294	416.49
361.676	424.17
362.057	432.98
362.439	442.93
362.821	432.76
363.203	429.59
363.584	448.12
363.966	414.9
364.348	423.72
364.729	413.77
365.111	423.27
365.493	426.2
365.874	419.42
366.256	427.56
366.637	428.69
367.019	420.33
367.4	453.1
367.781	455.36
368.163	436.15
368.544	446.09
368.925	461
369.306	456.49
369.688	440.21
370.069	427.56
370.45	470.5
370.831	447.9
371.212	443.15
371.593	462.36
371.974	490.38
372.355	483.15
372.736	468.91
373.117	485.18
373.498	472.76
373.879	482.25
374.26	470.5
374.641	463.26
375.021	465.52
375.402	479.76
375.783	501.23
376.163	544.39
376.544	533.55
376.925	506.65
377.305	508.91
377.686	520.44
378.066	528.12
378.447	535.81
378.827	543.94
379.208	581.91
379.588	560.44
379.968	574.22
380.349	549.36
380.729	575.35
381.109	592.53
381.489	577.16
381.87	609.48
382.25	578.06
382.63	600.21
383.01	616.71
383.39	586.43
383.77	627.78
384.15	614.45
384.53	627.78
384.91	627.1
385.29	665.52
385.67	675.69
386.049	670.49
386.429	654.45
386.809	688.34
387.189	679.08
387.568	694.45
387.948	689.25
388.328	717.5
388.707	696.7
389.087	733.31
389.466	735.8
389.846	740.32
390.225	745.29
390.605	758.17
390.984	794.33
391.363	786.19
391.743	786.87
392.122	817.83
392.501	840.43
392.881	797.72
393.26	831.16
393.639	835.01
394.018	856.7
394.397	862.58
394.776	877.27
395.155	882.91
395.534	914.1
395.913	893.08
396.292	909.58
396.671	908.68
397.05	923.59
397.429	973.99
397.808	955.46
398.186	952.29
398.565	969.01
398.944	967.66
399.323	982.57
399.701	971.73
400.08	1024.15
400.458	1031.16
400.837	1024.38
401.215	1050.14
401.594	1074.77
401.972	1075.45
402.351	1087.43
402.729	1118.61
403.107	1125.39
403.486	1123.36
403.864	1129.24
404.242	1132.4
404.62	1171.72
404.999	1177.6
405.377	1180.08
405.755	1203.58
406.133	1251.49
406.511	1242
406.889	1266.63
407.267	1290.14
407.645	1307.76
408.023	1320.87
408.401	1349.8
408.779	1331.49
409.156	1366.29
409.534	1393.86
409.912	1424.6
410.29	1428.44
410.667	1474.31
411.045	1470.92
411.422	1504.59
411.8	1524.48
412.178	1540.3
412.555	1586.85
412.933	1583.91
413.31	1621.88
413.687	1633.86
414.065	1625.72
414.442	1703.46
414.819	1732.61
415.197	1754.53
415.574	1779.84
415.951	1806.96
416.328	1768.77
416.705	1806.28
417.082	1822.78
417.46	1839.5
417.837	1900.52
418.214	1869.1
418.591	1881.08
418.967	1920.18
419.344	1929.89
419.721	1985.48
420.098	1960.4
420.475	2073.62
420.852	2043.56
421.228	2075.43
421.605	2088.98
421.982	2145.25
422.358	2153.16
422.735	2150
423.111	2174.41
423.488	2227.96
423.864	2207.63
424.241	2270.22
424.617	2307.28
424.994	2342.54
425.37	2352.25
425.746	2373.27
426.123	2369.66
426.499	2385.47
426.875	2439.94
427.251	2516.54
427.627	2547.28
428.003	2543.44
428.379	2625.24
428.756	2636.99
429.132	2691.45
429.507	2723.09
429.883	2771.68
430.259	2797.89
430.635	2842.19
431.011	2832.69
431.387	2926.93
431.763	3024.55
432.138	3013.25
432.514	3049.64
432.89	3100.03
433.265	3165.11
433.641	3232.91
434.016	3264.32
434.392	3263.87
434.767	3341.83
435.143	3336.86
435.518	3408.5
435.894	3443.75
436.269	3470.87
436.644	3519.91
437.02	3555.16
437.395	3583.18
437.77	3618.89
438.145	3710.41
438.52	3740.47
438.895	3782.5
439.271	3775.95
439.646	3903.17
440.021	3923.51
440.395	3950.18
440.77	3929.84
441.145	3973
441.52	4037.63
441.895	4089.38
442.27	4125.99
442.645	4116.05
443.019	4179.55
443.394	4173
443.769	4269.04
444.143	4216.84
444.518	4357.4
444.892	4319.43
445.267	4375.48
445.641	4382.26
446.016	4430.39
446.39	4491.18
446.764	4546.1
447.139	4508.13
447.513	4551.52
447.887	4619.77
448.262	4631.97
448.636	4690.05
449.01	4742.25
449.384	4773.66
449.758	4842.36
450.132	4950.6
450.506	4929.14
450.88	4968.46
451.254	4983.82
451.628	5068.12
452.002	5081
452.376	5142.46
452.75	5213.65
453.123	5224.72
453.497	5361.89
453.871	5388.56
454.244	5543.81
454.618	5530.02
454.992	5598.5
455.365	5599.17
455.739	5768.89
456.112	5842.33
456.486	5911.48
456.859	5959.62
457.232	6143.79
457.606	6109.67
457.979	6207.97
458.352	6344.01
458.725	6424.92
459.099	6512.15
459.472	6553.5
459.845	6642.09
460.218	6729.09
460.591	6765.7
460.964	6837.11
461.337	7039.14
461.71	7119.36
462.083	7153.03
462.456	7242.97
462.829	7239.81
463.201	7400.03
463.574	7395.06
463.947	7600.7
464.32	7768.84
464.692	7820.59
465.065	7905.1
465.438	7982.84
465.81	8137.64
466.183	8176.06
466.555	8467.35
466.928	8495.14
467.3	8498.99
467.672	8648.81
468.045	8912.31
468.417	8892.65
468.789	8986.88
469.161	9078.63
469.534	9260.55
469.906	9465.97
470.278	9478.85
470.65	9653.76
471.022	9828.44
471.394	10038.61
471.766	10129.45
472.138	10211.71
472.51	10426.62
472.882	10655.99
473.253	10729.66
473.625	10928.53
473.997	11180.27
474.369	11225.47
474.74	11381.62
475.112	11571.9
475.484	11769.18
475.855	11961.72
476.227	12080.81
476.598	12497.07
476.97	12613.68
477.341	12883.5
477.713	13127.11
478.084	13242.36
478.455	13617.72
478.827	13698.85
479.198	14088.9
479.569	14141.1
479.94	14518.04
480.311	14640.74
480.682	14951.92
481.053	15293.38
481.424	15607.95
481.795	15720.72
482.166	16034.61
482.537	16211.33
482.908	16548.27
483.279	16731.76
483.65	17150.06
484.021	17383.95
484.391	17547.79
484.762	17747.78
485.133	17919.08
485.503	18260.99
485.874	18603.13
486.244	18882.44
486.615	19179.61
486.985	19442.43
487.356	19862.75
487.726	19999.7
488.097	20411.67
488.467	20467.03
488.837	20973.69
489.207	21158.77
489.578	21470.4
489.948	21655.25
490.318	21991.06
490.688	22085.52
491.058	22411.39
491.428	22770.93
491.798	22914.43
492.168	23332.49
492.538	23436.22
492.908	23708.3
493.278	24127.5
493.648	24103.55
494.017	24501.5
494.387	24689.07
494.757	24914.15
495.126	25181.94
495.496	25317.07
495.866	25599.33
496.235	25932.43
496.605	26181.23
496.974	26357.5
497.344	26577.61
497.713	26646.76
498.082	27008.33
498.452	27209.68
498.821	27355.44
499.19	27603.57
499.559	27814.41
499.928	27996.78
500.298	28106.61
500.667	28581.62
501.036	28535.29
501.405	28787.72
501.774	28819.13
502.143	29193.13
502.512	29169.85
502.88	29532.33
503.249	29659.79
503.618	29790.4
503.987	29970.96
504.356	30151.52
504.724	30309.03
505.093	30425.87
505.462	30621.57
505.83	30829.7
506.199	31237.82
506.567	31695.89
506.936	31609.34
507.304	32070.34
507.672	32228.08
508.041	32445.02
508.409	32636.2
508.777	32925.24
509.145	33140.37
509.514	33412.68
509.882	33554.82
510.25	33783.97
510.618	33869.84
510.986	33945.55
511.354	34452.43
511.722	34693.55
512.09	35049.02
512.458	35050.15
512.826	35318.39
513.193	35655.56
513.561	35742.11
513.929	36031.82
514.297	36396.78
514.664	36674.52
515.032	36724.23
515.4	37080.83
515.767	37326.93
516.135	37382.29
516.502	37277.89
516.869	37894.6
517.237	38140.47
517.604	38142.5
517.972	38548.36
518.339	38660.45
518.706	38892.99
519.073	39305.18
519.44	39613.65
519.808	39831.27
520.175	40067.2
520.542	40539.5
520.909	40875.76
521.276	40833.05
521.643	41374.51
522.009	41661.73
522.376	41875.74
522.743	42259.91
523.11	42612.44
523.477	42890.62
523.843	43184.4
524.21	43564.73
524.577	43995
524.943	44012.63
525.31	44420.53
525.676	44754.3
526.043	44809.67
526.409	45259.37
526.776	45555.41
527.142	45658.01
527.508	45947.04
527.874	46223.64
528.241	46382.74
528.607	46576.4
528.973	47034.02
529.339	46895.49
529.705	47329.83
530.071	47821.79
530.437	47758.97
530.803	48044.16
531.169	48392.4
531.535	48338.62
531.901	48631.49
532.267	48865.83
532.632	49188.31
532.998	49168.42
533.364	49470.79
533.73	49575.87
534.095	49952.13
534.461	49980.38
534.826	50297.89
535.192	50436.41
535.557	50638.67
535.923	50645
536.288	50839.79
536.653	51002.5
537.019	51011.31
537.384	51160.69
537.749	51338.09
538.114	51400.91
538.479	51420.12
538.845	51686.78
539.21	51647
539.575	51803.38
539.94	51888.81
540.305	52023.04
540.67	52046.77
541.034	52143.94
541.399	52334.44
541.764	52400.43
542.129	52525.4
542.494	52604.27
542.858	52703.7
543.223	52830.25
543.587	53001.54
543.952	53026.18
544.316	53259.16
544.681	53201.99
545.045	53389.78
545.41	53495.77
545.774	53627.06
546.138	53652.6
546.503	53833.84
546.867	53878.81
547.231	54248.07
547.595	54252.36
547.959	54253.71
548.324	54303.88
548.688	54396.31
549.052	54625.91
549.416	54662.74
549.779	54648.96
550.143	54822.74
550.507	55001.27
550.871	55110.64
551.235	55082.85
551.599	55291.43
551.962	55393.35
552.326	55399.9
552.689	55598.09
553.053	55517.18
553.417	55748.14
553.78	55939.77
554.143	55799.66
554.507	55928.25
554.87	56000.11
555.234	56331.63
555.597	56152.87
555.96	56275.58
556.323	56459.98
556.686	56449.14
557.05	56608.23
557.413	56711.05
557.776	56753.54
558.139	56998.28
558.502	57044.15
558.865	57134.32
559.228	57351.71
559.59	57407.53
559.953	57513.52
560.316	57737.69
560.679	57781.08
561.041	57902.88
561.404	58024.24
561.767	58211.58
562.129	58130.67
562.492	58330.67
562.854	58409.76
563.217	58430.33
563.579	58616.54
563.941	58749.19
564.304	58851.11
564.666	58920.03
565.028	59021.95
565.39	59190.31
565.753	59315.5
566.115	59417.87
566.477	59516.4
566.839	59536.51
567.201	59725.66
567.563	59747.81
567.925	59872.55
568.287	59845.88
568.648	59928.82
569.01	60031.42
569.372	60157.74
569.734	60073.9
570.095	60217.85
570.457	60316.83
570.819	60420.11
571.18	60446.55
571.542	60524.51
571.903	60546.43
572.265	60697.39
572.626	60759.98
572.987	60788.46
573.349	60838.17
573.71	60933.77
574.071	61058.51
574.432	61092.18
574.794	61244.72
575.155	61260.08
575.516	61215.34
575.877	61377.82
576.238	61392.96
576.599	61478.16
576.96	61483.58
577.32	61472.96
577.681	61609
578.042	61653.52
578.403	61693.97
578.763	61715.67
579.124	61716.12
579.485	61832.5
579.845	61917.92
580.206	61833.63
580.566	61821.88
580.927	61855.1
581.287	61961.31
581.648	61867.75
582.008	62002.89
582.368	61944.36
582.728	61985.94
583.089	61962.44
583.449	61952.72
583.809	61983.91
584.169	62021.19
584.529	61973.51
584.889	62150.46
585.249	61953.4
585.609	61930.58
585.969	61975.55
586.329	61994.98
586.688	61969.67
587.048	62026.84
587.408	61947.3
587.768	61970.8
588.127	61976
588.487	61884.47
588.846	62027.97
589.206	61937.81
589.565	61977.13
589.925	62138.71
590.284	62075.2
590.643	62060.74
591.003	62174.18
591.362	62220.28
591.721	62182.77
592.08	62214.18
592.44	62223.67
592.799	62141.64
593.158	62139.61
593.517	62167.63
593.876	62252.15
594.235	62156.33
594.593	62258.7
594.952	62276.33
595.311	62167.86
595.67	62262.77
596.029	62391.13
596.387	62372.37
596.746	62348.19
597.104	62260.06
597.463	62328.98
597.822	62423.9
598.18	62338.93
598.538	62300.06
598.897	62467.06
599.255	62246.27
599.613	62558.58
599.972	62377.12
600.33	62463.44
600.688	62374.63
601.046	62466.38
601.404	62564
601.762	62462.09
602.12	62523.33
602.478	62530.79
602.836	62543.44
603.194	62425.48
603.552	62466.38
603.91	62437
604.268	62515.42
604.625	62417.12
604.983	62548.64
605.341	62449.21
605.698	62591.8
606.056	62712.48
606.413	62650.78
606.771	62787.05
607.128	62782.76
607.485	62639.93
607.843	62697.79
608.2	62840.83
608.557	62902.07
608.914	62855.75
609.272	62898.23
609.629	62940.27
609.986	63038.57
610.343	62975.52
610.7	63095.74
611.057	63027.04
611.414	63109.3
611.771	63101.17
612.127	63162.86
612.484	63119.02
612.841	63175.51
613.198	63114.72
613.554	63156.08
613.911	63191.33
614.267	63182.97
614.624	63185.01
614.98	63190.65
615.337	63191.33
615.693	63191.33
616.05	63191.33
616.406	63191.33
616.762	63191.33
617.118	63191.33
617.475	63184.33
617.831	63191.33
618.187	63191.33
618.543	63190.43
618.899	63191.33
619.255	63191.33
619.611	63191.33
619.967	63191.33
620.323	63191.33
620.678	63191.33
621.034	63191.33
621.39	63191.33
621.746	63191.33
622.101	63191.33
622.457	63191.33
622.812	63191.33
623.168	63191.33
623.523	63191.33
623.879	63191.33
624.234	63191.33
624.589	63191.33
624.945	63191.33
625.3	63191.33
625.655	63191.33
626.01	63191.33
626.365	63191.33
626.72	63191.33
627.075	63191.33
627.43	63191.33
627.785	63191.33
628.14	63191.33
628.495	63191.33
628.85	63191.33
629.205	63191.33
629.559	63191.33
629.914	63191.33
630.269	63191.33
630.623	63191.33
630.978	63187.04
631.332	63191.33
631.687	63191.33
632.041	63191.33
632.396	63190.88
632.75	63166.25
633.104	63191.33
633.459	63156.08
633.813	63173.03
634.167	63096.19
634.521	63080.6
634.875	63072.01
635.229	63002.41
635.583	62920.15
635.937	62973.71
636.291	62865.92
636.645	62939.59
636.999	62826.37
637.352	62890.32
637.706	62658.01
638.06	62784.56
638.413	62686.71
638.767	62656.88
639.121	62693.27
639.474	62579.6
639.828	62525.81
640.181	62597.22
640.534	62596.32
640.888	62482.42
641.241	62424.57
641.594	62526.04
641.947	62526.04
642.301	62382.31
642.654	62503.67
643.007	62421.86
643.36	62424.8
643.713	62404.69
644.066	62493.95
644.419	62336.21
644.771	62175.77
645.124	61976.45
645.477	61926.28
645.83	61766.96
646.182	61697.36
646.535	61619.17
646.888	61616.68
647.24	61399.74
647.593	61577.36
647.945	61496.24
648.298	61416.01
648.65	61340.08
649.002	61314.32
649.355	61411.72
649.707	61364.71
650.059	61446.52
650.411	61791.37
650.763	61771.94
651.115	61957.47
651.467	61883.8
651.819	61823.01
652.171	61743.24
652.523	61676.57
652.875	61736
653.227	61612.17
653.578	61712.73
653.93	61703.24
654.282	61522.45
654.633	61493.98
654.985	61515.67
655.337	61464.15
655.688	61417.59
656.039	61461.66
656.391	61221.67
656.742	61300.54
657.094	61300.99
657.445	61361.55
657.796	61248.56
658.147	61188.22
658.498	61255.11
658.849	61222.8
659.2	61174.89
659.551	61141.22
659.902	61265.51
660.253	61198.39
660.604	61185.74
660.955	61091.95
661.306	61172.85
661.656	61170.82
662.007	61155.91
662.358	61213.08
662.708	61111.39
663.059	61138.51
663.409	61006.98
663.76	61175.34
664.11	61199.75
664.461	61133.99
664.811	61174.44
665.161	61089.02
665.511	61001.56
665.862	61036.59
666.212	61117.49
666.562	61152.06
666.912	61055.57
667.262	60964.95
667.612	60994.1
667.962	60990.71
668.312	60971.05
668.662	61050.82
669.011	60967.44
669.361	60879.08
669.711	60835.46
670.06	60886.31
670.41	60858.51
670.76	60835.46
671.109	60812.64
671.459	60757.72
671.808	60783.49
672.157	60842.92
672.507	60658.07
672.856	60666.2
673.205	60675.69
673.554	60740.78
673.904	60564.51
674.253	60715.47
674.602	60690.16
674.951	60192.32
675.3	60092.88
675.649	60371.29
675.998	60398.41
676.346	60352.31
676.695	60459.88
677.044	60223.05
677.393	60286.32
677.741	60326.55
678.09	60223.5
678.438	60129.72
678.787	60208.81
679.135	60248.59
679.484	60065.99
679.832	60185.31
680.181	60037.74
680.529	60102.83
680.877	60125.65
681.225	60008.59
681.573	60154.12
681.922	60006.33
682.27	59932.21
682.618	59956.84
682.966	59931.08
683.314	59991.64
683.661	59803.4
684.009	59733.34
684.357	59681.37
684.705	59701.26
685.053	59739.67
685.4	59718.43
685.748	59606.34
686.095	59547.36
686.443	59474.59
686.79	59400.02
687.138	59503.29
687.485	59498.77
687.832	59273.92
688.18	59358.44
688.527	59206.8
688.874	59175.85
689.221	59176.75
689.568	59125.9
689.915	58961.39
690.262	58955.29
690.609	58986.02
690.956	58852.69
691.303	58800.26
691.65	58660.15
691.997	58647.95
692.344	58487.73
692.69	58387.39
693.037	58445.24
693.383	58174.52
693.73	58299.03
694.077	58068.98
694.423	58163.89
694.769	58018.36
695.116	57905.37
695.462	57826.95
695.808	57708.31
696.155	57759.16
696.501	57501.09
696.847	57531.82
697.193	57367.31
697.539	57362.56
697.885	57207.76
698.231	57104.04
698.577	57090.93
698.923	57082.57
699.269	56920.76
699.614	56781.11
699.96	56754.21
700.306	56817.49
700.651	56642.58
700.997	56558.74
701.342	56525.07
701.688	56493.43
702.033	56387.67
702.379	56406.88
702.724	56389.7
703.069	56399.42
703.415	56109.49
703.76	56094.8
704.105	56104.97
704.45	55979.09
704.795	55927.79
705.14	55888.7
705.485	55869.04
705.83	55725.09
706.175	55655.26
706.52	55704.07
706.865	55614.81
707.209	55607.58
707.554	55502.27
707.899	55515.38
708.243	55356.28
708.588	55347.25
708.932	55128.72
709.277	55035.16
709.621	55151.54
709.966	54851.89
710.31	54973.47
710.654	54777.54
710.998	54736.41
711.342	54777.77
711.687	54722.18
712.031	54601.5
712.375	54473.14
712.719	54473.6
713.063	54423.88
713.407	54561.28
713.75	54251.23
714.094	54310.21
714.438	54127.16
714.782	54100.27
715.125	53877.91
715.469	54044
715.812	53853.27
716.156	53646.27
716.499	53692.15
716.843	53688.53
717.186	53524.69
717.53	53610.34
717.873	53474.75
718.216	53433.17
718.559	53251.93
718.902	52985.5
719.246	53071.15
719.589	53054.42
719.932	52799.74
720.275	52764.04
720.617	52829.57
720.96	52627.99
721.303	52693.98
721.646	52607.88
721.989	52307.78
722.331	52501.44
722.674	52389.13
723.016	52392.52
723.359	52296.93
723.701	52274.33
724.044	52133.77
724.386	51977.84
724.729	52099.2
725.071	51975.36
725.413	51912.53
725.755	51890.61
726.097	51780.11
726.439	51668.25
726.782	51720.9
727.124	51799.09
727.465	51665.31
727.807	51634.8
728.149	51634.8
728.491	51591.64
728.833	51681.58
729.175	51423.28
729.516	51365.88
729.858	51201.59
730.199	51362.49
730.541	51141.71
730.882	51186.45
731.224	51254.92
731.565	51133.12
731.906	51082.27
732.248	51079.79
732.589	50862.39
732.93	50772
733.271	50873.24
733.612	50868.94
733.953	50814.48
734.294	50652.23
734.635	50466.7
734.976	50719.12
735.317	50532
735.658	50467.83
735.999	50434.15
736.339	50300.15
736.68	50331.11
737.021	50197.55
737.361	50024.67
737.702	50208.4
738.042	50013.37
738.383	49863.1
738.723	49997.56
739.063	49748.07
739.404	49745.58
739.744	49485.25
740.084	49508.08
740.424	49553.05
740.764	49405.03
741.104	49559.37
741.444	49193.96
741.784	49146.5
742.124	49138.82
742.464	49027.64
742.804	48890.69
743.143	48706.06
743.483	48797.81
743.823	48608.21
744.162	48525.73
744.502	48554.66
744.841	48241.44
745.181	48574.09
745.52	48200.77
745.86	48349.46
746.199	48076.02
746.538	47964.16
746.877	47990.38
747.216	48051.62
747.556	47780.21
747.895	47798.29
748.234	47702.7
748.573	47520.11
748.911	47545.42
749.25	47521.69
749.589	47401.24
749.928	47429.94
750.267	47449.37
750.605	47318.53
750.944	47220.91
751.283	46984.75
751.621	47202.6
751.96	46928.71
752.298	46953.34
752.636	46903.85
752.975	46667.02
753.313	46699.56
753.651	46933.23
753.989	46603.52
754.327	46533.92
754.666	46352
755.004	46390.87
755.342	46433.81
755.679	46381.38
756.017	46007.83
756.355	46146.13
756.693	46008.28
757.031	45980.03
757.368	45640.83
757.706	45694.84
758.044	45539.82
758.381	45426.15
758.719	45270.9
759.056	45284.23
759.394	45288.3
759.731	44967.86
760.068	44983
760.405	44663.46
760.743	44641.09
761.08	44698.26
761.417	44284.94
761.754	44400.64
762.091	44165.39
762.428	44056.24
762.765	43899.86
763.102	43862.12
763.438	43663.03
763.775	43431.63
764.112	43520.66
764.449	43463.72
764.785	43143.5
765.122	43003.62
765.458	42851.53
765.795	42645.88
766.131	42626.9
766.467	42355.95
766.804	42237.31
767.14	41957.77
767.476	41865.57
767.812	41644.1
768.148	41718.45
768.485	41501.51
768.821	41227.84
769.157	41013.38
769.492	40874.18
769.828	40756.22
770.164	40639.16
770.5	40470.12
770.836	40363.46
771.171	40184.03
771.507	40100.19
771.842	39680.54
772.178	39815
772.513	39673.76
772.849	39507.21
773.184	39176.6
773.519	39231.96
773.855	38989.26
774.19	38802.37
774.525	38652.99
774.86	38687.12
775.195	38387.69
775.53	38458.65
775.865	38119.68
776.2	37931.43
776.535	37835.16
776.87	37805.33
777.205	37652.34
777.539	37582.06
777.874	37553.14
778.209	37413.03
778.543	37328.06
778.878	37007.39
779.212	37077.22
779.547	36994.28
779.881	36977.11
780.215	36756.1
780.55	36795.87
780.884	36492.15
781.218	36376.67
781.552	36420.96
781.886	36152.04
782.22	36037.92
782.554	36082.22
782.888	35691.94
783.222	35665.95
783.556	35471.61
783.889	35398.39
784.223	35176.93
784.557	35164.73
784.89	35292.41
785.224	35024.39
785.557	34912.98
785.891	34729.71
786.224	34693.33
786.558	34545.76
786.891	34199.78
787.224	34174.24
787.557	33941.71
787.891	33974.02
788.224	33856.06
788.557	33810.18
788.89	33653.8
789.223	33609.96
789.556	33250.65
789.888	33085.68
790.221	33195.29
790.554	32934.05
790.887	32841.85
791.219	32683.89
791.552	32745.58
791.884	32578.35
792.217	32436.66
792.549	32155.54
792.882	31970.91
793.214	31841.2
793.546	31873.96
793.879	31666.06
794.211	31497.48
794.543	31520.53
794.875	31347.42
795.207	31376.8
795.539	31099.07
795.871	31064.72
796.203	30742.69
796.535	30583.6
796.867	30612.75
797.198	30438.75
797.53	30426.77
797.862	30158.3
798.193	30217.51
798.525	30022.71
798.856	30028.36
799.188	29693
799.519	29586.34
799.85	29300.02
800.182	29483.29
800.513	29415.27
800.844	29135.28
801.175	29325.78
801.506	29137.31
801.837	29020.93
802.168	28978.9
802.499	28808.51
802.83	28774.38
803.161	28617.1
803.491	28641.28
803.822	28498.69
804.153	28272.93
804.483	28135.31
804.814	28043.78
805.145	27968.53
805.475	28081.97
805.805	27796.56
806.136	28010.56
806.466	28028.64
806.796	27837.46
807.126	27718.59
807.457	27729.67
807.787	27720.85
808.117	27541.42
808.447	27514.76
808.777	27575.09
809.107	27477.02
809.436	27387.75
809.766	27294.2
810.096	27263.46
810.426	27263.92
810.755	27180.08
811.085	27074.32
811.414	27141.43
811.744	26999.06
812.073	26938.95
812.403	26877.49
812.732	26616.02
813.061	26686.53
813.39	26545.06
813.719	26399.08
814.049	26571.96
814.378	26453.77
814.707	26401.57
815.036	26409.02
815.365	26148.24
815.693	26001.12
816.022	26060.78
816.351	26029.15
816.68	25751.87
817.008	25878.64
817.337	25806.78
817.665	25613.56
817.994	25701.92
818.322	25724.97
818.651	25541.7
818.979	25454.7
819.307	25506.67
819.636	25340.58
819.964	25208.83
820.292	25276.17
820.62	25249.51
820.948	25075.27
821.276	25230.52
821.604	25104.2
821.932	25178.1
822.259	25167.25
822.587	25129.51
822.915	25080.7
823.243	25108.49
823.57	24931.77
823.898	25006.8
824.225	24930.64
824.553	24762.51
824.88	24888.61
825.207	24964.54
825.535	24918.89
825.862	24863.3
826.189	24846.58
826.516	24854.26
826.843	24833.02
827.17	24826.24
827.497	24652.69
827.824	24742.4
828.151	24774.94
828.478	24696.07
828.805	24694.04
829.131	24655.17
829.458	24709.63
829.785	24501.73
830.111	24496.98
830.438	24644.1
830.764	24517.77
831.09	24515.97
831.417	24462.63
831.743	24529.98
832.069	24475.29
832.395	24416.31
832.722	24505.8
833.048	24294.73
833.374	24468.28
833.7	24364.78
834.026	24259.02
834.351	24371.56
834.677	24285.69
835.003	24316.2
835.329	24168.86
835.654	24179.48
835.98	24195.75
836.306	24209.31
836.631	24141.06
836.956	24218.12
837.282	24237.33
837.607	24174.96
837.932	24185.58
838.258	24134.28
838.583	24138.57
838.908	23905.13
839.233	24106.71
839.558	23928.41
839.883	23973.61
840.208	23908.52
840.533	23930.9
840.858	23880.28
841.182	23941.74
841.507	23999.14
841.832	23894.29
842.156	23766.15
842.481	23843.89
842.805	23744.69
843.13	23681.64
843.454	23714.63
843.778	23638.02
844.103	23570
844.427	23483
844.751	23508.31
845.075	23379.95
845.399	23427.41
845.723	23335.43
846.047	23290.69
846.371	23196.45
846.695	23188.32
847.019	23066.06
847.343	22859.96
847.666	22754.2
847.99	22660.2
848.313	22718.05
848.637	22546.53
848.96	22466.98
849.284	22470.37
849.607	22226.76
849.931	22208.91
850.254	22022.25
850.577	21883.94
850.9	21783.16
851.223	21867.22
851.546	21725.98
851.869	21633.1
852.192	21650.5
852.515	21350.17
852.838	21375.71
853.161	21460.23
853.483	21273.79
853.806	21062.95
854.129	21076.73
854.451	20975.27
854.774	20831.99
855.096	20694.82
855.419	20777.08
855.741	20745.67
856.063	20593.81
856.385	20564.21
856.708	20484.89
857.03	20366.24
857.352	20368.28
857.674	20300.03
857.996	20185.91
858.318	20076.53
858.64	20107.49
858.961	19991.56
859.283	19911.79
859.605	19828.18
859.926	19797.45
860.248	19700.05
860.57	19705.92
860.891	19670.22
861.212	19525.81
861.534	19450.79
861.855	19351.58
862.176	19493.05
862.498	19333.28
862.819	19258.93
863.14	19233.39
863.461	19223.68
863.782	19189.78
864.103	19231.58
864.424	19080.18
864.745	19037.92
865.065	18997.69
865.386	18910.24
865.707	18942.55
866.027	18943.46
866.348	18860.97
866.668	18894.64
866.989	18776
867.309	18659.85
867.63	18672.5
867.95	18685.61
868.27	18681.99
868.59	18610.58
868.91	18733.74
869.23	18661.2
869.55	18668.21
869.87	18679.51
870.19	18542.34
870.51	18554.54
870.83	18553.86
871.15	18522.22
871.469	18441.1
871.789	18570.59
872.109	18515.67
872.428	18531.72
872.748	18501.89
873.067	18471.6
873.386	18541.66
873.706	18454.88
874.025	18378.73
874.344	18439.97
874.663	18498.95
874.982	18458.05
875.301	18428.22
875.62	18375.34
875.939	18277.49
876.258	18325.62
876.577	18254.44
876.896	18272.74
877.214	18280.42
877.533	18288.78
877.852	18226.19
878.17	18262.57
878.489	18227.54
878.807	18276.36
879.125	18227.77
879.444	18289.24
879.762	18219.86
880.08	18177.6
880.398	18100.09
880.716	18081.56
881.034	18020.32
881.352	18093.76
881.67	17988.23
881.988	18093.54
882.306	18032.75
882.624	17964.27
882.941	17844.5
883.259	17805.41
883.577	17830.94
883.894	17667.33
884.212	17794.56
884.529	17656.26
884.846	17656.71
885.164	17624.4
885.481	17490.61
885.798	17579.42
886.115	17450.61
886.432	17522.7
886.75	17559.54
887.067	17470.05
887.383	17416.94
887.7	17413.1
888.017	17330.84
888.334	17249.04
888.651	17183.73
888.967	17077.74
889.284	17080.91
889.6	16960.23
889.917	16890.18
890.233	16868.03
890.55	16808.82
890.866	16830.52
891.182	16739.22
891.498	16709.17
891.815	16604.31
892.131	16606.12
892.447	16541.94
892.763	16466.69
893.079	16415.84
893.395	16388.5
893.71	16276.86
894.026	16206.81
894.342	16206.81
894.657	16058.11
894.973	16021.5
895.289	15933.14
895.604	15882.97
895.92	15845.69
896.235	15696.99
896.55	15748.74
896.865	15694.28
897.181	15619.7
897.496	15610.66
897.811	15483.66
898.126	15451.57
898.441	15322.08
898.756	15279.15
899.071	15285.47
899.386	15214.29
899.7	15200.05
900.015	15054.29
900.33	15014.75
900.644	15096.78
900.959	14997.12
901.273	14910.12
901.588	14769.1
901.902	14653.85
902.216	14751.7
902.531	14674.42
902.845	14612.72
903.159	14523.46
903.473	14408.43
903.787	14516.45
904.101	14367.76
904.415	14384.25
904.729	14353.75
905.042	14240.3
905.356	14200.76
905.67	14177.71
905.984	14179.51
906.297	14200.76
906.611	13993.53
906.924	13934.55
907.237	13945.85
907.551	13920.09
907.864	13935
908.177	13819.75
908.491	13750.37
908.804	13762.35
909.117	13622.69
909.43	13639.42
909.743	13516.71
910.056	13558.29
910.368	13437.39
910.681	13448.01
910.994	13339.31
911.307	13396.26
911.619	13266.77
911.932	13371.63
912.244	13242.36
912.557	13282.36
912.869	13195.59
913.181	13088.24
913.494	13071.75
913.806	12983.39
914.118	12974.8
914.43	12868.36
914.742	12953.56
915.054	12872.66
915.366	12816.84
915.678	12833.79
915.99	12794.92
916.302	12725.54
916.613	12669.95
916.925	12711.53
917.236	12592.44
917.548	12578.43
917.859	12583.62
918.171	12459.11
918.482	12401.26
918.794	12336.4
919.105	12352.22
919.416	12259.56
919.727	12230.64
920.038	12202.39
920.349	12157.65
920.66	12062.96
920.971	12062.28
921.282	12027.93
921.593	11954.26
921.903	11937.54
922.214	11871.1
922.525	11836.75
922.835	11774.38
923.146	11671.33
923.456	11660.71
923.767	11598.79
924.077	11584.33
924.387	11475.86
924.697	11490.09
925.008	11385.69
925.318	11335.52
925.628	11345.92
925.938	11292.36
926.248	11144.57
926.558	11156.09
926.867	11172.14
927.177	11004.91
927.487	10929.66
927.796	10855.53
928.106	10909.32
928.416	10818.7
928.725	10844.23
929.034	10724.01
929.344	10736.67
929.653	10666.61
929.962	10601.98
930.271	10550.68
930.581	10407.86
930.89	10431.36
931.199	10281.54
931.508	10317.47
931.817	10289.45
932.125	10234.31
932.434	10135.1
932.743	10101.88
933.051	10071.15
933.36	10009
933.669	9960.64
933.977	9967.87
934.286	9883.36
934.594	9801.32
934.902	9774.66
935.21	9721.33
935.519	9741.89
935.827	9668.67
936.135	9536.47
936.443	9499.64
936.751	9452.63
937.059	9470.94
937.367	9408.11
937.674	9384.61
937.982	9328.12
938.29	9298.96
938.597	9286.76
938.905	9197.5
939.213	9165.86
939.52	9112.75
939.827	9138.52
940.135	9102.81
940.442	9061
940.749	8956.15
941.056	8948.69
941.363	8826.89
941.67	8882.48
941.977	8797.96
942.284	8728.81
942.591	8681.35
942.898	8667.12
943.205	8634.12
943.511	8599.77
943.818	8627.8
944.125	8567.91
944.431	8444.98
944.738	8465.99
945.044	8410.63
945.35	8403.85
945.657	8382.38
945.963	8296.73
946.269	8170.86
946.575	8297.18
946.881	8200.91
947.187	8188.26
947.493	8152.55
947.799	8155.94
948.105	8148.26
948.41	8091.31
948.716	8134.48
949.022	7992.78
949.327	7967.93
949.633	7921.6
949.938	7968.15
950.244	7917.98
950.549	7868.95
950.854	7789.63
951.16	7778.78
951.465	7770.87
951.77	7774.94
952.075	7766.8
952.38	7740.14
952.685	7678.22
952.99	7706.92
953.294	7608.39
953.599	7489.75
953.904	7569.07
954.209	7515.06
954.513	7555.51
954.818	7545.11
955.122	7453.36
955.426	7400.48
955.731	7361.39
956.035	7336.98
956.339	7270.09
956.643	7367.49
956.948	7208.4
957.252	7224.22
957.556	7274.61
957.86	7204.1
958.163	7212.24
958.467	7158.23
958.771	7141.51
959.075	7130.89
959.378	7029.65
959.682	7105.35
959.985	7001.4
960.289	6951.46
960.592	6866.49
960.896	6866.26
961.199	6887.05
961.502	6801.4
961.805	6789.88
962.108	6775.64
962.411	6716.66
962.714	6753.27
963.017	6687.73
963.32	6703.1
963.623	6625.81
963.926	6629.43
964.228	6606.38
964.531	6563.9
964.833	6538.13
965.136	6482.99
965.438	6484.8
965.741	6409.55
966.043	6355.99
966.345	6367.97
966.648	6334.3
966.95	6406.39
967.252	6263.34
967.554	6220.63
967.856	6195.54
968.158	6170.01
968.46	6172.72
968.761	6105.15
969.063	6078.48
969.365	6051.14
969.666	6046.39
969.968	5984.25
970.269	5959.84
970.571	5969.79
970.872	5921.43
971.174	5887.98
971.475	5860.41
971.776	5839.62
972.077	5784.03
972.378	5742.22
972.679	5703.13
972.98	5725.05
973.281	5702.45
973.582	5700.64
973.883	5655.9
974.183	5638.72
974.484	5574.99
974.785	5573.64
975.085	5528.67
975.386	5568.89
975.686	5441.66
975.986	5428.78
976.287	5384.04
976.587	5381.55
976.887	5386.75
977.187	5324.61
977.487	5318.05
977.787	5262.91
978.087	5226.76
978.387	5243.93
978.687	5233.99
978.987	5164.16
979.286	5182.46
979.586	5138.85
979.885	5072.63
980.185	5081.9
980.484	5065.4
980.784	5032.41
981.083	4985.86
981.382	4984.5
981.682	4996.03
981.981	4923.26
982.28	4879.65
982.579	4848.01
982.878	4818.18
983.177	4810.49
983.475	4828.57
983.774	4739.76
984.073	4740.67
984.372	4654.57
984.67	4718.97
984.969	4714.68
985.267	4704.28
985.566	4618.64
985.864	4645.08
986.162	4609.14
986.461	4577.96
986.759	4587
987.057	4517.85
987.355	4542.03
987.653	4537.73
987.951	4476.94
988.249	4420.22
988.547	4447.34
988.844	4405.08
989.142	4362.82
989.44	4419.32
989.737	4363.05
990.035	4325.99
990.332	4314.91
990.63	4281.92
990.927	4272.66
991.224	4256.39
991.521	4253.45
991.819	4221.13
992.116	4191.3
992.413	4184.97
992.71	4190.62
993.006	4155.6
993.303	4118.76
993.6	4107.24
993.897	4085.32
994.193	4089.61
994.49	4069.5
994.787	4042.83
995.083	4028.59
995.379	4047.13
995.676	3976.62
995.972	3987.01
996.268	3974.36
996.565	3935.72
996.861	3952.66
997.157	3908.6
997.453	3902.04
997.749	3907.24
998.044	3850.97
998.34	3850.52
998.636	3803.52
998.932	3826.79
999.227	3761.26
999.523	3768.26
999.818	3726.46
1000.114	3759
1000.409	3691.65
1000.704	3679.9
1001	3681.71
1001.295	3612.33
1001.59	3641.71
1001.885	3629.74
1002.18	3568.72
1002.475	3596.52
1002.77	3517.42
1003.065	3497.31
1003.359	3512.9
1003.654	3511.32
1003.949	3499.12
1004.243	3457.08
1004.538	3410.98
1004.832	3459.12
1005.127	3387.93
1005.421	3387.93
1005.715	3363.98
1006.009	3366.01
1006.304	3313.59
1006.598	3262.51
1006.892	3252.34
1007.186	3267.48
1007.48	3252.57
1007.773	3227.49
1008.067	3168.28
1008.361	3173.93
1008.655	3202.63
1008.948	3164.44
1009.242	3155.62
1009.535	3111.1
1009.829	3058.22
1010.122	3083.76
1010.415	3024.78
1010.708	3007.38
1011.001	3008.51
1011.295	3009.19
1011.588	2977.77
1011.881	2945.23
1012.173	2917.44
1012.466	2922.41
1012.759	2906.14
1013.052	2909.75
1013.344	2834.28
1013.637	2831.79
1013.93	2806.03
1014.222	2782.98
1014.514	2743.43
1014.807	2757.67
1015.099	2787.05
1015.391	2717.22
1015.683	2719.48
1015.976	2681.51
1016.268	2662.3
1016.56	2672.7
1016.851	2627.5
1017.143	2596.54
1017.435	2610.55
1017.727	2571.23
1018.018	2567.62
1018.31	2551.12
1018.602	2524.91
1018.893	2498.47
1019.185	2472.7
1019.476	2447.62
1019.767	2429.54
1020.058	2386.83
1020.35	2408.52
1020.641	2371.46
1020.932	2351.12
1021.223	2350.45
1021.514	2326.04
1021.804	2303.89
1022.095	2274.29
1022.386	2291.47
1022.677	2251.24
1022.967	2245.82
1023.258	2219.15
1023.548	2214.18
1023.839	2197.91
1024.129	2186.16
1024.419	2158.81
1024.709	2140.51
1025	2143.22
1025.29	2123.11
1025.58	2120.17
1025.87	2098.7
1026.16	2071.81
1026.449	2056.22
1026.739	1994.07
1027.029	2017.57
1027.319	1994.75
1027.608	2000.4
1027.898	1963.79
1028.187	1968.31
1028.477	1924.02
1028.766	1910.46
1029.055	1917.69
1029.344	1914.3
1029.634	1891.7
1029.923	1874.08
1030.212	1873.62
1030.501	1847.86
1030.79	1830.46
1031.078	1809.44
1031.367	1806.73
1031.656	1777.81
1031.945	1791.37
1032.233	1763.57
1032.522	1767.19
1032.81	1732.38
1033.099	1695.32
1033.387	1691.93
1033.675	1696.45
1033.963	1673.85
1034.251	1653.52
1034.54	1638.83
1034.828	1618.71
1035.116	1634.08
1035.403	1599.73
1035.691	1591.82
1035.979	1616.68
1036.267	1595.89
1036.554	1585.72
1036.842	1577.13
1037.129	1574.65
1037.417	1553.63
1037.704	1542.33
1037.992	1536.68
1038.279	1489.45
1038.566	1482.9
1038.853	1482.9
1039.14	1482.9
