Data from aluminium_macbook_case_FLMS001491_078.txt Node
Date: Tue Feb 07 10:44:12 GMT 2017
User: dcchb
Spectrometer: FLMS00149
Trigger mode: 0
Integration Time (sec): 2.000000E-2
Scans to average: 10
Electric dark correction enabled: true
Nonlinearity correction enabled: false
Boxcar width: 0
XAxis mode: Wavelengths
Number of Pixels in Spectrum: 2048
>>>>>Begin Spectral Data<<<<<
341.393	-11.62
341.776	-11.62
342.16	-11.62
342.543	-82.81
342.927	-59.31
343.31	-85.07
343.693	-52.3
344.077	-56.37
344.46	-78.74
344.843	-58.18
345.226	-44.17
345.61	-24.28
345.993	-8.91
346.376	-15.92
346.759	19.56
347.142	25.89
347.525	41.26
347.908	48.94
348.291	87.81
348.674	91.88
349.057	108.6
349.44	118.09
349.823	139.78
350.206	172.55
350.588	235.83
350.971	255.04
351.354	280.57
351.737	285.09
352.119	291.19
352.502	319.67
352.884	334.36
353.267	343.85
353.65	334.36
354.032	361.7
354.414	355.15
354.797	372.55
355.179	360.12
355.562	384.98
355.944	391.08
356.326	398.99
356.709	417.07
357.091	384.52
357.473	422.94
357.855	412.09
358.238	414.81
358.62	429.49
359.002	421.81
359.384	426.1
359.766	429.72
360.148	413.45
360.53	442.83
360.912	438.53
361.294	436.05
361.676	405.09
362.057	422.71
362.439	436.27
362.821	423.84
363.203	409.61
363.584	445.31
363.966	428.82
364.348	430.17
364.729	425.2
365.111	441.47
365.493	447.12
365.874	419.33
366.256	435.14
366.637	440.12
367.019	437.18
367.4	445.77
367.781	438.31
368.163	444.86
368.544	469.27
368.925	429.72
369.306	438.99
369.688	441.47
370.069	458.42
370.45	445.09
370.831	454.8
371.212	457.52
371.593	455.48
371.974	465.43
372.355	465.88
372.736	487.35
373.117	469.27
373.498	460.91
373.879	453.45
374.26	469.04
374.641	467.69
375.021	486.44
375.402	489.61
375.783	510.4
376.163	547.68
376.544	552.65
376.925	511.53
377.305	523.73
377.686	517.4
378.066	559.66
378.447	517.63
378.827	534.35
379.208	547.46
379.588	559.43
379.968	553.56
380.349	581.81
380.729	565.54
381.109	577.29
381.489	590.85
381.87	588.36
382.25	600.11
382.63	601.24
383.01	622.71
383.39	605.99
383.77	604.86
384.15	617.96
384.53	642.82
384.91	670.84
385.29	629.72
385.67	652.99
386.049	656.16
386.429	671.75
386.809	684.85
387.189	687.57
387.568	696.83
387.948	707
388.328	711.07
388.707	718.98
389.087	711.52
389.466	744.97
389.846	725.76
390.225	732.76
390.605	768.92
390.984	763.72
391.363	810.28
391.743	779.99
392.122	805.76
392.501	819.99
392.881	823.61
393.26	834.23
393.639	843.72
394.018	852.53
394.397	853.89
394.776	861.35
395.155	866.55
395.534	869.71
395.913	877.84
396.292	895.7
396.671	918.75
397.05	916.94
397.429	910.16
397.808	922.36
398.186	941.8
398.565	957.16
398.944	961.68
399.323	994.68
399.701	985.41
400.08	986.77
400.458	1021.8
400.837	1036.94
401.215	1032.42
401.594	1054.34
401.972	1057.27
402.351	1085.52
402.729	1083.04
403.107	1099.08
403.486	1104.05
403.864	1098.18
404.242	1134.11
404.62	1138.18
404.999	1157.61
405.377	1181.11
405.755	1197.16
406.133	1232.41
406.511	1250.49
406.889	1229.25
407.267	1261.79
407.645	1283.48
408.023	1284.16
408.401	1332.52
408.779	1329.58
409.156	1361.22
409.534	1373.42
409.912	1406.87
410.29	1415.46
410.667	1430.6
411.045	1451.39
411.422	1475.79
411.8	1498.17
412.178	1506.53
412.555	1542.69
412.933	1558.05
413.31	1582.91
413.687	1631.5
414.065	1630.37
414.442	1629.01
414.819	1652.97
415.197	1674.43
415.574	1723.7
415.951	1727.31
416.328	1783.58
416.705	1767.31
417.082	1803.24
417.46	1821.1
417.837	1839.17
418.214	1861.55
418.591	1852.96
418.967	1875.78
419.344	1897.03
419.721	1941.77
420.098	1945.39
420.475	1962.34
420.852	1995.33
421.228	1983.8
421.605	2025.61
421.982	2075.1
422.358	2105.61
422.735	2123.24
423.111	2118.94
423.488	2160.52
423.864	2166.4
424.241	2198.94
424.617	2235.55
424.994	2249.56
425.37	2265.6
425.746	2286.39
426.123	2327.07
426.499	2332.5
426.875	2382.44
427.251	2448.65
427.627	2480.97
428.003	2473.28
428.379	2509.21
428.756	2594.86
429.132	2595.77
429.507	2649.77
429.883	2652.49
430.259	2747.63
430.635	2746.27
431.011	2771.81
431.387	2838.7
431.763	2890.45
432.138	2904.91
432.514	2981.97
432.89	2972.48
433.265	3090.44
433.641	3106.03
434.016	3129.99
434.392	3134.06
434.767	3262.19
435.143	3238.91
435.518	3302.87
435.894	3345.58
436.269	3375.63
436.644	3412.24
437.02	3416.76
437.395	3483.65
437.77	3530.66
438.145	3581.95
438.52	3649.52
438.895	3646.13
439.271	3661.73
439.646	3761.84
440.021	3775.62
440.395	3853.13
440.77	3816.3
441.145	3838.67
441.52	3911.89
441.895	3937.2
442.27	3976.07
442.645	3935.84
443.019	4053.35
443.394	4053.58
443.769	4048.38
444.143	4086.8
444.518	4174.03
444.892	4160.7
445.267	4217.87
445.641	4254.7
446.016	4214.93
446.39	4325.44
446.764	4313.91
447.139	4306.45
447.513	4392.78
447.887	4438.43
448.262	4425.77
448.636	4533.79
449.01	4606.56
449.384	4637.75
449.758	4646.11
450.132	4727.23
450.506	4743.28
450.88	4793.9
451.254	4776.27
451.628	4854.69
452.002	4898.76
452.376	4961.58
452.75	5052.2
453.123	5086.55
453.497	5139.65
453.871	5185.08
454.244	5314.56
454.618	5344.85
454.992	5405.86
455.365	5416.48
455.739	5587.55
456.112	5602.69
456.486	5656.7
456.859	5759.3
457.232	5892.18
457.606	5843.36
457.979	5918.62
458.352	6066.63
458.725	6164.03
459.099	6219.4
459.472	6327.64
459.845	6367.42
460.218	6453.06
460.591	6515.44
460.964	6525.38
461.337	6746.16
461.71	6806.95
462.083	6894.18
462.456	6929.21
462.829	6949.77
463.201	7105.03
463.574	7128.53
463.947	7211.01
464.32	7416.43
464.692	7385.7
465.065	7497.56
465.438	7567.84
465.81	7728.51
466.183	7796.08
466.555	8011.44
466.928	8099.35
467.3	8108.84
467.672	8176.18
468.045	8517.19
468.417	8496.85
468.789	8537.76
469.161	8650.3
469.534	8881.25
469.906	8981.36
470.278	9058.65
470.65	9220.9
471.022	9328.92
471.394	9510.84
471.766	9654.34
472.138	9730.27
472.51	9948.57
472.882	10110.37
473.253	10221.55
473.625	10361.21
473.997	10580.19
474.369	10624.48
474.74	10780.41
475.112	11033.51
475.484	11242.54
475.855	11447.51
476.227	11545.59
476.598	11937.89
476.97	12068.74
477.341	12233.48
477.713	12468.5
478.084	12573.81
478.455	12997.75
478.827	13078.2
479.198	13444.07
479.569	13468.25
479.94	13800.22
480.311	13969.7
480.682	14304.38
481.053	14571.72
481.424	14744.37
481.795	14950.47
482.166	15171.71
482.537	15371.02
482.908	15787.73
483.279	15861.18
483.65	16131.23
484.021	16563.99
484.391	16661.61
484.762	16734.15
485.133	16999
485.503	17250.52
485.874	17630.62
486.244	17843.27
486.615	18216.82
486.985	18447.33
487.356	18818.62
487.726	18949.01
488.097	19387.19
488.467	19341.77
488.837	19913.5
489.207	20029.66
489.578	20445.47
489.948	20682.52
490.318	20849.3
490.688	21017.88
491.058	21205.9
491.428	21614.47
491.798	21809.95
492.168	22294.68
492.538	22245.64
492.908	22618.52
493.278	22888.56
493.648	22923.14
494.017	23229.35
494.387	23398.61
494.757	23556.8
495.126	24010.12
495.496	23887.18
495.866	24229.32
496.235	24451.91
496.605	24676.99
496.974	24896.42
497.344	25039.02
497.713	25287.37
498.082	25452.57
498.452	25844.87
498.821	25902.72
499.19	26117.18
499.559	26396.95
499.928	26503.39
500.298	26748.58
500.667	26976.14
501.036	27017.5
501.405	27242.12
501.774	27349.24
502.143	27622.45
502.512	27765.72
502.88	28044.81
503.249	28145.38
503.618	28308.31
503.987	28334.52
504.356	28595.99
504.724	28732.48
505.093	28785.58
505.462	29078.46
505.83	29216.08
506.199	29529.75
506.567	29962.5
506.936	29847.48
507.304	30294.92
507.672	30471.64
508.041	30658.53
508.409	30909.82
508.777	31095.35
509.145	31388.68
509.514	31453.09
509.882	31657.6
510.25	31746.64
510.618	32112.73
510.986	32349.78
511.354	32670.68
511.722	32994.51
512.09	33122.19
512.458	33272.25
512.826	33515.18
513.193	33757.66
513.561	33768.73
513.929	34148.16
514.297	34414.14
514.664	34656.62
515.032	34760.57
515.4	35064.74
515.767	35255.25
516.135	35467.22
516.502	35278.75
516.869	36066.3
517.237	36112.17
517.604	36067.2
517.972	36490.24
518.339	36855.88
518.706	36880.51
519.073	37093.84
519.44	37358.69
519.808	37670.32
520.175	37840.71
520.542	38476.18
520.909	38589.17
521.276	38629.39
521.643	39159.32
522.009	39437.28
522.376	39630.27
522.743	40018.51
523.11	40361.78
523.477	40864.14
523.843	40986.62
524.21	41341.41
524.577	41621.63
524.943	41903.66
525.31	42199.92
525.676	42519.24
526.043	42696.18
526.409	42876.29
526.776	43219.78
527.142	43464.3
527.508	43679.43
527.874	44004.85
528.241	44255.23
528.607	44402.58
528.973	44757.59
529.339	44793.3
529.705	45173.18
530.071	45475.54
530.437	45607.06
530.803	46089.08
531.169	46224.9
531.535	46135.64
531.901	46412.24
532.267	46590.54
532.632	46921.15
532.998	47016.97
533.364	47169.06
533.73	47387.13
534.095	47705.09
534.461	47889.49
534.826	48112.99
535.192	48226.2
535.557	48625.52
535.923	48595.69
536.288	48738.96
536.653	49039.52
537.019	48891.95
537.384	49182.56
537.749	49325.61
538.114	49391.82
538.479	49436.57
538.845	49631.82
539.21	49736.45
539.575	49827.97
539.94	50065.48
540.305	50250.78
540.67	50187.06
541.034	50353.83
541.399	50459.59
541.764	50496.2
542.129	50701.17
542.494	50799.47
542.858	50974.83
543.223	51025
543.587	51219.57
543.952	51215.73
544.316	51321.72
544.681	51350.87
545.045	51475.38
545.41	51687.36
545.774	51782.04
546.138	51819.1
546.503	52034.69
546.867	52084.63
547.231	52369.82
547.595	52348.81
547.959	52569.59
548.324	52606.43
548.688	52659.08
549.052	52864.95
549.416	52906.98
549.779	53038.51
550.143	53191.04
550.507	53289.35
550.871	53477.82
551.235	53392.17
551.599	53669.68
551.962	53711.03
552.326	53769.56
552.689	53939.05
553.053	53831.93
553.417	54040.51
553.78	54430.11
554.143	54332.71
554.507	54396.44
554.87	54555.53
555.234	54758.01
555.597	54632.59
555.96	54742.87
556.323	54881.85
556.686	54933.37
557.05	55118.68
557.413	55160.48
557.776	55252.01
558.139	55490.65
558.502	55522.96
558.865	55607.48
559.228	55826.23
559.59	55882.05
559.953	55950.07
560.316	56237.97
560.679	56235.26
561.041	56455.14
561.404	56611.52
561.767	56683.83
562.129	56682.25
562.492	57058.97
562.854	57022.36
563.217	57050.6
563.579	57186.42
563.941	57265.97
564.304	57390.03
564.666	57477.03
565.028	57654.2
565.39	57684.03
565.753	57788.21
566.115	57909.79
566.477	58072.5
566.839	58190.69
567.201	58257.13
567.563	58305.03
567.925	58507.29
568.287	58490.11
568.648	58526.95
569.01	58659.38
569.372	58791.8
569.734	58722.65
570.095	58849.65
570.457	58974.17
570.819	59071.34
571.18	59120.15
571.542	59184.79
571.903	59255.29
572.265	59390.88
572.626	59360.15
572.987	59443.76
573.349	59535.28
573.71	59603.98
574.071	59698.44
574.432	59742.74
574.794	59934.37
575.155	59911.32
575.516	59852.56
575.877	59976.4
576.238	59994.93
576.599	60080.58
576.96	60097.08
577.32	60142.73
577.681	60264.08
578.042	60339.56
578.403	60351.08
578.763	60426.11
579.124	60442.83
579.485	60500.91
579.845	60533.9
580.206	60468.82
580.566	60533.45
580.927	60544.3
581.287	60669.72
581.648	60487.58
582.008	60662.94
582.368	60586.78
582.728	60608.93
583.089	60587.23
583.449	60615.71
583.809	60618.87
584.169	60688.47
584.529	60598.76
584.889	60773.44
585.249	60584.52
585.609	60589.95
585.969	60725.31
586.329	60620.68
586.688	60680.11
587.048	60644.41
587.408	60578.42
587.768	60591.53
588.127	60590.62
588.487	60640.11
588.846	60813.22
589.206	60652.54
589.565	60649.83
589.925	60796.27
590.284	60720.34
590.643	60810.28
591.003	60865.87
591.362	60894.12
591.721	60843.95
592.08	60823.61
592.44	60898.41
592.799	60864.29
593.158	60853.44
593.517	60834.69
593.876	60925.08
594.235	60933.44
594.593	60930.95
594.952	60994.91
595.311	60907.9
595.67	60923.95
596.029	61066.32
596.387	61030.39
596.746	61003.72
597.104	60900.9
597.463	60909.71
597.822	61034
598.18	60948.81
598.538	60984.06
598.897	60960.56
599.255	60827.45
599.613	61161.46
599.972	61033.55
600.33	61072.87
600.688	60954.23
601.046	61114.23
601.404	61119.2
601.762	61096.83
602.12	61135.92
602.478	61157.62
602.836	61189.48
603.194	61090.5
603.552	61101.8
603.91	61048.69
604.268	61215.01
604.625	61148.8
604.983	61280.55
605.341	61188.8
605.698	61293.66
606.056	61333.88
606.413	61343.6
606.771	61390.15
607.128	61483.26
607.485	61384.73
607.843	61459.75
608.2	61533.2
608.557	61626.98
608.914	61554.21
609.272	61704.72
609.629	61685.28
609.986	61762.8
610.343	61628.56
610.7	61795.79
611.057	61759.86
611.414	61754.89
611.771	61805.96
612.127	61878.73
612.484	61809.35
612.841	61883.47
613.198	61770.48
613.554	61830.37
613.911	61918.27
614.267	61920.76
614.624	61890.93
614.98	61980.87
615.337	61989.68
615.693	62015.45
616.05	61856.58
616.406	62021.77
616.762	61958.5
617.118	62001.21
617.475	61963.92
617.831	62020.64
618.187	62043.69
618.543	62044.15
618.899	62106.97
619.255	62052.28
619.611	62034.65
619.967	62137.02
620.323	62200.98
620.678	62121.43
621.034	62004.82
621.39	62044.15
621.746	62006.86
622.101	62274.65
622.457	62079.62
622.812	62166.63
623.168	62167.53
623.523	62163.46
623.879	62278.04
624.234	62130.7
624.589	62250.02
624.945	62275.33
625.3	62304.7
625.655	62256.57
626.01	62271.26
626.365	62283.24
626.72	62278.04
627.075	62268.09
627.43	62286.17
627.785	62169.79
628.14	62222.9
628.495	62288.88
628.85	62170.7
629.205	62101.77
629.559	62205.95
629.914	62142.9
630.269	62105.16
630.623	62058.16
630.978	61994.2
631.332	62104.26
631.687	62102.45
632.041	61999.4
632.396	61989.46
632.75	61903.36
633.104	61860.42
633.459	61770.71
633.813	61806.19
634.167	61768.9
634.521	61706.53
634.875	61742.46
635.229	61659.97
635.583	61600.77
635.937	61563.03
636.291	61504.27
636.645	61524.61
636.999	61469.92
637.352	61452.97
637.706	61374.78
638.06	61494.56
638.413	61372.3
638.767	61366.88
639.121	61405.74
639.474	61274.67
639.828	61299.31
640.181	61269.7
640.534	61289.36
640.888	61226.54
641.241	61084.85
641.594	61152.64
641.947	61209.37
642.301	61123.27
642.654	61138.63
643.007	61142.25
643.36	61072.19
643.713	61065.87
644.066	61119.88
644.419	60956.72
644.771	60853.44
645.124	60624.52
645.477	60646.22
645.83	60431.98
646.182	60332.55
646.535	60242.61
646.888	60243.97
647.24	60161.48
647.593	60275.6
647.945	60216.17
648.298	60080.81
648.65	59973.01
649.002	59954.03
649.355	60019.34
649.707	59998.32
650.059	60033.58
650.411	60276.28
650.763	60363.29
651.115	60470.63
651.467	60420.46
651.819	60358.77
652.171	60318.54
652.523	60249.16
652.875	60340.91
653.227	60126.68
653.578	60261.14
653.93	60246
654.282	60081.03
654.633	60003.75
654.985	60067.7
655.337	60065.67
655.688	60083.07
656.039	60120.58
656.391	59856.63
656.742	59930.53
657.094	59884.88
657.445	60061.6
657.796	59941.38
658.147	59871.1
658.498	59862.51
658.849	59882.62
659.2	59895.73
659.551	59864.99
659.902	59913.13
660.253	59810.76
660.604	59909.96
660.955	59805.11
661.306	59886.01
661.656	59784.54
662.007	59805.33
662.358	59888.72
662.708	59797.88
663.059	59818.44
663.409	59714.26
663.76	59859.57
664.11	59789.74
664.461	59800.59
664.811	59849.4
665.161	59856.18
665.511	59694.6
665.862	59726.47
666.212	59751.32
666.562	59786.35
666.912	59687.15
667.262	59629.29
667.612	59641.95
667.962	59629.07
668.312	59591.33
668.662	59698.22
669.011	59556.08
669.361	59547.49
669.711	59434.5
670.06	59462.74
670.41	59349.98
670.76	59350.2
671.109	59398.57
671.459	59261.39
671.808	59261.85
672.157	59357.44
672.507	59069.31
672.856	59159.93
673.205	59196.31
673.554	59236.31
673.904	59069.08
674.253	59270.21
674.602	59137.78
674.951	58712.03
675.3	58582.99
675.649	58979.37
675.998	59036.99
676.346	59013.72
676.695	59099.14
677.044	58848.98
677.393	58848.75
677.741	58943.21
678.09	58907.73
678.438	58827.51
678.787	58880.16
679.135	58815.53
679.484	58701.86
679.832	58743.67
680.181	58636.1
680.529	58808.98
680.877	58724.91
681.225	58616.44
681.573	58785.7
681.922	58589.77
682.27	58531.24
682.618	58550.23
682.966	58438.36
683.314	58574.86
683.661	58476.1
684.009	58419.61
684.357	58288.99
684.705	58305.26
685.053	58343.68
685.4	58265.49
685.748	58114.53
686.095	58086.51
686.443	58021.2
686.79	58016.91
687.138	58007.87
687.485	58020.52
687.832	57874.99
688.18	57910.24
688.527	57762.68
688.874	57760.87
689.221	57630.25
689.568	57574.88
689.915	57502.8
690.262	57546.41
690.609	57369.24
690.956	57281.78
691.303	57245.4
691.65	57084.73
691.997	57020.1
692.344	56817.84
692.69	56798.41
693.037	56821.01
693.383	56639.32
693.73	56709.37
694.077	56530.62
694.423	56478.42
694.769	56309.38
695.116	56332.66
695.462	56250.63
695.808	56099.22
696.155	56192.55
696.501	55967.02
696.847	55975.6
697.193	55741.49
697.539	55776.06
697.885	55640.7
698.231	55581.72
698.577	55566.8
698.923	55539.68
699.269	55334.27
699.614	55231.44
699.96	55219.69
700.306	55290.88
700.651	55070.32
700.997	55082.75
701.342	55047.04
701.688	54998.91
702.033	54850.44
702.379	54808.4
702.724	54826.48
703.069	54880.72
703.415	54574.29
703.76	54571.12
704.105	54632.81
704.45	54551.91
704.795	54351.47
705.14	54291.13
705.485	54294.52
705.83	54111.25
706.175	54155.31
706.52	54010.01
706.865	53973.4
707.209	53817.24
707.554	53781.99
707.899	53885.49
708.243	53741.09
708.588	53720.97
708.932	53451.83
709.277	53442.11
709.621	53474.65
709.966	53192.17
710.31	53280.08
710.654	52946.31
710.998	53089.13
711.342	52957.15
711.687	52915.35
712.031	52758.97
712.375	52534.56
712.719	52736.14
713.063	52577.28
713.407	52613.88
713.75	52376.15
714.094	52258.64
714.438	52217.29
714.782	52225.42
715.125	51919.67
715.469	52012.77
715.812	51867.24
716.156	51742.27
716.499	51645.77
716.843	51660.24
717.186	51395.61
717.53	51595.15
717.873	51535.95
718.216	51391.54
718.559	51213.47
718.902	51128.73
719.246	51115.62
719.589	50995.4
719.932	50906.13
720.275	50826.81
720.617	50719.92
720.96	50745.01
721.303	50691.68
721.646	50713.6
721.989	50462.53
722.331	50566.93
722.674	50442.42
723.016	50514.05
723.359	50401.51
723.701	50447.16
724.044	50231.8
724.386	50099.37
724.729	50249.43
725.071	50097.57
725.413	50042.88
725.755	50045.59
726.097	49982.09
726.439	49829.55
726.782	49723.11
727.124	49898.02
727.465	49675.21
727.807	49816.9
728.149	49643.12
728.491	49630.46
728.833	49577.81
729.175	49461.2
729.516	49397.02
729.858	49315.21
730.199	49409.68
730.541	49260.53
730.882	49147.99
731.224	49232.28
731.565	48857.6
731.906	49036.58
732.248	48977.82
732.589	48804.49
732.93	48643.14
733.271	48737.6
733.612	48727.43
733.953	48652.63
734.294	48484.28
734.635	48465.52
734.976	48524.5
735.317	48187.33
735.658	48240.89
735.999	48103.5
736.339	47925.42
736.68	47982.14
737.021	47879.55
737.361	47775.82
737.702	47935.82
738.042	47711.19
738.383	47439.11
738.723	47541.48
739.063	47291.54
739.404	47419.9
739.744	47268.26
740.084	46910.08
740.424	47183.97
740.764	46910.08
741.104	47034.37
741.444	46713.7
741.784	46767.71
742.124	46749.18
742.464	46714.83
742.804	46428.06
743.143	46409.98
743.483	46426.93
743.823	46215.86
744.162	46049.09
744.502	46114.62
744.841	45886.15
745.181	46031.01
745.52	45905.36
745.86	45965.7
746.199	45837.57
746.538	45789.21
746.877	45798.7
747.216	45643.22
747.556	45577.46
747.895	45541.3
748.234	45287.98
748.573	45423.79
748.911	45275.32
749.25	45290.46
749.589	45125.49
749.928	45217.02
750.267	45094.08
750.605	45138.83
750.944	44911.26
751.283	44901.55
751.621	44924.14
751.96	44558.73
752.298	44684.15
752.636	44731.83
752.975	44487.32
753.313	44189.02
753.651	44486.87
753.989	44221.11
754.327	44168.01
754.666	43937.73
755.004	43934.34
755.342	43944.28
755.679	43812.99
756.017	43622.26
756.355	43721.01
756.693	43474.69
757.031	43540.45
757.368	43284.19
757.706	43224.3
758.044	43158.77
758.381	43068.37
758.719	42945.66
759.056	42991.31
759.394	42852.56
759.731	42476.07
760.068	42370.99
760.405	42243.31
760.743	42058.68
761.08	42130.32
761.417	41943.66
761.754	41823.21
762.091	41704.12
762.428	41444.46
762.765	41206.05
763.102	41365.14
763.438	41004.25
763.775	40730.13
764.112	40746.63
764.449	40778.04
764.785	40640.87
765.122	40292.18
765.458	40231.39
765.795	40145.96
766.131	40010.83
766.467	39696.26
766.804	39712.08
767.14	39453.78
767.476	39357.74
767.812	39043.39
768.148	39209.94
768.485	38958.65
768.821	38773.57
769.157	38648.83
769.492	38459
769.828	38457.42
770.164	38160.48
770.5	37950.09
770.836	37925.68
771.171	37715.52
771.507	37805.69
771.842	37528.63
772.178	37361.86
772.513	37257.9
772.849	37201.86
773.184	37016.78
773.519	37059.49
773.855	36826.96
774.19	36669.22
774.525	36560.07
774.86	36553.06
775.195	36405.5
775.53	36238.27
775.865	36053.19
776.2	35925.28
776.535	35729.36
776.87	35731.17
777.205	35498.4
777.539	35463.6
777.874	35489.59
778.209	35290.5
778.543	35044.18
778.878	35070.39
779.212	35033.78
779.547	34816.39
779.881	34863.17
780.215	34623.17
780.55	34755.82
780.884	34491.2
781.218	34439.45
781.552	34288.27
781.886	34140.47
782.22	33884.21
782.554	33846.47
782.888	33534.39
783.222	33473.82
783.556	33343.88
783.889	33294.39
784.223	33067.28
784.557	33228.18
784.89	33055.3
785.224	32862.09
785.557	32746.61
785.891	32505.26
786.224	32581.42
786.558	32410.8
786.891	32185.72
787.224	31934.2
787.557	31976.69
787.891	31941.21
788.224	31692.18
788.557	31719.07
788.89	31564.49
789.223	31456.7
789.556	31182.58
789.888	31155.47
790.221	30900.78
790.554	30873.21
790.887	30823.5
791.219	30551.87
791.552	30430.97
791.884	30257.64
792.217	30234.13
792.549	30084.99
792.882	29869.17
793.214	29729.74
793.546	29788.04
793.879	29598.22
794.211	29435.06
794.543	29460.82
794.875	29247.72
795.207	29235.74
795.539	29104.9
795.871	29040.04
796.203	28800.27
796.535	28708.3
796.867	28638.24
797.198	28527.96
797.53	28501.75
797.862	28308.99
798.193	28257.92
798.525	28151.93
798.856	28100.63
799.188	27834.2
799.519	27717.14
799.85	27615.22
800.182	27772.5
800.513	27580.64
800.844	27236.7
801.175	27464.26
801.506	27364.61
801.837	27270.14
802.168	27175.46
802.499	27073.09
802.83	27042.13
803.161	26984.28
803.491	26943.15
803.822	26981.11
804.153	26687.56
804.483	26450.05
804.814	26437.17
805.145	26540.9
805.475	26394.46
805.805	26363.05
806.136	26438.98
806.466	26428.36
806.796	26396.04
807.126	26191.3
807.457	26195.14
807.787	26166.44
808.117	25922.61
808.447	25882.61
808.777	26046.22
809.107	25788.6
809.436	25791.77
809.766	25746.12
810.096	25570.53
810.426	25467.25
810.755	25616.63
811.085	25551.77
811.414	25507.25
811.744	25272.46
812.073	25225.68
812.403	25283.53
812.732	25145
813.061	25080.37
813.39	24944.1
813.719	24955.18
814.049	25091.22
814.378	24829.53
814.707	24773.49
815.036	24820.94
815.365	24610.55
815.693	24451.01
816.022	24493.27
816.351	24304.57
816.68	24237.91
817.008	24257.34
817.337	24045.6
817.665	24073.84
817.994	24096.67
818.322	24037.01
818.651	23950.23
818.979	23865.26
819.307	23838.14
819.636	23658.49
819.964	23583.46
820.292	23694.87
820.62	23517.02
820.948	23479.51
821.276	23545.04
821.604	23376.24
821.932	23503.01
822.259	23448.78
822.587	23439.06
822.915	23262.34
823.243	23514.76
823.57	23297.37
823.898	23359.96
824.225	23296.01
824.553	23218.27
824.88	23301.44
825.207	23383.47
825.535	23219.18
825.862	23210.36
826.189	23131.95
826.516	23234.54
826.843	23247.43
827.17	23152.96
827.497	23128.33
827.824	23274.32
828.151	23192.06
828.478	23127.65
828.805	23219.86
829.131	23071.84
829.458	23106.64
829.785	22981.44
830.111	22976.7
830.438	23085.4
830.764	23006.53
831.09	23068.22
831.417	22957.04
831.743	23003.14
832.069	23056.24
832.395	22936.47
832.722	23022.57
833.048	22877.27
833.374	22950.03
833.7	22857.15
834.026	22906.42
834.351	22959.52
834.677	22883.37
835.003	22894.89
835.329	22949.58
835.654	22858.74
835.98	22939.18
836.306	22875.23
836.631	22823.48
836.956	22837.04
837.282	22943.25
837.607	22749.13
837.932	22708.23
838.258	22708.23
838.583	22810.15
838.908	22622.36
839.233	22639.53
839.558	22638.63
839.883	22645.63
840.208	22626.65
840.533	22564.28
840.858	22632.53
841.182	22593.88
841.507	22543.04
841.832	22461.68
842.156	22296.49
842.481	22324.29
842.805	22313.21
843.13	22250.16
843.454	22255.81
843.778	22192.31
844.103	22138.53
844.427	22060.11
844.751	22087.68
845.075	22056.27
845.399	21918.87
845.723	21730.4
846.047	21821.7
846.371	21704.19
846.695	21639.33
847.019	21381.71
847.343	21357.31
847.666	21195.05
847.99	21225.11
848.313	21078.44
848.637	20971.1
848.96	20993.7
849.284	21006.81
849.607	20782.18
849.931	20691.11
850.254	20573.15
850.577	20468.29
850.9	20339.03
851.223	20438.69
851.546	20172.48
851.869	20072.82
852.192	20230.33
852.515	20001.86
852.838	19903.78
853.161	19919.83
853.483	19700.63
853.806	19767.74
854.129	19574.3
854.451	19578.82
854.774	19513.96
855.096	19384.93
855.419	19358.49
855.741	19248.43
856.063	19248.21
856.385	19203.24
856.708	19140.19
857.03	19035.56
857.352	19042.34
857.674	18950.14
857.996	18771.84
858.318	18765.28
858.64	18718.28
858.961	18652.97
859.283	18548.57
859.605	18489.13
859.926	18515.57
860.248	18401.23
860.57	18348.12
860.891	18393.99
861.212	18334.56
861.534	18252.3
861.855	18240.55
862.176	18196.94
862.498	18212.08
862.819	18189.93
863.14	18068.8
863.461	18002.82
863.782	17889.37
864.103	17994.23
864.424	17901.8
864.745	17965.3
865.065	17872.2
865.386	17802.82
865.707	17837.62
866.027	17878.75
866.348	17691.41
866.668	17775.7
866.989	17717.4
867.309	17601.25
867.63	17712.43
867.95	17683.96
868.27	17649.83
868.59	17675.82
868.91	17662.94
869.23	17712.2
869.55	17583.62
869.87	17702.49
870.19	17669.27
870.51	17636.05
870.83	17597.63
871.15	17476.96
871.469	17492.1
871.789	17575.48
872.109	17471.53
872.428	17321.03
872.748	17526.9
873.067	17494.81
873.386	17391.76
873.706	17545.2
874.025	17358.54
874.344	17313.57
874.663	17397.41
874.982	17238.77
875.301	17389.95
875.62	17283.97
875.939	17313.12
876.258	17253.68
876.577	17180.47
876.896	17212.33
877.214	17113.58
877.533	17141.6
877.852	17234.25
878.17	17163.97
878.489	17134.14
878.807	17231.09
879.125	17067.47
879.444	17084.88
879.762	16942.05
880.08	17112.9
880.398	16919.91
880.716	16909.06
881.034	16834.94
881.352	16881.27
881.67	16847.37
881.988	16878.1
882.306	16831.1
882.624	16658.45
882.941	16705.22
883.259	16686.24
883.577	16660.71
883.894	16483.54
884.212	16592.91
884.529	16496.19
884.846	16481.5
885.164	16508.62
885.481	16413.25
885.798	16419.36
886.115	16317.44
886.432	16283.31
886.75	16218.91
887.067	16208.06
887.383	16086.26
887.7	16102.08
888.017	15941.18
888.334	16108.63
888.651	16030.89
888.967	15935.53
889.284	15869.77
889.6	15769.88
889.917	15611.92
890.233	15786.38
890.55	15645.59
890.866	15690.11
891.182	15672.94
891.498	15631.13
891.815	15518.36
892.131	15339.38
892.447	15355.2
892.763	15319.5
893.079	15199.05
893.395	15168.54
893.71	15157.69
894.026	15201.31
894.342	15079.28
894.657	15021.2
894.973	14960.19
895.289	14946.17
895.604	14914.54
895.92	14775.33
896.235	14777.59
896.55	14827.76
896.865	14647.65
897.181	14618.5
897.496	14560.42
897.811	14638.16
898.126	14482.68
898.441	14414.89
898.756	14422.57
899.071	14303.25
899.386	14308.9
899.7	14197.04
900.015	14133.54
900.33	14120.21
900.644	14062.36
900.959	14072.3
901.273	14056.25
901.588	13933.09
901.902	13860.55
902.216	13868.69
902.531	13872.53
902.845	13846.32
903.159	13749.14
903.473	13703.95
903.787	13635.93
904.101	13647
904.415	13583.95
904.729	13544.86
905.042	13433.9
905.356	13492.43
905.67	13433.22
905.984	13468.47
906.297	13382.37
906.611	13275.48
906.924	13282.49
907.237	13281.59
907.551	13179.22
907.864	13107.58
908.177	12997.75
908.491	13095.15
908.804	12996.85
909.117	12955.04
909.43	12836.63
909.743	12795.27
910.056	12806.12
910.368	12781.94
910.681	12772.67
910.994	12662.62
911.307	12700.81
911.619	12541.27
911.932	12591.89
912.244	12561.6
912.557	12484.09
912.869	12406.58
913.181	12427.82
913.494	12423.08
913.806	12247.04
914.118	12292.91
914.43	12198.9
914.742	12169.07
915.054	12129.75
915.366	12127.94
915.678	12085.46
915.99	11942.86
916.302	11914.16
916.613	11942.64
916.925	11817.22
917.236	11909.19
917.548	11780.83
917.859	11822.64
918.171	11717.79
918.482	11633.04
918.794	11589.43
919.105	11574.74
919.416	11502.2
919.727	11449.09
920.038	11308.98
920.349	11334.29
920.66	11214.52
920.971	11251.81
921.282	11160.74
921.593	11191.7
921.903	11022.44
922.214	10977.24
922.525	10967.75
922.835	10973.85
923.146	10890.91
923.456	10847.07
923.767	10823.57
924.077	10787.41
924.387	10697.02
924.697	10656.34
925.008	10695.89
925.318	10534.77
925.628	10530.25
925.938	10504.71
926.248	10410.25
926.558	10383.58
926.867	10289.8
927.177	10224.49
927.487	10215.68
927.796	10137.26
928.106	10153.76
928.416	10072.18
928.725	10055.91
929.034	9954.44
929.344	9990.37
929.653	9965.06
929.962	9868.57
930.271	9819.3
930.581	9766.65
930.89	9735.69
931.199	9629.03
931.508	9652.98
931.817	9626.54
932.125	9543.15
932.434	9525.07
932.743	9441.91
933.051	9363.04
933.36	9370.73
933.669	9339.99
933.977	9339.77
934.286	9248.7
934.594	9252.77
934.902	9165.99
935.21	9178.19
935.519	9089.38
935.827	9088.02
936.135	9000.34
936.443	8923.96
936.751	8918.54
937.059	8929.16
937.367	8814.13
937.674	8841.7
937.982	8740.01
938.29	8662.5
938.597	8715.83
938.905	8607.13
939.213	8653.23
939.52	8493.46
939.827	8542.28
940.135	8554.03
940.442	8500.69
940.749	8425.22
941.056	8509.06
941.363	8369.85
941.67	8394.93
941.977	8337.76
942.284	8250.31
942.591	8288.72
942.898	8238.55
943.205	8258.22
943.511	8182.74
943.818	8149.07
944.125	8111.78
944.431	8107.26
944.738	8044.66
945.044	7994.95
945.35	7917.66
945.657	7958.56
945.963	7910.88
946.269	7805.8
946.575	7893.7
946.881	7824.55
947.187	7731.22
947.493	7734.84
947.799	7781.62
948.105	7702.07
948.41	7727.16
948.716	7625.46
949.022	7649.19
949.327	7527.39
949.633	7431.34
949.938	7526.26
950.244	7529.42
950.549	7442.87
950.854	7459.59
951.16	7361.06
951.465	7335.3
951.77	7295.3
952.075	7293.95
952.38	7272.7
952.685	7238.13
952.99	7225.25
953.294	7203.1
953.599	7160.84
953.904	7140.96
954.209	7056.21
954.513	7043.33
954.818	7033.16
955.122	6970.11
955.426	6963.11
955.731	6925.82
956.035	6883.79
956.339	6962.2
956.643	6872.04
956.948	6822.55
957.252	6803.56
957.556	6789.1
957.86	6746.16
958.163	6693.51
958.467	6694.19
958.771	6694.19
959.075	6677.92
959.378	6616.45
959.682	6590.46
959.985	6532.61
960.289	6557.47
960.592	6472.73
960.896	6464.36
961.199	6399.28
961.502	6413.07
961.805	6391.82
962.108	6330.36
962.411	6313.18
962.714	6225.27
963.017	6241.54
963.32	6292.62
963.623	6209.68
963.926	6182.34
964.228	6111.15
964.531	6128.55
964.833	6103.02
965.136	6051.27
965.438	6029.57
965.741	5956.13
966.043	5973.53
966.345	5903.7
966.648	5893.31
966.95	5894.21
967.252	5846.3
967.554	5826.64
967.856	5810.82
968.158	5699.64
968.46	5727.43
968.761	5724.72
969.063	5680.66
969.365	5690.82
969.666	5649.24
969.968	5598.17
970.269	5522.24
970.571	5550.49
970.872	5550.26
971.174	5493.32
971.475	5452.19
971.776	5453.54
972.077	5436.59
972.378	5381
972.679	5403.6
972.98	5368.57
973.281	5321.34
973.582	5271.4
973.883	5287.45
974.183	5241.12
974.484	5245.64
974.785	5177.84
975.085	5188.24
975.386	5111.86
975.686	5123.83
975.986	5092.2
976.287	5071.86
976.587	5017.4
976.887	5086.32
977.187	5005.65
977.487	4958.87
977.787	4956.61
978.087	4931.52
978.387	4941.24
978.687	4860.11
978.987	4870.06
979.286	4841.13
979.586	4828.47
979.885	4765.88
980.185	4746.67
980.484	4751.19
980.784	4754.8
981.083	4662.38
981.382	4694.69
981.682	4702.6
981.981	4646.56
982.28	4649.95
982.579	4656.28
982.878	4619.21
983.177	4534.25
983.475	4502.83
983.774	4483.63
984.073	4518.88
984.372	4443.63
984.67	4468.03
984.969	4457.64
985.267	4456.96
985.566	4398.43
985.864	4362.5
986.162	4390.29
986.461	4367.02
986.759	4306.68
987.057	4334.25
987.355	4262.61
987.653	4270.3
987.951	4307.13
988.249	4208.38
988.547	4219.45
988.844	4190.07
989.142	4210.64
989.44	4183.07
989.737	4162.96
990.035	4163.18
990.332	4107.36
990.63	4120.02
990.927	4047.25
991.224	4076.4
991.521	4022.62
991.819	4079.57
992.116	3992.56
992.413	4010.42
992.71	3943.98
993.006	4009.06
993.303	3932.23
993.6	3916.18
993.897	3887.26
994.193	3861.27
994.49	3842.51
994.787	3837.99
995.083	3797.54
995.379	3740.37
995.676	3794.15
995.972	3800.25
996.268	3762.97
996.565	3735.4
996.861	3703.53
997.157	3705.11
997.453	3692.23
997.749	3670.09
998.044	3661.05
998.34	3644.78
998.636	3661.5
998.932	3593.48
999.227	3590.77
999.523	3579.24
999.818	3538.34
1000.114	3554.84
1000.409	3480.71
1000.704	3480.49
1001	3476.87
1001.295	3442.07
1001.59	3421.73
1001.885	3421.73
1002.18	3399.13
1002.475	3372.92
1002.77	3320.49
1003.065	3332.69
1003.359	3283.88
1003.654	3311
1003.949	3291.34
1004.243	3250.44
1004.538	3191
1004.832	3206.6
1005.127	3177.22
1005.421	3155.75
1005.715	3139.48
1006.009	3180.83
1006.304	3082.76
1006.598	3115.07
1006.892	3068.75
1007.186	3062.42
1007.48	3066.26
1007.773	3019.71
1008.067	2997.34
1008.361	2982.42
1008.655	2903.78
1008.948	2929.54
1009.242	2950.33
1009.535	2910.11
1009.829	2915.08
1010.122	2878.02
1010.415	2863.33
1010.708	2850.45
1011.001	2791.01
1011.295	2797.34
1011.588	2746.95
1011.881	2742.43
1012.173	2772.03
1012.466	2737.91
1012.759	2668.53
1013.052	2685.48
1013.344	2676.89
1013.637	2616.78
1013.93	2634.41
1014.222	2614.3
1014.514	2592.38
1014.807	2562.32
1015.099	2576.78
1015.391	2581.98
1015.683	2545.37
1015.976	2506.95
1016.268	2468.54
1016.56	2463.57
1016.851	2458.82
1017.143	2449.55
1017.435	2408.2
1017.727	2429.22
1018.018	2423.79
1018.31	2373.85
1018.602	2330.69
1018.893	2356.45
1019.185	2313.29
1019.476	2299.28
1019.767	2310.35
1020.058	2265.83
1020.35	2239.39
1020.641	2270.35
1020.932	2235.32
1021.223	2202.1
1021.514	2209.11
1021.804	2178.37
1022.095	2159.17
1022.386	2132.5
1022.677	2137.7
1022.967	2086.63
1023.258	2096.34
1023.548	2114.65
1023.839	2105.38
1024.129	2056.12
1024.419	2029.23
1024.709	2031.03
1025	2003.92
1025.29	1993.07
1025.58	1981.32
1025.87	1946.29
1026.16	1926.63
1026.449	1969.57
1026.739	1921.43
1027.029	1922.34
1027.319	1917.36
1027.608	1884.37
1027.898	1902.45
1028.187	1845.28
1028.477	1811.38
1028.766	1847.76
1029.055	1780.19
1029.344	1830.14
1029.634	1816.35
1029.923	1758.05
1030.212	1784.94
1030.501	1723.7
1030.79	1735.45
1031.078	1715.34
1031.367	1713.98
1031.656	1695.22
1031.945	1717.82
1032.233	1693.19
1032.522	1686.64
1032.81	1640.08
1033.099	1655.45
1033.387	1617.71
1033.675	1631.27
1033.963	1610.71
1034.251	1572.74
1034.54	1597.37
1034.828	1574.32
1035.116	1560.54
1035.403	1547.88
1035.691	1526.41
1035.979	1492.97
1036.267	1525.28
1036.554	1490.94
1036.842	1500.43
1037.129	1477.83
1037.417	1461.11
1037.704	1448.22
1037.992	1451.16
1038.279	1434.67
1038.566	1436.25
1038.853	1436.25
1039.14	1436.25
