Data from aluminium_macbook_case_FLMS001491_051.txt Node
Date: Tue Feb 07 10:43:49 GMT 2017
User: dcchb
Spectrometer: FLMS00149
Trigger mode: 0
Integration Time (sec): 2.000000E-2
Scans to average: 10
Electric dark correction enabled: true
Nonlinearity correction enabled: false
Boxcar width: 0
XAxis mode: Wavelengths
Number of Pixels in Spectrum: 2048
>>>>>Begin Spectral Data<<<<<
341.393	-11.37
341.776	-11.37
342.16	-11.37
342.543	-71.93
342.927	-73.06
343.31	-70.35
343.693	-69.22
344.077	-69.45
344.46	-65.83
344.843	-42.56
345.226	-50.01
345.61	-23.8
345.993	-25.61
346.376	0.61
346.759	11
347.142	16.2
347.525	47.16
347.908	53.49
348.291	75.41
348.674	100.94
349.057	112.02
349.44	109.76
349.823	158.57
350.206	176.65
350.588	233.37
350.971	239.47
351.354	255.06
351.737	313.59
352.119	312.24
352.502	319.47
352.884	318.57
353.267	334.84
353.65	346.13
354.032	336.64
354.414	369.41
354.797	396.3
355.179	386.81
355.562	380.71
355.944	387.72
356.326	383.65
356.709	380.48
357.091	409.41
357.473	405.57
357.855	433.36
358.238	407.83
358.62	411.67
359.002	425
359.384	423.42
359.766	404.21
360.148	428.62
360.53	430.65
360.912	418.22
361.294	412.57
361.676	408.05
362.057	433.82
362.439	412.57
362.821	419.58
363.203	441.95
363.584	428.39
363.966	425.23
364.348	458.22
364.729	411.22
365.111	419.13
365.493	429.75
365.874	418.22
366.256	424.33
366.637	430.88
367.019	441.73
367.4	435.85
367.781	434.95
368.163	444.44
368.544	441.05
368.925	445.57
369.306	443.76
369.688	461.61
370.069	441.95
370.45	455.74
370.831	449.18
371.212	446.7
371.593	475.4
371.974	446.47
372.355	460.26
372.736	489.86
373.117	489.41
373.498	481.5
373.879	487.6
374.26	477.88
374.641	470.65
375.021	461.16
375.402	496.64
375.783	493.7
376.163	546.36
376.544	520.59
376.925	508.62
377.305	522.18
377.686	523.53
378.066	538.9
378.447	545
378.827	545.68
379.208	549.75
379.588	566.92
379.968	555.62
380.349	564.43
380.729	566.69
381.109	571.67
381.489	584.32
381.87	581.61
382.25	611.89
382.63	589.07
383.01	597.43
383.39	603.53
383.77	636.07
384.15	632.68
384.53	622.96
384.91	651.21
385.29	636.3
385.67	666.8
386.049	667.71
386.429	691.44
386.809	694.37
387.189	662.51
387.568	705.9
387.948	676.3
388.328	704.09
388.707	718.78
389.087	724.66
389.466	740.47
389.846	735.28
390.225	761.04
390.605	750.64
390.984	796.07
391.363	771.43
391.743	796.52
392.122	790.87
392.501	816.63
392.881	844.2
393.26	819.12
393.639	847.82
394.018	854.14
394.397	858.44
394.776	857.76
395.155	890.3
395.534	913.58
395.913	897.08
396.292	901.15
396.671	947.25
397.05	934.82
397.429	930.07
397.808	946.12
398.186	975.95
398.565	982.28
398.944	979.11
399.323	989.51
399.701	986.12
400.08	1053.69
400.458	1013.91
400.837	1053.46
401.215	1042.84
401.594	1069.51
401.972	1114.02
402.351	1089.17
402.729	1123.52
403.107	1094.14
403.486	1129.39
403.864	1134.81
404.242	1168.71
404.62	1141.59
404.999	1184.76
405.377	1198.32
405.755	1206.68
406.133	1226.79
406.511	1242.83
406.889	1250.29
407.267	1274.02
407.645	1295.26
408.023	1315.38
408.401	1339.56
408.779	1355.37
409.156	1401.47
409.534	1420.46
409.912	1393.79
410.29	1450.29
410.667	1476.73
411.045	1498.87
411.422	1513.56
411.8	1503.17
412.178	1545.65
412.555	1584.52
412.933	1613.45
413.31	1621.81
413.687	1633.11
414.065	1655.48
414.442	1674.46
414.819	1698.19
415.197	1711.75
415.574	1755.14
415.951	1779.77
416.328	1786.1
416.705	1777.06
417.082	1836.27
417.46	1868.13
417.837	1889.15
418.214	1907.22
418.591	1937.96
418.967	1911.07
419.344	1928.24
419.721	1970.5
420.098	1987.45
420.475	1994.68
420.852	2015.24
421.228	2112.87
421.605	2057.95
421.982	2120.33
422.358	2158.97
422.735	2186.76
423.111	2177.5
423.488	2246.42
423.864	2242.81
424.241	2293.88
424.617	2287.55
424.994	2298.4
425.37	2358.29
425.746	2361.22
426.123	2416.14
426.499	2433.31
426.875	2446.19
427.251	2489.13
427.627	2519.41
428.003	2584.72
428.379	2628.11
428.756	2643.48
429.132	2693.19
429.507	2714.66
429.883	2762.79
430.259	2819.06
430.635	2814.77
431.011	2856.35
431.387	2951.04
431.763	3003.47
432.138	3050.7
432.514	3109.23
432.89	3050.24
433.265	3157.81
433.641	3200.07
434.016	3204.36
434.392	3289.56
434.767	3354.87
435.143	3313.29
435.518	3407.07
435.894	3436.9
436.269	3461.76
436.644	3550.34
437.02	3558.48
437.395	3606.61
437.77	3652.94
438.145	3724.13
438.52	3746.5
438.895	3807.96
439.271	3777.01
439.646	3865.14
440.021	3908.3
440.395	3948.75
440.77	3925.7
441.145	3953.05
441.52	4043.66
441.895	4109.2
442.27	4095.64
442.645	4134.28
443.019	4186.26
443.394	4225.36
443.769	4227.16
444.143	4206.6
444.518	4294.73
444.892	4315.75
445.267	4344.67
445.641	4406.82
446.016	4416.08
446.39	4447.95
446.764	4480.94
447.139	4473.03
447.513	4595.97
447.887	4603.88
448.262	4657.89
448.636	4695.85
449.01	4735.17
449.384	4809.75
449.758	4882.96
450.132	4942.62
450.506	4906.24
450.88	4954.15
451.254	4971.78
451.628	5077.76
452.002	5143.97
452.376	5148.72
452.75	5204.54
453.123	5257.64
453.497	5341.03
453.871	5394.14
454.244	5530.63
454.618	5552.55
454.992	5616.05
455.365	5657.18
455.739	5811.08
456.112	5818.08
456.486	5914.35
456.859	5977.63
457.232	6118.86
457.606	6136.72
457.979	6202.25
458.352	6318.41
458.725	6465.07
459.099	6422.13
459.472	6630.04
459.845	6646.31
460.218	6711.17
460.591	6757.49
460.964	6823.93
461.337	6975.79
461.71	7086.52
462.083	7199.97
462.456	7200.19
462.829	7249.46
463.201	7435.67
463.574	7401.32
463.947	7587.53
464.32	7790.01
464.692	7833.4
465.065	7891.47
465.438	7991.36
465.81	8140.73
466.183	8199.49
466.555	8389.54
466.928	8478.12
467.3	8474.51
467.672	8604.67
468.045	8931.67
468.417	8848.74
468.789	8909.53
469.161	9134.6
469.534	9274.04
469.906	9485.78
470.278	9459.57
470.65	9670.86
471.022	9795.15
471.394	9982.72
471.766	10144.75
472.138	10249.6
472.51	10427.68
472.882	10601.23
473.253	10736.14
473.625	10942.24
473.997	11191.05
474.369	11236.92
474.74	11363.25
475.112	11559.17
475.484	11814.53
475.855	12028.54
476.227	12190.57
476.598	12607.06
476.97	12631.24
477.341	12930.21
477.713	13056.31
478.084	13236.19
478.455	13621.72
478.827	13760.47
479.198	14198.65
479.569	14113.68
479.94	14549.83
480.311	14713.44
480.682	14974.68
481.053	15271.39
481.424	15526.98
481.795	15727.65
482.166	15973.75
482.537	16145.04
482.908	16562.43
483.279	16750.9
483.65	17100.95
484.021	17435.86
484.391	17560.15
484.762	17718.11
485.133	17988.38
485.503	18228.83
485.874	18713.56
486.244	18801.02
486.615	19172.31
486.985	19498.63
487.356	19852.29
487.726	20007.31
488.097	20365.27
488.467	20498.37
488.837	20904.69
489.207	21219.03
489.578	21540.61
489.948	21676.65
490.318	21983.08
490.688	22005.45
491.058	22518.21
491.428	22767.01
491.798	22851.31
492.168	23345.53
492.538	23358.19
492.908	23791.62
493.278	24102.57
493.648	24230.93
494.017	24442.9
494.387	24693.97
494.757	24942.78
495.126	25290.11
495.496	25391.35
495.866	25610.33
496.235	25904.56
496.605	26144.55
496.974	26301.38
497.344	26522.62
497.713	26675.84
498.082	26997.19
498.452	27178.2
498.821	27337.29
499.19	27543.16
499.559	27713.78
499.928	27963.71
500.298	28197.38
500.667	28469.24
501.036	28404.83
501.405	28829
501.774	28913.97
502.143	29178.82
502.512	29235.54
502.88	29491.58
503.249	29554.18
503.618	29857.22
503.987	29925.47
504.356	30125.01
504.724	30487.04
505.093	30447.49
505.462	30641.16
505.83	30974.71
506.199	31154.14
506.567	31688.36
506.936	31604.3
507.304	32000.44
507.672	32195.69
508.041	32288.8
508.409	32564.27
508.777	32803.81
509.145	33119.96
509.514	33245.83
509.882	33548.88
510.25	33620.97
510.618	33993.84
510.986	33982.31
511.354	34428.18
511.722	34733.71
512.09	35095.96
512.458	34935.06
512.826	35422.05
513.193	35643.74
513.561	35744.07
513.929	36068.59
514.297	36412.31
514.664	36704.05
515.032	36652.98
515.4	37029.69
515.767	37184.71
516.135	37351.04
516.502	37230.81
516.869	37979.27
517.237	38183.78
517.604	38164.35
517.972	38650.44
518.339	38769.31
518.706	39006.81
519.073	39174.04
519.44	39590.3
519.808	39982.61
520.175	39977.64
520.542	40573.55
520.909	40797.95
521.276	40948.01
521.643	41281.56
522.009	41631.6
522.376	42059.16
522.743	42111.82
523.11	42663.21
523.477	42984.11
523.843	43182.3
524.21	43671.78
524.577	44068.38
524.943	44319.22
525.31	44404.41
525.676	44811.63
526.043	45023.83
526.409	45136.6
526.776	45600.54
527.142	45667.66
527.508	45864.71
527.874	46177.7
528.241	46378.37
528.607	46427.86
528.973	46988.07
529.339	46946.94
529.705	47379.25
530.071	47514.84
530.437	47781.5
530.803	48034.82
531.169	48360.01
531.535	48352.78
531.901	48649.72
532.267	48914.58
532.632	49148.92
532.998	49237.28
533.364	49507.33
533.73	49577.61
534.095	49892.85
534.461	49969.69
534.826	50258.72
535.192	50373.97
535.557	50609.67
535.923	50707.75
536.288	50872.94
536.653	50929.21
537.019	51024.12
537.384	51216.66
537.749	51344.12
538.114	51458.24
538.479	51414.4
538.845	51631.34
539.21	51666.82
539.575	51843.99
539.94	51842.41
540.305	52156.3
540.67	52046.24
541.034	52220.03
541.399	52336.86
541.764	52437.65
542.129	52530.75
542.494	52576.63
542.858	52709.5
543.223	52847.13
543.587	52994.69
543.952	53079.44
544.316	53143.84
544.681	53222.03
545.045	53441.69
545.41	53624.06
545.774	53719.19
546.138	53625.41
546.503	53796.71
546.867	53883.03
547.231	54086.87
547.595	54185.4
547.959	54330.25
548.324	54399.85
548.688	54470.14
549.052	54548.33
549.416	54692.5
549.779	54706.29
550.143	54775.66
550.507	55054.08
550.871	55060.4
551.235	55123
551.599	55350.79
551.962	55341.53
552.326	55450.45
552.689	55530.22
553.053	55486.61
553.417	55578.81
553.78	55878.69
554.143	55754.17
554.507	55959.14
554.87	55968.4
555.234	56225.8
555.597	56109.19
555.96	56279.81
556.323	56396.41
556.686	56400.25
557.05	56623.3
557.413	56774.26
557.776	56766.57
558.139	57003.63
558.502	57044.31
558.865	57168.37
559.228	57319.33
559.59	57359.1
559.953	57522.94
560.316	57717.96
560.679	57766.09
561.041	57953.21
561.404	58008.8
561.767	58233.43
562.129	58137.61
562.492	58419.41
562.854	58368.34
563.217	58421.67
563.579	58556.58
563.941	58755.45
564.304	58820.76
564.666	58963.8
565.028	59073.63
565.39	59189.79
565.753	59306.62
566.115	59404.24
566.477	59385.26
566.839	59511.13
567.201	59695.31
567.563	59724.69
567.925	59881.52
568.287	59849.66
568.648	59942.99
569.01	60042.19
569.372	60085.81
569.734	60111.8
570.095	60219.81
570.457	60368.29
570.819	60359.7
571.18	60407.61
571.542	60539.13
571.903	60638.56
572.265	60653.7
572.626	60730.99
572.987	60777.09
573.349	60894.37
573.71	60939.57
574.071	60983.41
574.432	61095.05
574.794	61260.47
575.155	61209.62
575.516	61270.18
575.877	61368.49
576.238	61327.81
576.599	61472.66
576.96	61511.76
577.32	61556.05
577.681	61589.5
578.042	61685.09
578.403	61638.08
578.763	61730.51
579.124	61778.87
579.485	61810.28
579.845	61897.96
580.206	61766.67
580.566	61819.09
580.927	61856.16
581.287	61962.82
581.648	61949.71
582.008	62024.74
582.368	61935.48
582.728	62007.34
583.089	61955.59
583.449	61970.96
583.809	61974.8
584.169	62041.46
584.529	61927.34
584.889	62136.6
585.249	61927.79
585.609	61917.17
585.969	62006.66
586.329	61914.91
586.688	61987.45
587.048	61991.75
587.408	61907.91
587.768	62008.47
588.127	61965.76
588.487	61901.8
588.846	62068.58
589.206	61940
589.565	61990.16
589.925	62129.82
590.284	62095.7
590.643	62063.61
591.003	62169.59
591.362	62168.92
591.721	62179.54
592.08	62216.15
592.44	62211.4
592.799	62236.03
593.158	62227.22
593.517	62206.88
593.876	62221.8
594.235	62217.28
594.593	62191.51
594.952	62267.22
595.311	62180.22
595.67	62254.34
596.029	62409.36
596.387	62358.74
596.746	62427.21
597.104	62321.45
597.463	62307.67
597.822	62416.14
598.18	62309.48
598.538	62326.65
598.897	62414.11
599.255	62240.1
599.613	62611.39
599.972	62415.01
600.33	62466.54
600.688	62345.41
601.046	62384.96
601.404	62488.23
601.762	62469.47
602.12	62579.53
602.478	62503.14
602.836	62507.89
603.194	62338.18
603.552	62469.25
603.91	62455.91
604.268	62521.22
604.625	62501.11
604.983	62591.5
605.341	62425.41
605.698	62670.6
606.056	62696.36
606.413	62699.3
606.771	62803.02
607.128	62767.32
607.485	62640.99
607.843	62695.23
608.2	62821.33
608.557	62869.91
608.914	62803.02
609.272	62922.57
609.629	62990.14
609.986	63016.35
610.343	62956.01
610.7	63104.71
611.057	63020.19
611.414	63018.39
611.771	63072.62
612.127	63123.24
612.484	63146.07
612.841	63172.28
613.198	63099.51
613.554	63160.98
613.911	63190.58
614.267	63188.1
614.624	63182.45
614.98	63168.66
615.337	63190.58
615.693	63185.61
616.05	63185.84
616.406	63190.58
616.762	63187.87
617.118	63181.54
617.475	63190.58
617.831	63190.58
618.187	63190.58
618.543	63190.58
618.899	63190.58
619.255	63190.58
619.611	63190.58
619.967	63190.58
620.323	63190.58
620.678	63190.58
621.034	63190.58
621.39	63190.58
621.746	63190.58
622.101	63190.58
622.457	63190.58
622.812	63190.58
623.168	63190.58
623.523	63190.58
623.879	63190.58
624.234	63190.58
624.589	63190.58
624.945	63190.58
625.3	63190.58
625.655	63190.58
626.01	63190.58
626.365	63190.58
626.72	63190.58
627.075	63190.58
627.43	63190.58
627.785	63190.58
628.14	63190.58
628.495	63190.58
628.85	63190.58
629.205	63190.58
629.559	63190.58
629.914	63190.58
630.269	63190.58
630.623	63190.58
630.978	63190.58
631.332	63190.58
631.687	63190.58
632.041	63190.58
632.396	63190.58
632.75	63171.6
633.104	63185.61
633.459	63151.94
633.813	63135.9
634.167	63156.01
634.521	63114.88
634.875	63040.08
635.229	63034.43
635.583	62942.91
635.937	62927.31
636.291	62881.67
636.645	62896.13
636.999	62812.52
637.352	62877.37
637.706	62709.24
638.06	62798.05
638.413	62670.37
638.767	62622.92
639.121	62681.67
639.474	62566.65
639.828	62571.62
640.181	62594.89
640.534	62582.01
640.888	62498.85
641.241	62413.2
641.594	62474.9
641.947	62522.13
642.301	62401.23
642.654	62483.94
643.007	62400.55
643.36	62438.06
643.713	62381.34
644.066	62440.55
644.419	62323.04
644.771	62198.07
645.124	61961.01
645.477	61947
645.83	61835.14
646.182	61710.85
646.535	61551.31
646.888	61574.58
647.24	61460.23
647.593	61502.72
647.945	61492.1
648.298	61375.49
648.65	61405.77
649.002	61267.02
649.355	61406.22
649.707	61360.35
650.059	61478.76
650.411	61797.63
650.763	61786.78
651.115	62011.63
651.467	61860.9
651.819	61772.54
652.171	61771.19
652.523	61724.63
652.875	61706.78
653.227	61584.75
653.578	61705.88
653.93	61573.23
654.282	61526.67
654.633	61523.06
654.985	61488.71
655.337	61406
655.688	61375.26
656.039	61457.07
656.391	61229.73
656.742	61267.02
657.094	61230.86
657.445	61374.81
657.796	61273.12
658.147	61205.55
658.498	61180.02
658.849	61251.2
659.2	61156.74
659.551	61152.45
659.902	61201.03
660.253	61199
660.604	61230.64
660.955	61038.1
661.306	61208.04
661.656	61128.94
662.007	61137.98
662.358	61168.72
662.708	61128.27
663.059	61159
663.409	60952.45
663.76	61158.55
664.11	61143.63
664.461	61155.61
664.811	61123.97
665.161	61165.33
665.511	61081.94
665.862	61002.17
666.212	61106.57
666.562	61076.52
666.912	61032.45
667.262	60995.84
667.612	61062.73
667.962	61032.67
668.312	60988.16
668.662	61021.38
669.011	60926.24
669.361	60942.06
669.711	60933.02
670.06	60928.5
670.41	60795.84
670.76	60865
671.109	60903.86
671.459	60777.09
671.808	60811.89
672.157	60852.79
672.507	60622.29
672.856	60629.3
673.205	60697.99
673.554	60745.22
673.904	60567.83
674.253	60687.6
674.602	60580.48
674.951	60125.81
675.3	60017.11
675.649	60345.69
675.998	60401.96
676.346	60335.29
676.695	60415.29
677.044	60156.99
677.393	60290.1
677.741	60329.64
678.09	60218.23
678.438	60182.08
678.787	60241.74
679.135	60235.86
679.484	60039.25
679.832	60161.96
680.181	60042.42
680.529	60160.16
680.877	60093.49
681.225	60061.18
681.573	60138.46
681.922	60013.27
682.27	59969.65
682.618	59947.73
682.966	59938.01
683.314	59946.6
683.661	59869.99
684.009	59713.61
684.357	59684.69
684.705	59671.58
685.053	59748.87
685.4	59679.94
685.748	59572.37
686.095	59615.99
686.443	59395.66
686.79	59386.84
687.138	59444.24
687.485	59407.41
687.832	59306.39
688.18	59346.84
688.527	59251.03
688.874	59192.72
689.221	59116.12
689.568	59063.46
689.915	58969.9
690.262	59000.86
690.609	58944.14
690.956	58880.19
691.303	58832.28
691.65	58649.01
691.997	58650.82
692.344	58543.47
692.69	58437.26
693.037	58392.29
693.383	58197.04
693.73	58305.74
694.077	58057.16
694.423	58105.29
694.769	57962.25
695.116	57952.76
695.462	57818.52
695.808	57678.64
696.155	57711.86
696.501	57528.59
696.847	57515.48
697.193	57367.46
697.539	57451.98
697.885	57199.33
698.231	57187.13
698.577	57117.75
698.923	57079.56
699.269	56933.57
699.614	56830.75
699.96	56703.07
700.306	56759.79
700.651	56599.57
700.997	56505.79
701.342	56498.33
701.688	56491.78
702.033	56317.54
702.379	56405.68
702.724	56335.62
703.069	56441.16
703.415	56076.42
703.76	56128.17
704.105	56160.03
704.45	56053.14
704.795	55937.89
705.14	55923.66
705.485	55873.49
705.83	55705.13
706.175	55737.9
706.52	55654.51
706.865	55627.85
707.209	55587.17
707.554	55567.28
707.899	55511.92
708.243	55384.91
708.588	55259.72
708.932	55130.91
709.277	55079.39
709.621	55093.85
709.966	54869.9
710.31	54962.78
710.654	54658.15
710.998	54788.77
711.342	54746.96
711.687	54672.39
712.031	54537.93
712.375	54403.02
712.719	54516.01
713.063	54418.16
713.407	54509.68
713.75	54293.19
714.094	54215.23
714.438	54131.84
714.782	54096.81
715.125	53971.84
715.469	53906.53
715.812	53958.51
716.156	53545.87
716.499	53632.87
716.843	53688.01
717.186	53496.38
717.53	53637.16
717.873	53522.59
718.216	53457.51
718.559	53264.74
718.902	53040.12
719.246	53072.66
719.589	53010.06
719.932	52848.26
720.275	52775.94
720.617	52839.22
720.96	52695.04
721.303	52609.62
721.646	52598.32
721.989	52279.68
722.331	52453.47
722.674	52359.46
723.016	52344.09
723.359	52248.05
723.701	52271.32
724.044	52170.99
724.386	51935.06
724.729	52035.4
725.071	51953.14
725.413	51966.92
725.755	51840.37
726.097	51716.99
726.439	51562.64
726.782	51766.93
727.124	51740.26
727.465	51687.38
727.807	51653.49
728.149	51625.69
728.491	51603.54
728.833	51637.44
729.175	51379.37
729.516	51368.97
729.858	51367.39
730.199	51385.92
730.541	51125.14
730.882	51287.85
731.224	51250.56
731.565	51144.8
731.906	51049.21
732.248	51007.85
732.589	50876.33
732.93	50858.93
733.271	50841.76
733.612	50830.91
733.953	50892.83
734.294	50667.3
734.635	50574.64
734.976	50736.22
735.317	50495.78
735.658	50467.98
735.999	50406.97
736.339	50296.23
736.68	50333.07
737.021	50174.43
737.361	50052.62
737.702	50148.89
738.042	49925.62
738.383	49915.45
738.723	49852.86
739.063	49807.66
739.404	49745.97
739.744	49634.78
740.084	49386.65
740.424	49494.22
740.764	49348.46
741.104	49444.28
741.444	49323.38
741.784	49083.38
742.124	49164.74
742.464	49051.97
742.804	48808.36
743.143	48739.89
743.483	48854.92
743.823	48617.18
744.162	48546.22
744.502	48553
744.841	48394.14
745.181	48489.73
745.52	48239.79
745.86	48250.19
746.199	48089.06
746.538	48046.58
746.877	48102.62
747.216	48010.19
747.556	47812.68
747.895	47858.56
748.234	47607.49
748.573	47501.73
748.911	47600.03
749.25	47553.26
749.589	47325.92
749.928	47457.44
750.267	47460.6
750.605	47311.23
750.944	47260.61
751.283	47080.73
751.621	47181.74
751.96	46925.7
752.298	46844.12
752.636	46963.21
752.975	46828.98
753.313	46681.87
753.651	46993.72
753.989	46649.78
754.327	46564.35
754.666	46363.23
755.004	46464.92
755.342	46400.52
755.679	46215.21
756.017	45958.04
756.355	46253.18
756.693	46001.43
757.031	46034.88
757.368	45750.82
757.706	45700.87
758.044	45419.53
758.381	45546.53
758.719	45323.71
759.056	45372.52
759.394	45242.58
759.731	44878.98
760.068	44982.48
760.405	44760.33
760.743	44650.05
761.08	44565.31
761.417	44282.83
761.754	44317.41
762.091	44290.29
762.428	44097.3
762.765	43855.73
763.102	43929.85
763.438	43704.32
763.775	43573.02
764.112	43499.8
764.449	43459.13
764.785	43168.74
765.122	42912.7
765.458	42599.26
765.795	42755.42
766.131	42698.24
766.467	42425.48
766.804	42203.79
767.14	42017.81
767.476	41808.55
767.812	41602.9
768.148	41697.14
768.485	41398.61
768.821	41250.6
769.157	41116.14
769.492	41036.82
769.828	40838.86
770.164	40414.01
770.5	40519.32
770.836	40333.56
771.171	40251.3
771.507	39948.48
771.842	39746
772.178	39717.53
772.513	39568.15
772.849	39530.87
773.184	39254.72
773.519	39199.58
773.855	38956.42
774.19	38668.07
774.525	38633.26
774.86	38642.98
775.195	38658.12
775.53	38411.8
775.865	38127.29
776.2	38083.22
776.535	37819.73
776.87	37838.71
777.205	37595.33
777.539	37500.19
777.874	37585.38
778.209	37309.23
778.543	37299.74
778.878	37069.24
779.212	37003.7
779.547	36870.82
779.881	36968.67
780.215	36774.1
780.55	36680.55
780.884	36447.11
781.218	36417.95
781.552	36441.01
781.886	36322.59
782.22	36170.05
782.554	35980
782.888	35655.94
783.222	35573.23
783.556	35468.38
783.889	35411.88
784.223	35240.81
784.557	35188.83
784.89	35373.46
785.224	34971.89
785.557	34879.46
785.891	34719.24
786.224	34518.34
786.558	34567.16
786.891	34179.37
787.224	34061.63
787.557	34081.29
787.891	34018.92
788.224	33899.6
788.557	33797.46
788.89	33651.02
789.223	33637.69
789.556	33297.81
789.888	33264.14
790.221	33185.05
790.554	32850.37
790.887	32847.43
791.219	32931.04
791.552	32590.03
791.884	32421.45
792.217	32332.19
792.549	32134.23
792.882	31948.69
793.214	31797.29
793.546	31869.6
793.879	31568.82
794.211	31571.75
794.543	31615.6
794.875	31334.7
795.207	31438.65
795.539	31181.71
795.871	31124.99
796.203	30797.76
796.535	30497.88
796.867	30609.52
797.198	30382.41
797.53	30367.72
797.862	30137.89
798.193	30275.74
798.525	29985.58
798.856	29976.09
799.188	29716.89
799.519	29564.35
799.85	29451.13
800.182	29571.58
800.513	29360.74
800.844	29040.75
801.175	29276.22
801.506	29229.9
801.837	29027.87
802.168	29007.98
802.499	28854.09
802.83	28555.56
803.161	28571.38
803.491	28714.65
803.822	28502.23
804.153	28338.85
804.483	28039.42
804.814	28161.45
805.145	28057.27
805.475	28084.16
805.805	27893.21
806.136	27889.37
806.466	27980.44
806.796	27902.02
807.126	27676.72
807.457	27647.34
807.787	27745.87
808.117	27540.45
808.447	27496.83
808.777	27476.5
809.107	27466.1
809.436	27379.77
809.766	27398.76
810.096	27148.59
810.426	27149.95
810.755	27186.33
811.085	27121.02
811.414	27024.98
811.744	26872.9
812.073	26892.33
812.403	26846.68
812.732	26598.1
813.061	26688.72
813.39	26493.47
813.719	26479.01
814.049	26650.75
814.378	26389.07
814.707	26354.49
815.036	26374.6
815.365	26203.31
815.693	25982.07
816.022	26075.18
816.351	25982.75
816.68	25752.47
817.008	25893.03
817.337	25676.32
817.665	25647.39
817.994	25722.19
818.322	25647.62
818.651	25492.37
818.979	25487.39
819.307	25500.73
819.636	25407.85
819.964	25158.14
820.292	25241.53
820.62	25240.17
820.948	25185.48
821.276	25324.01
821.604	25201.53
821.932	25174.18
822.259	25134.18
822.587	25002.21
822.915	25013.96
823.243	25071.13
823.57	24924.47
823.898	24913.17
824.225	24908.2
824.553	24736.91
824.88	24872.72
825.207	24976
825.535	24778.26
825.862	24872.04
826.189	24604.25
826.516	24694.87
826.843	24834.08
827.17	24808.09
827.497	24790.46
827.824	24693.07
828.151	24752.95
828.478	24847.41
828.805	24766.96
829.131	24671.37
829.458	24585.95
829.785	24425.95
830.111	24527.87
830.438	24655.78
830.764	24510.02
831.09	24527.19
831.417	24430.25
831.743	24386.18
832.069	24514.31
832.395	24284.94
832.722	24358.38
833.048	24373.3
833.374	24366.52
833.7	24277.48
834.026	24272.74
834.351	24427.31
834.677	24296.01
835.003	24232.06
835.329	24197.71
835.654	24208.56
835.98	24135.57
836.306	24240.42
836.631	24239.97
836.956	24273.87
837.282	24267.99
837.607	24125.62
837.932	24022.35
838.258	24166.75
838.583	24196.81
838.908	24013.76
839.233	24039.75
839.558	24015.34
839.883	23831.39
840.208	23851.05
840.533	24005.4
840.858	23910.26
841.182	23987.77
841.507	23840.88
841.832	23715.92
842.156	23752.07
842.481	23712.75
842.805	23755.91
843.13	23701.68
843.454	23754.11
843.778	23527.22
844.103	23526.99
844.427	23491.74
844.751	23526.54
845.075	23482.93
845.399	23318.19
845.723	23303.95
846.047	23287.45
846.371	23096.72
846.695	23156.61
847.019	23037.29
847.343	22993.45
847.666	22764.53
847.99	22678.88
848.313	22699.67
848.637	22431.88
848.96	22407.93
849.284	22421.26
849.607	22306.46
849.931	22166.8
850.254	22114.83
850.577	21914.61
850.9	21795.06
851.223	21785.8
851.546	21775.4
851.869	21614.05
852.192	21741.96
852.515	21407.73
852.838	21270.56
853.161	21333.38
853.483	21199.82
853.806	21087.74
854.129	21173.84
854.451	20966.38
854.774	20870.12
855.096	20830.57
855.419	20766.39
855.741	20717.58
856.063	20631.03
856.385	20534.98
856.708	20449.79
857.03	20429.45
857.352	20403.46
857.674	20177.03
857.996	20173.18
858.318	20116.46
858.64	20148.55
858.961	20113.52
859.283	19977.26
859.605	19781.33
859.926	19813.19
860.248	19782.91
860.57	19721.44
860.891	19749.24
861.212	19496.82
861.534	19400.32
861.855	19414.79
862.176	19444.16
862.498	19380.44
862.819	19243.94
863.14	19163.95
863.461	19132.08
863.782	19144.06
864.103	19187.67
864.424	19094.12
864.745	19182.02
865.065	18986.55
865.386	18958.07
865.707	18924.63
866.027	18889.38
866.348	18907
866.668	18914.46
866.989	18824.52
867.309	18645.77
867.63	18667.24
867.95	18641.93
868.27	18681.92
868.59	18736.84
868.91	18657.52
869.23	18603.96
869.55	18662.49
869.87	18634.47
870.19	18561.25
870.51	18605.77
870.83	18487.58
871.15	18425.43
871.469	18554.47
871.789	18599.21
872.109	18577.97
872.428	18539.1
872.748	18564.19
873.067	18422.95
873.386	18555.37
873.706	18475.15
874.025	18464.3
874.344	18410.29
874.663	18483.06
874.982	18416.17
875.301	18278.77
875.62	18319.9
875.939	18329.62
876.258	18285.78
876.577	18301.14
876.896	18327.13
877.214	18318.32
877.533	18335.49
877.852	18256.17
878.17	18288.49
878.489	18314.7
878.807	18321.71
879.125	18214.82
879.444	18257.98
879.762	18093.69
880.08	18203.74
880.398	18070.41
880.716	18140.02
881.034	18079.68
881.352	18094.82
881.67	18059.79
881.988	18075.16
882.306	17959.68
882.624	17903.64
882.941	17831.1
883.259	17784.09
883.577	17880.82
883.894	17728.05
884.212	17813.7
884.529	17869.74
884.846	17784.32
885.164	17611.22
885.481	17570.54
885.798	17572.8
886.115	17509.53
886.432	17483.54
886.75	17386.82
887.067	17428.4
887.383	17350.89
887.7	17262.07
888.017	17276.99
888.334	17207.16
888.651	17179.82
888.967	17148.41
889.284	17023.66
889.6	16938.47
889.917	16869.99
890.233	16905.02
890.55	16767.62
890.866	16854.18
891.182	16723.33
891.498	16712.03
891.815	16619.83
892.131	16537.8
892.447	16512.04
892.763	16363.79
893.079	16421.64
893.395	16287.18
893.71	16282.21
894.026	16259.16
894.342	16060.75
894.657	16098.94
894.973	15965.61
895.289	16047.87
895.604	15904.6
895.92	15807.2
896.235	15739.18
896.55	15807.88
896.865	15639.74
897.181	15637.71
897.496	15642.91
897.811	15501.44
898.126	15469.35
898.441	15285.4
898.756	15292.41
899.071	15199.3
899.386	15271.17
899.7	15175.35
900.015	15044.96
900.33	14959.31
900.644	15012.19
900.959	14970.61
901.273	14878.63
901.588	14793.44
901.902	14834.12
902.216	14727.45
902.531	14618.3
902.845	14565.2
903.159	14521.13
903.473	14528.81
903.787	14461.24
904.101	14386.67
904.415	14376.05
904.729	14384.18
905.042	14291.76
905.356	14187.13
905.67	14178.77
905.984	14146.68
906.297	14186.9
906.611	13927.25
906.924	13991.65
907.237	13993.69
907.551	13938.55
907.864	13904.87
908.177	13805.89
908.491	13772.67
908.804	13716.63
909.117	13765.22
909.43	13665.78
909.743	13564.32
910.056	13538.33
910.368	13595.5
910.681	13476.64
910.994	13470.54
911.307	13450.42
911.619	13253.59
911.932	13323.42
912.244	13246.59
912.557	13189.87
912.869	13122.75
913.181	13153.71
913.494	13134.73
913.806	13028.74
914.118	13047.5
914.43	12952.36
914.742	12902.19
915.054	12868.97
915.366	12775.19
915.678	12792.59
915.99	12735.41
916.302	12688.18
916.613	12665.81
916.925	12642.31
917.236	12625.81
917.548	12586.72
917.859	12643.21
918.171	12488.19
918.482	12448.19
918.794	12368.19
919.105	12361.64
919.416	12271.25
919.727	12231.47
920.038	12221.75
920.349	12156.45
920.66	12003.68
920.971	12031.25
921.282	11993.06
921.593	11834.19
921.903	11906.06
922.214	11897.47
922.525	11828.09
922.835	11750.81
923.146	11633.75
923.456	11626.52
923.767	11600.08
924.077	11591.49
924.387	11439.18
924.697	11439.63
925.008	11448.89
925.318	11328.67
925.628	11364.83
925.938	11265.62
926.248	11166.87
926.558	11176.81
926.867	11117.6
927.177	11036.93
927.487	11050.49
927.796	10895.24
928.106	10941.34
928.416	10834.45
928.725	10815.92
929.034	10769.59
929.344	10705.41
929.653	10681
929.962	10578.41
930.271	10566.43
930.581	10556.26
930.89	10418.86
931.199	10342.03
931.508	10403.72
931.817	10315.82
932.125	10251.19
932.434	10234.91
932.743	10075.82
933.051	10057.52
933.36	10013.23
933.669	10014.36
933.977	9951.53
934.286	9864.3
934.594	9862.72
934.902	9763.06
935.21	9711.76
935.519	9741.37
935.827	9674.7
936.135	9602.61
936.443	9492.34
936.751	9468.61
937.059	9509.51
937.367	9409.4
937.674	9343.41
937.982	9320.14
938.29	9293.92
938.597	9254.38
938.905	9210.53
939.213	9147.03
939.52	9117.88
939.827	9120.37
940.135	9083.31
940.442	8997.21
940.749	8923.31
941.056	8929.64
941.363	8881.73
941.67	8886.02
941.977	8799.92
942.284	8720.38
942.591	8764.67
942.898	8688.74
943.205	8632.92
943.511	8573.72
943.818	8558.8
944.125	8516.99
944.431	8428.63
944.738	8426.37
945.044	8415.3
945.35	8369.43
945.657	8339.37
945.963	8359.03
946.269	8322.42
946.575	8313.16
946.881	8266.83
947.187	8175.99
947.493	8140.73
947.799	8147.96
948.105	8079.94
948.41	8094.86
948.716	8054.86
949.022	7986.16
949.327	7956.1
949.633	7882.66
949.938	7898.25
950.244	7923.56
950.549	7845.37
950.854	7840.4
951.16	7767.41
951.465	7774.64
951.77	7711.82
952.075	7717.69
952.38	7659.61
952.685	7699.84
952.99	7647.19
953.294	7645.38
953.599	7616.9
953.904	7552.27
954.209	7526.29
954.513	7461.43
954.818	7474.31
955.122	7530.35
955.426	7416.68
955.731	7383.01
956.035	7358.83
956.339	7362.45
956.643	7297.14
956.948	7242.68
957.252	7223.47
957.556	7197.93
957.86	7175.56
958.163	7199.06
958.467	7133.98
958.771	7156.8
959.075	7099.18
959.378	7018.73
959.682	7035.22
959.985	7011.04
960.289	6978.05
960.592	6886.98
960.896	6895.34
961.199	6824.16
961.502	6851.5
961.805	6805.17
962.108	6731.96
962.411	6710.71
962.714	6675.69
963.017	6638.4
963.32	6679.98
963.623	6595.46
963.926	6596.14
964.228	6627.78
964.531	6565.41
964.833	6534.45
965.136	6468.69
965.438	6432.53
965.741	6437.27
966.043	6398.86
966.345	6355.47
966.648	6341.46
966.95	6294.91
967.252	6258.75
967.554	6328.35
967.856	6244.06
968.158	6151.86
968.46	6132.88
968.761	6144.85
969.063	6084.06
969.365	6071.86
969.666	6022.37
969.968	5962.71
970.269	5968.81
970.571	5947.12
970.872	5918.64
971.174	5857.63
971.475	5835.48
971.776	5837.06
972.077	5791.87
972.378	5779.66
972.679	5756.84
972.98	5742.38
973.281	5695.15
973.582	5714.58
973.883	5656.28
974.183	5602.95
974.484	5540.35
974.785	5574.25
975.085	5540.35
975.386	5543.51
975.686	5422.61
975.986	5391.43
976.287	5405.89
976.587	5332.9
976.887	5322.73
977.187	5346.46
977.487	5296.74
977.787	5297.42
978.087	5260.81
978.387	5220.81
978.687	5214.03
978.987	5179.23
979.286	5160.7
979.586	5140.81
979.885	5072.34
980.185	5030.08
980.484	5031.44
980.784	5005
981.083	4995.73
981.382	4994.37
981.682	4994.83
981.981	4889.74
982.28	4875.06
982.579	4921.16
982.878	4854.27
983.177	4786.47
983.475	4802.97
983.774	4747.15
984.073	4740.14
984.372	4735.17
984.67	4703.31
984.969	4684.1
985.267	4694.72
985.566	4660.82
985.864	4592.8
986.162	4613.14
986.461	4560.94
986.759	4560.26
987.057	4520.94
987.355	4502.86
987.653	4524.56
987.951	4482.98
988.249	4455.63
988.547	4475.07
988.844	4430.1
989.142	4403.43
989.44	4343.54
989.737	4358.23
990.035	4372.47
990.332	4369.53
990.63	4300.16
990.927	4284.11
991.224	4278.69
991.521	4234.39
991.819	4198.46
992.116	4172.48
992.413	4193.27
992.71	4196.2
993.006	4172.93
993.303	4096.09
993.6	4143.1
993.897	4109.88
994.193	4069.43
994.49	4062.2
994.787	4037.56
995.083	4019.48
995.379	4021.97
995.676	3975.64
995.972	3965.47
996.268	4002.99
996.565	3937.68
996.861	3930.9
997.157	3901.52
997.453	3887.06
997.749	3863.78
998.044	3802.99
998.34	3824.24
998.636	3788.3
998.932	3774.29
999.227	3783.33
999.523	3803.67
999.818	3726.84
1000.114	3703.11
1000.409	3654.75
1000.704	3664.92
1001	3673.51
1001.295	3665.82
1001.59	3593.73
1001.885	3621.98
1002.18	3616.11
1002.475	3576.11
1002.77	3502.21
1003.065	3515.32
1003.359	3489.78
1003.654	3478.48
1003.949	3463.79
1004.243	3419.73
1004.538	3410.46
1004.832	3396.9
1005.127	3399.16
1005.421	3369.56
1005.715	3384.02
1006.009	3364.81
1006.304	3330.46
1006.598	3250.24
1006.892	3281.88
1007.186	3259.96
1007.48	3259.28
1007.773	3219.51
1008.067	3217.25
1008.361	3190.81
1008.655	3156.46
1008.948	3155.55
1009.242	3127.53
1009.535	3083.69
1009.829	3093.63
1010.122	3073.97
1010.415	3040.3
1010.708	3049.79
1011.001	2991.72
1011.295	2982.45
1011.588	2974.54
1011.881	2929.34
1012.173	2942
1012.466	2917.37
1012.759	2922.56
1013.052	2880.76
1013.344	2825.39
1013.637	2825.62
1013.93	2809.35
1014.222	2798.05
1014.514	2780.65
1014.807	2775.68
1015.099	2722.8
1015.391	2700.2
1015.683	2699.52
1015.976	2710.82
1016.268	2621.33
1016.56	2651.39
1016.851	2630.82
1017.143	2594.66
1017.435	2624.95
1017.727	2568
1018.018	2558.73
1018.31	2543.59
1018.602	2546.98
1018.893	2515.34
1019.185	2496.59
1019.476	2428.57
1019.767	2425.85
1020.058	2398.74
1020.35	2400.32
1020.641	2397.83
1020.932	2396.02
1021.223	2340.43
1021.514	2320.55
1021.804	2304.05
1022.095	2311.96
1022.386	2263.15
1022.677	2257.27
1022.967	2245.52
1023.258	2243.49
1023.548	2196.03
1023.839	2216.59
1024.129	2171.62
1024.419	2152.87
1024.709	2167.1
1025	2141.57
1025.29	2114.22
1025.58	2108.8
1025.87	2069.03
1026.16	2098.41
1026.449	2032.64
1026.739	2026.32
1027.029	2064.51
1027.319	1974.57
1027.608	2028.58
1027.898	1984.06
1028.187	1971.63
1028.477	1975.47
1028.766	1945.64
1029.055	1905.64
1029.344	1904.96
1029.634	1886.66
1029.923	1845.53
1030.212	1864.29
1030.501	1836.27
1030.79	1804.85
1031.078	1813.89
1031.367	1798.07
1031.656	1772.76
1031.945	1790.62
1032.233	1765.98
1032.522	1745.87
1032.81	1715.82
1033.099	1765.08
1033.387	1709.26
1033.675	1700.45
1033.963	1695.25
1034.251	1680.79
1034.54	1615.03
1034.828	1632.2
1035.116	1660.9
1035.403	1597.18
1035.691	1613.45
1035.979	1586.55
1036.267	1588.14
1036.554	1600.79
1036.842	1575.71
1037.129	1559.66
1037.417	1552.66
1037.704	1539.55
1037.992	1523.51
1038.279	1504.3
1038.566	1485.54
1038.853	1485.54
1039.14	1485.54
