Data from aluminium_surface_pro_back_FLMS001491_00030.txt Node
Date: Wed Feb 08 15:33:51 GMT 2017
User: dcchb
Spectrometer: FLMS00149
Trigger mode: 0
Integration Time (sec): 2.000000E-2
Scans to average: 10
Electric dark correction enabled: true
Nonlinearity correction enabled: false
Boxcar width: 0
XAxis mode: Wavelengths
Number of Pixels in Spectrum: 2048
>>>>>Begin Spectral Data<<<<<
341.393	-7.54
341.776	-7.54
342.16	-7.54
342.543	-70.14
342.927	-60.2
343.31	-64.26
343.693	-83.25
344.077	-51.61
344.46	-60.42
344.843	-54.77
345.226	-50.93
345.61	-50.48
345.993	-7.32
346.376	-15.23
346.759	-0.31
347.142	29.07
347.525	39.46
347.908	66.81
348.291	90.76
348.674	94.83
349.057	117.65
349.44	120.82
349.823	149.52
350.206	175.28
350.588	214.6
350.971	253.24
351.354	242.17
351.737	245.78
352.119	239.01
352.502	286.46
352.884	307.93
353.267	307.25
353.65	337.76
354.032	328.95
354.414	340.7
354.797	324.88
355.179	350.64
355.562	357.19
355.944	357.42
356.326	376.18
356.709	387.48
357.091	383.41
357.473	393.8
357.855	356.29
358.238	375.95
358.62	361.26
359.002	365.33
359.384	382.05
359.766	396.29
360.148	361.49
360.53	378.89
360.912	350.64
361.294	372.11
361.676	365.56
362.057	362.17
362.439	367.14
362.821	381.83
363.203	373.46
363.584	352.45
363.966	361.26
364.348	361.49
364.729	374.37
365.111	373.24
365.493	376.63
365.874	372.79
366.256	371.43
366.637	370.75
367.019	375.5
367.4	371.88
367.781	365.33
368.163	385.67
368.544	354.48
368.925	355.16
369.306	401.71
369.688	367.14
370.069	376.18
370.45	367.59
370.831	379.57
371.212	369.17
371.593	393.13
371.974	389.28
372.355	359.45
372.736	362.17
373.117	380.24
373.498	405.1
373.879	379.34
374.26	387.48
374.641	382.73
375.021	385.44
375.402	393.58
375.783	391.32
376.163	422.05
376.544	414.14
376.925	423.18
377.305	407.36
377.686	413.69
378.066	414.37
378.447	433.58
378.827	425.89
379.208	426.8
379.588	430.41
379.968	438.55
380.349	440.36
380.729	444.42
381.109	445.78
381.489	434.71
381.87	439.68
382.25	455.5
382.63	441.03
383.01	456.63
383.39	457.98
383.77	466.12
384.15	458.66
384.53	485.78
384.91	467.93
385.29	501.82
385.67	499.11
386.049	474.93
386.429	500.92
386.809	495.72
387.189	504.31
387.568	509.51
387.948	504.76
388.328	531.43
388.707	533.69
389.087	538.21
389.466	546.34
389.846	542.5
390.225	548.83
390.605	557.41
390.984	558.09
391.363	562.39
391.743	581.37
392.122	575.04
392.501	613.46
392.881	607.13
393.26	590.63
393.639	609.84
394.018	613.01
394.397	636.06
394.776	608.26
395.155	639.67
395.534	643.51
395.913	661.59
396.292	648.94
396.671	647.58
397.05	645.1
397.429	648.49
397.808	669.28
398.186	674.47
398.565	680.8
398.944	697.98
399.323	687.58
399.701	705.89
400.08	709.05
400.458	727.35
400.837	734.81
401.215	756.05
401.594	768.03
401.972	750.63
402.351	757.41
402.729	772.55
403.107	783.85
403.486	788.6
403.864	791.08
404.242	816.62
404.62	832.21
404.999	839.22
405.377	845.32
405.755	833.34
406.133	855.94
406.511	891.19
406.889	905.88
407.267	930.74
407.645	940
408.023	953.79
408.401	942.04
408.779	928.25
409.156	958.99
409.534	976.16
409.912	974.35
410.29	1014.13
410.667	1015.03
411.045	1046.22
411.422	1055.03
411.8	1072.88
412.178	1070.62
412.555	1083.05
412.933	1075.82
413.31	1105.2
413.687	1134.12
414.065	1148.13
414.442	1140.22
414.819	1170.28
415.197	1162.6
415.574	1212.31
415.951	1208.92
416.328	1224.29
416.705	1236.49
417.082	1227.91
417.46	1285.53
417.837	1269.71
418.214	1288.47
418.591	1300.22
418.967	1269.03
419.344	1323.72
419.721	1355.59
420.098	1333.21
420.475	1363.95
420.852	1378.86
421.228	1381.35
421.605	1417.96
421.982	1425.87
422.358	1409.6
422.735	1470.39
423.111	1483.27
423.488	1504.06
423.864	1514.23
424.241	1513.77
424.617	1522.81
424.994	1535.47
425.37	1557.84
425.746	1554.9
426.123	1591.06
426.499	1620.21
426.875	1605.07
427.251	1654.34
427.627	1685.75
428.003	1682.81
428.379	1699.31
428.756	1722.36
429.132	1746.54
429.507	1738.85
429.883	1795.8
430.259	1817.72
430.635	1847.32
431.011	1883.71
431.387	1911.28
431.763	1942.46
432.138	1940.2
432.514	1989.24
432.89	1990.15
433.265	2042.35
433.641	2055.23
434.016	2069.01
434.392	2126.41
434.767	2176.13
435.143	2162.12
435.518	2220.42
435.894	2211.83
436.269	2234.88
436.644	2292.06
437.02	2313.07
437.395	2299.52
437.77	2356.69
438.145	2358.05
438.52	2384.71
438.895	2421.09
439.271	2404.6
439.646	2486.63
440.021	2490.47
440.395	2510.13
440.77	2503.58
441.145	2529.79
441.52	2589.23
441.895	2583.8
442.27	2591.71
442.645	2614.99
443.019	2671.71
443.394	2639.85
443.769	2702.67
444.143	2668.32
444.518	2730.24
444.892	2702.9
445.267	2764.14
445.641	2774.98
446.016	2789.9
446.39	2789.67
446.764	2835.77
447.139	2847.98
447.513	2905.15
447.887	2866.96
448.262	2885.94
448.636	2900.4
449.01	2983.57
449.384	2988.76
449.758	3057.01
450.132	3061.3
450.506	3062.43
450.88	3103.56
451.254	3098.82
451.628	3163.45
452.002	3234.18
452.376	3224.46
452.75	3287.51
453.123	3329.32
453.497	3365.7
453.871	3366.61
454.244	3388.07
454.618	3440.05
454.992	3495.19
455.365	3501.97
455.739	3599.59
456.112	3643.66
456.486	3648.63
456.859	3668.29
457.232	3764.34
457.606	3745.58
457.979	3828.74
458.352	3886.82
458.725	3955.07
459.099	4020.15
459.472	4035.52
459.845	4126.13
460.218	4112.8
460.591	4174.27
460.964	4192.57
461.337	4337.2
461.71	4341.27
462.083	4468.05
462.456	4428.27
462.829	4444.32
463.201	4533.36
463.574	4528.61
463.947	4614.94
464.32	4731.32
464.692	4812.22
465.065	4836.4
465.438	4854.48
465.81	4974.47
466.183	4961.59
466.555	5123.4
466.928	5150.29
467.3	5154.36
467.672	5259.44
468.045	5304.86
468.417	5386.44
468.789	5374.24
469.161	5532.88
469.534	5595.02
469.906	5687.68
470.278	5795.24
470.65	5798.86
471.022	5939.19
471.394	6029.81
471.766	6068
472.138	6152.3
472.51	6321.1
472.882	6398.17
473.253	6482.91
473.625	6565.39
473.997	6695.33
474.369	6712.06
474.74	6774.43
475.112	6943.91
475.484	7095.55
475.855	7236.79
476.227	7290.57
476.598	7437.23
476.97	7498.93
477.341	7694.4
477.713	7817.34
478.084	7864.79
478.455	8122.41
478.827	8163.32
479.198	8435.17
479.569	8361.73
479.94	8722.62
480.311	8707.71
480.682	8920.58
481.053	9130.3
481.424	9309.27
481.795	9361.25
482.166	9550.17
482.537	9592.88
482.908	9885.08
483.279	9977.96
483.65	10174.79
484.021	10424.5
484.391	10435.35
484.762	10565.51
485.133	10598.96
485.503	10902.45
485.874	11032.85
486.244	11189
486.615	11417.02
486.985	11509.9
487.356	11772.71
487.726	11818.14
488.097	12168.86
488.467	12187.17
488.837	12374.96
489.207	12464.22
489.578	12754.83
489.948	12874.6
490.318	12948.73
490.688	13122.96
491.058	13318.44
491.428	13466.45
491.798	13643.62
492.168	13952.32
492.538	13901.92
492.908	14183.27
493.278	14348.01
493.648	14262.37
494.017	14543.71
494.387	14726.08
494.757	14888.79
495.126	15113.87
495.496	15054.66
495.866	15208.78
496.235	15424.14
496.605	15627.98
496.974	15730.58
497.344	15783.68
497.713	15901.87
498.082	16074.75
498.452	16234.52
498.821	16302.54
499.19	16337.56
499.559	16494.17
499.928	16597.44
500.298	16796.54
500.667	16908.62
501.036	16924.67
501.405	17116.53
501.774	17137.77
502.143	17267.48
502.512	17361.49
502.88	17573.24
503.249	17593.8
503.618	17797.41
503.987	17825.44
504.356	18001.02
504.724	18092.32
505.093	18184.97
505.462	18316.5
505.83	18526.43
506.199	18624.28
506.567	18859.76
506.936	18871.06
507.304	19134.55
507.672	19160.77
508.041	19338.39
508.409	19494.77
508.777	19663.13
509.145	19824.03
509.514	19824.03
509.882	20065.83
510.25	20083.23
510.618	20332.94
510.986	20317.35
511.354	20513.27
511.722	20683.44
512.09	20972.47
512.458	20959.36
512.826	21125.01
513.193	21196.42
513.561	21477.77
513.929	21557.54
514.297	21713.24
514.664	21826.69
515.032	21996.85
515.4	22323.85
515.767	22367.24
516.135	22531.75
516.502	22400.23
516.869	22819.43
517.237	22937.39
517.604	22898.52
517.972	23194.79
518.339	23474.78
518.706	23462.8
519.073	23579.18
519.44	23814.66
519.808	24100.75
520.175	24127.42
520.542	24516.78
520.909	24586.39
521.276	24714.52
521.643	24992.7
522.009	25116.54
522.376	25406.03
522.743	25578.45
523.11	25852.34
523.477	26035.84
523.843	26325.55
524.21	26513.34
524.577	26799.21
524.943	26848.7
525.31	27039.88
525.676	27129.37
526.043	27368.91
526.409	27600.09
526.776	27871.95
527.142	27924.83
527.508	28254.09
527.874	28333.86
528.241	28526.62
528.607	28605.04
528.973	28974.29
529.339	28870.57
529.705	29152.14
530.071	29342.42
530.437	29586.48
530.803	29714.39
531.169	29933.14
531.535	29819.02
531.901	30032.57
532.267	30259.68
532.632	30576.29
532.998	30777.19
533.364	30927.92
533.73	30920.01
534.095	31186.44
534.461	31279.32
534.826	31427.79
535.192	31588.69
535.557	31793.88
535.923	31846.31
536.288	32028.23
536.653	32130.37
537.019	32104.38
537.384	32282.46
537.749	32386.18
538.114	32417.37
538.479	32560.87
538.845	32685.16
539.21	32757.92
539.575	32788.88
539.94	33013.28
540.305	33050.12
540.67	33102.1
541.034	33416.66
541.399	33537.79
541.764	33615.98
542.129	33724.9
542.494	33792.7
542.858	34078.79
543.223	34013.48
543.587	34241.05
543.952	34182.07
544.316	34370.76
544.681	34393.36
545.045	34565.79
545.41	34837.64
545.774	34851.43
546.138	34796.97
546.503	35062.5
546.867	35023.4
547.231	35328.03
547.595	35385.88
547.959	35578.19
548.324	35596.95
548.688	35581.8
549.052	35847.33
549.416	35933.43
549.779	35915.81
550.143	36060.44
550.507	36340.2
550.871	36517.37
551.235	36540.65
551.599	36781.77
551.962	36820.42
552.326	36981.32
552.689	37137.47
553.053	37021.31
553.417	37158.26
553.78	37748.3
554.143	37427.41
554.507	37745.59
554.87	37760.05
555.234	38365.01
555.597	38082.3
555.96	38303.31
556.323	38501.05
556.686	38603.42
557.05	38876.86
557.413	39003.41
557.776	39203.4
558.139	39346
558.502	39433
558.865	39546.9
559.228	39811.07
559.59	39973.1
559.953	40141.91
560.316	40446.31
560.679	40422.36
561.041	40738.51
561.404	41011.04
561.767	41178.27
562.129	40990.7
562.492	41496.45
562.854	41628.2
563.217	41610.35
563.579	41788.2
563.941	42077
564.304	42396.99
564.666	42477.89
565.028	42705.69
565.39	42846.02
565.753	43107.71
566.115	43156.29
566.477	43469.28
566.839	43562.16
567.201	43848.71
567.563	43992.88
567.925	44252.54
568.287	44278.75
568.648	44451.18
569.01	44579.53
569.372	44911.5
569.734	44862.24
570.095	45178.84
570.457	45399.85
570.819	45491.83
571.18	45438.27
571.542	45885.94
571.903	45957.12
572.265	46003.9
572.626	46189.44
572.987	46271.69
573.349	46314.86
573.71	46689.99
574.071	46648.63
574.432	46874.16
574.794	47051.11
575.155	47002.97
575.516	47044.78
575.877	47244.55
576.238	47273.02
576.599	47405.67
576.96	47552.34
577.32	47619
577.681	47760.69
578.042	47971.54
578.403	47930.18
578.763	47966.11
579.124	48248.14
579.485	48297.18
579.845	48483.39
580.206	48302.15
580.566	48369.04
580.927	48476.38
581.287	48523.39
581.648	48372.65
582.008	48582.14
582.368	48546.21
582.728	48612.42
583.089	48593.89
583.449	48555.25
583.809	48666.66
584.169	48862.13
584.529	48681.35
584.889	49062.13
585.249	48868.01
585.609	48779.42
585.969	48974.67
586.329	48891.06
586.688	48950.72
587.048	48951.85
587.408	48906.2
587.768	48957.95
588.127	48830.95
588.487	48855.13
588.846	49061
589.206	48854.9
589.565	48878.18
589.925	49162.46
590.284	48921.79
590.643	49115.23
591.003	49121.34
591.362	49132.18
591.721	49223.93
592.08	49187.1
592.44	49223.03
592.799	49328.34
593.158	49217.15
593.517	49336.47
593.876	49328.11
594.235	49204.95
594.593	49264.61
594.952	49478.16
595.311	49229.58
595.67	49430.03
596.029	49598.84
596.387	49679.51
596.746	49644.26
597.104	49606.29
597.463	49485.62
597.822	49693.3
598.18	49538.5
598.538	49541.89
598.897	49760.41
599.255	49387.77
599.613	49941.43
599.972	49673.41
600.33	49837.25
600.688	49671.38
601.046	49804.93
601.404	49960.64
601.762	49898.94
602.12	50160.86
602.478	50035.21
602.836	50005.83
603.194	49807.19
603.552	49947.08
603.91	49940.3
604.268	50078.82
604.625	49923.57
604.983	50140.29
605.341	49997.7
605.698	50154.75
606.056	50165.83
606.413	50201.76
606.771	50304.36
607.128	50439.49
607.485	50213.28
607.843	50198.6
608.2	50566.5
608.557	50644.23
608.914	50583.9
609.272	50683.78
609.629	50730.56
609.986	50868.86
610.343	50689.66
610.7	50881.97
611.057	50774.85
611.414	50801.74
611.771	50797.68
612.127	50945.02
612.484	50947.73
612.841	51079.48
613.198	50868.86
613.554	51027.95
613.911	51268.85
614.267	51220.49
614.624	50996.09
614.98	51196.08
615.337	51418.45
615.693	51357.21
616.05	51308.4
616.406	51399.47
616.762	51391.33
617.118	51283.76
617.475	51258.68
617.831	51348.85
618.187	51419.13
618.543	51415.06
618.899	51712
619.255	51556.98
619.611	51525.57
619.967	51702.28
620.323	51674.49
620.678	51639.01
621.034	51500.26
621.39	51484.89
621.746	51410.99
622.101	51803.3
622.457	51427.94
622.812	51528.05
623.168	51623.87
623.523	51547.03
623.879	51629.97
624.234	51600.37
624.589	51540.93
624.945	51577.09
625.3	51654.83
625.655	51669.07
626.01	51602.4
626.365	51599.91
626.72	51721.72
627.075	51566.47
627.43	51532.35
627.785	51525.57
628.14	51605.79
628.495	51539.8
628.85	51497.32
629.205	51438.79
629.559	51566.24
629.914	51419.81
630.269	51475.62
630.623	51288.96
630.978	51298
631.332	51488.96
631.687	51483.53
632.041	51228.4
632.396	51379.58
632.75	51281.73
633.104	51344.33
633.459	51188.4
633.813	51224.78
634.167	51281.96
634.521	51106.59
634.875	51252.58
635.229	51172.13
635.583	50993.83
635.937	51028.63
636.291	50953.38
636.645	50988.63
636.999	50898.24
637.352	50938.01
637.706	50706.15
638.06	50852.59
638.413	50715.19
638.767	50672.71
639.121	50720.62
639.474	50450.34
639.828	50416.22
640.181	50465.48
640.534	50444.01
640.888	50414.18
641.241	50233.17
641.594	50321.3
641.947	50237.24
642.301	50346.16
642.654	50369.44
643.007	50271.59
643.36	50140.29
643.713	49983.91
644.066	50126.51
644.419	49802.22
644.771	49661.66
645.124	49281.78
645.477	49073.88
645.83	48988.91
646.182	48794.11
646.535	48785.07
646.888	48790.5
647.24	48612.42
647.593	48905.07
647.945	48665.53
648.298	48500.33
648.65	48445.42
649.002	48363.39
649.355	48437.29
649.707	48441.81
650.059	48512.54
650.411	48930.83
650.763	49110.49
651.115	49247.66
651.467	49229.81
651.819	49077.49
652.171	49033.2
652.523	49029.13
652.875	49162.01
653.227	48872.98
653.578	49056.48
653.93	49056.7
654.282	48853.77
654.633	48646.32
654.985	48787.78
655.337	48764.51
655.688	48763.6
656.039	48843.38
656.391	48480.45
656.742	48592.31
657.094	48677.73
657.445	48739.88
657.796	48771.06
658.147	48530.16
658.498	48447.23
658.849	48499.66
659.2	48491.52
659.551	48440.68
659.902	48466.21
660.253	48326.33
660.604	48430.73
660.955	48313.9
661.306	48325.2
661.656	48261.25
662.007	48332.88
662.358	48303.5
662.708	48193
663.059	48089.72
663.409	47866.45
663.76	48216.95
664.11	48122.72
664.461	48147.8
664.811	48171.53
665.161	48221.92
665.511	47999.33
665.862	47982.16
666.212	48148.03
666.562	48054.47
666.912	47981.25
667.262	48000.69
667.612	47980.12
667.962	48018.31
668.312	48007.69
668.662	48215.6
669.011	47993.91
669.361	47761.37
669.711	47862.61
670.06	47655.61
670.41	47651.09
670.76	47570.64
671.109	47705.33
671.459	47638.89
671.808	47617.19
672.157	47700.13
672.507	47476.41
672.856	47477.76
673.205	47564.54
673.554	47600.92
673.904	47426.24
674.253	47659.68
674.602	47353.7
674.951	46957.32
675.3	46682.3
675.649	47343.76
675.998	47237.32
676.346	47341.5
676.695	47400.25
677.044	46982.63
677.393	47168.84
677.741	47055.63
678.09	46930.66
678.438	46936.99
678.787	46952.8
679.135	46940.6
679.484	46665.35
679.832	46885.24
680.181	46510.56
680.529	46703.09
680.877	46608.41
681.225	46475.76
681.573	46722.3
681.922	46342.88
682.27	46266.72
682.618	46278.25
682.966	46162.54
683.314	46291.13
683.661	46174.75
684.009	45800.52
684.357	45839.16
684.705	45714.65
685.053	45784.02
685.4	45650.47
685.748	45620.86
686.095	45611.82
686.443	45331.83
686.79	45279.63
687.138	45446.86
687.485	45369.34
687.832	45105.4
688.18	45062.46
688.527	45021.33
688.874	44862.46
689.221	44895.23
689.568	44742.02
689.915	44694.56
690.262	44662.02
690.609	44531.63
690.956	44508.12
691.303	44407.34
691.65	44297.96
691.997	44333.21
692.344	44007.8
692.69	43908.59
693.037	43939.78
693.383	43662.27
693.73	43813.45
694.077	43546.34
694.423	43438.77
694.769	43449.62
695.116	43230.87
695.462	43257.31
695.808	43150.19
696.155	43240.36
696.501	42847.38
696.847	42708.4
697.193	42505.01
697.539	42662.07
697.885	42364.9
698.231	42321.74
698.577	42262.98
698.923	42027.06
699.269	41902.09
699.614	41765.6
699.96	41620.97
700.306	41520.86
700.651	41549.78
700.997	41422.78
701.342	41345.49
701.688	41216.23
702.033	41250.13
702.379	41171.26
702.724	40925.39
703.069	41056.69
703.415	40727.66
703.76	40653.31
704.105	40680.43
704.45	40496.25
704.795	40326.09
705.14	40114.11
705.485	40113.66
705.83	39957.51
706.175	39891.3
706.52	39879.77
706.865	39713.45
707.209	39703.96
707.554	39344.19
707.899	39614.92
708.243	39353.23
708.588	39295.38
708.932	39130.64
709.277	38980.59
709.621	39079.57
709.966	38719.12
710.31	38870.08
710.654	38478.9
710.998	38652.68
711.342	38651.55
711.687	38614.72
712.031	38442.75
712.375	38354.16
712.719	38302.18
713.063	38242.3
713.407	38274.84
713.75	38107.84
714.094	38108.07
714.438	37929.31
714.782	37975.64
715.125	37706.04
715.469	37759.83
715.812	37549.21
716.156	37419.95
716.499	37532.26
716.843	37394.41
717.186	37146.74
717.53	37350.12
717.873	37352.83
718.216	37199.39
718.559	37076.45
718.902	36832.62
719.246	37006.63
719.589	36708.33
719.932	36622.68
720.275	36533.87
720.617	36675.79
720.96	36438.51
721.303	36489.35
721.646	36592.4
721.989	36420.43
722.331	36395.12
722.674	36381.56
723.016	36270.15
723.359	36170.04
723.701	36191.51
724.044	35931.4
724.386	35842.36
724.729	35996.48
725.071	35776.6
725.413	35725.08
725.755	35639.43
726.097	35449.15
726.439	35435.82
726.782	35467.23
727.124	35555.82
727.465	35300
727.807	35321.47
728.149	35178.2
728.491	35138.2
728.833	35135.49
729.175	34865.67
729.516	35021.82
729.858	34798.32
730.199	34936.62
730.541	34864.76
730.882	34901.6
731.224	34812.33
731.565	34631.1
731.906	34709.51
732.248	34653.24
732.589	34566.92
732.93	34410.99
733.271	34421.61
733.612	34435.39
733.953	34375.51
734.294	34195.63
734.635	34126.48
734.976	34118.57
735.317	33924.22
735.658	33909.76
735.999	33937.55
736.339	33754.28
736.68	33895.75
737.021	33719.48
737.361	33679.48
737.702	33841.29
738.042	33705.92
738.383	33509.77
738.723	33600.84
739.063	33435.42
739.404	33481.52
739.744	33398.36
740.084	33311.13
740.424	33227.29
740.764	33282.43
741.104	33270.9
741.444	33076.79
741.784	32974.87
742.124	33036.11
742.464	33131.47
742.804	33049.67
743.143	32771.71
743.483	32856.23
743.823	32724.03
744.162	32786.85
744.502	32650.13
744.841	32547.08
745.181	32776.23
745.52	32578.49
745.86	32726.06
746.199	32484.03
746.538	32493.3
746.877	32391.61
747.216	32267.99
747.556	32201.55
747.895	32288.56
748.234	32020.09
748.573	31928.57
748.911	32045.63
749.25	31947.78
749.589	31641.34
749.928	31722.47
750.267	31813.99
750.605	31584.17
750.944	31630.72
751.283	31458.3
751.621	31391.41
751.96	31191.41
752.298	31281.13
752.636	31400.9
752.975	31237.29
753.313	31146.67
753.651	31171.75
753.989	30936.73
754.327	30903.96
754.666	30769.28
755.004	30894.24
755.342	30883.62
755.679	30820.57
756.017	30668.94
756.355	30796.17
756.693	30496.29
757.031	30535.38
757.368	30372.9
757.706	30278.89
758.044	30186.01
758.381	30286.12
758.719	29929.98
759.056	30112.8
759.394	29966.58
759.731	29684.11
760.068	29694.05
760.405	29480.04
760.743	29615.18
761.08	29582.87
761.417	29348.3
761.754	29248.86
762.091	29291.57
762.428	29124.57
762.765	28969.55
763.102	29084.57
763.438	28841.87
763.775	28734.3
764.112	28624.47
764.449	28744.24
764.785	28520.97
765.122	28374.76
765.458	28286.63
765.795	28190.81
766.131	28226.97
766.467	28027.65
766.804	27818.39
767.14	27825.62
767.476	27784.27
767.812	27572.75
768.148	27501.79
768.485	27434.22
768.821	27161.46
769.157	27107.68
769.492	27051.63
769.828	26978.19
770.164	26813.22
770.5	26730.06
770.836	26714.92
771.171	26446.9
771.507	26472.89
771.842	26289.39
772.178	26256.4
772.513	26220.02
772.849	26166.68
773.184	26017.99
773.519	26011.43
773.855	25906.58
774.19	25860.48
774.525	25841.95
774.86	25777.09
775.195	25623.87
775.53	25409.64
775.865	25378.91
776.2	25231.79
776.535	25039.26
776.87	25050.78
777.205	24877.68
777.539	24772.37
777.874	24832.48
778.209	24509.78
778.543	24487.63
778.878	24257.81
779.212	24359.27
779.547	24192.95
779.881	24168.55
780.215	23988.66
780.55	24073.63
780.884	23861.66
781.218	23812.4
781.552	23834.09
781.886	23684.72
782.22	23564.72
782.554	23440.43
782.888	23144.39
783.222	23119.76
783.556	23149.36
783.889	22966.77
784.223	22827.34
784.557	22763.38
784.89	22822.14
785.224	22691.75
785.557	22580.56
785.891	22447.69
786.224	22564.52
786.558	22447.23
786.891	22337.86
787.224	22228.26
787.557	22234.81
787.891	22147.13
788.224	22095.61
788.557	22084.76
788.89	21925.67
789.223	21937.19
789.556	21847.02
789.888	21739.91
790.221	21595.05
790.554	21359.13
790.887	21505.79
791.219	21454.72
791.552	21282.97
791.884	21290.65
792.217	21052.47
792.549	21069.64
792.882	20910.78
793.214	20810.44
793.546	20929.31
793.879	20676.43
794.211	20502.43
794.543	20574.29
794.875	20559.37
795.207	20553.05
795.539	20481.41
795.871	20441.41
796.203	20261.53
796.535	20131.14
796.867	20149.89
797.198	19978.15
797.53	19954.64
797.862	19831.48
798.193	19858.38
798.525	19766.4
798.856	19812.05
799.188	19619.29
799.519	19564.15
799.85	19398.73
800.182	19384.04
800.513	19396.69
800.844	19253.87
801.175	19373.19
801.506	19294.55
801.837	19191.05
802.168	19036.7
802.499	19115.34
802.83	18924.39
803.161	18972.98
803.491	18884.39
803.822	18837.39
804.153	18768.69
804.483	18650.72
804.814	18635.58
805.145	18605.75
805.475	18607.79
805.805	18442.59
806.136	18448.24
806.466	18436.49
806.796	18270.85
807.126	18231.53
807.457	18107.69
807.787	18143.39
808.117	18034.92
808.447	17922.16
808.777	18111.53
809.107	17916.73
809.436	17810.29
809.766	17830.18
810.096	17733.69
810.426	17786.57
810.755	17740.47
811.085	17667.93
811.414	17595.38
811.744	17483.3
812.073	17413.02
812.403	17509.74
812.732	17324.21
813.061	17445.78
813.39	17217.77
813.719	17191.33
814.049	17311.1
814.378	17218.67
814.707	17046.02
815.036	17053.93
815.365	16972.58
815.693	16895.06
816.022	16875.18
816.351	16743.66
816.68	16660.95
817.008	16760.83
817.337	16640.38
817.665	16613.04
817.994	16694.84
818.322	16640.16
818.651	16472.7
818.979	16425.7
819.307	16479.03
819.636	16415.98
819.964	16283.33
820.292	16376.66
820.62	16336.66
820.948	16269.32
821.276	16371.91
821.604	16234.06
821.932	16323.78
822.259	16240.39
822.587	16346.38
822.915	16195.65
823.243	16222.09
823.57	16261.86
823.898	16282.42
824.225	16252.6
824.553	16243.33
824.88	16209.21
825.207	16282.88
825.535	16176.89
825.862	16288.53
826.189	16235.19
826.516	16304.8
826.843	16339.15
827.17	16384.57
827.497	16319.71
827.824	16297.11
828.151	16374.17
828.478	16313.38
828.805	16242.2
829.131	16232.48
829.458	16202.88
829.785	16218.47
830.111	16143.45
830.438	16253.73
830.764	16155.42
831.09	16261.18
831.417	16170.56
831.743	16219.6
832.069	16138.7
832.395	15966.5
832.722	16125.59
833.048	16064.8
833.374	16072.94
833.7	16054.18
834.026	16023.9
834.351	16101.41
834.677	16011.7
835.003	15962.43
835.329	16055.99
835.654	16017.57
835.98	16006.95
836.306	15970.34
836.631	15892.6
836.956	15975.77
837.282	15969.66
837.607	15794.08
837.932	15786.84
838.258	15824.36
838.583	15813.28
838.908	15663.23
839.233	15717.92
839.558	15618.71
839.883	15644.25
840.208	15513.86
840.533	15555.44
840.858	15542.11
841.182	15513.41
841.507	15529
841.832	15463.46
842.156	15464.82
842.481	15435.22
842.805	15439.96
843.13	15300.98
843.454	15340.75
843.778	15212.85
844.103	15290.36
844.427	15201.55
844.751	15237.93
845.075	15200.87
845.399	15064.6
845.723	15027.54
846.047	15101.21
846.371	14952.97
846.695	14909.58
847.019	14768.79
847.343	14722.01
847.666	14672.52
847.99	14625.52
848.313	14669.36
848.637	14547.56
848.96	14546.43
849.284	14442.7
849.607	14410.16
849.931	14357.5
850.254	14284.96
850.577	14190.73
850.9	14093.33
851.223	14115.48
851.546	14058.3
851.869	13938.31
852.192	14012.2
852.515	13866.22
852.838	13821.25
853.161	13803.17
853.483	13723.85
853.806	13669.61
854.129	13669.39
854.451	13526.79
854.774	13494.93
855.096	13461.71
855.419	13390.52
855.741	13426.23
856.063	13300.81
856.385	13365.21
856.708	13313.01
857.03	13229.85
857.352	13221.71
857.674	13109.85
857.996	13185.78
858.318	13064.88
858.64	13166.57
858.961	13039.12
859.283	12971.55
859.605	12921.61
859.926	13003.87
860.248	12943.08
860.57	12853.36
860.891	12913.25
861.212	12821.27
861.534	12796.41
861.855	12771.33
862.176	12738.79
862.498	12768.17
862.819	12658.57
863.14	12734.95
863.461	12612.46
863.782	12593.26
864.103	12636.42
864.424	12572.01
864.745	12609.53
865.065	12519.13
865.386	12473.26
865.707	12525.91
866.027	12510.55
866.348	12447.72
866.668	12401.85
866.989	12370.66
867.309	12384.22
867.63	12424.45
867.95	12306.71
868.27	12327.5
868.59	12276.2
868.91	12272.59
869.23	12291.34
869.55	12173.38
869.87	12344.68
870.19	12184.68
870.51	12250.21
870.83	12237.11
871.15	12129.31
871.469	12139.94
871.789	12145.13
872.109	12139.94
872.428	11996.21
872.748	12142.42
873.067	12008.64
873.386	12112.82
873.706	12059.49
874.025	11976.78
874.344	11912.14
874.663	11998.24
874.982	12012.03
875.301	11920.73
875.62	11948.53
875.939	11919.83
876.258	11850.45
876.577	11932.48
876.896	11830.34
877.214	11845.03
877.533	11883.44
877.852	11777.68
878.17	11791.47
878.489	11777.68
878.807	11799.6
879.125	11814.07
879.444	11774.07
879.762	11769.1
880.08	11768.42
880.398	11658.82
880.716	11698.82
881.034	11728.19
881.352	11712.6
881.67	11683
881.988	11698.14
882.306	11628.54
882.624	11614.07
882.941	11607.29
883.259	11562.32
883.577	11460.63
883.894	11539.05
884.212	11473.96
884.529	11541.08
884.846	11433.96
885.164	11474.64
885.481	11343.8
885.798	11439.84
886.115	11431.93
886.432	11337.92
886.75	11321.88
887.067	11371.82
887.383	11319.39
887.7	11291.14
888.017	11239.39
888.334	11241.2
888.651	11230.81
888.967	11164.14
889.284	11067.19
889.6	11158.27
889.917	11067.19
890.233	11035.78
890.55	10962.56
890.866	11014.77
891.182	11007.76
891.498	10958.27
891.815	10982.9
892.131	10906.07
892.447	10876.24
892.763	10880.08
893.079	10873.08
893.395	10753.98
893.71	10694.32
894.026	10778.39
894.342	10683.93
894.657	10624.27
894.973	10650.48
895.289	10678.05
895.604	10625.85
895.92	10560.77
896.235	10533.88
896.55	10508.79
896.865	10460.88
897.181	10427.44
897.496	10499.98
897.811	10336.82
898.126	10379.3
898.441	10279.64
898.756	10238.52
899.071	10193.09
899.386	10237.61
899.7	10184.73
900.015	10082.81
900.33	10040.1
900.644	10030.84
900.959	10086.2
901.273	10048.46
901.588	9956.26
901.902	9929.15
902.216	9865.87
902.531	9815.48
902.845	9872.42
903.159	9803.95
903.473	9799.43
903.787	9763.27
904.101	9687.57
904.415	9683.05
904.729	9694.35
905.042	9682.6
905.356	9674.92
905.67	9606.22
905.984	9546.33
906.297	9539.55
906.611	9477.18
906.924	9423.85
907.237	9451.87
907.551	9389.72
907.864	9371.19
908.177	9359.44
908.491	9286.45
908.804	9263.63
909.117	9228.6
909.43	9142.05
909.743	9106.79
910.056	9097.53
910.368	9123.07
910.681	9012.33
910.994	9091.88
911.307	8954.48
911.619	8895.27
911.932	8963.3
912.244	8857.54
912.557	8859.8
912.869	8832
913.181	8830.64
913.494	8818.89
913.806	8725.56
914.118	8701.61
914.43	8714.49
914.742	8607.82
915.054	8625.9
915.366	8602.4
915.678	8516.3
915.99	8497.54
916.302	8423.42
916.613	8481.05
916.925	8462.07
917.236	8388.85
917.548	8382.07
917.859	8316.76
918.171	8257.33
918.482	8260.49
918.794	8202.41
919.105	8215.07
919.416	8106.14
919.727	8200.15
920.038	8109.76
920.349	8015.3
920.66	7976.88
920.971	8092.13
921.282	7976.2
921.593	7990.89
921.903	7938.46
922.214	7909.76
922.525	7781.63
922.835	7812.59
923.146	7799.03
923.456	7788.64
923.767	7688.07
924.077	7679.04
924.387	7612.37
924.697	7641.97
925.008	7621.41
925.318	7523.79
925.628	7465.48
925.938	7486.5
926.248	7437.69
926.558	7398.59
926.867	7435.65
927.177	7405.82
927.487	7380.06
927.796	7273.85
928.106	7290.8
928.416	7233.17
928.725	7202.44
929.034	7159.05
929.344	7170.35
929.653	7232.04
929.962	7129.22
930.271	7039.05
930.581	7073.85
930.89	7012.84
931.199	7038.37
931.508	6991.82
931.817	6996.12
932.125	6928.55
932.434	6927.42
932.743	6846.51
933.051	6824.37
933.36	6763.13
933.669	6720.87
933.977	6711.38
934.286	6731.04
934.594	6684.49
934.902	6611.94
935.21	6603.13
935.519	6632.51
935.827	6559.52
936.135	6569.23
936.443	6458.73
936.751	6527.2
937.059	6399.52
937.367	6406.98
937.674	6394.55
937.982	6327.21
938.29	6328.56
938.597	6330.14
938.905	6289.02
939.213	6255.34
939.52	6247.89
939.827	6252.63
940.135	6205.18
940.442	6185.52
940.749	6165.18
941.056	6158.85
941.363	6104.84
941.67	6063.48
941.977	6011.96
942.284	5964.05
942.591	5961.34
942.898	5951.85
943.205	5924.96
943.511	5904.62
943.818	5940.32
944.125	5860.78
944.431	5824.62
944.738	5865.52
945.044	5818.29
945.35	5755.92
945.657	5712.53
945.963	5741.23
946.269	5687
946.575	5677.73
946.881	5615.13
947.187	5644.51
947.493	5585.08
947.799	5588.69
948.105	5585.98
948.41	5521.13
948.716	5549.6
949.022	5467.57
949.327	5455.59
949.633	5447.91
949.938	5427.8
950.244	5446.78
950.549	5438.19
950.854	5369.27
951.16	5346.22
951.465	5342.83
951.77	5347.57
952.075	5256.73
952.38	5272.32
952.685	5202.72
952.99	5178.31
953.294	5195.71
953.599	5100.35
953.904	5151.42
954.209	5078.2
954.513	5073
954.818	5066.67
955.122	5046.79
955.426	5036.84
955.731	4995.94
956.035	5037.07
956.339	4990.97
956.643	4952.55
956.948	4927.02
957.252	4857.41
957.556	4845.21
957.86	4873.23
958.163	4858.54
958.467	4811.99
958.771	4794.37
959.075	4807.02
959.378	4759.79
959.682	4747.14
959.985	4721.82
960.289	4673.92
960.592	4668.49
960.896	4672.79
961.199	4645.44
961.502	4592.56
961.805	4583.98
962.108	4589.63
962.411	4580.36
962.714	4550.08
963.017	4550.53
963.32	4518.67
963.623	4472.34
963.926	4526.58
964.228	4461.04
964.531	4434.15
964.833	4462.4
965.136	4406.81
965.438	4342.63
965.741	4400.25
966.043	4379.24
966.345	4353.02
966.648	4342.63
966.95	4270.09
967.252	4275.51
967.554	4287.03
967.856	4271.44
968.158	4218.56
968.46	4219.24
968.761	4203.42
969.063	4142.63
969.365	4139.47
969.666	4142.41
969.968	4114.84
970.269	4133.59
970.571	4087.49
970.872	4044.78
971.174	4050.2
971.475	4019.24
971.776	4043.65
972.077	3986.48
972.378	3961.17
972.679	4005.69
972.98	3949.19
973.281	3935.86
973.582	3882.98
973.883	3888.4
974.183	3861.96
974.484	3883.65
974.785	3877.33
975.085	3864.22
975.386	3861.73
975.686	3808.18
975.986	3779.02
976.287	3795.07
976.587	3759.14
976.887	3778.35
977.187	3718.46
977.487	3725.92
977.787	3685.47
978.087	3656.77
978.387	3616.32
978.687	3635.98
978.987	3596.43
979.286	3614.28
979.586	3592.82
979.885	3548.75
980.185	3562.99
980.484	3514.63
980.784	3497.45
981.083	3513.72
981.382	3474.4
981.682	3514.85
981.981	3473.5
982.28	3464.23
982.579	3436.44
982.878	3482.08
983.177	3432.82
983.475	3397.11
983.774	3388.07
984.073	3355.08
984.372	3348.75
984.67	3332.93
984.969	3351.01
985.267	3319.38
985.566	3317.57
985.864	3278.7
986.162	3256.1
986.461	3294.97
986.759	3204.12
987.057	3222.88
987.355	3209.55
987.653	3212.49
987.951	3183.56
988.249	3163
988.547	3174.97
988.844	3176.1
989.142	3148.53
989.44	3102.21
989.737	3110.12
990.035	3116.22
990.332	3078.25
990.63	3054.3
990.927	3065.15
991.224	3010.46
991.521	2997.8
991.819	3007.75
992.116	3002.32
992.413	3001.87
992.71	2930.91
993.006	2934.98
993.303	2920.52
993.6	2918.03
993.897	2941.31
994.193	2911.25
994.49	2823.34
994.787	2837.35
995.083	2834.19
995.379	2819.05
995.676	2808.43
995.972	2768.2
996.268	2796.23
996.565	2789.67
996.861	2758.71
997.157	2755.77
997.453	2766.85
997.749	2749.22
998.044	2697.25
998.34	2708.09
998.636	2690.01
998.932	2648.43
999.227	2638.49
999.523	2626.74
999.818	2603.69
1000.114	2597.59
1000.409	2568.44
1000.704	2557.36
1001	2579.96
1001.295	2538.15
1001.59	2534.76
1001.885	2527.53
1002.18	2563.46
1002.475	2494.31
1002.77	2504.48
1003.065	2430.36
1003.359	2469
1003.654	2454.31
1003.949	2449.79
1004.243	2444.14
1004.538	2399.17
1004.832	2345.62
1005.127	2350.59
1005.421	2332.06
1005.715	2335.22
1006.009	2328.89
1006.304	2360.53
1006.598	2315.11
1006.892	2303.58
1007.186	2293.87
1007.48	2285.5
1007.773	2279.18
1008.067	2266.97
1008.361	2228.11
1008.655	2223.13
1008.948	2228.33
1009.242	2240.76
1009.535	2172.29
1009.829	2176.13
1010.122	2139.07
1010.415	2158.95
1010.708	2133.64
1011.001	2106.98
1011.295	2133.87
1011.588	2086.64
1011.881	2068.34
1012.173	2082.57
1012.466	2085.28
1012.759	2060.43
1013.052	2042.57
1013.344	2046.42
1013.637	2019.52
1013.93	2023.59
1014.222	2004.38
1014.514	2008.68
1014.807	1978.62
1015.099	1951.95
1015.391	1976.59
1015.683	1968.23
1015.976	1962.12
1016.268	1953.54
1016.56	1933.88
1016.851	1892.97
1017.143	1851.17
1017.435	1856.14
1017.727	1881.67
1018.018	1836.7
1018.31	1832.41
1018.602	1813.88
1018.893	1820.43
1019.185	1816.59
1019.476	1798.06
1019.767	1788.34
1020.058	1761.45
1020.35	1758.51
1020.641	1757.61
1020.932	1697.95
1021.223	1719.42
1021.514	1697.05
1021.804	1648.69
1022.095	1682.13
1022.386	1680.55
1022.677	1664.05
1022.967	1666.76
1023.258	1659.08
1023.548	1639.42
1023.839	1626.09
1024.129	1599.42
1024.419	1599.87
1024.709	1590.61
1025	1574.11
1025.29	1555.58
1025.58	1552.42
1025.87	1528.01
1026.16	1523.94
1026.449	1484.62
1026.739	1527.78
1027.029	1499.08
1027.319	1476.26
1027.608	1473.1
1027.898	1468.8
1028.187	1440.33
1028.477	1470.39
1028.766	1465.41
1029.055	1422.7
1029.344	1430.84
1029.634	1397.62
1029.923	1394.45
1030.212	1393.32
1030.501	1410.95
1030.79	1380.44
1031.078	1338.86
1031.367	1345.42
1031.656	1335.02
1031.945	1356.94
1032.233	1304.29
1032.522	1319.2
1032.81	1298.86
1033.099	1261.58
1033.387	1282.14
1033.675	1285.08
1033.963	1263.16
1034.251	1259.54
1034.54	1272.42
1034.828	1224.29
1035.116	1221.35
1035.403	1241.01
1035.691	1213.22
1035.979	1203.95
1036.267	1203.73
1036.554	1183.16
1036.842	1209.6
1037.129	1176.38
1037.417	1158.98
1037.704	1164.63
1037.992	1166.66
1038.279	1138.42
1038.566	1133.9
1038.853	1133.9
1039.14	1133.9
