Data from aluminium_surface_pro_back_FLMS001491_00058.txt Node
Date: Wed Feb 08 15:34:16 GMT 2017
User: dcchb
Spectrometer: FLMS00149
Trigger mode: 0
Integration Time (sec): 2.000000E-2
Scans to average: 10
Electric dark correction enabled: true
Nonlinearity correction enabled: false
Boxcar width: 0
XAxis mode: Wavelengths
Number of Pixels in Spectrum: 2048
>>>>>Begin Spectral Data<<<<<
341.393	0.23
341.776	0.23
342.16	0.23
342.543	-35.25
342.927	-38.19
343.31	-64.18
343.693	-62.82
344.077	-76.83
344.46	-89.04
344.843	-42.94
345.226	-32.54
345.61	-20.34
345.993	-24.86
346.376	-2.94
346.759	5.42
347.142	28.25
347.525	36.38
347.908	39.77
348.291	81.81
348.674	97.62
349.057	127.23
349.44	130.84
349.823	136.04
350.206	171.29
350.588	221.24
350.971	252.42
351.354	255.13
351.737	271.18
352.119	272.54
352.502	292.2
352.884	331.29
353.267	316.83
353.65	327.68
354.032	331.74
354.414	340.78
354.797	344.17
355.179	363.83
355.562	342.36
355.944	348.01
356.326	363.83
356.709	360.44
357.091	397.05
357.473	361.8
357.855	394.34
358.238	376.49
358.62	373.1
359.002	371.06
359.384	406.54
359.766	385.3
360.148	383.94
360.53	370.84
360.912	390.95
361.294	370.61
361.676	371.52
362.057	352.31
362.439	368.35
362.821	377.39
363.203	355.02
363.584	372.42
363.966	359.99
364.348	366.32
364.729	365.19
365.111	357.96
365.493	379.88
365.874	355.92
366.256	381.46
366.637	376.26
367.019	392.76
367.4	375.81
367.781	385.3
368.163	357.5
368.544	374.45
368.925	383.27
369.306	375.36
369.688	352.76
370.069	385.75
370.45	371.29
370.831	404.06
371.212	397.73
371.593	371.52
371.974	399.54
372.355	401.57
372.736	390.5
373.117	380.1
373.498	372.19
373.879	383.27
374.26	391.63
374.641	381.01
375.021	404.06
375.402	388.46
375.783	422.81
376.163	397.73
376.544	417.16
376.925	426.2
377.305	421.46
377.686	395.24
378.066	401.8
378.447	442.25
378.827	413.1
379.208	406.54
379.588	435.02
379.968	429.59
380.349	442.93
380.729	443.6
381.109	442.93
381.489	442.47
381.87	468.69
382.25	437.05
382.63	448.12
383.01	435.92
383.39	469.14
383.77	455.13
384.15	461.23
384.53	474.56
384.91	495.13
385.29	480.21
385.67	507.78
386.049	510.04
386.429	504.85
386.809	487.22
387.189	507.33
387.568	538.52
387.948	506.2
388.328	523.6
388.707	519.99
389.087	507.11
389.466	539.42
389.846	552.75
390.225	562.92
390.605	558.63
390.984	565.63
391.363	572.41
391.743	561.79
392.122	601.34
392.501	568.12
392.881	610.15
393.26	615.8
393.639	594.33
394.018	611.74
394.397	605.63
394.776	629.36
395.155	636.14
395.534	654.9
395.913	656.93
396.292	660.77
396.671	654.45
397.05	664.39
397.429	661.23
397.808	691.06
398.186	687.21
398.565	669.13
398.944	686.76
399.323	718.4
399.701	702.35
400.08	710.94
400.458	724.5
400.837	763.14
401.215	750.71
401.594	735.35
401.972	768.34
402.351	783.93
402.729	780.32
403.107	782.58
403.486	795.46
403.864	813.99
404.242	822.13
404.62	826.42
404.999	844.27
405.377	833.2
405.755	845.18
406.133	863.71
406.511	874.78
406.889	899.19
407.267	900.99
407.645	878.17
408.023	909.58
408.401	916.81
408.779	946.19
409.156	973.31
409.534	964.95
409.912	986.19
410.29	998.17
410.667	1014.89
411.045	1032.52
411.422	1037.03
411.8	1029.8
412.178	1071.38
412.555	1096.69
412.933	1108.45
413.31	1120.87
413.687	1136.92
414.065	1130.14
414.442	1124.94
414.819	1166.97
415.197	1129.69
415.574	1188.44
415.951	1204.71
416.328	1199.06
416.705	1234.77
417.082	1242.23
417.46	1223.47
417.837	1284.26
418.214	1251.27
418.591	1289.91
418.967	1296.46
419.344	1310.93
419.721	1318.84
420.098	1345.95
420.475	1350.02
420.852	1382.56
421.228	1390.25
421.605	1404.03
421.982	1416.91
422.358	1429.57
422.735	1449.45
423.111	1443.35
423.488	1497.81
423.864	1493.97
424.241	1517.93
424.617	1524.71
424.994	1513.41
425.37	1563.35
425.746	1567.42
426.123	1581.2
426.499	1585.04
426.875	1594.99
427.251	1613.97
427.627	1679.05
428.003	1688.54
428.379	1668.43
428.756	1727.64
429.132	1703.91
429.507	1783.91
429.883	1760.63
430.259	1823.23
430.635	1824.13
431.011	1887.18
431.387	1898.93
431.763	1959.27
432.138	1936.9
432.514	1962.89
432.89	2003.79
433.265	2017.57
433.641	2076.1
434.016	2056.22
434.392	2118.81
434.767	2145.03
435.143	2136.44
435.518	2178.25
435.894	2201.07
436.269	2215.99
436.644	2267.29
437.02	2250.56
437.395	2270.22
437.77	2307.96
438.145	2338.92
438.52	2344.8
438.895	2372.82
439.271	2427.05
439.646	2441.74
440.021	2478.13
440.395	2492.14
440.77	2453.49
441.145	2505.92
441.52	2554.74
441.895	2538.92
442.27	2592.47
442.645	2591.57
443.019	2657.78
443.394	2628.86
443.769	2660.95
444.143	2674.28
444.518	2702.3
444.892	2699.14
445.267	2741.4
445.641	2785.46
446.016	2773.26
446.39	2765.35
446.764	2846.03
447.139	2820.04
447.513	2850.55
447.887	2851.22
448.262	2906.59
448.636	2913.82
449.01	2918.79
449.384	2991.79
449.758	3008.06
450.132	3031.78
450.506	3058.22
450.88	3115.62
451.254	3103.2
451.628	3135.06
452.002	3169.86
452.376	3214.15
452.75	3216.41
453.123	3235.4
453.497	3333.02
453.871	3341.38
454.244	3394.71
454.618	3424.54
454.992	3501.83
455.365	3480.81
455.739	3538.66
456.112	3612.79
456.486	3658.43
456.859	3688.49
457.232	3720.81
457.606	3727.13
457.979	3827.47
458.352	3900.46
458.725	3918.09
459.099	3953.34
459.472	4039.22
459.845	4054.13
460.218	4084.86
460.591	4157.4
460.964	4196.5
461.337	4263.39
461.71	4339.77
462.083	4395.14
462.456	4387.91
462.829	4427.68
463.201	4548.13
463.574	4536.6
463.947	4617.96
464.32	4733.66
464.692	4743.38
465.065	4774.34
465.438	4834.68
465.81	4972.52
466.183	4927.55
466.555	5078.51
466.928	5150.83
467.3	5139.07
467.672	5175.01
468.045	5336.36
468.417	5377.03
468.789	5400.31
469.161	5456.58
469.534	5562.79
469.906	5688.66
470.278	5718.49
470.65	5793.52
471.022	5902.9
471.394	5964.36
471.766	6040.07
472.138	6133.17
472.51	6277.58
472.882	6361.19
473.253	6463.56
473.625	6560.96
473.997	6663.78
474.369	6678.24
474.74	6734.51
475.112	6929.31
475.484	7084.56
475.855	7203.65
476.227	7192.81
476.598	7447.71
476.97	7517.77
477.341	7601.61
477.713	7821.26
478.084	7834.82
478.455	8042.05
478.827	8125.66
479.198	8423.73
479.569	8411.08
479.94	8677.51
480.311	8732.65
480.682	8867.11
481.053	9152.98
481.424	9261.68
481.795	9356.14
482.166	9524.04
482.537	9649.01
482.908	9818.05
483.279	9907.31
483.65	10152.5
484.021	10312.95
484.391	10424.13
484.762	10496.67
485.133	10627.97
485.503	10718.14
485.874	11004.23
486.244	11094.62
486.615	11361.74
486.985	11476.53
487.356	11665.23
487.726	11686.25
488.097	12041.27
488.467	12052.79
488.837	12326.91
489.207	12406.45
489.578	12688.25
489.948	12741.36
490.318	13008.02
490.688	13060
491.058	13290.5
491.428	13355.58
491.798	13645.74
492.168	13823.37
492.538	13895.91
492.908	14078.05
493.278	14316.46
493.648	14357.36
494.017	14546.96
494.387	14639.39
494.757	14810.91
495.126	15007.06
495.496	15003.22
495.866	15200.96
496.235	15397.34
496.605	15524.79
496.974	15602.53
497.344	15785.8
497.713	15885.68
498.082	15959.35
498.452	16152.34
498.821	16256.07
499.19	16350.76
499.559	16483.18
499.928	16607.47
500.298	16682.95
500.667	16919.1
501.036	16935.37
501.405	17205.42
501.774	17149.83
502.143	17320.45
502.512	17486.32
502.88	17612.87
503.249	17623.04
503.618	17819.64
503.987	17889.25
504.356	17908.91
504.724	18062.35
505.093	18077.49
505.462	18319.29
505.83	18466.63
506.199	18607.19
506.567	18848.32
506.936	18740.07
507.304	19058.03
507.672	19154.3
508.041	19279.27
508.409	19316.55
508.777	19593.84
509.145	19766.03
509.514	19698.92
509.882	19932.36
510.25	20017.55
510.618	20231.56
510.986	20321.05
511.354	20548.84
511.722	20720.13
512.09	20955.61
512.458	20923.97
512.826	21203.96
513.193	21326.67
513.561	21361.7
513.929	21589.26
514.297	21814.12
514.664	21959.87
515.032	22144.05
515.4	22128.46
515.767	22391.73
516.135	22438.73
516.502	22414.78
516.869	22880.08
517.237	22919.62
517.604	22982.45
517.972	23283
518.339	23423.79
518.706	23598.7
519.073	23616.1
519.44	23869.43
519.808	24050.89
520.175	24125.47
520.542	24407.95
520.909	24656.3
521.276	24769.07
521.643	24920.25
522.009	25001.15
522.376	25258.32
522.743	25468.03
523.11	25713.9
523.477	26021.24
523.843	26123.38
524.21	26472.07
524.577	26594.33
524.943	26817.6
525.31	27025.28
525.676	27254.88
526.043	27429.56
526.409	27611.25
526.776	27826.84
527.142	27969.89
527.508	28222.53
527.874	28414.39
528.241	28538.46
528.607	28657.55
528.973	29017.77
529.339	28984.1
529.705	29200.36
530.071	29494.82
530.437	29636.96
530.803	29931.87
531.169	29891.64
531.535	29987.01
531.901	30241.01
532.267	30356.94
532.632	30478.29
532.998	30665.41
533.364	30865.18
533.73	30953.99
534.095	31051.39
534.461	31358.05
534.826	31381.55
535.192	31460.64
535.557	31830.8
535.923	31781.76
536.288	32018.14
536.653	32085.26
537.019	32093.62
537.384	32293.84
537.749	32461.07
538.114	32513.27
538.479	32619.03
538.845	32769.08
539.21	32859.25
539.575	33115.74
539.94	33012.01
540.305	33334.04
540.67	33222.18
541.034	33460.82
541.399	33578.1
541.764	33657.19
542.129	33889.28
542.494	33818.55
542.858	34155.49
543.223	34121.36
543.587	34351.19
543.952	34294.92
544.316	34475.7
544.681	34498.08
545.045	34679.77
545.41	34834.79
545.774	35104.84
546.138	34985.07
546.503	35162.24
546.867	35067.78
547.231	35465.51
547.595	35595.9
547.959	35624.15
548.324	35733.98
548.688	35799.06
549.052	35940.75
549.416	36037.47
549.779	36039.05
550.143	36179.84
550.507	36458.7
550.871	36571.02
551.235	36677.23
551.599	36726.94
551.962	36900.95
552.326	37057.1
552.689	37173.71
553.053	37277.44
553.417	37338.91
553.78	37812.57
554.143	37720.82
554.507	37942.28
554.87	38019.34
555.234	38182.5
555.597	38271.76
555.96	38527.8
556.323	38696.84
556.686	38589.04
557.05	38920.33
557.413	39041.46
557.776	39276.26
558.139	39539.3
558.502	39522.12
558.865	39731.84
559.228	39944.03
559.59	40113.97
559.953	40214.99
560.316	40519.39
560.679	40559.61
561.041	40873.95
561.404	41162.99
561.767	41326.6
562.129	41277.56
562.492	41649.07
562.854	41640.71
563.217	41689.98
563.579	41974.04
563.941	42250.19
564.304	42315.72
564.666	42580.12
565.028	42657.64
565.39	42943.73
565.753	43251.07
566.115	43354.57
566.477	43552.53
566.839	43679.76
567.201	44022.12
567.563	44011.72
567.925	44385.27
568.287	44331.49
568.648	44474.76
569.01	44769.44
569.372	45098.02
569.734	44915.88
570.095	45196.1
570.457	45335.08
570.819	45648.52
571.18	45668.63
571.542	45914.27
571.903	46018.9
572.265	46234.49
572.626	46138.9
572.987	46447.37
573.349	46645.78
573.71	46650.3
574.071	46887.81
574.432	47004.87
574.794	47292.99
575.155	47158.99
575.516	47085.32
575.877	47317.17
576.238	47410.96
576.599	47655.02
576.96	47704.96
577.32	47673.32
577.681	47866.76
578.042	47992.86
578.403	48020.66
578.763	48137.04
579.124	48208.22
579.485	48429.24
579.845	48628.55
580.206	48462.45
580.566	48531.61
580.927	48709.23
581.287	48793.75
581.648	48634.88
582.008	48789.9
582.368	48689.12
582.728	48806.4
583.089	48797.81
583.449	48923.46
583.809	48853.63
584.169	49009.56
584.529	48899.28
584.889	49186.05
585.249	48986.96
585.609	48879.39
585.969	49237.12
586.329	49043.91
586.688	49157.58
587.048	49146.05
587.408	49018.37
587.768	49074.19
588.127	49182.66
588.487	49033.96
588.846	49335.43
589.206	49021.08
589.565	49219.72
589.925	49298.82
590.284	49217.46
590.643	49265.82
591.003	49354.86
591.362	49494.07
591.721	49356.67
592.08	49446.61
592.44	49450.23
592.799	49417.23
593.158	49396.67
593.517	49479.38
593.876	49592.37
594.235	49384.01
594.593	49529.32
594.952	49619.26
595.311	49559.6
595.67	49557.34
596.029	49791.69
596.387	49802.76
596.746	49875.75
597.104	49636.89
597.463	49636.21
597.822	49670.11
598.18	49565.93
598.538	49653.38
598.897	49863.55
599.255	49526.83
599.613	50066.93
599.972	49823.77
600.33	49840.95
600.688	49876.65
601.046	49917.11
601.404	50078.91
601.762	50001.17
602.12	50211.11
602.478	50109.19
602.836	50140.83
603.194	50029.19
603.552	49931.79
603.91	50096.08
604.268	50121.17
604.625	50069.42
604.983	50297.66
605.341	50108.29
605.698	50304.21
606.056	50417.66
606.413	50302.41
606.771	50501.72
607.128	50507.82
607.485	50309.64
607.843	50436.19
608.2	50574.94
608.557	50706.46
608.914	50611.32
609.272	50629.86
609.629	50722.06
609.986	50839.12
610.343	50707.82
610.7	50888.61
611.057	50763.64
611.414	50792.11
611.771	50693.81
612.127	50870.3
612.484	50979.68
612.841	51015.16
613.198	50913.69
613.554	51056.51
613.911	51182.16
614.267	51209.73
614.624	51181.03
614.98	51276.17
615.337	51342.38
615.693	51355.94
616.05	51390.51
616.406	51535.37
616.762	51386.9
617.118	51390.51
617.475	51533.33
617.831	51414.69
618.187	51497.18
618.543	51509.38
618.899	51640.68
619.255	51556.38
619.611	51626.21
619.967	51617.63
620.323	51816.49
620.678	51698.53
621.034	51570.17
621.39	51522.71
621.746	51500.34
622.101	51963.83
622.457	51571.75
622.812	51696.27
623.168	51864.17
623.523	51826.43
623.879	51850.84
624.234	51647
624.589	51743.95
624.945	51779.88
625.3	51855.59
625.655	51795.02
626.01	51938.07
626.365	51855.36
626.72	51789.37
627.075	51822.37
627.43	51789.6
627.785	51692.2
628.14	51807.68
628.495	51755.93
628.85	51749.6
629.205	51577.85
629.559	51863.72
629.914	51663.73
630.269	51589.83
630.623	51522.49
630.978	51484.07
631.332	51587.12
631.687	51600
632.041	51443.39
632.396	51364.75
632.75	51341.93
633.104	51394.13
633.459	51216.28
633.813	51158.43
634.167	51167.69
634.521	51065.1
634.875	51147.58
635.229	51128.37
635.583	50902.62
635.937	51037.53
636.291	50885.67
636.645	50974.48
636.999	50864.43
637.352	50820.58
637.706	50767.48
638.06	50779
638.413	50729.97
638.767	50551.67
639.121	50681.61
639.474	50536.75
639.828	50423.08
640.181	50522.06
640.534	50544.66
640.888	50389.18
641.241	50244.78
641.594	50362.97
641.947	50337.66
642.301	50411.1
642.654	50298.79
643.007	50375.17
643.36	50230.32
643.713	50117.78
644.066	50268.96
644.419	49919.14
644.771	49711.69
645.124	49388.08
645.477	49412.94
645.83	49181.98
646.182	48952.16
646.535	48867.19
646.888	48916.91
647.24	48764.59
647.593	48996
647.945	48967.75
648.298	48563.47
648.65	48649.57
649.002	48521.44
649.355	48515.79
649.707	48534.77
650.059	48706.06
650.411	49127.75
650.763	49255.65
651.115	49491.58
651.467	49298.82
651.819	49280.51
652.171	49140.18
652.523	49123.91
652.875	49053.63
653.227	49044.13
653.578	49156.22
653.93	48968.88
654.282	48811.6
654.633	48747.87
654.985	48752.16
655.337	48755.33
655.688	48651.6
656.039	48863.8
656.391	48419.29
656.742	48541.32
657.094	48637.14
657.445	48702.45
657.796	48567.08
658.147	48410.93
658.498	48485.5
658.849	48444.38
659.2	48413.87
659.551	48438.95
659.902	48483.02
660.253	48419.97
660.604	48420.87
660.955	48217.26
661.306	48365.06
661.656	48258.39
662.007	48326.64
662.358	48279.18
662.708	48330.25
663.059	48313.08
663.409	48090.49
663.76	48224.72
664.11	48203.7
664.461	48346.75
664.811	48284.61
665.161	48120.09
665.511	47972.98
665.862	48098.85
666.212	48164.61
666.562	48120.99
666.912	48116.93
667.262	47949.93
667.612	47992.64
667.962	48073.99
668.312	48026.31
668.662	48221.1
669.011	48022.47
669.361	48101.11
669.711	47993.77
670.06	47934.11
670.41	47854.56
670.76	47888.01
671.109	48039.19
671.459	47902.7
671.808	47850.49
672.157	47915.12
672.507	47694.79
672.856	47633.55
673.205	47765.52
673.554	47836.93
673.904	47715.13
674.253	47999.42
674.602	47686.43
674.951	47063.17
675.3	46960.12
675.649	47559.88
675.998	47511.97
676.346	47474.68
676.695	47563.5
677.044	47263.16
677.393	47299.55
677.741	47361.69
678.09	47219.78
678.438	47083.96
678.787	47281.69
679.135	47204.86
679.484	46919.9
679.832	47186.33
680.181	46806.45
680.529	46982.72
680.877	46868.37
681.225	46732.56
681.573	47155.14
681.922	46627.25
682.27	46649.62
682.618	46629.51
682.966	46423.86
683.314	46544.76
683.661	46391.1
684.009	46214.15
684.357	46136.64
684.705	46098
685.053	46136.87
685.4	46098.45
685.748	45826.14
686.095	45845.12
686.443	45591.57
686.79	45583.43
687.138	45728.52
687.485	45599.7
687.832	45535.3
688.18	45454.17
688.527	45088.76
688.874	45289.88
689.221	45181.41
689.568	44966.73
689.915	44930.57
690.262	44857.58
690.609	44774.42
690.956	44766.28
691.303	44714.98
691.65	44422.33
691.997	44454.88
692.344	44107.54
692.69	44204.94
693.037	44190.25
693.383	43744.61
693.73	44000.42
694.077	43724.27
694.423	43667.1
694.769	43515.69
695.116	43570.38
695.462	43455.81
695.808	43334
696.155	43228.47
696.501	42890.62
696.847	42966.33
697.193	42690.4
697.539	42885.2
697.885	42578.09
698.231	42517.98
698.577	42439.79
698.923	42355.72
699.269	42182.39
699.614	41914.83
699.96	41882.74
700.306	41832.12
700.651	41561.62
700.997	41478.68
701.342	41631.67
701.688	41592.13
702.033	41402.53
702.379	41296.32
702.724	41184.68
703.069	41172.93
703.415	40754.18
703.76	40847.97
704.105	40804.58
704.45	40656.33
704.795	40423.12
705.14	40316.68
705.485	40190.13
705.83	40087.31
706.175	40172.28
706.52	39848.44
706.865	39675.57
707.209	39633.08
707.554	39525.97
707.899	39704.72
708.243	39420.66
708.588	39333.66
708.932	39042.36
709.277	39117.39
709.621	39005.3
709.966	38740.68
710.31	38913.1
710.654	38561.7
710.998	38760.34
711.342	38464.07
711.687	38487.58
712.031	38310.63
712.375	38262.95
712.719	38266.34
713.063	38281.71
713.407	38243.06
713.75	38015.95
714.094	38021.6
714.438	37891.89
714.782	37935.73
715.125	37661.16
715.469	37791.77
715.812	37528.5
716.156	37281.05
716.499	37443.31
716.843	37433.14
717.186	37096.2
717.53	37299.58
717.873	37385.23
718.216	37188.85
718.559	37034.73
718.902	36812.37
719.246	36796.32
719.589	36736.66
719.932	36625.48
720.275	36535.31
720.617	36401.3
720.96	36361.98
721.303	36370.57
721.646	36246.96
721.989	36151.37
722.331	36229.33
722.674	36072.05
723.016	36133.06
723.359	35869.79
723.701	35975.1
724.044	35632.06
724.386	35575.56
724.729	35745.5
725.071	35542.12
725.413	35474.32
725.755	35519.97
726.097	35261.45
726.439	35125.18
726.782	35177.15
727.124	35268.45
727.465	35057.38
727.807	34935.35
728.149	34932.41
728.491	34890.83
728.833	35083.6
729.175	34847.22
729.516	34752.08
729.858	34654.23
730.199	34680.22
730.541	34606.77
730.882	34711.18
731.224	34605.42
731.565	34430.96
731.906	34441.58
732.248	34345.76
732.589	34231.87
732.93	34160.91
733.271	34228.7
733.612	34114.81
733.953	34234.81
734.294	33976.73
734.635	33903.06
734.976	33936.73
735.317	33744.2
735.658	33673.46
735.999	33640.47
736.339	33610.87
736.68	33754.37
737.021	33554.82
737.361	33529.06
737.702	33485
738.042	33379.69
738.383	33271.44
738.723	33333.59
739.063	33167.04
739.404	33203.42
739.744	33169.98
740.084	33069.64
740.424	33140.82
740.764	32884.11
741.104	33114.16
741.444	32848.18
741.784	32754.62
742.124	32876.2
742.464	32798.46
742.804	32516.43
743.143	32621.06
743.483	32597.79
743.823	32330.45
744.162	32284.8
744.502	32281.86
744.841	32114.86
745.181	32232.82
745.52	32123.22
745.86	32056.56
746.199	31945.83
746.538	31908.09
746.877	32000.29
747.216	31930.46
747.556	31922.1
747.895	31831.25
748.234	31750.35
748.573	31632.84
748.911	31636.46
749.25	31567.31
749.589	31534.76
749.928	31525.5
750.267	31446.86
750.605	31301.1
750.944	31242.12
751.283	31118.96
751.621	31177.49
751.96	31103.36
752.298	30965.97
752.636	30984.04
752.975	30853.88
753.313	30735.92
753.651	30856.14
753.989	30669.02
754.327	30542.7
754.666	30381.57
755.004	30518.97
755.342	30601.68
755.679	30462.25
756.017	30255.48
756.355	30287.57
756.693	30218.87
757.031	30185.42
757.368	30011.64
757.706	29913.56
758.044	29869.05
758.381	29834.24
758.719	29674.02
759.056	29738.65
759.394	29564.42
759.731	29394.71
760.068	29338.89
760.405	29176.18
760.743	29145
761.08	28964.21
761.417	28991.33
761.754	28906.13
762.091	28858.45
762.428	28712.47
762.765	28529.65
763.102	28581.17
763.438	28420.04
763.775	28320.16
764.112	28229.99
764.449	28256.88
764.785	28152.71
765.122	27864.8
765.458	27877.23
765.795	27860.74
766.131	27809.44
766.467	27609.9
766.804	27451.48
767.14	27231.37
767.476	27283.12
767.812	27116.58
768.148	27200.41
768.485	26959.74
768.821	26858.5
769.157	26599.3
769.492	26771.27
769.828	26722.01
770.164	26420.55
770.5	26420.32
770.836	26474.33
771.171	26198.86
771.507	26200.44
771.842	25955.93
772.178	26021.69
772.513	25864.63
772.849	25861.47
773.184	25766.55
773.519	25600.91
773.855	25672.77
774.19	25472.1
774.525	25376.51
774.86	25363.4
775.195	25254.48
775.53	25177.42
775.865	24946.01
776.2	24684.55
776.535	24589.64
776.87	24568.39
777.205	24334.73
777.539	24374.27
777.874	24371.11
778.209	24044.11
778.543	24083.21
778.878	23931.8
779.212	23931.12
779.547	23779.71
779.881	23852.48
780.215	23635.08
780.55	23671.92
780.884	23556.67
781.218	23416.56
781.552	23463.11
781.886	23297.69
782.22	23251.14
782.554	23126.85
782.888	22941.09
783.222	22855.67
783.556	22700.87
783.889	22758.05
784.223	22669.01
784.557	22505.62
784.89	22531.16
785.224	22385.17
785.557	22371.39
785.891	22308.11
786.224	22238.51
786.558	22210.94
786.891	21945.41
787.224	21822.03
787.557	21846.21
787.891	21795.81
788.224	21786.32
788.557	21807.56
788.89	21644.18
789.223	21565.08
789.556	21487.8
789.888	21340
790.221	21259.1
790.554	21139.78
790.887	21210.06
791.219	21125.32
791.552	21053.01
791.884	20986.11
792.217	20848.72
792.549	20795.39
792.882	20672.45
793.214	20672.22
793.546	20567.37
793.879	20449.63
794.211	20307.49
794.543	20407.37
794.875	20394.49
795.207	20286.47
795.539	20255.29
795.871	20208.96
796.203	20034.05
796.535	20001.96
796.867	19912.47
797.198	19797.9
797.53	19874.73
797.862	19700.27
798.193	19695.98
798.525	19495.98
798.856	19521.29
799.188	19402.65
799.519	19340.06
799.85	19203.11
800.182	19284.01
800.513	19155.43
800.844	18890.58
801.175	19039.5
801.506	19024.58
801.837	18869.56
802.168	18741.2
802.499	18721.99
802.83	18538.95
803.161	18493.75
803.491	18498.72
803.822	18445.39
804.153	18359.29
804.483	18254.21
804.814	18186.87
805.145	18236.13
805.475	18158.39
805.805	18175.79
806.136	18093.08
806.466	18036.14
806.796	18134.66
807.126	17811.96
807.457	17952.3
807.787	17958.17
808.117	17865.07
808.447	17818.74
808.777	17940.09
809.107	17747.56
809.436	17746.43
809.766	17707.33
810.096	17572.65
810.426	17548.69
810.755	17541.69
811.085	17451.74
811.414	17385.98
811.744	17253.33
812.073	17315.7
812.403	17245.42
812.732	17154.35
813.061	17152.32
813.39	17054.69
813.719	17018.54
814.049	17102.83
814.378	16999.33
814.707	16935.37
815.036	16836.39
815.365	16783.51
815.693	16644.76
816.022	16649.05
816.351	16700.13
816.68	16579
817.008	16625.1
817.337	16392.34
817.665	16453.58
817.994	16449.51
818.322	16401.15
818.651	16314.15
818.979	16276.18
819.307	16266.69
819.636	16219.23
819.964	16100.82
820.292	16177.43
820.62	16208.84
820.948	16072.57
821.276	16074.38
821.604	16026.47
821.932	16103.98
822.259	16105.11
822.587	15996.64
822.915	16061.95
823.243	16146.24
823.57	15987.15
823.898	16134.04
824.225	16056.98
824.553	16029.86
824.88	16106.92
825.207	16068.96
825.535	16051.33
825.862	16046.36
826.189	15973.59
826.516	16109.18
826.843	16089.07
827.17	16091.78
827.497	16058.56
827.824	16005.45
828.151	16069.41
828.478	16002.74
828.805	16138.11
829.131	16023.31
829.458	16032.57
829.785	15881.62
830.111	15910.99
830.438	16059.69
830.764	15987.83
831.09	15975.85
831.417	15955.06
831.743	16014.72
832.069	15896.53
832.395	15808.17
832.722	16013.82
833.048	15826.48
833.374	15941.73
833.7	15809.75
834.026	15891.33
834.351	15854.72
834.677	15874.84
835.003	15850.43
835.329	15814.05
835.654	15748.96
835.98	15667.16
836.306	15779.02
836.631	15656.54
836.956	15659.48
837.282	15635.97
837.607	15551.68
837.932	15544.9
838.258	15535.18
838.583	15500.84
838.908	15382.87
839.233	15531.12
839.558	15452.25
839.883	15323.44
840.208	15407.5
840.533	15341.29
840.858	15325.92
841.182	15254.06
841.507	15256.77
841.832	15191.01
842.156	15204.8
842.481	15162.99
842.805	15147.4
843.13	15126.16
843.454	15029.44
843.778	14980.62
844.103	14968.19
844.427	15049.77
844.751	15041.86
845.075	14902.88
845.399	14953.73
845.723	14835.54
846.047	14845.49
846.371	14627.41
846.695	14671.48
847.019	14609.56
847.343	14533.18
847.666	14492.95
847.99	14481.65
848.313	14442.33
848.637	14376.57
848.96	14356.01
849.284	14347.19
849.607	14237.14
849.931	14169.8
850.254	14096.8
850.577	14001.67
850.9	13918.28
851.223	13895.45
851.546	13833.76
851.869	13791.05
852.192	13810.48
852.515	13750.37
852.838	13653.2
853.161	13720.32
853.483	13662.92
853.806	13532.75
854.129	13558.06
854.451	13503.15
854.774	13350.61
855.096	13380.44
855.419	13396.71
855.741	13431.29
856.063	13275.13
856.385	13297.5
856.708	13288.92
857.03	13143.16
857.352	13156.26
857.674	13037.85
857.996	13125.3
858.318	13024.97
858.64	13039.88
858.961	12907.01
859.283	12978.64
859.605	12890.28
859.926	12884.18
860.248	12837.85
860.57	12829.27
860.891	12835.59
861.212	12699.33
861.534	12640.35
861.855	12653.68
862.176	12725.99
862.498	12627.24
862.819	12648.48
863.14	12527.58
863.461	12629.05
863.782	12486.45
864.103	12561.03
864.424	12540.46
864.745	12536.85
865.065	12375.95
865.386	12366.45
865.707	12364.19
866.027	12425.89
866.348	12365.55
866.668	12383.4
866.989	12346.12
867.309	12315.83
867.63	12384.76
867.95	12380.47
868.27	12229.96
868.59	12227.93
868.91	12270.19
869.23	12222.96
869.55	12058.89
869.87	12163.07
870.19	12242.39
870.51	12195.84
870.83	12175.73
871.15	12161.94
871.469	12116.74
871.789	12147.25
872.109	12167.59
872.428	12038.55
872.748	12118.1
873.067	12116.97
873.386	12041.27
873.706	12081.72
874.025	12022.06
874.344	12089.63
874.663	12031.32
874.982	12001.04
875.301	12010.08
875.62	11975.28
875.939	11890.31
876.258	11932.12
876.577	11908.39
876.896	11848.28
877.214	11818.45
877.533	11924.66
877.852	11742.97
878.17	11810.76
878.489	11813.93
878.807	11854.15
879.125	11714.27
879.444	11751.56
879.762	11678.56
880.08	11670.2
880.398	11649.86
880.716	11718.79
881.034	11665.23
881.352	11615.06
881.67	11525.35
881.988	11598.57
882.306	11587.49
882.624	11586.59
882.941	11488.51
883.259	11494.16
883.577	11411.23
883.894	11472.24
884.212	11506.36
884.529	11450.09
884.846	11344.79
885.164	11324
885.481	11340.72
885.798	11311.34
886.115	11223.89
886.432	11310.89
886.75	11210.33
887.067	11237.44
887.383	11265.24
887.7	11263.88
888.017	11143.66
888.334	11167.62
888.651	11115.19
888.967	11065.7
889.284	11135.53
889.6	11120.39
889.917	11022.76
890.233	10928.75
890.55	10900.5
890.866	10960.16
891.182	10866.15
891.498	10810.11
891.815	10786.16
892.131	10820.73
892.447	10774.86
892.763	10701.19
893.079	10722.66
893.395	10708.87
893.71	10685.14
894.026	10636.56
894.342	10592.26
894.657	10575.77
894.973	10497.13
895.289	10576.45
895.604	10567.86
895.92	10377.35
896.235	10424.13
896.55	10474.98
896.865	10350.91
897.181	10330.35
897.496	10334.42
897.811	10228.21
898.126	10251.71
898.441	10131.71
898.756	10181.88
899.071	10161.77
899.386	10128.55
899.7	9961.32
900.015	10068.44
900.33	9913.41
900.644	10028.89
900.959	9963.35
901.273	9911.6
901.588	9833.87
901.902	9818.27
902.216	9816.24
902.531	9735.11
902.845	9771.04
903.159	9724.49
903.473	9683.14
903.787	9638.39
904.101	9639.29
904.415	9640.42
904.729	9609.01
905.042	9594.78
905.356	9548.9
905.67	9470.26
905.984	9518.85
906.297	9465.06
906.611	9391.84
906.924	9368.57
907.237	9350.26
907.551	9323.82
907.864	9269.59
908.177	9216.03
908.491	9172.87
908.804	9212.41
909.117	9145.97
909.43	9123.15
909.743	9045.41
910.056	9080.44
910.368	8948.47
910.681	9012.42
910.994	8929.26
911.307	8960.44
911.619	8833.67
911.932	8907.11
912.244	8800.45
912.557	8809.26
912.869	8754.12
913.181	8722.71
913.494	8674.35
913.806	8588.93
914.118	8653.78
914.43	8548.7
914.742	8567.91
915.054	8474.35
915.366	8569.72
915.678	8489.49
915.99	8482.04
916.302	8411.98
916.613	8441.13
916.925	8407.01
917.236	8359.78
917.548	8322.04
917.859	8297.41
918.171	8186.68
918.482	8169.5
918.794	8088.37
919.105	8111.43
919.416	8063.52
919.727	8032.11
920.038	8045.89
920.349	7944.88
920.66	7961.6
920.971	7959.34
921.282	7919.79
921.593	7822.85
921.903	7764.77
922.214	7750.08
922.525	7761.38
922.835	7719.57
923.146	7657.65
923.456	7616.07
923.767	7575.39
924.077	7624.43
924.387	7522.74
924.697	7550.76
925.008	7489.52
925.318	7446.81
925.628	7440.93
925.938	7371.33
926.248	7385.34
926.558	7333.37
926.867	7297.44
927.177	7353.7
927.487	7216.53
927.796	7209.53
928.106	7242.52
928.416	7209.3
928.725	7134.05
929.034	7147.16
929.344	7111.23
929.653	7056.09
929.962	7062.19
930.271	7067.16
930.581	7032.58
930.89	6983.55
931.199	6904.9
931.508	6918.46
931.817	6937.9
932.125	6906.49
932.434	6873.04
932.743	6832.59
933.051	6776.77
933.36	6779.03
933.669	6726.38
933.977	6713.04
934.286	6692.48
934.594	6669.43
934.902	6666.49
935.21	6585.14
935.519	6590.56
935.827	6591.92
936.135	6565.7
936.443	6492.71
936.751	6445.03
937.059	6428.98
937.367	6450.9
937.674	6421.07
937.982	6382.21
938.29	6306.95
938.597	6383.56
938.905	6275.77
939.213	6262.66
939.52	6182.89
939.827	6262.89
940.135	6233.06
940.442	6115.55
940.749	6192.83
941.056	6157.8
941.363	6041.42
941.67	6005.72
941.977	5998.71
942.284	5949.45
942.591	5992.16
942.898	5947.87
943.205	5918.71
943.511	5914.87
943.818	5915.55
944.125	5793.07
944.431	5801.43
944.738	5810.69
945.044	5822.45
945.35	5814.99
945.657	5705.84
945.963	5738.61
946.269	5736.35
946.575	5700.42
946.881	5604.6
947.187	5701.55
947.493	5639.63
947.799	5568.89
948.105	5563.24
948.41	5547.88
948.716	5541.55
949.022	5510.14
949.327	5501.78
949.633	5489.35
949.938	5487.77
950.244	5476.92
950.549	5422
950.854	5388.33
951.16	5353.08
951.465	5325.96
951.77	5330.48
952.075	5246.42
952.38	5261.33
952.685	5252.97
952.99	5178.62
953.294	5204.83
953.599	5158.06
953.904	5159.19
954.209	5101.56
954.513	5145.63
954.818	5113.54
955.122	5095.91
955.426	5039.64
955.731	5000.32
956.035	4983.37
956.339	4944.73
956.643	4953.32
956.948	4878.06
957.252	4940.44
957.556	4884.39
957.86	4864.05
958.163	4852.98
958.467	4859.08
958.771	4851.4
959.075	4796.26
959.378	4733.66
959.682	4714
959.985	4692.31
960.289	4723.04
960.592	4624.51
960.896	4666.77
961.199	4638.3
961.502	4619.99
961.805	4571.86
962.108	4582.7
962.411	4542.48
962.714	4582.03
963.017	4546.32
963.32	4521.91
963.623	4492.09
963.926	4489.6
964.228	4405.53
964.531	4424.74
964.833	4432.2
965.136	4355.14
965.438	4354.69
965.741	4356.27
966.043	4351.75
966.345	4318.98
966.648	4318.08
966.95	4312.88
967.252	4268.36
967.554	4287.12
967.856	4205.77
968.158	4220.91
968.46	4188.36
968.761	4188.82
969.063	4169.61
969.365	4161.02
969.666	4092.77
969.968	4103.17
970.269	4066.33
970.571	4104.98
970.872	4072.89
971.174	4042.38
971.475	4034.7
971.776	3987.47
972.077	3994.92
972.378	3950.63
972.679	3993.79
972.98	3970.97
973.281	3998.31
973.582	3912.67
973.883	3879.22
974.183	3900.69
974.484	3836.28
974.785	3839.9
975.085	3822.95
975.386	3866.79
975.686	3779.56
975.986	3776.4
976.287	3773.69
976.587	3759.9
976.887	3746.57
977.187	3681.71
977.487	3721.03
977.787	3688.04
978.087	3639.9
978.387	3642.39
978.687	3667.7
978.987	3585.89
979.286	3593.13
979.586	3614.82
979.885	3597.42
980.185	3535.5
980.484	3527.59
980.784	3537.99
981.083	3526.23
981.382	3503.18
981.682	3511.77
981.981	3469.51
982.28	3433.36
982.579	3424.54
982.878	3448.5
983.177	3395.84
983.475	3407.37
983.774	3404.88
984.073	3393.36
984.372	3358.33
984.67	3326.69
984.969	3351.78
985.267	3300.7
985.566	3324.43
985.864	3305.22
986.162	3276.3
986.461	3266.58
986.759	3254.38
987.057	3222.97
987.355	3206.92
987.653	3194.72
987.951	3161.5
988.249	3143.87
988.547	3139.58
988.844	3097.09
989.142	3150.2
989.44	3109.75
989.737	3095.96
990.035	3062.97
990.332	3064.55
990.63	3061.39
990.927	3031.11
991.224	3011.9
991.521	3009.64
991.819	3022.07
992.116	2943.2
992.413	2922.86
992.71	2928.74
993.006	2893.94
993.303	2939.36
993.6	2910.21
993.897	2912.92
994.193	2864.11
994.49	2865.91
994.787	2825.46
995.083	2830.66
995.379	2806.48
995.676	2830.66
995.972	2795.86
996.268	2740.04
996.565	2756.99
996.861	2746.14
997.157	2730.55
997.453	2754.05
997.749	2718.35
998.044	2708.4
998.34	2700.95
998.636	2673.38
998.932	2672.47
999.227	2640.16
999.523	2628.63
999.818	2621.17
1000.114	2597.45
1000.409	2611.91
1000.704	2588.63
1001	2573.04
1001.295	2581.85
1001.59	2559.48
1001.885	2554.28
1002.18	2515.87
1002.475	2482.19
1002.77	2493.49
1003.065	2452.82
1003.359	2430.22
1003.654	2455.98
1003.949	2440.39
1004.243	2424.12
1004.538	2435.19
1004.832	2406.49
1005.127	2374.85
1005.421	2402.87
1005.715	2371.24
1006.009	2322.2
1006.304	2321.52
1006.598	2328.3
1006.892	2312.26
1007.186	2281.07
1007.48	2281.97
1007.773	2261.86
1008.067	2256.89
1008.361	2282.2
1008.655	2226.38
1008.948	2200.17
1009.242	2230.22
1009.535	2198.13
1009.829	2193.39
1010.122	2150
1010.415	2149.77
1010.708	2150.23
1011.001	2127.85
1011.295	2111.58
1011.588	2118.36
1011.881	2096.44
1012.173	2096.67
1012.466	2065.26
1012.759	2072.26
1013.052	2033.84
1013.344	2028.87
1013.637	1998.82
1013.93	2018.7
1014.222	2017.8
1014.514	2010.57
1014.807	1959.04
1015.099	1954.98
1015.391	1933.73
1015.683	1965.6
1015.976	1923.79
1016.268	1950.68
1016.56	1906.62
1016.851	1856.67
1017.143	1882.66
1017.435	1858.93
1017.727	1869.1
1018.018	1831.59
1018.31	1837.47
1018.602	1841.76
1018.893	1845.15
1019.185	1831.59
1019.476	1798.82
1019.767	1781.87
1020.058	1766.06
1020.35	1741.2
1020.641	1728.09
1020.932	1722.44
1021.223	1720.63
1021.514	1741.88
1021.804	1651.48
1022.095	1686.06
1022.386	1682.22
1022.677	1644.48
1022.967	1662.1
1023.258	1646.74
1023.548	1651.71
1023.839	1615.55
1024.129	1613.29
1024.419	1603.12
1024.709	1578.49
1025	1538.72
1025.29	1562.44
1025.58	1565.16
1025.87	1547.08
1026.16	1524.93
1026.449	1533.97
1026.739	1519.28
1027.029	1515.44
1027.319	1505.72
1027.608	1492.16
1027.898	1465.95
1028.187	1455.33
1028.477	1452.39
1028.766	1466.63
1029.055	1425.73
1029.344	1435.89
1029.634	1413.07
1029.923	1390.25
1030.212	1392.51
1030.501	1373.98
1030.79	1412.17
1031.078	1364.03
1031.367	1355.44
1031.656	1381.66
1031.945	1338.04
1032.233	1351.6
1032.522	1336.01
1032.81	1288.1
1033.099	1304.15
1033.387	1288.1
1033.675	1287.88
1033.963	1267.76
1034.251	1270.25
1034.54	1258.95
1034.828	1253.75
1035.116	1262.57
1035.403	1227.76
1035.691	1220.98
1035.979	1214.21
1036.267	1203.36
1036.554	1191.38
1036.842	1215.56
1037.129	1195.22
1037.417	1178.27
1037.704	1165.17
1037.992	1162.68
1038.279	1138.28
1038.566	1146.86
1038.853	1146.86
1039.14	1146.86
