Data from aluminium_macbook_case_FLMS001491_015.txt Node
Date: Tue Feb 07 10:43:16 GMT 2017
User: dcchb
Spectrometer: FLMS00149
Trigger mode: 0
Integration Time (sec): 2.000000E-2
Scans to average: 10
Electric dark correction enabled: true
Nonlinearity correction enabled: false
Boxcar width: 0
XAxis mode: Wavelengths
Number of Pixels in Spectrum: 2048
>>>>>Begin Spectral Data<<<<<
341.393	-23.42
341.776	-23.42
342.16	-23.42
342.543	-36.3
342.927	-68.84
343.31	-71.55
343.693	-83.75
344.077	-68.16
344.46	-73.36
344.843	-53.02
345.226	-48.05
345.61	-19.8
345.993	-9.63
346.376	-14.38
346.759	27.43
347.142	27.43
347.525	44.15
347.908	51.61
348.291	81.66
348.674	83.47
349.057	125.96
349.44	119.18
349.823	158.5
350.206	181.32
350.588	227.2
350.971	271.04
351.354	278.27
351.737	296.8
352.119	314.65
352.502	328.44
352.884	351.71
353.267	352.17
353.65	341.09
354.032	356.91
354.414	347.19
354.797	374.54
355.179	389
355.562	388.78
355.944	373.18
356.326	401.2
356.709	389.68
357.091	401.88
357.473	397.59
357.855	407.76
358.238	407.76
358.62	421.99
359.002	424.93
359.384	417.7
359.766	406.18
360.148	434.42
360.53	434.65
360.912	425.38
361.294	428.32
361.676	423.12
362.057	394.65
362.439	412.5
362.821	413.18
363.203	430.36
363.584	414.99
363.966	419.51
364.348	407.76
364.729	424.93
365.111	413.18
365.493	439.62
365.874	416.8
366.256	408.66
366.637	434.88
367.019	430.81
367.4	421.77
367.781	429.45
368.163	449.34
368.544	453.86
368.925	422.45
369.306	439.62
369.688	460.41
370.069	444.14
370.45	447.53
370.831	462.45
371.212	452.95
371.593	451.6
371.974	455.44
372.355	467.42
372.736	489.56
373.117	439.4
373.498	457.93
373.879	482.11
374.26	463.35
374.641	456.12
375.021	458.6
375.402	489.56
375.783	509
376.163	533.86
376.544	504.03
376.925	478.72
377.305	488.43
377.686	492.05
378.066	501.99
378.447	521.2
378.827	530.92
379.208	533.63
379.588	530.47
379.968	530.24
380.349	556.68
380.729	551.93
381.109	548.32
381.489	558.04
381.87	579.96
382.25	591.48
382.63	583.57
383.01	560.52
383.39	585.38
383.77	589.9
384.15	611.14
384.53	630.8
384.91	635.55
385.29	621.54
385.67	636.23
386.049	643.46
386.429	661.54
386.809	651.59
387.189	666.28
387.568	663.12
387.948	677.36
388.328	686.39
388.707	691.59
389.087	706.73
389.466	713.74
389.846	709.67
390.225	731.82
390.605	723.46
390.984	741.53
391.363	743.12
391.743	737.47
392.122	768.88
392.501	797.8
392.881	794.87
393.26	794.19
393.639	819.05
394.018	798.26
394.397	834.64
394.776	822.89
395.155	842.55
395.534	840.06
395.913	889.78
396.292	866.5
396.671	888.42
397.05	880.06
397.429	885.03
397.808	901.98
398.186	915.31
398.565	914.64
398.944	888.42
399.323	933.17
399.701	970
400.08	958.7
400.458	974.3
400.837	1016.1
401.215	1003.9
401.594	1011.58
401.972	1038.25
402.351	1045.26
402.729	1048.87
403.107	1063.33
403.486	1068.53
403.864	1083.45
404.242	1101.52
404.62	1101.98
404.999	1153.95
405.377	1130.68
405.755	1160.28
406.133	1194.18
406.511	1197.34
406.889	1199.38
407.267	1231.24
407.645	1223.78
408.023	1228.3
408.401	1266.27
408.779	1293.61
409.156	1314.85
409.534	1306.27
409.912	1349.88
410.29	1377.22
410.667	1356.66
411.045	1396.43
411.422	1416.77
411.8	1454.74
412.178	1443.44
412.555	1491.8
412.933	1503.32
413.31	1530.44
413.687	1520.72
414.065	1576.09
414.442	1577.44
414.819	1594.39
415.197	1607.95
415.574	1675.52
415.951	1685.24
416.328	1668.74
416.705	1685.24
417.082	1714.16
417.46	1733.6
417.837	1759.36
418.214	1776.54
418.591	1775.86
418.967	1780.15
419.344	1809.75
419.721	1872.8
420.098	1884.78
420.475	1918.68
420.852	1928.62
421.228	1960.94
421.605	1933.82
421.982	1981.5
422.358	1996.87
422.735	2051.56
423.111	2038.9
423.488	2049.07
423.864	2082.29
424.241	2137.88
424.617	2147.6
424.994	2155.73
425.37	2189.41
425.746	2167.03
426.123	2254.04
426.499	2262.17
426.875	2293.13
427.251	2318.67
427.627	2416.52
428.003	2417.87
428.379	2461.26
428.756	2448.38
429.132	2487.03
429.507	2531.32
429.883	2516.4
430.259	2640.47
430.635	2665.55
431.011	2638.43
431.387	2747.13
431.763	2753.68
432.138	2772.89
432.514	2856.05
432.89	2870.07
433.265	2931.31
433.641	2965.43
434.016	2973.11
434.392	3073.22
434.767	3100.12
435.143	3102.83
435.518	3157.97
435.894	3202.49
436.269	3242.94
436.644	3289.72
437.02	3370.17
437.395	3327.45
437.77	3371.3
438.145	3418.53
438.52	3476.83
438.895	3477.06
439.271	3549.82
439.646	3652.87
440.021	3623.94
440.395	3685.64
440.77	3621.23
441.145	3693.32
441.52	3775.58
441.895	3756.37
442.27	3803.37
442.645	3806.99
443.019	3872.07
443.394	3875.24
443.769	3914.78
444.143	3941
444.518	3990.04
444.892	4028.68
445.267	4002.69
445.641	4111.62
446.016	4076.14
446.39	4145.51
446.764	4171.95
447.139	4191.61
447.513	4211.27
447.887	4250.14
448.262	4268.45
448.636	4315.23
449.01	4390.93
449.384	4417.37
449.758	4443.81
450.132	4516.58
450.506	4491.49
450.88	4646.52
451.254	4651.71
451.628	4694.65
452.002	4756.8
452.376	4767.64
452.75	4808.09
453.123	4855.55
453.497	4934.87
453.871	4997.47
454.244	5039.05
454.618	5152.04
454.992	5207.86
455.365	5209.21
455.739	5368.76
456.112	5401.98
456.486	5453.5
456.859	5513.16
457.232	5642.2
457.606	5629.09
457.979	5691.46
458.352	5827.73
458.725	5874.73
459.099	5961.28
459.472	6112.92
459.845	6132.58
460.218	6174.84
460.591	6304.78
460.964	6274.72
461.337	6448.05
461.71	6516.98
462.083	6676.07
462.456	6664.32
462.829	6662.28
463.201	6807.82
463.574	6847.59
463.947	6978.66
464.32	7135.49
464.692	7170.74
465.065	7234.92
465.438	7393.56
465.81	7484.86
466.183	7535.03
466.555	7708.58
466.928	7821.12
467.3	7743.61
467.672	7913.1
468.045	8161
468.417	8154.22
468.789	8192.64
469.161	8283.03
469.534	8497.71
469.906	8669.46
470.278	8723.92
470.65	8855.67
471.022	9050.02
471.394	9214.08
471.766	9311.7
472.138	9460.17
472.51	9599.38
472.882	9813.61
473.253	9806.83
473.625	10035.98
473.997	10200.04
474.369	10349.64
474.74	10388.51
475.112	10613.59
475.484	10829.4
475.855	11024.2
476.227	11081.83
476.598	11352.78
476.97	11462.16
477.341	11849.72
477.713	11942.37
478.084	12037.73
478.455	12433.43
478.827	12515.91
479.198	12924.49
479.569	12943.7
479.94	13250.81
480.311	13468.43
480.682	13833.17
481.053	14155.42
481.424	14241.97
481.795	14479.25
482.166	14603.54
482.537	14923.08
482.908	15202.85
483.279	15255.73
483.65	15679.45
484.021	15925.32
484.391	16106.33
484.762	16234.23
485.133	16363.5
485.503	16589.93
485.874	17056.13
486.244	17240.99
486.615	17422.68
486.985	17643.91
487.356	18013.62
487.726	18215.2
488.097	18645.47
488.467	18638.92
488.837	19114.61
489.207	19340.82
489.578	19690.64
489.948	19781.94
490.318	20169.72
490.688	20184.86
491.058	20562.71
491.428	20884.06
491.798	21123.82
492.168	21504.83
492.538	21598.16
492.908	21774.2
493.278	22057.58
493.648	22202.89
494.017	22561.53
494.387	22608.08
494.757	22904.12
495.126	23028.41
495.496	23240.38
495.866	23382.29
496.235	23621.16
496.605	23802.62
496.974	23931.21
497.344	24263.63
497.713	24304.53
498.082	24520.34
498.452	24835.59
498.821	24949.71
499.19	25181.12
499.559	25425.18
499.928	25635.79
500.298	25782.23
500.667	25975.9
501.036	26083.01
501.405	26355.55
501.774	26480.74
502.143	26745.14
502.512	26924.57
502.88	27176.09
503.249	27171.35
503.618	27351.68
503.987	27437.56
504.356	27786.25
504.724	27837.54
505.093	27977.43
505.462	28096.75
505.83	28287.02
506.199	28565.44
506.567	28893.56
506.936	28790.06
507.304	29252.2
507.672	29446.77
508.041	29502.59
508.409	29766.99
508.777	30053.76
509.145	30198.39
509.514	30328.55
509.882	30658.26
510.25	30768.99
510.618	31056.9
510.986	31181.41
511.354	31538.69
511.722	31836.08
512.09	32090.31
512.458	32170.31
512.826	32500.93
513.193	32579.79
513.561	32919.9
513.929	33072.89
514.297	33420.67
514.664	33690.5
515.032	33807.11
515.4	34024.27
515.767	34216.59
516.135	34455
516.502	34297.49
516.869	34905.83
517.237	35194.87
517.604	34979.73
517.972	35513.5
518.339	35730.9
518.706	35815.41
519.073	35925.24
519.44	36263.99
519.808	36720.48
520.175	36568.16
520.542	37135.61
520.909	37354.58
521.276	37468.48
521.643	37743.95
522.009	38127.67
522.376	38524.95
522.743	38880.42
523.11	39211.03
523.477	39426.62
523.843	39769.43
524.21	40124.45
524.577	40519.92
524.943	40681.5
525.31	40843.3
525.676	41290.52
526.043	41624.53
526.409	41759.89
526.776	42248.92
527.142	42366.43
527.508	42604.39
527.874	42862.01
528.241	43040.99
528.607	43173.86
528.973	43584.93
529.339	43525.72
529.705	44002.54
530.071	44266.27
530.437	44464.23
530.803	44456.99
531.169	44907.38
531.535	44853.59
531.901	45078.67
532.267	45325.9
532.632	45649.51
532.998	45700.58
533.364	45933.11
533.73	46231.64
534.095	46545.53
534.461	46642.93
534.826	46866.88
535.192	46985.74
535.557	47350.93
535.923	47434.09
536.288	47719.28
536.653	47964.93
537.019	47948.43
537.384	48113.4
537.749	48328.08
538.114	48434.74
538.479	48521.97
538.845	48648.98
539.21	48493.05
539.575	48829.31
539.94	49107.72
540.305	49225.91
540.67	49206.02
541.034	49371.89
541.399	49448.5
541.764	49523.75
542.129	49637.88
542.494	49698.44
542.858	49906.8
543.223	49982.95
543.587	50156.73
543.952	50144.3
544.316	50363.51
544.681	50379.55
545.045	50636.95
545.41	50801.91
545.774	50811.63
546.138	50893.66
546.503	50983.15
546.867	51112.87
547.231	51411.16
547.595	51388.11
547.959	51606.41
548.324	51700.65
548.688	51867.42
549.052	51924.37
549.416	52073.07
549.779	52166.4
550.143	52227.19
550.507	52506.73
550.871	52592.83
551.235	52649.32
551.599	52783.78
551.962	52932.25
552.326	52973.61
552.689	53169.76
553.053	53066.71
553.417	53158.46
553.78	53596.42
554.143	53495.63
554.507	53566.59
554.87	53737.65
555.234	53990.98
555.597	53768.61
555.96	53969.29
556.323	54093.35
556.686	54120.47
557.05	54341.93
557.413	54355.72
557.776	54440.91
558.139	54657.18
558.502	54784.41
558.865	54767.23
559.228	54989.37
559.59	55008.81
559.953	55204.51
560.316	55469.59
560.679	55495.12
561.041	55714.55
561.404	55796.58
561.767	55964.26
562.129	55938.5
562.492	56273.41
562.854	56187.76
563.217	56274.76
563.579	56522.44
563.941	56638.82
564.304	56824.58
564.666	56962.43
565.028	56936.21
565.39	57086.27
565.753	57256.43
566.115	57275.64
566.477	57476.31
566.839	57469.76
567.201	57698
567.563	57699.58
567.925	57790.43
568.287	57835.17
568.648	57880.14
569.01	57970.31
569.372	58134.83
569.734	57993.59
570.095	58215.73
570.457	58332.56
570.819	58317.87
571.18	58380.92
571.542	58514.25
571.903	58469.51
572.265	58660.01
572.626	58638.77
572.987	58721.25
573.349	58820.23
573.71	58881.47
574.071	58953.56
574.432	58991.53
574.794	59220.67
575.155	59230.84
575.516	59121.24
575.877	59262.93
576.238	59369.6
576.599	59446.43
576.96	59484.62
577.32	59551.51
577.681	59601.23
578.042	59693.43
578.403	59678.74
578.763	59766.87
579.124	59824.73
579.485	59942.46
579.845	59953.08
580.206	59868.57
580.566	60004.16
580.927	59990.82
581.287	60063.82
581.648	59939.3
582.008	60073.08
582.368	60051.84
582.728	60089.58
583.089	60090.93
583.449	60000.77
583.809	60041.67
584.169	60094.32
584.529	60008.68
584.889	60107.2
585.249	59959.86
585.609	59913.76
585.969	60115.57
586.329	59975.68
586.688	60047.09
587.048	60068.34
587.408	60045.29
587.768	59993.54
588.127	60001.22
588.487	60001.44
588.846	60104.49
589.206	59999.86
589.565	59988.34
589.925	60121.89
590.284	60045.29
590.643	60126.19
591.003	60146.98
591.362	60203.25
591.721	60087.54
592.08	60130.26
592.44	60259.07
592.799	60227.65
593.158	60236.02
593.517	60260.65
593.876	60250.93
594.235	60250.7
594.593	60291.38
594.952	60373.41
595.311	60322.57
595.67	60330.48
596.029	60459.74
596.387	60457.7
596.746	60521.21
597.104	60382.68
597.463	60418.84
597.822	60486.86
598.18	60419.97
598.538	60318.05
598.897	60497.7
599.255	60320.98
599.613	60618.38
599.972	60428.33
600.33	60486.4
600.688	60441.43
601.046	60512.84
601.404	60554.65
601.762	60488.21
602.12	60595.33
602.478	60658.38
602.836	60623.58
603.194	60534.54
603.552	60505.84
603.91	60445.5
604.268	60600.53
604.625	60556.23
604.983	60620.64
605.341	60540.87
605.698	60679.62
606.056	60671.71
606.413	60684.14
606.771	60740.18
607.128	60779.5
607.485	60655.44
607.843	60692.95
608.2	60895.66
608.557	60971.36
608.914	60865.38
609.272	61006.39
609.629	61092.94
609.986	61148.99
610.343	61049.1
610.7	61233.5
611.057	61217.23
611.414	61226.27
611.771	61226.95
612.127	61290.68
612.484	61313.05
612.841	61367.74
613.198	61226.95
613.554	61309.66
613.911	61350.79
614.267	61381.97
614.624	61367.06
614.98	61417.9
615.337	61423.78
615.693	61400.28
616.05	61404.57
616.406	61495.87
616.762	61443.67
617.118	61461.97
617.475	61383.33
617.831	61434.18
618.187	61492.93
618.543	61518.47
618.899	61608.41
619.255	61605.7
619.611	61587.39
619.967	61602.31
620.323	61605.7
620.678	61554.4
621.034	61502.65
621.39	61517.79
621.746	61447.73
622.101	61706.48
622.457	61487.28
622.812	61526.38
623.168	61577.45
623.523	61583.32
623.879	61636.66
624.234	61562.08
624.589	61567.28
624.945	61534.74
625.3	61654.51
625.655	61571.35
626.01	61595.98
626.365	61583.55
626.72	61545.36
627.075	61607.28
627.43	61569.31
627.785	61467.17
628.14	61569.54
628.495	61616.09
628.85	61597.79
629.205	61541.74
629.559	61694.28
629.914	61520.28
630.269	61595.08
630.623	61509.43
630.978	61473.95
631.332	61514.17
631.687	61618.8
632.041	61410.9
632.396	61516.89
632.75	61334.29
633.104	61392.59
633.459	61248.19
633.813	61277.34
634.167	61262.2
634.521	61231.7
634.875	61224.24
635.229	61158.48
635.583	61064.24
635.937	61104.24
636.291	61045.94
636.645	61045.71
636.999	60948.76
637.352	60949.44
637.706	60812.27
638.06	60939.95
638.413	60872.16
638.767	60799.16
639.121	60817.02
639.474	60675.55
639.828	60694.31
640.181	60641.2
640.534	60662.67
640.888	60527.08
641.241	60444.37
641.594	60500.64
641.947	60558.72
642.301	60481.43
642.654	60480.08
643.007	60406.41
643.36	60389.23
643.713	60276.24
644.066	60406.18
644.419	60234.89
644.771	60094.78
645.124	59946.76
645.477	59872.63
645.83	59754.22
646.182	59618.86
646.535	59625.64
646.888	59694.79
647.24	59496.37
647.593	59651.85
647.945	59611.17
648.298	59482.14
648.65	59451.18
649.002	59377.28
649.355	59461.8
649.707	59448.01
650.059	59537.05
650.411	59742.92
650.763	59822.69
651.115	60040.54
651.467	59941.56
651.819	59854.1
652.171	59814.78
652.523	59751.51
652.875	59803.94
653.227	59666.54
653.578	59756.93
653.93	59751.51
654.282	59601.91
654.633	59600.1
654.985	59678.06
655.337	59577.28
655.688	59548.8
656.039	59633.09
656.391	59387
656.742	59450.05
657.094	59437.17
657.445	59546.99
657.796	59389.48
658.147	59354.46
658.498	59306.1
658.849	59359.88
659.2	59272.88
659.551	59243.5
659.902	59305.42
660.253	59259.77
660.604	59268.13
660.955	59062.03
661.306	59202.14
661.656	59176.83
662.007	59060.23
662.358	59088.7
662.708	59067.23
663.059	59051.41
663.409	58808.26
663.76	59053.22
664.11	59041.24
664.461	59091.64
664.811	59041.02
665.161	58996.5
665.511	59003.73
665.862	58999.66
666.212	59087.34
666.562	59144.07
666.912	59050.06
667.262	59032.88
667.612	59040.11
667.962	59012.77
668.312	59012.54
668.662	59135.03
669.011	59015.71
669.361	58966.22
669.711	58988.36
670.06	58947.24
670.41	58866.56
670.76	58803.74
671.109	58904.52
671.459	58914.24
671.808	58853
672.157	58867.24
672.507	58714.93
672.856	58698.2
673.205	58702.04
673.554	58806
673.904	58691.87
674.253	58800.12
674.602	58632.89
674.951	58307.48
675.3	58179.35
675.649	58572.78
675.998	58541.37
676.346	58519.68
676.695	58533.46
677.044	58418.66
677.393	58446.23
677.741	58391.09
678.09	58312.9
678.438	58206.24
678.787	58379.79
679.135	58278.1
679.484	58132.34
679.832	58134.83
680.181	58044.66
680.529	58133.47
680.877	58021.38
681.225	57940.48
681.573	58075.85
681.922	57837.66
682.27	57789.75
682.618	57808.51
682.966	57636.76
683.314	57698.45
683.661	57608.29
684.009	57482.87
684.357	57393.83
684.705	57383.21
685.053	57484.9
685.4	57451.68
685.748	57298.01
686.095	57289.43
686.443	57222.08
686.79	57161.07
687.138	57270.67
687.485	57269.09
687.832	57183.89
688.18	57152.71
688.527	56971.24
688.874	57033.84
689.221	56950.23
689.568	56860.28
689.915	56913.16
690.262	56884.24
690.609	56795.2
690.956	56710.91
691.303	56758.37
691.65	56580.97
691.997	56517.02
692.344	56408.09
692.69	56366.29
693.037	56427.08
693.383	56164.26
693.73	56230.7
694.077	56049.68
694.423	55981.44
694.769	55944.15
695.116	55911.38
695.462	55793.65
695.808	55692.18
696.155	55780.76
696.501	55474.33
696.847	55563.37
697.193	55319.99
697.539	55397.05
697.885	55159.31
698.231	55129.93
698.577	55097.62
698.923	54937.62
699.269	54808.14
699.614	54644.07
699.96	54547.8
700.306	54622.83
700.651	54509.84
700.997	54368.15
701.342	54270.3
701.688	54215.16
702.033	54117.76
702.379	54122.96
702.724	54040.25
703.069	54090.64
703.415	53687.49
703.76	53727.49
704.105	53607.49
704.45	53590.99
704.795	53299.25
705.14	53228.52
705.485	53314.84
705.83	53179.48
706.175	53182.19
706.52	53096.77
706.865	52897.22
707.209	52892.93
707.554	52750.11
707.899	52788.3
708.243	52618.36
708.588	52581.08
708.932	52394.19
709.277	52429.89
709.621	52418.59
709.966	52330.46
710.31	52386.96
710.654	52086.85
710.998	52106.51
711.342	52185.83
711.687	52169.56
712.031	52062.22
712.375	51939.74
712.719	51969.57
713.063	51915.1
713.407	51913.3
713.75	51687.54
714.094	51658.61
714.438	51636.92
714.782	51635.79
715.125	51613.19
715.469	51497.04
715.812	51334.55
716.156	51192.41
716.499	51168.91
716.843	51218.17
717.186	51043.49
717.53	51169.81
717.873	50921.23
718.216	50800.1
718.559	50781.8
718.902	50534.35
719.246	50581.35
719.589	50457.97
719.932	50265.66
720.275	50309.04
720.617	50340.68
720.96	50196.05
721.303	50071.54
721.646	49921.26
721.989	49791.54
722.331	49943.86
722.674	49699.79
723.016	49771.21
723.359	49587.26
723.701	49638.1
724.044	49428.84
724.386	49231.11
724.729	49362.63
725.071	49078.12
725.413	49126.93
725.755	49107.27
726.097	48815.3
726.439	48606.26
726.782	48604
727.124	48827.5
727.465	48461.86
727.807	48367.4
728.149	48380.96
728.491	48316.55
728.833	48354.29
729.175	48112.27
729.516	48081.53
729.858	47952.5
730.199	48025.04
730.541	47901.2
730.882	47823.91
731.224	47895.1
731.565	47639.28
731.906	47637.7
732.248	47650.13
732.589	47672.05
732.93	47493.75
733.271	47564.03
733.612	47538.95
733.953	47587.08
734.294	47271.84
734.635	47308.67
734.976	47432.74
735.317	47147.55
735.658	47214.21
735.999	47285.85
736.339	47145.51
736.68	47167.88
737.021	47123.37
737.361	46919.53
737.702	47231.39
738.042	46938.51
738.383	46950.94
738.723	46918.85
739.063	46724.96
739.404	46816.03
739.744	46566.09
740.084	46569.03
740.424	46476.83
740.764	46440.22
741.104	46373.78
741.444	46233.67
741.784	46126.1
742.124	46173.11
742.464	46073.22
742.804	45977.18
743.143	45840.69
743.483	45855.15
743.823	45678.66
744.162	45591.43
744.502	45637.98
744.841	45448.38
745.181	45599.11
745.52	45246.8
745.86	45213.59
746.199	45035.96
746.538	45064.89
746.877	44890.43
747.216	44813.6
747.556	44755.97
747.895	44717.78
748.234	44627.84
748.573	44615.86
748.911	44427.39
749.25	44422.87
749.589	44177.91
749.928	44161.18
750.267	44148.3
750.605	43845.94
750.944	43738.82
751.283	43646.62
751.621	43652.95
751.96	43343.35
752.298	43327.99
752.636	43467.42
752.975	43162.11
753.313	42899.97
753.651	43055.68
753.989	42900.88
754.327	42793.99
754.666	42530.94
755.004	42465.18
755.342	42340.67
755.679	42256.6
756.017	42146.32
756.355	42264.06
756.693	41960.34
757.031	42165.76
757.368	41857.97
757.706	41851.87
758.044	41782.71
758.381	41801.7
758.719	41608.93
759.056	41705.2
759.394	41497.75
759.731	41245.1
760.068	41183.86
760.405	41036.29
760.743	41057.08
761.08	41119
761.417	40908.84
761.754	40828.16
762.091	40684.66
762.428	40518.34
762.765	40348.85
763.102	40466.82
763.438	40269.53
763.775	40031.8
764.112	40028.64
764.449	40101.63
764.785	39846.95
765.122	39539.38
765.458	39444.25
765.795	39508.42
766.131	39501.64
766.467	39357.92
766.804	39211.03
767.14	39063.01
767.476	38864.37
767.812	38598.84
768.148	38757.48
768.485	38553.87
768.821	38370.15
769.157	38300.77
769.492	38115.69
769.828	38039.31
770.164	37578.98
770.5	37659.21
770.836	37697.85
771.171	37250.4
771.507	37407.69
771.842	36986
772.178	36941.49
772.513	36849.96
772.849	36768.16
773.184	36626.47
773.519	36476.19
773.855	36280.26
774.19	36162.75
774.525	35957.33
774.86	35975.64
775.195	35861.06
775.53	35694.51
775.865	35329.33
776.2	35215.43
776.535	34856.34
776.87	35014.08
777.205	34738.61
777.539	34631.49
777.874	34569.12
778.209	34242.57
778.543	34179.07
778.878	33963.71
779.212	34095.91
779.547	33768.91
779.881	33751.06
780.215	33447.34
780.55	33589.71
780.884	33225.43
781.218	33139.78
781.552	33296.38
781.886	32806.91
782.22	32810.07
782.554	32584.76
782.888	32300.03
783.222	32228.84
783.556	32112.91
783.889	32021.62
784.223	31850.32
784.557	31828.85
784.89	31938
785.224	31688.97
785.557	31547.5
785.891	31539.59
786.224	31433.61
786.558	31425.47
786.891	31053.05
787.224	31067.52
787.557	31099.83
787.891	31001.08
788.224	30835.88
788.557	31025.03
788.89	30741.42
789.223	30758.6
789.556	30655.32
789.888	30311.38
790.221	30362.9
790.554	30023.7
790.887	30169.69
791.219	29924.27
791.552	29938.05
791.884	29833.65
792.217	29675.69
792.549	29543.26
792.882	29382.59
793.214	29218.98
793.546	29364.28
793.879	29119.32
794.211	29072.09
794.543	29221.92
794.875	28984.41
795.207	29057.4
795.539	28886.78
795.871	28952.77
796.203	28648.6
796.535	28515.04
796.867	28516.4
797.198	28403.63
797.53	28307.36
797.862	28116.63
798.193	28174.49
798.525	27900.14
798.856	28027.6
799.188	27602.75
799.519	27504.45
799.85	27437.78
800.182	27492.7
800.513	27425.58
800.844	27110.33
801.175	27301.29
801.506	27094.06
801.837	26988.75
802.168	26918.47
802.499	26743.11
802.83	26635.99
803.161	26520.97
803.491	26491.37
803.822	26358.94
804.153	26288.43
804.483	26009.34
804.814	25972.96
805.145	25928.67
805.475	25893.19
805.805	25689.35
806.136	25711.95
806.466	25640.54
806.796	25592.86
807.126	25380.66
807.457	25284.17
807.787	25336.59
808.117	25093.89
808.447	25031.97
808.777	25020.67
809.107	25015.02
809.436	24997.85
809.766	24800.11
810.096	24797.85
810.426	24528.48
810.755	24615.48
811.085	24513.34
811.414	24437.18
811.744	24249.16
812.073	24192.44
812.403	24315.38
812.732	24087.59
813.061	24091.88
813.39	23942.28
813.719	23850.76
814.049	24078.32
814.378	23874.26
814.707	23875.84
815.036	23846.69
815.365	23707.71
815.693	23453.93
816.022	23598.56
816.351	23571.67
816.68	23403.54
817.008	23585
817.337	23289.64
817.665	23367.38
817.994	23494.83
818.322	23335.74
818.651	23254.61
818.979	23209.64
819.307	23342.3
819.636	23164.45
819.964	23010.33
820.292	23162.64
820.62	23138.69
820.948	23171.9
821.276	23174.62
821.604	22924.45
821.932	23200.15
822.259	23305.91
822.587	23213.26
822.915	23112.02
823.243	23222.98
823.57	23065.24
823.898	23096.65
824.225	22980.27
824.553	23052.13
824.88	22895.75
825.207	23121.51
825.535	22972.59
825.862	23050.1
826.189	22923.78
826.516	23094.39
826.843	23181.17
827.17	23105.47
827.497	23185.24
827.824	23118.57
828.151	23178.91
828.478	23027.5
828.805	23108.63
829.131	22962.87
829.458	22907.73
829.785	22865.02
830.111	22851.91
830.438	22925.36
830.764	22849.43
831.09	22875.42
831.417	22818.02
831.743	22786.83
832.069	22901.4
832.395	22645.59
832.722	22823.44
833.048	22646.49
833.374	22796.55
833.7	22630.22
834.026	22528.31
834.351	22652.6
834.677	22462.32
835.003	22536.67
835.329	22557.01
835.654	22487.63
835.98	22349.33
836.306	22292.83
836.631	22222.78
836.956	22310.46
837.282	22301.65
837.607	22130.12
837.932	22045.83
838.258	21936.68
838.583	22019.17
838.908	21804.48
839.233	21898.49
839.558	21885.39
839.883	21865.72
840.208	21699.85
840.533	21766.29
840.858	21706.41
841.182	21686.97
841.507	21725.84
841.832	21460.54
842.156	21507.54
842.481	21524.26
842.805	21406.53
843.13	21253.99
843.454	21231.39
843.778	21255.12
844.103	21341.44
844.427	21209.7
844.751	21242.92
845.075	21177.16
845.399	21098.06
845.723	20978.74
846.047	20968.12
846.371	20723.83
846.695	20852.87
847.019	20614.91
847.343	20662.37
847.666	20466.21
847.99	20339.21
848.313	20483.39
848.637	20262.38
848.96	20269.83
849.284	20264.86
849.607	20175.37
849.931	20136.73
850.254	20013.57
850.577	20028.48
850.9	19740.13
851.223	19865.55
851.546	19740.13
851.869	19604.09
852.192	19702.39
852.515	19578.33
852.838	19584.88
853.161	19502.62
853.483	19421.04
853.806	19386.02
854.129	19424.88
854.451	19262.4
854.774	19173.59
855.096	19159.81
855.419	19129.53
855.741	19011.11
856.063	18969.3
856.385	18837.78
856.708	18856.31
857.03	18812.47
857.352	18839.82
857.674	18699.71
857.996	18697.22
858.318	18576.09
858.64	18659.03
858.961	18546.49
859.283	18517.56
859.605	18396.89
859.926	18552.59
860.248	18383.78
860.57	18311.47
860.891	18373.39
861.212	18175.43
861.534	18265.82
861.855	18135.2
862.176	18126.84
862.498	18110.79
862.819	18125.48
863.14	17885.04
863.461	17936.11
863.782	17991.25
864.103	17897.47
864.424	17836.23
864.745	17857.92
865.065	17707.19
865.386	17645.04
865.707	17557.59
866.027	17653.63
866.348	17551.94
866.668	17680.98
866.989	17534.76
867.309	17347.43
867.63	17470.81
867.95	17415.45
868.27	17351.04
868.59	17312.62
868.91	17319.4
869.23	17178.16
869.55	17286.86
869.87	17271.27
870.19	17238.05
870.51	17160.09
870.83	17196.92
871.15	16965.29
871.469	17151.27
871.789	17149.46
872.109	16971.84
872.428	16897.72
872.748	16932.29
873.067	16877.16
873.386	17001.22
873.706	16770.27
874.025	16672.64
874.344	16722.58
874.663	16784.73
874.982	16717.39
875.301	16704.73
875.62	16593.55
875.939	16624.05
876.258	16534.57
876.577	16528.46
876.896	16552.64
877.214	16434.23
877.533	16415.7
877.852	16405.3
878.17	16512.87
878.489	16486.66
878.807	16380.22
879.125	16375.93
879.444	16403.27
879.762	16273.78
880.08	16331.63
880.398	16341.35
880.716	16351.97
881.034	16279.66
881.352	16220.45
881.67	16126.21
881.988	16167.34
882.306	16173.44
882.624	16137.06
882.941	16070.85
883.259	16017.97
883.577	16057.97
883.894	15939.1
884.212	16054.35
884.529	15996.27
884.846	15930.06
885.164	15888.93
885.481	15854.58
885.798	15895.49
886.115	15720.35
886.432	15837.63
886.75	15768.03
887.067	15742.5
887.383	15643.97
887.7	15733.46
888.017	15584.31
888.334	15743.63
888.651	15574.14
888.967	15602.61
889.284	15507.02
889.6	15492.56
889.917	15470.64
890.233	15539.11
890.55	15432.9
890.866	15448.04
891.182	15335.5
891.498	15373.92
891.815	15253.02
892.131	15309.51
892.447	15301.6
892.763	15248.72
893.079	15172.57
893.395	15104.09
893.71	15099.8
894.026	15036.53
894.342	15046.24
894.657	14916.08
894.973	14884.67
895.289	14802.18
895.604	14864.55
895.92	14725.8
896.235	14638.12
896.55	14773.26
896.865	14607.61
897.181	14617.55
897.496	14501.85
897.811	14454.39
898.126	14448.29
898.441	14354.28
898.756	14277.45
899.071	14237.22
899.386	14340.5
899.7	14126.04
900.015	14106.83
900.33	13993.84
900.644	14001.3
900.959	14014.18
901.273	14023.22
901.588	13867.97
901.902	13820.74
902.216	13711.36
902.531	13785.94
902.845	13621.2
903.159	13548.2
903.473	13526.96
903.787	13495.55
904.101	13349.56
904.415	13441.77
904.729	13294.2
905.042	13182.34
905.356	13183.69
905.67	13203.58
905.984	13148.21
906.297	13143.02
906.611	13007.2
906.924	12993.42
907.237	12896.47
907.551	12910.03
907.864	12769.47
908.177	12775.79
908.491	12737.83
908.804	12628.45
909.117	12632.07
909.43	12512.07
909.743	12416.71
910.056	12408.8
910.368	12384.84
910.681	12320.21
910.994	12340.33
911.307	12187.56
911.619	12129.26
911.932	12161.57
912.244	11961.35
912.557	12020.33
912.869	11918.64
913.181	11865.99
913.494	11896.5
913.806	11793
914.118	11813.79
914.43	11669.83
914.742	11705.31
915.054	11661.7
915.366	11530.18
915.678	11532.89
915.99	11516.62
916.302	11471.65
916.613	11429.61
916.925	11332.67
917.236	11309.39
917.548	11245.66
917.859	11299.45
918.171	11271.88
918.482	11061.26
918.794	11073.92
919.105	11059.91
919.416	10943.98
919.727	11018.78
920.038	10948.05
920.349	10909.63
920.66	10844.09
920.971	10873.7
921.282	10725.45
921.593	10755.51
921.903	10704.66
922.214	10710.31
922.525	10643.65
922.835	10637.55
923.146	10527.04
923.456	10491.79
923.767	10523.2
924.077	10446.36
924.387	10441.84
924.697	10339.93
925.008	10356.42
925.318	10383.09
925.628	10300.83
925.938	10267.84
926.248	10202.08
926.558	10196.43
926.867	10161.85
927.177	10096.54
927.487	10030.78
927.796	9915.98
928.106	10009.99
928.416	9934.29
928.725	9920.73
929.034	9890.67
929.344	9807.51
929.653	9835.98
929.962	9793.95
930.271	9725.93
930.581	9646.38
930.89	9595.54
931.199	9588.31
931.508	9539.04
931.817	9547.86
932.125	9542.88
932.434	9462.66
932.743	9371.14
933.051	9431.48
933.36	9365.71
933.669	9294.08
933.977	9226.28
934.286	9216.79
934.594	9226.06
934.902	9143.57
935.21	9079.39
935.519	9047.76
935.827	9060.64
936.135	8943.35
936.443	8889.12
936.751	8869.91
937.059	8853.41
937.367	8807.76
937.674	8830.14
937.982	8735.45
938.29	8702.91
938.597	8669.91
938.905	8582.23
939.213	8605.51
939.52	8520.99
939.827	8464.27
940.135	8433.54
940.442	8344.95
940.749	8375.91
941.056	8380.66
941.363	8275.8
941.67	8254.33
941.977	8174.79
942.284	8162.81
942.591	8139.76
942.898	8157.61
943.205	8105.63
943.511	8040.1
943.818	8006.65
944.125	7951.97
944.431	7914.9
944.738	7883.72
945.044	7881.01
945.35	7791.29
945.657	7725.08
945.963	7741.12
946.269	7700.9
946.575	7665.42
946.881	7591.07
947.187	7539.1
947.493	7505.65
947.799	7524.41
948.105	7457.97
948.41	7422.26
948.716	7379.1
949.022	7344.98
949.327	7308.14
949.633	7223.4
949.938	7262.49
950.244	7241.7
950.549	7147.47
950.854	7099.56
951.16	7128.03
951.465	7096.4
951.77	6958.55
952.075	6980.47
952.38	6962.16
952.685	6917.19
952.99	6828.83
953.294	6880.36
953.599	6843.75
953.904	6766.01
954.209	6808.72
954.513	6827.25
954.818	6704.32
955.122	6707.03
955.426	6680.81
955.731	6660.7
956.035	6618.89
956.339	6614.37
956.643	6609.85
956.948	6557.65
957.252	6455.96
957.556	6491.89
957.86	6491.44
958.163	6486.24
958.467	6449.18
958.771	6429.97
959.075	6362.4
959.378	6375.28
959.682	6333.25
959.985	6271.56
960.289	6241.05
960.592	6237.21
960.896	6210.77
961.199	6194.5
961.502	6175.52
961.805	6117.44
962.108	6092.13
962.411	6036.76
962.714	6092.58
963.017	6058.68
963.32	6053.03
963.623	5992.92
963.926	5955.41
964.228	5891.46
964.531	5933.71
964.833	5924
965.136	5893.94
965.438	5876.09
965.741	5843.55
966.043	5785.92
966.345	5779.37
966.648	5733.72
966.95	5802.87
967.252	5635.42
967.554	5658.47
967.856	5665.02
968.158	5655.76
968.46	5658.92
968.761	5633.61
969.063	5578.24
969.365	5541.18
969.666	5566.49
969.968	5513.16
970.269	5517.45
970.571	5517.91
970.872	5434.29
971.174	5414.63
971.475	5447.85
971.776	5422.09
972.077	5359.72
972.378	5373.05
972.679	5352.71
972.98	5302.54
973.281	5254.18
973.582	5241.3
973.883	5234.98
974.183	5245.37
974.484	5184.58
974.785	5188.2
975.085	5157.46
975.386	5127.41
975.686	5145.49
975.986	5026.17
976.287	5077.69
976.587	4978.94
976.887	4959.28
977.187	5008.54
977.487	4948.43
977.787	4930.8
978.087	4880.41
978.387	4901.2
978.687	4864.36
978.987	4861.2
979.286	4776.23
979.586	4788.89
979.885	4810.35
980.185	4763.58
980.484	4735.55
980.784	4753.63
981.083	4675.44
981.382	4596.8
981.682	4615.78
981.981	4615.33
982.28	4605.84
982.579	4573.3
982.878	4557.25
983.177	4547.08
983.475	4534.65
983.774	4471.83
984.073	4506.86
984.372	4407.2
984.67	4435
984.969	4380.76
985.267	4416.24
985.566	4409.69
985.864	4336.92
986.162	4323.13
986.461	4279.97
986.759	4263.93
987.057	4238.17
987.355	4224.83
987.653	4213.76
987.951	4201.1
988.249	4154.1
988.547	4180.31
988.844	4105.29
989.142	4124.72
989.44	4053.09
989.737	4050.6
990.035	4028.23
990.332	3960.21
990.63	3983.71
990.927	4023.03
991.224	3969.47
991.521	3921.34
991.819	3929.47
992.116	3928.12
992.413	3835.92
992.71	3830.49
993.006	3850.38
993.303	3793.66
993.6	3803.83
993.897	3790.72
994.193	3761.34
994.49	3718.86
994.787	3710.5
995.083	3702.59
995.379	3676.82
995.676	3652.87
995.972	3628.24
996.268	3632.08
996.565	3598.41
996.861	3587.11
997.157	3543.95
997.453	3550.05
997.749	3511.63
998.044	3488.35
998.34	3484.74
998.636	3460.56
998.932	3430.95
999.227	3449.03
999.523	3416.94
999.818	3387.34
1000.114	3347.79
1000.409	3336.49
1000.704	3340.79
1001	3321.58
1001.295	3294.69
1001.59	3282.71
1001.885	3246.55
1002.18	3263.5
1002.475	3224.63
1002.77	3228.47
1003.065	3188.48
1003.359	3209.49
1003.654	3204.52
1003.949	3155.71
1004.243	3101.02
1004.538	3127.69
1004.832	3096.73
1005.127	3085.2
1005.421	3080.68
1005.715	3025.99
1006.009	3032.55
1006.304	3000.01
1006.598	2982.61
1006.892	2969.5
1007.186	2979.89
1007.48	2905.32
1007.773	2924.98
1008.067	2911.87
1008.361	2885.88
1008.655	2897.18
1008.948	2875.26
1009.242	2836.17
1009.535	2832.1
1009.829	2809.28
1010.122	2794.59
1010.415	2808.82
1010.708	2757.07
1011.001	2732.67
1011.295	2725.21
1011.588	2728.6
1011.881	2677.53
1012.173	2676.85
1012.466	2708.49
1012.759	2632.11
1013.052	2697.87
1013.344	2627.59
1013.637	2622.16
1013.93	2588.49
1014.222	2555.72
1014.514	2583.29
1014.807	2564.54
1015.099	2565.22
1015.391	2514.37
1015.683	2527.48
1015.976	2475.05
1016.268	2475.95
1016.56	2451.09
1016.851	2460.36
1017.143	2435.95
1017.435	2424.43
1017.727	2392.79
1018.018	2375.62
1018.31	2367.03
1018.602	2357.08
1018.893	2362.28
1019.185	2320.7
1019.476	2314.83
1019.767	2283.87
1020.058	2268.95
1020.35	2248.61
1020.641	2249.07
1020.932	2221.5
1021.223	2204.77
1021.514	2197.09
1021.804	2150.31
1022.095	2165.9
1022.386	2154.83
1022.677	2132.91
1022.967	2095.4
1023.258	2120.48
1023.548	2073.48
1023.839	2051.1
1024.129	2078
1024.419	2019.69
1024.709	2024.89
1025	1997.32
1025.29	2005.23
1025.58	1985.8
1025.87	1941.95
1026.16	1947.38
1026.449	1913.93
1026.739	1931.11
1027.029	1943.54
1027.319	1904.67
1027.608	1925.46
1027.898	1863.09
1028.187	1817.66
1028.477	1852.24
1028.766	1840.26
1029.055	1771.11
1029.344	1797.1
1029.634	1789.87
1029.923	1781.05
1030.212	1751.9
1030.501	1724.79
1030.79	1710.32
1031.078	1708.51
1031.367	1720.49
1031.656	1682.75
1031.945	1692.92
1032.233	1677.55
1032.522	1665.13
1032.81	1663.32
1033.099	1607.73
1033.387	1621.51
1033.675	1623.77
1033.963	1605.69
1034.251	1569.76
1034.54	1601.62
1034.828	1556.2
1035.116	1513.49
1035.403	1510.55
1035.691	1528.63
1035.979	1505.36
1036.267	1492.02
1036.554	1464.9
1036.842	1478.46
1037.129	1487.28
1037.417	1456.32
1037.704	1417.67
1037.992	1414.28
1038.279	1398.69
1038.566	1414.28
1038.853	1414.28
1039.14	1414.28
