Data from aluminium_macbook_case_FLMS001491_086.txt Node
Date: Tue Feb 07 10:44:17 GMT 2017
User: dcchb
Spectrometer: FLMS00149
Trigger mode: 0
Integration Time (sec): 2.000000E-2
Scans to average: 10
Electric dark correction enabled: true
Nonlinearity correction enabled: false
Boxcar width: 0
XAxis mode: Wavelengths
Number of Pixels in Spectrum: 2048
>>>>>Begin Spectral Data<<<<<
341.393	-20.01
341.776	-20.01
342.16	-20.01
342.543	-77.41
342.927	-78.32
343.31	-58.66
343.693	-71.76
344.077	-62.27
344.46	-54.81
344.843	-34.93
345.226	-47.36
345.61	-33.35
345.993	-6.23
346.376	-21.14
346.759	25.86
347.142	3.94
347.525	42.58
347.908	60.44
348.291	83.49
348.674	74.45
349.057	99.76
349.44	123.03
349.823	146.54
350.206	167.55
350.588	257.95
350.971	250.04
351.354	264.5
351.737	290.71
352.119	284.61
352.502	321.22
352.884	342.01
353.267	348.34
353.65	353.08
354.032	377.72
354.414	353.76
354.797	379.75
355.179	393.76
355.562	393.08
355.944	421.33
356.326	388.56
356.709	417.72
357.091	378.17
357.473	416.81
357.855	398.51
358.238	408.9
358.62	414.1
359.002	436.02
359.384	410.94
359.766	412.07
360.148	426.08
360.53	403.93
360.912	420.65
361.294	409.81
361.676	412.74
362.057	419.3
362.439	406.87
362.821	432.18
363.203	413.65
363.584	434.66
363.966	417.26
364.348	424.95
364.729	416.59
365.111	442.35
365.493	427.88
365.874	447.77
366.256	425.62
366.637	414.1
367.019	433.99
367.4	435.79
367.781	440.09
368.163	421.1
368.544	461.56
368.925	427.43
369.306	438.96
369.688	424.04
370.069	460.43
370.45	454.78
370.831	487.54
371.212	447.09
371.593	473.08
371.974	468.56
372.355	452.97
372.736	467.43
373.117	495
373.498	474.89
373.879	464.04
374.26	472.4
374.641	446.64
375.021	457.71
375.402	463.59
375.783	514.66
376.163	535.45
376.544	539.07
376.925	536.13
377.305	505.85
377.686	514.21
378.066	532.51
378.447	558.28
378.827	546.98
379.208	550.82
379.588	549.01
379.968	539.52
380.349	551.5
380.729	549.24
381.109	570.71
381.489	592.4
381.87	583.36
382.25	577.03
382.63	591.27
383.01	602.34
383.39	606.18
383.77	588.78
384.15	632.17
384.53	617.94
384.91	607.09
385.29	642.12
385.67	647.54
386.049	672.17
386.429	664.04
386.809	647.31
387.189	667.43
387.568	671.95
387.948	694.54
388.328	714.43
388.707	704.04
389.087	713.53
389.466	731.38
389.846	728.89
390.225	741.55
390.605	749.91
390.984	761.43
391.363	758.5
391.743	769.57
392.122	789
392.501	790.13
392.881	818.16
393.26	807.08
393.639	840.3
394.018	852.28
394.397	858.83
394.776	869
395.155	861.77
395.534	850.92
395.913	875.78
396.292	902.9
396.671	918.49
397.05	913.97
397.429	945.61
397.808	940.41
398.186	952.39
398.565	950.13
398.944	955.55
399.323	964.59
399.701	998.26
400.08	1019.96
400.458	1006.17
400.837	1050.47
401.215	1016.8
401.594	1040.07
401.972	1049.11
402.351	1071.94
402.729	1079.62
403.107	1109.9
403.486	1097.02
403.864	1102.22
404.242	1158.03
404.62	1122.33
404.999	1142.44
405.377	1179.5
405.755	1189.9
406.133	1209.78
406.511	1224.47
406.889	1255.21
407.267	1247.75
407.645	1258.37
408.023	1315.54
408.401	1308.31
408.779	1344.24
409.156	1344.02
409.534	1352.83
409.912	1371.36
410.29	1432.83
410.667	1452.26
411.045	1490.46
411.422	1445.26
411.8	1468.31
412.178	1493.39
412.555	1526.16
412.933	1521.41
413.31	1579.27
413.687	1569.55
414.065	1597.12
414.442	1644.8
414.819	1671.69
415.197	1673.05
415.574	1709.88
415.951	1713.95
416.328	1748.08
416.705	1771.35
417.082	1766.38
417.46	1819.26
417.837	1795.53
418.214	1799.37
418.591	1876.43
418.967	1905.59
419.344	1905.81
419.721	1923.89
420.098	1924.79
420.475	1993.49
420.852	1977.9
421.228	2011.12
421.605	2019.03
421.982	2025.36
422.358	2080.72
422.735	2099.93
423.111	2121.63
423.488	2193.49
423.864	2185.8
424.241	2190.55
424.617	2256.76
424.994	2243.66
425.37	2310.09
425.746	2272.36
426.123	2322.52
426.499	2325.01
426.875	2383.99
427.251	2396.65
427.627	2468.06
428.003	2536.08
428.379	2555.74
428.756	2552.8
429.132	2591.44
429.507	2609.75
429.883	2661.5
430.259	2743.53
430.635	2712.8
431.011	2790.08
431.387	2822.62
431.763	2866.69
432.138	2880.02
432.514	2980.59
432.89	3018.32
433.265	3057.19
433.641	3096.29
434.016	3154.59
434.392	3171.77
434.767	3213.12
435.143	3226.68
435.518	3266.91
435.894	3291.54
436.269	3350.75
436.644	3404.76
437.02	3433.91
437.395	3444.75
437.77	3494.47
438.145	3546.45
438.52	3652.21
438.895	3627.57
439.271	3634.58
439.646	3777.63
440.021	3760.23
440.395	3784.41
440.77	3749.83
441.145	3820.79
441.52	3908.24
441.895	3919.09
442.27	3996.15
442.645	3946.44
443.019	4052.65
443.394	4021.91
443.769	4053.1
444.143	4061.69
444.518	4152.08
444.892	4139.2
445.267	4186.66
445.641	4189.82
446.016	4273.21
446.39	4288.35
446.764	4312.3
447.139	4324.28
447.513	4414.9
447.887	4400.66
448.262	4458.51
448.636	4460.32
449.01	4579.64
449.384	4570.37
449.758	4615.12
450.132	4716.59
450.506	4762.01
450.88	4782.57
451.254	4765.4
451.628	4873.19
452.002	4890.37
452.376	4943.7
452.75	4985.28
453.123	5073.19
453.497	5107.08
453.871	5130.13
454.244	5239.06
454.618	5270.02
454.992	5387.08
455.365	5403.35
455.739	5546.17
456.112	5625.94
456.486	5588.65
456.859	5726.28
457.232	5816.9
457.606	5860.96
457.979	5943.22
458.352	6126.94
458.725	6130.56
459.099	6171.46
459.472	6297.33
459.845	6353.83
460.218	6428.18
460.591	6458.01
460.964	6540.04
461.337	6715.18
461.71	6796.98
462.083	6886.92
462.456	6883.99
462.829	6962.4
463.201	7065
463.574	7120.14
463.947	7222.51
464.32	7413.01
464.692	7448.49
465.065	7453.69
465.438	7620.01
465.81	7770.97
466.183	7875.6
466.555	8023.84
466.928	8089.6
467.3	8065.88
467.672	8273.78
468.045	8444.62
468.417	8471.74
468.789	8552.42
469.161	8665.18
469.534	8821.11
469.906	9054.78
470.278	9155.79
470.65	9256.58
471.022	9377.93
471.394	9494.09
471.766	9591.03
472.138	9709.9
472.51	9925.26
472.882	10048.42
473.253	10197.57
473.625	10349.21
473.997	10605.24
474.369	10743.55
474.74	10847.05
475.112	11058.34
475.484	11176.3
475.855	11414.49
476.227	11412.45
476.598	11877.3
476.97	12001.82
477.341	12198.65
477.713	12387.12
478.084	12591.63
478.455	12894
478.827	13006.54
479.198	13384.61
479.569	13382.12
479.94	13848.32
480.311	13945.27
480.682	14209.89
481.053	14588.64
481.424	14735.53
481.795	14919.03
482.166	15211.45
482.537	15419.81
482.908	15758.1
483.279	15813.69
483.65	16249.84
484.021	16488.93
484.391	16647.57
484.762	16824.06
485.133	17051.18
485.503	17268.12
485.874	17676.47
486.244	17876.24
486.615	18267.87
486.985	18499.73
487.356	18697.23
487.726	18957.79
488.097	19351.23
488.467	19438.46
488.837	19839.35
489.207	20029.4
489.578	20437.75
489.948	20533.34
490.318	20965.42
490.688	21080.67
491.058	21365.19
491.428	21559.98
491.798	21712.3
492.168	22123.81
492.538	22305.05
492.908	22615.32
493.278	22753.4
493.648	22848.31
494.017	23209.43
494.387	23460.05
494.757	23529.88
495.126	23797.21
495.496	24000.15
495.866	24087.83
496.235	24477.2
496.605	24700.92
496.974	24799.67
497.344	25056.39
497.713	25182.26
498.082	25430.62
498.452	25702.47
498.821	25872.19
499.19	26014.1
499.559	26351.72
499.928	26500.42
500.298	26632.39
500.667	26946.51
501.036	26936.79
501.405	27327.74
501.774	27338.14
502.143	27689.99
502.512	27727.05
502.88	27947.39
503.249	28002.3
503.618	28153.93
503.987	28206.59
504.356	28503.98
504.724	28635.05
505.093	28894.25
505.462	29054.93
505.83	29168.6
506.199	29428.48
506.567	29857.17
506.936	29807
507.304	30218.97
507.672	30398.17
508.041	30509.13
508.409	30771.72
508.777	31169
509.145	31266.85
509.514	31411.93
509.882	31682.2
510.25	31855.31
510.618	32061.85
510.986	32189.53
511.354	32660.03
511.722	32816.64
512.09	33245.1
512.458	33091.21
512.826	33462.95
513.193	33591.31
513.561	33779.55
513.929	34071.29
514.297	34431.74
514.664	34542.02
515.032	34691.84
515.4	35100.19
515.767	35186.97
516.135	35434.87
516.502	35236.23
516.869	35966.38
517.237	35974.97
517.604	36122.31
517.972	36542.64
518.339	36727.72
518.706	36737.21
519.073	37029.86
519.44	37333.58
519.808	37738.77
520.175	37684.76
520.542	38347.11
520.909	38558.18
521.276	38662.59
521.643	39115.45
522.009	39354.54
522.376	39738.94
522.743	39934.87
523.11	40327.17
523.477	40735.3
523.843	40913.83
524.21	41501.83
524.577	41445.34
524.943	41918.32
525.31	41906.79
525.676	42527.57
526.043	42762.82
526.409	42792.87
526.776	43280.54
527.142	43344.5
527.508	43637.6
527.874	43880.08
528.241	44233.96
528.607	44292.49
528.973	44686.83
529.339	44763.44
529.705	45165.92
530.071	45385.57
530.437	45560.71
530.803	45914.82
531.169	46237.53
531.535	46159.56
531.901	46440.46
532.267	46540.8
532.632	46905.53
532.998	47004.29
533.364	47181.23
533.73	47354.11
534.095	47682.69
534.461	47881.55
534.826	48078.83
535.192	48248.32
535.557	48533.06
535.923	48592.95
536.288	48763.56
536.653	48916.33
537.019	48835.88
537.384	49104.57
537.749	49372.13
538.114	49329.42
538.479	49482.19
538.845	49672.92
539.21	49580.72
539.575	49827.04
539.94	50011.44
540.305	50164.2
540.67	50149.97
541.034	50195.62
541.399	50435.38
541.764	50468.15
542.129	50636.51
542.494	50756.96
542.858	50924.64
543.223	50821.59
543.587	51102.71
543.952	51037.17
544.316	51342.03
544.681	51293.21
545.045	51490.5
545.41	51655.01
545.774	51709.7
546.138	51927.32
546.503	51927.55
546.867	51996.7
547.231	52325.5
547.595	52416.8
547.959	52473.3
548.324	52537.93
548.688	52600.98
549.052	52717.58
549.416	52803.68
549.779	52935.66
550.143	53195.76
550.507	53328.19
550.871	53396.66
551.235	53449.31
551.599	53600.5
551.962	53749.65
552.326	53726.82
552.689	53939.25
553.053	53829.19
553.417	53987.15
553.78	54358.22
554.143	54173.36
554.507	54388.73
554.87	54479.12
555.234	54707.81
555.597	54529.06
555.96	54685.89
556.323	54805.44
556.686	54854.02
557.05	55095.83
557.413	55176.5
557.776	55217.86
558.139	55422.82
558.502	55511.18
558.865	55526.77
559.228	55820.1
559.59	55858.74
559.953	55947.55
560.316	56180.77
560.679	56140.32
561.041	56331.27
561.404	56528.33
561.767	56744.82
562.129	56607.65
562.492	56940.3
562.854	56965.61
563.217	57022.1
563.579	57170.35
563.941	57300.06
564.304	57384.8
564.666	57543.9
565.028	57568.75
565.39	57684.91
565.753	57827.28
566.115	57921.97
566.477	58031.34
566.839	58033.15
567.201	58185.24
567.563	58242.64
567.925	58451.9
568.287	58457.77
568.648	58480.37
569.01	58621.38
569.372	58747.48
569.734	58649.63
570.095	58890.08
570.457	58916.74
570.819	59012.56
571.18	59051.2
571.542	59163.74
571.903	59215.72
572.265	59324.41
572.626	59352.44
572.987	59413.45
573.349	59495.94
573.71	59624.75
574.071	59647.12
574.432	59754.23
574.794	59856.38
575.155	59850.5
575.516	59811.18
575.877	59928.24
576.238	59957.39
576.599	60069.03
576.96	60144.05
577.32	60106.99
577.681	60161.45
578.042	60372.97
578.403	60356.7
578.763	60378.62
579.124	60357.16
579.485	60458.85
579.845	60462.46
580.206	60464.27
580.566	60462.46
580.927	60556.47
581.287	60575
581.648	60431.73
582.008	60592.4
582.368	60569.13
582.728	60640.09
583.089	60584.27
583.449	60500.2
583.809	60630.37
584.169	60590.37
584.529	60537.04
584.889	60730.93
585.249	60552.18
585.609	60479.19
585.969	60680.76
586.329	60592.63
586.688	60673.98
587.048	60624.95
587.408	60595.12
587.768	60610.71
588.127	60592.4
588.487	60613.65
588.846	60835.11
589.206	60596.02
589.565	60621.33
589.925	60763.47
590.284	60737.03
590.643	60790.82
591.003	60738.84
591.362	60867.42
591.721	60820.87
592.08	60791.04
592.44	60855.67
592.799	60890.02
593.158	60855.67
593.517	60849.57
593.876	60891.61
594.235	60801.44
594.593	60922.79
594.952	60989.46
595.311	60810.93
595.67	60870.36
596.029	60986.07
596.387	61006.4
596.746	61007.99
597.104	60888.44
597.463	60883.02
597.822	61011.6
598.18	60850.48
598.538	60941.32
598.897	61026.06
599.255	60839.86
599.613	61163.46
599.972	60951.49
600.33	61029.45
600.688	60903.81
601.046	61022.22
601.404	61035.56
601.762	61064.03
602.12	61138.38
602.478	61132.95
602.836	61216.34
603.194	61057.48
603.552	61091.37
603.91	61050.92
604.268	61183.8
604.625	61162.56
604.983	61263.12
605.341	61118.94
605.698	61279.39
606.056	61349.45
606.413	61267.64
606.771	61421.31
607.128	61495.66
607.485	61404.36
607.843	61396
608.2	61523.23
608.557	61623.11
608.914	61544.02
609.272	61592.83
609.629	61650.23
609.986	61743.11
610.343	61638.93
610.7	61786.5
611.057	61775.65
611.414	61718.25
611.771	61733.16
612.127	61874.4
612.484	61803.45
612.841	61829.66
613.198	61712.6
613.554	61748.31
613.911	61893.61
614.267	61880.05
614.624	61865.59
614.98	61864.91
615.337	61945.81
615.693	61972.71
616.05	61880.05
616.406	62079.82
616.762	61956.66
617.118	61952.82
617.475	61942.42
617.831	61959.37
618.187	61974.51
618.543	62031.69
618.899	62120.05
619.255	62048.86
619.611	62035.08
619.967	62091.35
620.323	62112.59
620.678	62073.27
621.034	61984.91
621.39	61999.37
621.746	61986.49
622.101	62273.94
622.457	62070.56
622.812	62114.85
623.168	62172.7
623.523	62146.26
623.879	62250.89
624.234	62055.64
624.589	62218.8
624.945	62209.99
625.3	62292.25
625.655	62221.29
626.01	62236.65
626.365	62243.66
626.72	62220.16
627.075	62187.62
627.43	62184
627.785	62171.8
628.14	62229.88
628.495	62216.99
628.85	62198.92
629.205	62096.32
629.559	62248.41
629.914	62094.06
630.269	62070.11
630.623	62018.36
630.978	61972.71
631.332	62036.66
631.687	62101.06
632.041	61970.45
632.396	61970.67
632.75	61837.34
633.104	61868.53
633.459	61802.09
633.813	61722.32
634.167	61667.86
634.521	61686.84
634.875	61674.64
635.229	61648.65
635.583	61485.49
635.937	61513.28
636.291	61551.93
636.645	61521.65
636.999	61370.01
637.352	61478.03
637.706	61328.2
638.06	61520.29
638.413	61376.11
638.767	61327.07
639.121	61362.1
639.474	61162.78
639.828	61177.7
640.181	61244.14
640.534	61226.29
640.888	61162.56
641.241	61065.61
641.594	61133.63
641.947	61185.38
642.301	61134.31
642.654	61081.66
643.007	61109.23
643.36	61060.87
643.713	61081.43
644.066	61116.23
644.419	60960.3
644.771	60850.93
645.124	60635.11
645.477	60616.36
645.83	60415.01
646.182	60333.2
646.535	60224.73
646.888	60302.69
647.24	60166.2
647.593	60241.9
647.945	60180.21
648.298	60000.56
648.65	60034.9
649.002	59945.64
649.355	59995.81
649.707	60015.47
650.059	59956.04
650.411	60296.37
650.763	60346.31
651.115	60560.09
651.467	60416.82
651.819	60356.25
652.171	60285.29
652.523	60215.01
652.875	60260.89
653.227	60177.5
653.578	60277.16
653.93	60179.31
654.282	60035.81
654.633	60039.88
654.985	60058.41
655.337	60089.37
655.688	60047.79
656.039	60087.78
656.391	59839.88
656.742	59914.46
657.094	59875.36
657.445	59983.15
657.796	59926.66
658.147	59835.36
658.498	59917.17
658.849	59931.4
659.2	59935.47
659.551	59813.67
659.902	59855.7
660.253	59807.57
660.604	59828.13
660.955	59838.3
661.306	59857.28
661.656	59822.48
662.007	59744.74
662.358	59808.24
662.708	59829.26
663.059	59741.13
663.409	59650.73
663.76	59814.12
664.11	59795.14
664.461	59809.6
664.811	59810.5
665.161	59796.04
665.511	59641.02
665.862	59742.03
666.212	59740.9
666.562	59739.77
666.912	59739.32
667.262	59659.1
667.612	59652.99
667.962	59644.18
668.312	59558.31
668.662	59700
669.011	59602.15
669.361	59516.5
669.711	59424.98
670.06	59438.31
670.41	59367.13
670.76	59253.23
671.109	59407.58
671.459	59315.38
671.808	59323.51
672.157	59318.09
672.507	59062.95
672.856	59187.24
673.205	59156.96
673.554	59156.28
673.904	59075.16
674.253	59234.47
674.602	59138.43
674.951	58752.9
675.3	58621.83
675.649	58945.67
675.998	59010.52
676.346	58975.27
676.695	58995.61
677.044	58842.17
677.393	58904.99
677.741	58898.21
678.09	58828.16
678.438	58781.38
678.787	58849.17
679.135	58851.21
679.484	58686.69
679.832	58783.64
680.181	58665.9
680.529	58747.71
680.877	58685.79
681.225	58640.14
681.573	58799
681.922	58571.89
682.27	58493.7
682.618	58595.62
682.966	58469.75
683.314	58534.83
683.661	58465.91
684.009	58345.23
684.357	58302.97
684.705	58294.84
685.053	58354.5
685.4	58238.79
685.748	58084.45
686.095	58096.88
686.443	58053.04
686.79	58027.05
687.138	57963.55
687.485	58056.88
687.832	57906.37
688.18	57916.77
688.527	57784.57
688.874	57675.87
689.221	57593.39
689.568	57528.98
689.915	57442.2
690.262	57465.25
690.609	57382.09
690.956	57248.76
691.303	57255.09
691.65	57069.11
691.997	57036.79
692.344	56876.57
692.69	56866.17
693.037	56881.77
693.383	56587.76
693.73	56658.95
694.077	56483.13
694.423	56506.18
694.769	56324.49
695.116	56283.14
695.462	56242.24
695.808	56130.37
696.155	56198.62
696.501	55992.75
696.847	55988.46
697.193	55755.69
697.539	55886.99
697.885	55597.51
698.231	55569.26
698.577	55557.96
698.923	55543.5
699.269	55374.69
699.614	55233.9
699.96	55194.81
700.306	55201.36
700.651	55110.97
700.997	55113.23
701.342	54968.37
701.688	55007.01
702.033	54862.16
702.379	54883.18
702.724	54826.91
703.069	54884.53
703.415	54513.69
703.76	54581.71
704.105	54599.34
704.45	54501.26
704.795	54296.98
705.14	54237.77
705.485	54271.67
705.83	54068.51
706.175	54098.11
706.52	54082.97
706.865	53975.4
707.209	53894.73
707.554	53816.31
707.899	53931.11
708.243	53764.11
708.588	53639.14
708.932	53385.59
709.277	53523.21
709.621	53393.72
709.966	53282.09
710.31	53327.28
710.654	52964.36
710.998	53108.98
711.342	53014.52
711.687	52869.67
712.031	52732.95
712.375	52546.51
712.719	52645.95
713.063	52543.35
713.407	52667.87
713.75	52405.95
714.094	52283.24
714.438	52154.21
714.782	52222
715.125	51929.13
715.469	52052.52
715.812	51848.68
716.156	51646.2
716.499	51659.76
716.843	51600.55
717.186	51518.74
717.53	51657.95
717.873	51628.8
718.216	51443.72
718.559	51212.31
718.902	51089.38
719.246	51147.91
719.589	50897.74
719.932	50787.69
720.275	50917.18
720.617	50723.51
720.96	50691.42
721.303	50647.81
721.646	50668.82
721.989	50343.41
722.331	50537.53
722.674	50503.86
723.016	50479.68
723.359	50330.98
723.701	50357.64
724.044	50264.54
724.386	50041.27
724.729	50213.02
725.071	50165.56
725.413	50041.95
725.755	49988.39
726.097	49910.2
726.439	49701.16
726.782	49834.49
727.124	50028.61
727.465	49700.71
727.807	49644.22
728.149	49610.77
728.491	49686.48
728.833	49584.33
729.175	49493.03
729.516	49427.5
729.858	49312.25
730.199	49466.82
730.541	49262.31
730.882	49221.86
731.224	49348.63
731.565	48935.76
731.906	48992.71
732.248	48977.79
732.589	48769.44
732.93	48628.2
733.271	48582.32
733.612	48651.48
733.953	48569.22
734.294	48545.04
734.635	48358.6
734.976	48497.35
735.317	48266.85
735.658	48157.25
735.999	48046.52
736.339	47871.61
736.68	47924.94
737.021	47816.69
737.361	47652.63
737.702	47913.87
738.042	47663.25
738.383	47515.23
738.723	47519.53
739.063	47298.52
739.404	47374.22
739.744	47210.83
740.084	47018.52
740.424	47113.21
740.764	46916.83
741.104	46993.21
741.444	46688.81
741.784	46684.75
742.124	46604.07
742.464	46595.03
742.804	46508.03
743.143	46226.91
743.483	46322.27
743.823	46145.1
744.162	46117.76
744.502	46110.75
744.841	45914.6
745.181	45981.49
745.52	45838.67
745.86	45898.1
746.199	45792.57
746.538	45749.86
746.877	45763.87
747.216	45620.59
747.556	45442.75
747.895	45581.95
748.234	45393.93
748.573	45524.33
748.911	45223.32
749.25	45301.73
749.589	45042.08
749.928	45087.95
750.267	45250.43
750.605	45049.99
750.944	44930.67
751.283	44875.76
751.621	44871.46
751.96	44513.28
752.298	44657
752.636	44617.91
752.975	44405.26
753.313	44233.74
753.651	44446.39
753.989	44198.48
754.327	44172.04
754.666	43942.22
755.004	43923.24
755.342	43962.11
755.679	43896.57
756.017	43617.71
756.355	43767.31
756.693	43441.67
757.031	43505.85
757.368	43262.01
757.706	43166.2
758.044	43125.97
758.381	43240.54
758.719	42874.9
759.056	43087.78
759.394	42702.93
759.731	42352.43
760.068	42453.22
760.405	42208.25
760.743	42133.91
761.08	42099.1
761.417	41815.72
761.754	41828.38
762.091	41552.68
762.428	41329.18
762.765	41332.12
763.102	41303.87
763.438	40959.47
763.775	40833.83
764.112	40732.36
764.449	40878.8
764.785	40623.66
765.122	40339.6
765.458	40183.22
765.795	40052.15
766.131	39929.22
766.467	39895.77
766.804	39673.86
767.14	39404.71
767.476	39368.56
767.812	39013.54
768.148	39040.65
768.485	38849.02
768.821	38824.16
769.157	38574.9
769.492	38567.22
769.828	38381.24
770.164	38037.97
770.5	38005.65
770.836	38041.13
771.171	37633.69
771.507	37595.72
771.842	37459.68
772.178	37226.69
772.513	37356.4
772.849	37263.3
773.184	37096.75
773.519	37035.51
773.855	36861.95
774.19	36646.37
774.525	36592.36
774.86	36465.81
775.195	36414.51
775.53	36117.34
775.865	36121.41
776.2	35892.49
776.535	35689.78
776.87	35858.37
777.205	35649.33
777.539	35396.68
777.874	35557.81
778.209	35268.55
778.543	35191.72
778.878	34982.68
779.212	34957.6
779.547	34722.58
779.881	34865.85
780.215	34723.93
780.55	34587.89
780.884	34427.22
781.218	34354.45
781.552	34381.79
781.886	34144.51
782.22	34028.81
782.554	33835.59
782.888	33455.94
783.222	33368.71
783.556	33239
783.889	33382.27
784.223	33091.21
784.557	33059.12
784.89	33059.34
785.224	32792.91
785.557	32674.72
785.891	32605.12
786.224	32403.99
786.558	32538.45
786.891	32133.49
787.224	31992.25
787.557	31838.81
787.891	31810.34
788.224	31753.61
788.557	31708.42
788.89	31553.17
789.223	31436.79
789.556	31119.51
789.888	31105.04
790.221	30991.15
790.554	30823.47
790.887	30718.39
791.219	30505.06
791.552	30571.5
791.884	30334.22
792.217	30153.66
792.549	30020.1
792.882	29880.22
793.214	29743.5
793.546	29949.82
793.879	29503.28
794.211	29351.87
794.543	29523.39
794.875	29229.61
795.207	29170.86
795.539	29118.43
795.871	29009.73
796.203	28710.3
796.535	28623.08
796.867	28714.82
797.198	28551.44
797.53	28459.01
797.862	28286.81
798.193	28216.53
798.525	28022.64
798.856	28110.77
799.188	27789.65
799.519	27611.35
799.85	27643.21
800.182	27815.19
800.513	27660.61
800.844	27275.54
801.175	27520.28
801.506	27399.83
801.837	27185.15
802.168	27153.51
802.499	27157.12
802.83	27081.87
803.161	26900.86
803.491	27039.84
803.822	26970.69
804.153	26622.9
804.483	26571.83
804.814	26402.12
805.145	26417.03
805.475	26319.41
805.805	26301.1
806.136	26339.52
806.466	26210.26
806.796	26407.09
807.126	26221.56
807.457	26136.59
807.787	26058.62
808.117	26080.54
808.447	25799.42
808.777	25979.98
809.107	25886.88
809.436	25839.19
809.766	25803.71
810.096	25761.91
810.426	25547
810.755	25563.04
811.085	25516.72
811.414	25401.92
811.744	25294.58
812.073	25262.71
812.403	25304.07
812.732	25140
813.061	25084.86
813.39	25074.47
813.719	24942.49
814.049	25064.07
814.378	24919.22
814.707	24834.7
815.036	24777.3
815.365	24465.44
815.693	24440.59
816.022	24413.02
816.351	24366.69
816.68	24053.25
817.008	24185.23
817.337	24075.62
817.665	24162.4
817.994	24089.63
818.322	23980.26
818.651	23893.26
818.979	23711.57
819.307	23744.11
819.636	23715.86
819.964	23544.34
820.292	23698.68
820.62	23663.66
820.948	23433.16
821.276	23479.26
821.604	23367.85
821.932	23467.28
822.259	23585.24
822.587	23498.24
822.915	23329.65
823.243	23396.55
823.57	23375.53
823.898	23374.4
824.225	23292.59
824.553	23343.21
824.88	23220.51
825.207	23281.07
825.535	23251.46
825.862	23208.3
826.189	23054.18
826.516	23240.84
826.843	23197
827.17	23158.81
827.497	23094.41
827.824	23086.72
828.151	23133.05
828.478	23059.15
828.805	23216.89
829.131	23152.71
829.458	23117.01
829.785	22933.96
830.111	23049.21
830.438	23086.27
830.764	23008.99
831.09	23086.5
831.417	22975.77
831.743	23000.85
832.069	23118.36
832.395	22882.44
832.722	23039.95
833.048	22870.46
833.374	23020.06
833.7	22850.8
834.026	22891.7
834.351	22847.63
834.677	22888.54
835.003	22840.18
835.329	22849.67
835.654	22920.17
835.98	22912.04
836.306	22840.4
836.631	22774.64
836.956	22827.07
837.282	22947.29
837.607	22815.77
837.932	22691.48
838.258	22741.42
838.583	22781.65
838.908	22634.98
839.233	22755.88
839.558	22665.04
839.883	22642.89
840.208	22597.7
840.533	22543.91
840.858	22538.04
841.182	22544.14
841.507	22492.84
841.832	22378.04
842.156	22298.27
842.481	22429.11
842.805	22349.79
843.13	22264.82
843.454	22244.71
843.778	22145.51
844.103	22155.45
844.427	22011.05
844.751	22162.68
845.075	21997.71
845.399	21911.61
845.723	21752.07
846.047	21876.13
846.371	21668.23
846.695	21707.1
847.019	21433.43
847.343	21363.15
847.666	21274.12
847.99	21256.49
848.313	21166.77
848.637	21110.05
848.96	21045.87
849.284	20946.89
849.607	20810.4
849.931	20700.8
850.254	20559.56
850.577	20521.14
850.9	20373.35
851.223	20363.41
851.546	20361.6
851.869	20095.39
852.192	20165.9
852.515	20012.23
852.838	19904.43
853.161	19916.41
853.483	19728.17
853.806	19604.78
854.129	19673.48
854.451	19566.14
854.774	19513.26
855.096	19443.88
855.419	19388.29
855.741	19380.83
856.063	19247.5
856.385	19188.07
856.708	19111.91
857.03	18977.9
857.352	19005.25
857.674	18881.41
857.996	18878.02
858.318	18633.28
858.64	18761.64
858.961	18638.7
859.283	18594.41
859.605	18501.31
859.926	18567.07
860.248	18443.91
860.57	18313.97
860.891	18408.2
861.212	18289.11
861.534	18226.74
861.855	18177.93
862.176	18264.93
862.498	18214.99
862.819	18163.24
863.14	18097.02
863.461	18041.66
863.782	18040.3
864.103	17982.68
864.424	17913.07
864.745	17953.53
865.065	17953.07
865.386	17862.23
865.707	17731.16
866.027	17847.54
866.348	17729.35
866.668	17791.27
866.989	17747.65
867.309	17676.02
867.63	17704.72
867.95	17769.35
868.27	17661.33
868.59	17649.35
868.91	17626.98
869.23	17658.17
869.55	17655.23
869.87	17590.82
870.19	17453.88
870.51	17532.07
870.83	17544.04
871.15	17483.03
871.469	17494.55
871.789	17495.68
872.109	17540.65
872.428	17384.73
872.748	17480.77
873.067	17499.98
873.386	17448.23
873.706	17337.5
874.025	17355.57
874.344	17364.61
874.663	17445.29
874.982	17351.96
875.301	17252.3
875.62	17341.34
875.939	17215.92
876.258	17295.01
876.577	17252.53
876.896	17163.94
877.214	17136.37
877.533	17156.03
877.852	17185.41
878.17	17157.39
878.489	17116.03
878.807	17186.99
879.125	16977.05
879.444	17054.57
879.762	16974.12
880.08	16936.15
880.398	16864.06
880.716	16965.98
881.034	16867.68
881.352	16949.71
881.67	16855.47
881.988	16750.39
882.306	16797.62
882.624	16760.34
882.941	16790.62
883.259	16655.25
883.577	16713.56
883.894	16541.58
884.212	16602.15
884.529	16481.25
884.846	16409.38
885.164	16481.7
885.481	16331.65
885.798	16361.93
886.115	16282.61
886.432	16195.38
886.75	16222.05
887.067	16179.79
887.383	16088.94
887.7	16206.68
888.017	16031.54
888.334	16107.92
888.651	15977.76
888.967	15916.74
889.284	15831.32
889.6	15777.99
889.917	15727.59
890.233	15720.82
890.55	15657.31
890.866	15677.43
891.182	15662.74
891.498	15596.52
891.815	15506.81
892.131	15343.65
892.447	15382.75
892.763	15237.66
893.079	15148.4
893.395	15200.38
893.71	15193.6
894.026	15266.36
894.342	15203.54
894.657	14902.76
894.973	15019.36
895.289	14903.66
895.604	14887.62
895.92	14845.36
896.235	14760.39
896.55	14766.72
896.865	14805.36
897.181	14647.62
897.496	14627.51
897.811	14600.39
898.126	14410.79
898.441	14508.42
898.756	14373.73
899.071	14232.04
899.386	14369.44
899.7	14201.99
900.015	14119.05
900.33	14041.99
900.644	14105.26
900.959	14133.51
901.273	14034.08
901.588	13986.4
901.902	13904.14
902.216	13873.86
902.531	13853.52
902.845	13778.72
903.159	13705.5
903.473	13683.13
903.787	13627.54
904.101	13525.84
904.415	13645.39
904.729	13574.21
905.042	13505.73
905.356	13373.98
905.67	13413.76
905.984	13488.33
906.297	13393.42
906.611	13317.26
906.924	13248.11
907.237	13237.04
907.551	13159.53
907.864	13089.47
908.177	13093.31
908.491	13058.29
908.804	12972.19
909.117	12909.82
909.43	12928.57
909.743	12838.41
910.056	12863.72
910.368	12832.76
910.681	12822.59
910.994	12745.75
911.307	12750.72
911.619	12579.66
911.932	12595.7
912.244	12517.06
912.557	12557.06
912.869	12491.3
913.181	12398.87
913.494	12368.81
913.806	12347.12
914.118	12303.96
914.43	12203.17
914.742	12197.74
915.054	12121.81
915.366	12077.07
915.678	12005.88
915.99	11944.64
916.302	11920.24
916.613	11861.03
916.925	11909.39
917.236	11773.35
917.548	11755.72
917.859	11717.3
918.171	11613.13
918.482	11641.6
918.794	11614.26
919.105	11519.8
919.416	11508.04
919.727	11452.45
920.038	11415.17
920.349	11290.42
920.66	11342.17
920.971	11245.9
921.282	11162.97
921.593	11117.32
921.903	11094.95
922.214	10981.96
922.525	11012.92
922.835	10929.53
923.146	10816.09
923.456	10873.26
923.767	10821.96
924.077	10737.44
924.387	10712.13
924.697	10653.38
925.008	10555.08
925.318	10592.14
925.628	10577.9
925.938	10486.83
926.248	10392.37
926.558	10383.1
926.867	10371.13
927.177	10274.4
927.487	10214.97
927.796	10124.8
928.106	10111.02
928.416	10039.38
928.725	9976.33
929.034	9971.59
929.344	9985.83
929.653	9923
929.962	9904.47
930.271	9840.74
930.581	9763.46
930.89	9698.83
931.199	9693.18
931.508	9595.33
931.817	9586.51
932.125	9551.71
932.434	9509
932.743	9395.56
933.051	9377.48
933.36	9403.24
933.669	9341.77
933.977	9220.65
934.286	9244.6
934.594	9253.64
934.902	9144.94
935.21	9100.2
935.519	9102.46
935.827	9050.03
936.135	8985.4
936.443	8924.16
936.751	8876.93
937.059	8976.13
937.367	8811.17
937.674	8805.29
937.982	8702.47
938.29	8691.4
938.597	8719.19
938.905	8647.56
939.213	8614.11
939.52	8542.93
939.827	8607.1
940.135	8513.32
940.442	8531.85
940.749	8452.76
941.056	8419.31
941.363	8365.98
941.67	8364.85
941.977	8288.47
942.284	8293.44
942.591	8229.94
942.898	8261.58
943.205	8163.73
943.511	8196.95
943.818	8173.67
944.125	8034.69
944.431	8084.18
944.738	8031.3
945.044	8019.78
945.35	7949.04
945.657	7940.91
945.963	7897.74
946.269	7868.37
946.575	7829.72
946.881	7792.44
947.187	7771.87
947.493	7787.24
947.799	7740.46
948.105	7729.61
948.41	7697.75
948.716	7660.69
949.022	7565.32
949.327	7559.9
949.633	7498.43
949.938	7480.58
950.244	7514.48
950.549	7464.99
950.854	7411.66
951.16	7443.74
951.465	7332.79
951.77	7346.35
952.075	7314.71
952.38	7296.18
952.685	7256.41
952.99	7206.46
953.294	7182.28
953.599	7156.07
953.904	7166.24
954.209	7062.51
954.513	7070.2
954.818	7032.91
955.122	7056.18
955.426	7005.34
955.731	6903.65
956.035	6952.68
956.339	6860.94
956.643	6888.28
956.948	6782.07
957.252	6821.16
957.556	6785.68
957.86	6735.06
958.163	6741.84
958.467	6624.78
958.771	6644.22
959.075	6637.66
959.378	6584.33
959.682	6602.19
959.985	6551.34
960.289	6498.91
960.592	6470.44
960.896	6409.42
961.199	6429.31
961.502	6426.14
961.805	6355.64
962.108	6295.3
962.411	6302.31
962.714	6280.61
963.017	6204.46
963.32	6246.71
963.623	6186.83
963.926	6178.02
964.228	6134.63
964.531	6109.77
964.833	6086.94
965.136	6022.09
965.438	5994.52
965.741	5965.37
966.043	5988.42
966.345	5881.07
966.648	5939.83
966.95	5904.58
967.252	5829.32
967.554	5846.27
967.856	5771.7
968.158	5737.35
968.46	5731.02
968.761	5703.68
969.063	5689.44
969.365	5628.43
969.666	5675.88
969.968	5627.07
970.269	5597.92
970.571	5505.72
970.872	5542.55
971.174	5512.95
971.475	5488.99
971.776	5424.59
972.077	5437.7
972.378	5385.27
972.679	5391.82
972.98	5331.48
973.281	5317.25
973.582	5328.55
973.883	5270.24
974.183	5239.74
974.484	5232.05
974.785	5161.32
975.085	5219.85
975.386	5158.16
975.686	5129
975.986	5083.36
976.287	5109.34
976.587	5018.27
976.887	5011.27
977.187	4985.05
977.487	4946.41
977.787	4904.38
978.087	4920.65
978.387	4929.69
978.687	4885.17
978.987	4840.88
979.286	4819.63
979.586	4838.39
979.885	4788.9
980.185	4758.84
980.484	4733.31
980.784	4752.29
981.083	4677.26
981.382	4690.6
981.682	4667.55
981.981	4626.19
982.28	4633.42
982.579	4595.68
982.878	4591.16
983.177	4501.68
983.475	4530.83
983.774	4466.42
984.073	4467.78
984.372	4449.93
984.67	4471.17
984.969	4471.39
985.267	4420.55
985.566	4430.94
985.864	4358.18
986.162	4373.54
986.461	4308.69
986.759	4333.32
987.057	4267.33
987.355	4253.09
987.653	4251.96
987.951	4250.61
988.249	4261.91
988.547	4219.65
988.844	4171.97
989.142	4162.25
989.44	4164.74
989.737	4110.95
990.035	4136.26
990.332	4103.04
990.63	4087.68
990.927	4038.86
991.224	4064.4
991.521	4047
991.819	3973.33
992.116	4050.16
992.413	3975.36
992.71	4030.28
993.006	3947.34
993.303	3918.19
993.6	3905.08
993.897	3932.2
994.193	3881.13
994.49	3885.19
994.787	3823.95
995.083	3809.94
995.379	3818.3
995.676	3788.25
995.972	3773.78
996.268	3750.96
996.565	3726.78
996.861	3723.62
997.157	3713.22
997.453	3687.01
997.749	3662.15
998.044	3631.19
998.34	3619.89
998.636	3596.61
998.932	3589.38
999.227	3591.87
999.523	3555.03
999.818	3546.45
1000.114	3553
1000.409	3520.68
1000.704	3516.84
1001	3432.33
1001.295	3427.13
1001.59	3460.12
1001.885	3385.77
1002.18	3364.53
1002.475	3322.5
1002.77	3362.27
1003.065	3297.64
1003.359	3297.19
1003.654	3262.16
1003.949	3266.45
1004.243	3253.8
1004.538	3199.79
1004.832	3174.03
1005.127	3251.09
1005.421	3160.02
1005.715	3157.98
1006.009	3123.18
1006.304	3098.77
1006.598	3063.07
1006.892	3088.38
1007.186	3072.33
1007.48	3085.22
1007.773	3036.4
1008.067	3001.38
1008.361	2969.51
1008.655	2943.52
1008.948	2956.18
1009.242	2931.1
1009.535	2907.14
1009.829	2893.58
1010.122	2873.02
1010.415	2855.62
1010.708	2847.48
1011.001	2814.49
1011.295	2796.64
1011.588	2824.88
1011.881	2752.57
1012.173	2743.76
1012.466	2719.12
1012.759	2713.47
1013.052	2654.04
1013.344	2649.97
1013.637	2647.94
1013.93	2657.2
1014.222	2600.71
1014.514	2588.05
1014.807	2576.3
1015.099	2578.34
1015.391	2553.25
1015.683	2514.38
1015.976	2513.71
1016.268	2503.76
1016.56	2483.88
1016.851	2443.88
1017.143	2468.28
1017.435	2443.65
1017.727	2417.89
1018.018	2381.51
1018.31	2361.17
1018.602	2355.29
1018.893	2347.16
1019.185	2341.96
1019.476	2318.46
1019.767	2295.18
1020.058	2262.64
1020.35	2261.28
1020.641	2239.14
1020.932	2214.96
1021.223	2207.05
1021.514	2195.52
1021.804	2124.79
1022.095	2133.83
1022.386	2159.59
1022.677	2134.05
1022.967	2105.58
1023.258	2105.58
1023.548	2092.93
1023.839	2078.24
1024.129	2034.62
1024.419	2079.14
1024.709	2046.37
1025	2004.34
1025.29	2005.92
1025.58	2002.08
1025.87	1966.37
1026.16	1934.06
1026.449	1985.81
1026.739	1950.1
1027.029	1927.73
1027.319	1929.31
1027.608	1895.19
1027.898	1857.9
1028.187	1843.89
1028.477	1830.11
1028.766	1849.77
1029.055	1809.99
1029.344	1790.56
1029.634	1811.8
1029.923	1786.27
1030.212	1783.78
1030.501	1750.56
1030.79	1753.05
1031.078	1731.8
1031.367	1712.6
1031.656	1696.33
1031.945	1676.89
1032.233	1694.52
1032.522	1656.1
1032.81	1662.88
1033.099	1618.14
1033.387	1608.19
1033.675	1640.73
1033.963	1583.56
1034.251	1619.27
1034.54	1600.06
1034.828	1529.55
1035.116	1571.58
1035.403	1557.12
1035.691	1564.58
1035.979	1544.01
1036.267	1549.66
1036.554	1487.07
1036.842	1507.18
1037.129	1527.52
1037.417	1473.05
1037.704	1459.95
1037.992	1460.63
1038.279	1452.04
1038.566	1430.12
1038.853	1430.12
1039.14	1430.12
