Data from aluminium_macbook_case_FLMS001491_009.txt Node
Date: Tue Feb 07 10:43:07 GMT 2017
User: dcchb
Spectrometer: FLMS00149
Trigger mode: 0
Integration Time (sec): 2.000000E-2
Scans to average: 10
Electric dark correction enabled: true
Nonlinearity correction enabled: false
Boxcar width: 0
XAxis mode: Wavelengths
Number of Pixels in Spectrum: 2048
>>>>>Begin Spectral Data<<<<<
341.393	-9.41
341.776	-9.41
342.16	-9.41
342.543	-55.28
342.927	-42.85
343.31	-71.55
343.693	-76.07
344.077	-38.33
344.46	-42.63
344.843	-49.86
345.226	-51.89
345.61	-48.5
345.993	-32.68
346.376	-10.31
346.759	9.8
347.142	17.71
347.525	61.33
347.908	60.65
348.291	70.14
348.674	85.96
349.057	116.24
349.44	104.71
349.823	148.33
350.206	172.74
350.588	240.08
350.971	237.14
351.354	274.43
351.737	290.25
352.119	290.25
352.502	333.64
352.884	336.35
353.267	331.83
353.65	339.96
354.032	345.39
354.414	354.43
354.797	357.14
355.179	373.86
355.562	379.06
355.944	389.45
356.326	383.13
356.709	412.73
357.091	405.72
357.473	418.15
357.855	403.01
358.238	411.83
358.62	398.27
359.002	422.45
359.384	417.47
359.766	430.81
360.148	405.05
360.53	419.73
360.912	413.63
361.294	414.54
361.676	413.63
362.057	442.11
362.439	426.29
362.821	430.36
363.203	401.88
363.584	433.07
363.966	411.6
364.348	425.61
364.729	421.09
365.111	417.47
365.493	413.63
365.874	411.6
366.256	400.3
366.637	425.16
367.019	415.89
367.4	437.59
367.781	427.87
368.163	451.6
368.544	446.85
368.925	421.77
369.306	460.19
369.688	445.27
370.069	449.11
370.45	428.1
370.831	460.19
371.212	472.84
371.593	452.95
371.974	444.82
372.355	473.52
372.736	467.19
373.117	508.77
373.498	496.34
373.879	469.9
374.26	473.29
374.641	467.87
375.021	469
375.402	476.68
375.783	486.63
376.163	526.17
376.544	509.45
376.925	516.91
377.305	532.27
377.686	504.03
378.066	510.13
378.447	538.6
378.827	519.39
379.208	560.07
379.588	558.04
379.968	547.41
380.349	543.8
380.729	560.75
381.109	555.78
381.489	553.97
381.87	575.21
382.25	588.09
382.63	589.22
383.01	589
383.39	608.43
383.77	607.75
384.15	607.3
384.53	614.53
384.91	631.71
385.29	657.24
385.67	628.54
386.049	657.69
386.429	659.05
386.809	671.71
387.189	665.38
387.568	675.1
387.948	698.37
388.328	692.95
388.707	692.95
389.087	710.12
389.466	722.55
389.846	717.58
390.225	738.14
390.605	756.9
390.984	749.9
391.363	773.62
391.743	772.04
392.122	786.05
392.501	802.1
392.881	819.72
393.26	819.95
393.639	815.2
394.018	842.1
394.397	874.41
394.776	855.66
395.155	856.33
395.534	866.95
395.913	870.34
396.292	889.1
396.671	904.92
397.05	908.76
397.429	921.19
397.808	956.22
398.186	931.81
398.565	932.04
398.944	935.2
399.323	967.52
399.701	981.53
400.08	997.8
400.458	1007.06
400.837	1006.16
401.215	1003.22
401.594	1030.11
401.972	1077.12
402.351	1082.77
402.729	1092.26
403.107	1090
403.486	1092.71
403.864	1104.01
404.242	1125.25
404.62	1156.44
404.999	1170.22
405.377	1177.45
405.755	1178.81
406.133	1217.45
406.511	1228.08
406.889	1230.79
407.267	1248.19
407.645	1269.66
408.023	1285.25
408.401	1335.42
408.779	1335.42
409.156	1384.68
409.534	1365.02
409.912	1374.51
410.29	1414.28
410.667	1426.04
411.045	1452.48
411.422	1461.97
411.8	1472.59
412.178	1534.51
412.555	1548.97
412.933	1549.87
413.31	1536.99
413.687	1622.41
414.065	1575.86
414.442	1645.47
414.819	1661.51
415.197	1681.4
415.574	1734.28
415.951	1736.54
416.328	1760.26
416.705	1746.93
417.082	1780.15
417.46	1798
417.837	1807.72
418.214	1817.66
418.591	1818.57
418.967	1877.1
419.344	1895.4
419.721	1893.59
420.098	1904.67
420.475	1948.73
420.852	1998.45
421.228	1986.47
421.605	2018.79
421.982	2023.31
422.358	2049.07
422.735	2083.65
423.111	2120.03
423.488	2182.4
423.864	2186.47
424.241	2202.96
424.617	2234.83
424.994	2253.58
425.37	2247.94
425.746	2344.2
426.123	2324.77
426.499	2334.94
426.875	2386.24
427.251	2425.11
427.627	2484.09
428.003	2498.1
428.379	2549.17
428.756	2584.42
429.132	2607.02
429.507	2666.68
429.883	2660.35
430.259	2720.47
430.635	2719.79
431.011	2788.03
431.387	2847.02
431.763	2886.79
432.138	2959.78
432.514	3018.99
432.89	2993
433.265	3043.39
433.641	3103.96
434.016	3117.74
434.392	3200.23
434.767	3268.93
435.143	3214.01
435.518	3289.04
435.894	3322.03
436.269	3386.44
436.644	3438.86
437.02	3484.74
437.395	3468.92
437.77	3512.76
438.145	3570.16
438.52	3610.39
438.895	3658.52
439.271	3719.99
439.646	3791.17
440.021	3819.87
440.395	3797.5
440.77	3835.24
441.145	3872.53
441.52	3967.89
441.895	3915.46
442.27	3962.92
442.645	3991.84
443.019	4039.3
443.394	4036.59
443.769	4140.31
444.143	4089.24
444.518	4214.44
444.892	4200.88
445.267	4227.32
445.641	4247.43
446.016	4316.13
446.39	4311.84
446.764	4404.49
447.139	4362.68
447.513	4434.09
447.887	4439.29
448.262	4504.37
448.636	4560.19
449.01	4604.03
449.384	4609.91
449.758	4689.68
450.132	4791.15
450.506	4790.02
450.88	4786.85
451.254	4838.83
451.628	4907.07
452.002	4940.29
452.376	4990.01
452.75	5067.3
453.123	5074.75
453.497	5185.26
453.871	5210.34
454.244	5345.93
454.618	5374.41
454.992	5486.27
455.365	5481.07
455.739	5629.99
456.112	5663.21
456.486	5721.74
456.859	5768.07
457.232	5919.25
457.606	5940.49
457.979	6021.85
458.352	6097.55
458.725	6257.77
459.099	6216.87
459.472	6439.46
459.845	6479.01
460.218	6506.35
460.591	6580.48
460.964	6657.76
461.337	6777.99
461.71	6925.55
462.083	6992.22
462.456	7001.48
462.829	7034.7
463.201	7146.79
463.574	7170.07
463.947	7352.43
464.32	7505.65
464.692	7495.71
465.065	7612.77
465.438	7733.44
465.81	7866.09
466.183	7922.81
466.555	8142.92
466.928	8161.68
467.3	8208.91
467.672	8359.86
468.045	8615.23
468.417	8621.55
468.789	8690.48
469.161	8775.67
469.534	8981.54
469.906	9223.57
470.278	9275.32
470.65	9360.06
471.022	9525.94
471.394	9715.54
471.766	9795.53
472.138	9889.54
472.51	10145.35
472.882	10145.13
473.253	10398.46
473.625	10515.51
473.997	10811.33
474.369	10835.96
474.74	10942.17
475.112	11205.21
475.484	11410.41
475.855	11571.76
476.227	11722.49
476.598	12140.33
476.97	12255.81
477.341	12475.24
477.713	12678.85
478.084	12783.25
478.455	13159.74
478.827	13289
479.198	13727.63
479.569	13713.62
479.94	14118.36
480.311	14229.99
480.682	14542.98
481.053	14854.16
481.424	15136.86
481.795	15275.16
482.166	15446.46
482.537	15687.81
482.908	16006.9
483.279	16176.61
483.65	16518.07
484.021	16811.39
484.391	16981.11
484.762	17177.49
485.133	17344.49
485.503	17671.26
485.874	18079.38
486.244	18139.27
486.615	18459.03
486.985	18770.66
487.356	19193.48
487.726	19416.75
488.097	19793.46
488.467	19873.23
488.837	20353
489.207	20643.61
489.578	20836.83
489.948	21054.45
490.318	21397.26
490.688	21457.6
491.058	21772.17
491.428	22021.43
491.798	22284.24
492.168	22637.23
492.538	22903.89
492.908	23055.3
493.278	23292.35
493.648	23354.5
494.017	23739.8
494.387	23968.95
494.757	24064.54
495.126	24397.41
495.496	24511.3
495.866	24646.67
496.235	24945.87
496.605	25273.54
496.974	25305.86
497.344	25606.19
497.713	25823.13
498.082	26030.13
498.452	26301.99
498.821	26432.61
499.19	26642.1
499.559	26884.8
499.928	27063.78
500.298	27353.04
500.667	27715.29
501.036	27512.58
501.405	28053.81
501.774	27975.39
502.143	28311.43
502.512	28426.91
502.88	28713
503.249	28771.76
503.618	28958.42
503.987	29095.36
504.356	29226.66
504.724	29442.25
505.093	29471.17
505.462	29634.11
505.83	29855.12
506.199	30184.83
506.567	30452.84
506.936	30486.74
507.304	30829.56
507.672	31031.36
508.041	31271.8
508.409	31574.85
508.777	31740.04
509.145	32032.69
509.514	32067.72
509.882	32435.16
510.25	32664.31
510.618	32848.71
510.986	33007.58
511.354	33354.91
511.722	33572.99
512.09	33905.63
512.458	34001.68
512.826	34405.28
513.193	34528.67
513.561	34603.24
513.929	35105.83
514.297	35337.01
514.664	35544.69
515.032	35711.91
515.4	36084.79
515.767	35975.18
516.135	36455.62
516.502	36125.69
516.869	36829.4
517.237	36988.72
517.604	36841.83
517.972	37310.74
518.339	37672.99
518.706	37754.57
519.073	37884.06
519.44	38302.35
519.808	38573.31
520.175	38640.42
520.542	39296.23
520.909	39439.27
521.276	39554.52
521.643	40118.8
522.009	40437.89
522.376	40727.38
522.743	40848.28
523.11	41374.82
523.477	41852.32
523.843	41951.3
524.21	42453.43
524.577	42706.53
524.943	42878.05
525.31	43162.11
525.676	43479.85
526.043	43856.56
526.409	44027.85
526.776	44372.93
527.142	44501.29
527.508	44763.88
527.874	45063.53
528.241	45307.14
528.607	45298.33
528.973	45640.47
529.339	45694.48
529.705	46030.06
530.071	46421.69
530.437	46558.86
530.803	46728.35
531.169	46995.91
531.535	46956.14
531.901	47245.62
532.267	47413.3
532.632	47779.62
532.998	47786.62
533.364	48112.27
533.73	48256.89
534.095	48654.17
534.461	48724.91
534.826	49049.19
535.192	49243.76
535.557	49605.79
535.923	49583.87
536.288	49742.05
536.653	49839.45
537.019	49982.73
537.384	50156.51
537.749	50305.65
538.114	50463.62
538.479	50470.85
538.845	50767.56
539.21	50791.74
539.575	50916.26
539.94	51013.66
540.305	51156.48
540.67	51058.63
541.034	51201.45
541.399	51374.33
541.764	51427.43
542.129	51502.23
542.494	51575.45
542.858	51740.65
543.223	51700.19
543.587	51867.2
543.952	51865.39
544.316	52014.76
544.681	51962.11
545.045	52182.44
545.41	52388.76
545.774	52468.54
546.138	52572.71
546.503	52657.46
546.867	52728.19
547.231	53031.46
547.595	53019.03
547.959	53193.49
548.324	53401.62
548.688	53425.12
549.052	53591.67
549.416	53680.48
549.779	53763.64
550.143	53868.27
550.507	54024.88
550.871	54146.91
551.235	54260.35
551.599	54521.36
551.962	54484.08
552.326	54670.29
552.689	54742.6
553.053	54673.22
553.417	54802.03
553.78	55096.72
554.143	55011.75
554.507	55136.04
554.87	55181.68
555.234	55533.99
555.597	55332.87
555.96	55387.78
556.323	55482.47
556.686	55542.81
557.05	55706.64
557.413	55749.13
557.776	55865.73
558.139	56024.83
558.502	56058.72
558.865	56132.39
559.228	56355.89
559.59	56371.26
559.953	56553.63
560.316	56798.14
560.679	56787.52
561.041	57062.77
561.404	57100.73
561.767	57277.45
562.129	57247.39
562.492	57535.3
562.854	57566.03
563.217	57656.2
563.579	57794.05
563.941	57972.35
564.304	58071.33
564.666	58250.08
565.028	58314.26
565.39	58323.97
565.753	58496.4
566.115	58588.37
566.477	58710.86
566.839	58808.03
567.201	58945.65
567.563	58960.57
567.925	59094.12
568.287	59100.23
568.648	59167.79
569.01	59322.14
569.372	59437.39
569.734	59303.84
570.095	59460.44
570.457	59550.38
570.819	59606.88
571.18	59610.04
571.542	59650.72
571.903	59760.32
572.265	59812.98
572.626	59874.22
572.987	59892.97
573.349	59922.58
573.71	60032.86
574.071	60149.69
574.432	60233.98
574.794	60372.96
575.155	60286.64
575.516	60248.22
575.877	60329.8
576.238	60473.97
576.599	60554.2
576.96	60623.35
577.32	60704.48
577.681	60785.38
578.042	60849.56
578.403	60829.22
578.763	60898.6
579.124	60955.77
579.485	61053.85
579.845	61146.73
580.206	61092.72
580.566	61106.95
580.927	61166.61
581.287	61219.04
581.648	61140.62
582.008	61278.93
582.368	61220.62
582.728	61288.19
583.089	61234.18
583.449	61245.71
583.809	61217.68
584.169	61254.29
584.529	61181.3
584.889	61295.42
585.249	61173.17
585.609	61065.82
585.969	61245.71
586.329	61098.14
586.688	61142.66
587.048	61116.22
587.408	61104.47
587.768	61081.42
588.127	61050.23
588.487	61026.95
588.846	61121.19
589.206	61031.47
589.565	61092.04
589.925	61169.78
590.284	61045.49
590.643	61134.97
591.003	61221.07
591.362	61326.61
591.721	61301.98
592.08	61258.36
592.44	61354.63
592.799	61295.65
593.158	61331.58
593.517	61384.91
593.876	61445.25
594.235	61362.99
594.593	61433.5
594.952	61467.62
595.311	61499.03
595.67	61538.58
596.029	61696.54
596.387	61628.07
596.746	61718.24
597.104	61522.76
597.463	61618.8
597.822	61642.98
598.18	61596.66
598.538	61554.17
598.897	61722.08
599.255	61516.66
599.613	61824.22
599.972	61612.7
600.33	61671.68
600.688	61602.08
601.046	61626.03
601.404	61774.28
601.762	61642.76
602.12	61760.95
602.478	61734.28
602.836	61669.2
603.194	61574.06
603.552	61598.24
603.91	61549.43
604.268	61632.59
604.625	61576.54
604.983	61669.2
605.341	61560.27
605.698	61715.75
606.056	61732.47
606.413	61675.75
606.771	61763.88
607.128	61826.26
607.485	61741.96
607.843	61733.15
608.2	61964.56
608.557	61963.43
608.914	61986.93
609.272	62126.36
609.629	62083.42
609.986	62190.77
610.343	62101.28
610.7	62324.55
611.057	62279.35
611.414	62314.38
611.771	62308.95
612.127	62431.66
612.484	62402.96
612.841	62449.97
613.198	62460.82
613.554	62422.85
613.911	62594.6
614.267	62518.44
614.624	62552.34
614.98	62583.07
615.337	62679.79
615.693	62600.02
616.05	62540.81
616.406	62694.48
616.762	62560.47
617.118	62612.22
617.475	62513.02
617.831	62566.58
618.187	62549.17
618.543	62606.12
618.899	62648.38
619.255	62581.72
619.611	62610.19
619.967	62625.33
620.323	62682.28
620.678	62569.29
621.034	62485.9
621.39	62464.43
621.746	62504.2
622.101	62705.1
622.457	62467.37
622.812	62503.07
623.168	62601.38
623.523	62557.31
623.879	62696.06
624.234	62503.07
624.589	62555.95
624.945	62681.83
625.3	62656.29
625.655	62707.36
626.01	62692
626.365	62714.82
626.72	62694.03
627.075	62713.01
627.43	62717.98
627.785	62656.97
628.14	62670.75
628.495	62715.95
628.85	62747.14
629.205	62673.24
629.559	62873.01
629.914	62682.73
630.269	62730.86
630.623	62723.18
630.978	62597.99
631.332	62721.6
631.687	62788.94
632.041	62610.64
632.396	62662.39
632.75	62560.93
633.104	62576.07
633.459	62425.56
633.813	62361.16
634.167	62378.78
634.521	62339.46
634.875	62381.95
635.229	62315.73
635.583	62233.02
635.937	62246.36
636.291	62123.42
636.645	62074.16
636.999	62066.48
637.352	62066.02
637.706	61952.13
638.06	62000.04
638.413	61910.55
638.767	61822.87
639.121	61821.96
639.474	61668.75
639.828	61778.8
640.181	61699.25
640.534	61616.77
640.888	61546.72
641.241	61510.78
641.594	61506.26
641.947	61605.02
642.301	61523.66
642.654	61615.19
643.007	61546.26
643.36	61528.18
643.713	61517.11
644.066	61652.47
644.419	61393.95
644.771	61332.26
645.124	61144.24
645.477	61072.38
645.83	60942.66
646.182	60834.64
646.535	60758.26
646.888	60839.61
647.24	60638.94
647.593	60877.35
647.945	60749.9
648.298	60653.41
648.65	60603.91
649.002	60582.45
649.355	60710.13
649.707	60648.89
650.059	60716
650.411	60996
650.763	60997.8
651.115	61261.3
651.467	61101.75
651.819	61126.61
652.171	61032.15
652.523	60986.96
652.875	60910.35
653.227	60844.81
653.578	61028.08
653.93	60890.69
654.282	60765.04
654.633	60691.82
654.985	60728.43
655.337	60751.71
655.688	60719.17
656.039	60727.08
656.391	60487.08
656.742	60523.47
657.094	60493.18
657.445	60537.02
657.796	60398.72
658.147	60323.24
658.498	60403.02
658.849	60359.4
659.2	60386.29
659.551	60257.03
659.902	60288.67
660.253	60317.14
660.604	60298.39
660.955	60194.89
661.306	60305.84
661.656	60184.04
662.007	60226.07
662.358	60205.51
662.708	60206.86
663.059	60224.72
663.409	60111.27
663.76	60294.09
664.11	60264.94
664.461	60297.26
664.811	60286.64
665.161	60296.13
665.511	60204.15
665.862	60256.13
666.212	60369.8
666.562	60307.2
666.912	60259.07
667.262	60271.04
667.612	60269.01
667.962	60239.86
668.312	60217.94
668.662	60320.53
669.011	60304.94
669.361	60226.75
669.711	60154.44
670.06	60139.07
670.41	60131.61
670.76	60107.88
671.109	60142.46
671.459	60042.8
671.808	60040.09
672.157	60123.93
672.507	59840.55
672.856	59928.9
673.205	59922.58
673.554	60013.2
673.904	59836.25
674.253	60001.22
674.602	59914.67
674.951	59453.21
675.3	59335.7
675.649	59646.2
675.998	59703.15
676.346	59623.83
676.695	59723.26
677.044	59500.22
677.393	59582.02
677.741	59541.57
678.09	59486.2
678.438	59413.21
678.787	59408.01
679.135	59376.38
679.484	59156.04
679.832	59272.2
680.181	59118.3
680.529	59180.45
680.877	59068.59
681.225	58989.27
681.573	59161.92
681.922	59057.06
682.27	58897.97
682.618	58950.63
682.966	58891.42
683.314	59051.64
683.661	58825.66
684.009	58837.18
684.357	58743.17
684.705	58817.52
685.053	58758.54
685.4	58840.12
685.748	58686
686.095	58669.5
686.443	58576.85
686.79	58505.67
687.138	58552.67
687.485	58554.7
687.832	58489.85
688.18	58521.03
688.527	58332.79
688.874	58374.37
689.221	58304.99
689.568	58258.67
689.915	58207.82
690.262	58235.16
690.609	58149.74
690.956	58035.17
691.303	58023.64
691.65	57801.05
691.997	57865
692.344	57648.74
692.69	57711.11
693.037	57678.79
693.383	57512.7
693.73	57531.23
694.077	57366.49
694.423	57348.63
694.769	57388.18
695.116	57187.73
695.462	57070.22
695.808	56928.31
696.155	57001.07
696.501	56766.73
696.847	56773.73
697.193	56626.84
697.539	56686.73
697.885	56433.63
698.231	56285.16
698.577	56313.18
698.923	56195.67
699.269	56070.7
699.614	55998.39
699.96	55920.2
700.306	55929.91
700.651	55719.75
700.997	55595.01
701.342	55556.59
701.688	55473.88
702.033	55394.79
702.379	55424.39
702.724	55276.15
703.069	55346.88
703.415	55042.48
703.76	55063.95
704.105	55014.46
704.45	54917.96
704.795	54818.08
705.14	54701.02
705.485	54756.39
705.83	54613.79
706.175	54630.29
706.52	54506.9
706.865	54435.49
707.209	54408.37
707.554	54373.12
707.899	54428.26
708.243	54278.21
708.588	54207.25
708.932	54066.01
709.277	53966.12
709.621	54078.21
709.966	53894.94
710.31	53934.71
710.654	53601.84
710.998	53859.46
711.342	53806.81
711.687	53707.37
712.031	53667.15
712.375	53517.32
712.719	53643.65
713.063	53506.7
713.407	53601.39
713.75	53396.87
714.094	53504.67
714.438	53233.71
714.782	53214.05
715.125	53035.07
715.469	53120.5
715.812	52842.09
716.156	52752.14
716.499	52764.12
716.843	52796.21
717.186	52531.36
717.53	52645.25
717.873	52548.08
718.216	52544.69
718.559	52351.93
718.902	52086.85
719.246	52089.79
719.589	51996.68
719.932	51920.3
720.275	51850.47
720.617	51782.68
720.96	51753.3
721.303	51647.54
721.646	51631.95
721.989	51345.85
722.331	51394.21
722.674	51162.13
723.016	51254.56
723.359	51185.18
723.701	51152.64
724.044	50858.18
724.386	50695.93
724.729	50841.91
725.071	50740.9
725.413	50665.87
725.755	50670.62
726.097	50520.79
726.439	50277.86
726.782	50308.14
727.124	50335.48
727.465	50150.86
727.807	50130.07
728.149	50099.33
728.491	49961.93
728.833	50075.6
729.175	49976.4
729.516	49957.87
729.858	49878.77
730.199	49860.69
730.541	49704.54
730.882	49728.72
731.224	49777.76
731.565	49496.18
731.906	49669.51
732.248	49554.71
732.589	49501.83
732.93	49401.05
733.271	49404.89
733.612	49548.61
733.953	49468.84
734.294	49272.46
734.635	49233.14
734.976	49356.08
735.317	49273.37
735.658	49127.61
735.999	49195.63
736.339	49127.15
736.68	49154.5
737.021	49072.24
737.361	48863.66
737.702	49049.64
738.042	48772.36
738.383	48792.02
738.723	48913.83
739.063	48724.68
739.404	48823.21
739.744	48574.4
740.084	48473.16
740.424	48552.93
740.764	48122.89
741.104	48253.05
741.444	48090.57
741.784	47990.24
742.124	48034.98
742.464	47831.37
742.804	47770.58
743.143	47670.02
743.483	47678.83
743.823	47426.86
744.162	47410.14
744.502	47366.52
744.841	47150.48
745.181	47234.1
745.52	47084.27
745.86	47123.59
746.199	46823.94
746.538	46617.39
746.877	46882.02
747.216	46736.48
747.556	46366.55
747.895	46508.69
748.234	46314.8
748.573	46177.4
748.911	46134.01
749.25	46138.31
749.589	45778.09
749.928	45962.94
750.267	45906.67
750.605	45873
750.944	45634.82
751.283	45484.31
751.621	45479.57
751.96	45184.43
752.298	45099.69
752.636	45189.63
752.975	44970.43
753.313	44790.09
753.651	44940.15
753.989	44737.44
754.327	44624.67
754.666	44506.71
755.004	44660.15
755.342	44550.33
755.679	44613.15
756.017	44298.36
756.355	44378.13
756.693	44121.64
757.031	44098.13
757.368	44053.84
757.706	43858.59
758.044	43847.07
758.381	43740.4
758.719	43516.91
759.056	43709.44
759.394	43549.45
759.731	43282.11
760.068	43389.45
760.405	42955.11
760.743	43080.99
761.08	43061.1
761.417	43001.21
761.754	42832.4
762.091	42679.19
762.428	42628.57
762.765	42393.77
763.102	42579.08
763.438	42268.13
763.775	42140.45
764.112	42056.61
764.449	42168.47
764.785	41802.15
765.122	41634.24
765.458	41511.99
765.795	41440.58
766.131	41371.65
766.467	41162.17
766.804	41023.86
767.14	40851.21
767.476	40697.77
767.812	40638.11
768.148	40553.14
768.485	40262.75
768.821	40098.01
769.157	40042.42
769.492	39678.14
769.828	39813.5
770.164	39368.77
770.5	39251.26
770.836	39256.68
771.171	39008.1
771.507	38899.4
771.842	38522.69
772.178	38501.9
772.513	38455.8
772.849	38250.6
773.184	37992.76
773.519	37961.57
773.855	37789.37
774.19	37579.21
774.525	37484.07
774.86	37360.23
775.195	37322.27
775.53	37106.68
775.865	36844.54
776.2	36537.43
776.535	36374.27
776.87	36459.01
777.205	36162.07
777.539	36232.13
777.874	36018.35
778.209	35741.97
778.543	35642.54
778.878	35448.87
779.212	35504.69
779.547	35236.67
779.881	35326.84
780.215	34953.74
780.55	35186.28
780.884	34860.41
781.218	34937.25
781.552	34745.84
781.886	34633.07
782.22	34485.73
782.554	34285.96
782.888	33926.88
783.222	33963.49
783.556	33804.17
783.889	33741.8
784.223	33558.98
784.557	33487.79
784.89	33607.56
785.224	33376.83
785.557	33180.46
785.891	33180.46
786.224	33086.22
786.558	33070.4
786.891	32795.15
787.224	32658.21
787.557	32659.56
787.891	32675.16
788.224	32507.25
788.557	32435.16
788.89	32356.52
789.223	32425.9
789.556	32197.2
789.888	32089.41
790.221	31939.81
790.554	31608.97
790.887	31622.76
791.219	31613.94
791.552	31390.45
791.884	31352.03
792.217	31201.07
792.549	31273.84
792.882	30983.68
793.214	30927.63
793.546	30982.32
793.879	30804.47
794.211	30527.42
794.543	30614.42
794.875	30459.85
795.207	30424.82
795.539	30257.82
795.871	30123.36
796.203	29936.92
796.535	29756.14
796.867	29716.14
797.198	29568.57
797.53	29645.18
797.862	29416.03
798.193	29318.86
798.525	29172.65
798.856	29112.31
799.188	28809.27
799.519	28752.55
799.85	28522.72
800.182	28562.95
800.513	28601.37
800.844	28350.98
801.175	28449.28
801.506	28342.16
801.837	28176.07
802.168	28009.07
802.499	27926.13
802.83	27711.9
803.161	27545.8
803.491	27549.42
803.822	27427.16
804.153	27195.75
804.483	27194.85
804.814	27164.79
805.145	26977.45
805.475	26958.7
805.805	26849.77
806.136	26878.93
806.466	26854.75
806.796	26698.37
807.126	26481.42
807.457	26378.6
807.787	26483.68
808.117	26393.06
808.447	26359.39
808.777	26305.16
809.107	26069
809.436	26106.06
809.766	25991.49
810.096	25902.68
810.426	25814.55
810.755	25723.02
811.085	25792.85
811.414	25724.38
811.744	25498.85
812.073	25576.14
812.403	25417.27
812.732	25251.62
813.061	25404.16
813.39	25158.29
813.719	25155.13
814.049	25376.14
814.378	25185.64
814.707	25127.79
815.036	25076.04
815.365	24942.03
815.693	24782.03
816.022	24832.43
816.351	24862.26
816.68	24667.23
817.008	24855.93
817.337	24563.51
817.665	24446
817.994	24614.13
818.322	24554.47
818.651	24430.4
818.979	24338.88
819.307	24458.88
819.636	24403.28
819.964	24265.21
820.292	24376.62
820.62	24295.04
820.948	24203.97
821.276	24433.79
821.604	24318.32
821.932	24300.24
822.259	24474.02
822.587	24384.08
822.915	24140.01
823.243	24273.34
823.57	24156.51
823.898	24271.08
824.225	24065.89
824.553	24051.88
824.88	24063.41
825.207	24198.32
825.535	24088.04
825.862	24196.74
826.189	24108.83
826.516	24218.88
826.843	24236.74
827.17	24171.2
827.497	24149.51
827.824	24121.71
828.151	24174.59
828.478	24053.46
828.805	24199
829.131	24024.76
829.458	23973.24
829.785	23839.23
830.111	23955.84
830.438	24006.23
830.764	23843.75
831.09	23882.85
831.417	23673.13
831.743	23868.61
832.069	23836.97
832.395	23726.92
832.722	23764.43
833.048	23753.58
833.374	23688.5
833.7	23549.52
834.026	23583.42
834.351	23495.96
834.677	23393.14
835.003	23558.56
835.329	23464.55
835.654	23440.15
835.98	23198.57
836.306	23275.63
836.631	23265.69
836.956	23332.8
837.282	23293.26
837.607	23352.69
837.932	23152.92
838.258	23034.73
838.583	23011.46
838.908	22998.8
839.233	22911.35
839.558	22808.07
839.883	22768.07
840.208	22784.34
840.533	22675.65
840.858	22751.8
841.182	22769.88
841.507	22650.79
841.832	22559.04
842.156	22586.61
842.481	22535.76
842.805	22614.63
843.13	22419.16
843.454	22428.87
843.778	22287.41
844.103	22313.62
844.427	22231.36
844.751	22289.89
845.075	22215.09
845.399	22142.78
845.723	22173.06
846.047	22162.67
846.371	21984.14
846.695	21934.42
847.019	21866.4
847.343	21749.12
847.666	21696.24
847.99	21575.56
848.313	21590.03
848.637	21501.89
848.96	21377.38
849.284	21326.76
849.607	21300.54
849.931	21256.47
850.254	20991.85
850.577	20971.96
850.9	20862.81
851.223	20838.63
851.546	20728.13
851.869	20678.19
852.192	20749.82
852.515	20603.38
852.838	20465.76
853.161	20483.61
853.483	20422.6
853.806	20331.3
854.129	20440
854.451	20377.85
854.774	20261.25
855.096	20201.36
855.419	20180.8
855.741	20091.76
856.063	19915.27
856.385	19860.13
856.708	19777.42
857.03	19857.42
857.352	19725.22
857.674	19637.99
857.996	19602.73
858.318	19420.59
858.64	19495.39
858.961	19520.25
859.283	19409.97
859.605	19192.8
859.926	19276.41
860.248	19170.65
860.57	19225.34
860.891	19219.69
861.212	19020.83
861.534	19012.01
861.855	18927.5
862.176	18902.64
862.498	18986.25
862.819	18820.38
863.14	18886.37
863.461	18801.62
863.782	18605.02
864.103	18593.49
864.424	18561.18
864.745	18569.31
865.065	18418.81
865.386	18305.14
865.707	18270.56
866.027	18362.31
866.348	18294.97
866.668	18289.1
866.989	18277.8
867.309	18128.2
867.63	18217.46
867.95	18114.64
868.27	18026.96
868.59	17967.97
868.91	18019.72
869.23	17984.47
869.55	17861.31
869.87	18002.32
870.19	17879.39
870.51	17915.32
870.83	17816.34
871.15	17628.1
871.469	17693.18
871.789	17759.17
872.109	17715.1
872.428	17671.26
872.748	17715.78
873.067	17594.2
873.386	17627.42
873.706	17569.34
874.025	17455.44
874.344	17514.2
874.663	17570.47
874.982	17413.41
875.301	17458.16
875.62	17307.2
875.939	17474.43
876.258	17451.83
876.577	17361.89
876.896	17384.26
877.214	17318.73
877.533	17310.59
877.852	17399.18
878.17	17203.25
878.489	17345.84
878.807	17308.33
879.125	17297.03
879.444	17244.15
879.762	17190.14
880.08	17222.91
880.398	17097.49
880.716	17197.37
881.034	17086.19
881.352	17135.68
881.67	17071.95
881.988	17130.03
882.306	17147.2
882.624	17029.92
882.941	16978.17
883.259	16885.97
883.577	17021.11
883.894	16855.91
884.212	16793.09
884.529	16857.72
884.846	16772.98
885.164	16770.04
885.481	16712.87
885.798	16741.34
886.115	16680.55
886.432	16697.95
886.75	16717.16
887.067	16657.73
887.383	16569.82
887.7	16626.09
888.017	16580.67
888.334	16592.42
888.651	16539.99
888.967	16458.86
889.284	16444.62
889.6	16381.57
889.917	16299.77
890.233	16341.8
890.55	16237.17
890.866	16259.32
891.182	16286.44
891.498	16088.48
891.815	16086.22
892.131	16041.7
892.447	15982.72
892.763	15936.39
893.079	15863.17
893.395	15850.06
893.71	15855.26
894.026	15822.27
894.342	15727.81
894.657	15615.72
894.973	15573.69
895.289	15462.73
895.604	15482.84
895.92	15415.95
896.235	15370.53
896.55	15417.31
896.865	15380.02
897.181	15188.61
897.496	15290.76
897.811	15074.26
898.126	15012.8
898.441	15017.09
898.756	15072.68
899.071	14899.35
899.386	14948.84
899.7	14693.71
900.015	14627.04
900.33	14547.27
900.644	14591.57
900.959	14696.87
901.273	14508.86
901.588	14419.59
901.902	14322.42
902.216	14314.51
902.531	14235.64
902.845	14233.38
903.159	14141.63
903.473	14099.15
903.787	14067.74
904.101	13969.21
904.415	13986.16
904.729	13842.21
905.042	13751.14
905.356	13751.81
905.67	13676.34
905.984	13640.86
906.297	13566.28
906.611	13568.32
906.924	13559.73
907.237	13491.03
907.551	13432.05
907.864	13314.76
908.177	13386.85
908.491	13242
908.804	13215.78
909.117	13102.11
909.43	13027.09
909.743	12974.21
910.056	12966.3
910.368	12872.97
910.681	12819.86
910.994	12817.15
911.307	12816.02
911.619	12667.32
911.932	12729.47
912.244	12595.69
912.557	12662.8
912.869	12530.38
913.181	12516.14
913.494	12460.77
913.806	12357.95
914.118	12385.52
914.43	12335.81
914.742	12364.96
915.054	12262.59
915.366	12230.95
915.678	12124.96
915.99	12157.05
916.302	11979.2
916.613	12029.82
916.925	11966.55
917.236	12011.97
917.548	11853.11
917.859	11898.08
918.171	11709.16
918.482	11807.46
918.794	11734.01
919.105	11743.28
919.416	11634.58
919.727	11595.94
920.038	11625.99
920.349	11535.6
920.66	11468.03
920.971	11446.11
921.282	11384.42
921.593	11288.6
921.903	11288.38
922.214	11290.64
922.525	11300.13
922.835	11219
923.146	11098.55
923.456	11140.36
923.767	11087.48
924.077	11051.77
924.387	10985.56
924.697	10955.95
925.008	11000.47
925.318	10887.93
925.628	10899.23
925.938	10895.84
926.248	10743.98
926.558	10771.1
926.867	10729.07
927.177	10701.72
927.487	10672.35
927.796	10564.33
928.106	10488.17
928.416	10497.89
928.725	10548.06
929.034	10442.97
929.344	10354.84
929.653	10363.43
929.962	10273.71
930.271	10262.19
930.581	10186.03
930.89	10132.02
931.199	9992.36
931.508	10110.55
931.817	10125.69
932.125	10049.99
932.434	9939.03
932.743	9878.02
933.051	9769.09
933.36	9826.95
933.669	9757.57
933.977	9675.54
934.286	9714.41
934.594	9680.06
934.902	9539.49
935.21	9515.77
935.519	9508.99
935.827	9416.33
936.135	9382.66
936.443	9297.69
936.751	9279.61
937.059	9242.33
937.367	9190.13
937.674	9195.1
937.982	9122.56
938.29	8954.43
938.597	9061.54
938.905	8886.4
939.213	8866.52
939.52	8880.76
939.827	8909.91
940.135	8844.6
940.442	8727.76
940.749	8802.11
941.056	8780.42
941.363	8658.16
941.67	8605.06
941.977	8571.38
942.284	8497.71
942.591	8442.12
942.898	8456.13
943.205	8442.57
943.511	8373.42
943.818	8342.24
944.125	8258.4
944.431	8269.25
944.738	8210.49
945.044	8241.9
945.35	8179.98
945.657	8046.2
945.963	8037.61
946.269	7986.32
946.575	8009.82
946.881	7948.58
947.187	7958.52
947.493	7925.53
947.799	7843.95
948.105	7798.75
948.41	7776.6
948.716	7728.47
949.022	7713.78
949.327	7684.18
949.633	7509.94
949.938	7599.88
950.244	7568.25
950.549	7538.42
950.854	7451.41
951.16	7458.65
951.465	7317.18
951.77	7357.41
952.075	7308.14
952.38	7331.19
952.685	7255.94
952.99	7249.84
953.294	7192.89
953.599	7203.06
953.904	7158.09
954.209	7131.42
954.513	7121.48
954.818	7090.75
955.122	7070.41
955.426	7034.7
955.731	7030.86
956.035	6956.96
956.339	6914.48
956.643	6838.32
956.948	6879.23
957.252	6878.1
957.556	6810.08
957.86	6832.22
958.163	6783.86
958.467	6742.51
958.771	6766.91
959.075	6676.07
959.378	6677.2
959.682	6656.18
959.985	6593.81
960.289	6558.1
960.592	6570.76
960.896	6589.29
961.199	6533.02
961.502	6523.3
961.805	6512.91
962.108	6474.94
962.411	6503.64
962.714	6447.82
963.017	6367.83
963.32	6408.05
963.623	6346.13
963.926	6370.76
964.228	6316.53
964.531	6250.77
964.833	6171
965.136	6187.72
965.438	6189.53
965.741	6211.67
966.043	6157.44
966.345	6108.85
966.648	6065.46
966.95	6081.51
967.252	6054.16
967.554	6022.07
967.856	5942.75
968.158	5947.05
968.46	5916.31
968.761	5898.91
969.063	5930.1
969.365	5827.28
969.666	5892.36
969.968	5775.07
970.269	5813.27
970.571	5783.66
970.872	5771.01
971.174	5654.17
971.475	5697.56
971.776	5657.79
972.077	5672.93
972.378	5625.25
972.679	5618.02
972.98	5588.86
973.281	5540.5
973.582	5526.72
973.883	5548.87
974.183	5494.18
974.484	5474.74
974.785	5456.21
975.085	5403.78
975.386	5411.47
975.686	5360.62
975.986	5317.91
976.287	5285.14
976.587	5253.28
976.887	5255.54
977.187	5212.83
977.487	5193.17
977.787	5115.88
978.087	5144.13
978.387	5143.68
978.687	5119.72
978.987	5118.59
979.286	5039.95
979.586	5049.44
979.885	4985.49
980.185	4970.8
980.484	4985.04
980.784	4912.27
981.083	4926.06
981.382	4908.88
981.682	4879.96
981.981	4827.08
982.28	4833.63
982.579	4725.84
982.878	4769.45
983.177	4750.92
983.475	4724.48
983.774	4671.6
984.073	4650.81
984.372	4620.98
984.67	4595.67
984.969	4585.95
985.267	4527.2
985.566	4535.33
985.864	4489.68
986.162	4494.2
986.461	4389.8
986.759	4385.96
987.057	4393.87
987.355	4375.56
987.653	4387.77
987.951	4366.3
988.249	4310.71
988.547	4268
988.844	4236.13
989.142	4253.53
989.44	4198.62
989.737	4261.67
990.035	4178.51
990.332	4204.95
990.63	4158.39
990.927	4122.91
991.224	4146.87
991.521	4087.89
991.819	4044.95
992.116	4068
992.413	4015.8
992.71	3977.38
993.006	3990.49
993.303	3986.65
993.6	3943.94
993.897	3936.93
994.193	3929.02
994.49	3881.56
994.787	3863.26
995.083	3842.24
995.379	3819.19
995.676	3816.26
995.972	3809.48
996.268	3789.14
996.565	3769.93
996.861	3750.95
997.157	3742.59
997.453	3718.86
997.749	3695.13
998.044	3686.77
998.34	3644.06
998.636	3644.51
998.932	3629.59
999.227	3578.52
999.523	3571.29
999.818	3556.38
1000.114	3524.51
1000.409	3472.31
1000.704	3505.76
1001	3471.18
1001.295	3474.34
1001.59	3461.24
1001.885	3404.74
1002.18	3407
1002.475	3375.14
1002.77	3359.32
1003.065	3332.65
1003.359	3336.72
1003.654	3311.18
1003.949	3290.39
1004.243	3309.6
1004.538	3223.28
1004.832	3246.78
1005.127	3225.76
1005.421	3190.28
1005.715	3226.67
1006.009	3214.01
1006.304	3173.79
1006.598	3127.01
1006.892	3140.79
1007.186	3106.9
1007.48	3126.78
1007.773	3089.95
1008.067	3057.86
1008.361	3026.45
1008.655	3023.28
1008.948	2981.02
1009.242	2986.9
1009.535	2968.82
1009.829	2984.87
1010.122	2957.52
1010.415	2924.08
1010.708	2898.54
1011.001	2858.54
1011.295	2887.01
1011.588	2830.07
1011.881	2851.08
1012.173	2833.68
1012.466	2824.42
1012.759	2774.93
1013.052	2796.62
1013.344	2762.5
1013.637	2738.09
1013.93	2731.09
1014.222	2717.98
1014.514	2684.99
1014.807	2667.59
1015.099	2693.57
1015.391	2651.77
1015.683	2634.82
1015.976	2640.69
1016.268	2607.7
1016.56	2572.22
1016.851	2593.46
1017.143	2566.34
1017.435	2525.67
1017.727	2527.48
1018.018	2516.4
1018.31	2465.33
1018.602	2483.18
1018.893	2449.06
1019.185	2441.83
1019.476	2439.79
1019.767	2413.13
1020.058	2354.15
1020.35	2351.66
1020.641	2338.78
1020.932	2349.63
1021.223	2277.76
1021.514	2288.39
1021.804	2282.28
1022.095	2299.01
1022.386	2214.72
1022.677	2207.26
1022.967	2200.93
1023.258	2177.88
1023.548	2159.8
1023.839	2150.99
1024.129	2159.58
1024.419	2115.51
1024.709	2109.18
1025	2115.74
1025.29	2072.35
1025.58	2062.4
1025.87	2017.21
1026.16	2026.02
1026.449	2047.49
1026.739	1982.86
1027.029	1976.3
1027.319	1968.39
1027.608	1955.51
1027.898	1952.35
1028.187	1931.79
1028.477	1910.09
1028.766	1892.46
1029.055	1859.02
1029.344	1872.58
1029.634	1837.1
1029.923	1834.16
1030.212	1828.51
1030.501	1815.86
1030.79	1788.06
1031.078	1777.89
1031.367	1769.08
1031.656	1755.74
1031.945	1715.52
1032.233	1740.6
1032.522	1692.92
1032.81	1745.58
1033.099	1706.25
1033.387	1673.26
1033.675	1659.25
1033.963	1640.49
1034.251	1619.48
1034.54	1607.27
1034.828	1600.72
1035.116	1586.71
1035.403	1569.31
1035.691	1562.98
1035.979	1551.91
1036.267	1551.68
1036.554	1541.06
1036.842	1523.66
1037.129	1551.68
1037.417	1502.42
1037.704	1492.25
1037.992	1499.48
1038.279	1498.35
1038.566	1462.65
1038.853	1462.65
1039.14	1462.65
