Data from aluminium_surface_pro_back_FLMS001491_00016.txt Node
Date: Wed Feb 08 15:33:41 GMT 2017
User: dcchb
Spectrometer: FLMS00149
Trigger mode: 0
Integration Time (sec): 2.000000E-2
Scans to average: 10
Electric dark correction enabled: true
Nonlinearity correction enabled: false
Boxcar width: 0
XAxis mode: Wavelengths
Number of Pixels in Spectrum: 2048
>>>>>Begin Spectral Data<<<<<
341.393	-9.05
341.776	-9.05
342.16	-9.05
342.543	-67.58
342.927	-68.03
343.31	-82.95
343.693	-73.91
344.077	-55.15
344.46	-56.28
344.843	-49.73
345.226	-40.24
345.61	-24.19
345.993	-17.87
346.376	2.25
346.759	3.83
347.142	14.45
347.525	42.7
347.908	51.51
348.291	78.85
348.674	96.71
349.057	110.04
349.44	128.12
349.823	157.72
350.206	159.08
350.588	225.52
350.971	233.43
351.354	261.9
351.737	261
352.119	272.07
352.502	248.34
352.884	301.45
353.267	298.96
353.65	322.69
354.032	325.4
354.414	303.93
354.797	319.07
355.179	352.52
355.562	351.39
355.944	344.61
356.326	355
356.709	349.13
357.091	346.87
357.473	362.24
357.855	353.87
358.238	373.31
358.62	355.91
359.002	364.5
359.384	400.2
359.766	373.08
360.148	352.74
360.53	359.52
360.912	376.93
361.294	344.61
361.676	383.48
362.057	369.47
362.439	362.46
362.821	379.64
363.203	364.27
363.584	360.2
363.966	368.79
364.348	363.59
364.729	378.51
365.111	362.01
365.493	354.33
365.874	371.5
366.256	379.86
366.637	382.12
367.019	371.95
367.4	376.7
367.781	363.59
368.163	342.58
368.544	372.86
368.925	371.5
369.306	372.18
369.688	375.57
370.069	364.27
370.45	367.21
370.831	383.93
371.212	373.54
371.593	361.33
371.974	391.84
372.355	394.55
372.736	392.07
373.117	385.29
373.498	381.9
373.879	368.56
374.26	396.13
374.641	367.66
375.021	383.03
375.402	388.22
375.783	395.91
376.163	423.03
376.544	416.25
376.925	413.31
377.305	406.98
377.686	415.12
378.066	423.03
378.447	409.92
378.827	423.03
379.208	422.8
379.588	427.77
379.968	431.61
380.349	421.9
380.729	439.97
381.109	455.57
381.489	424.61
381.87	442.91
382.25	445.17
382.63	444.27
383.01	468
383.39	458.28
383.77	448.11
384.15	481.56
384.53	464.38
384.91	471.84
385.29	488.33
385.67	490.14
386.049	494.66
386.429	478.39
386.809	505.06
387.189	493.31
387.568	525.4
387.948	522.23
388.328	537.37
388.707	517.94
389.087	519.29
389.466	539.63
389.846	556.36
390.225	545.73
390.605	543.25
390.984	547.99
391.363	568.33
391.743	564.49
392.122	552.97
392.501	592.06
392.881	581.44
393.26	587.77
393.639	612.85
394.018	597.94
394.397	610.82
394.776	624.6
395.155	610.14
395.534	636.81
395.913	653.08
396.292	653.98
396.671	666.86
397.05	663.25
397.429	644.71
397.808	643.13
398.186	677.03
398.565	679.06
398.944	695.56
399.323	701.21
399.701	714.09
400.08	719.06
400.458	729.01
400.837	734.66
401.215	737.82
401.594	752.96
401.972	722.68
402.351	774.43
402.729	763.81
403.107	788.67
403.486	799.06
403.864	802.45
404.242	807.65
404.62	807.2
404.999	826.4
405.377	835.44
405.755	839.06
406.133	856.69
406.511	871.15
406.889	891.71
407.267	876.8
407.645	899.62
408.023	949.34
408.401	946.85
408.779	907.31
409.156	965.16
409.534	962.9
409.912	977.14
410.29	1001.77
410.667	964.93
411.045	1002.45
411.422	1030.47
411.8	1022.11
412.178	1053.74
412.555	1088.77
412.933	1073.86
413.31	1088.32
413.687	1076.79
414.065	1089.45
414.442	1138.04
414.819	1142.55
415.197	1140.52
415.574	1185.72
415.951	1174.64
416.328	1195.21
416.705	1218.03
417.082	1204.93
417.46	1218.94
417.837	1227.75
418.214	1285.6
418.591	1265.49
418.967	1248.99
419.344	1270.46
419.721	1310.01
420.098	1297.8
420.475	1348.88
420.852	1360.85
421.228	1375.99
421.605	1369.67
421.982	1390.46
422.358	1392.27
422.735	1421.87
423.111	1408.99
423.488	1444.92
423.864	1436.56
424.241	1451.7
424.617	1480.62
424.994	1516.1
425.37	1531.25
425.746	1495.31
426.123	1559.94
426.499	1538.25
426.875	1585.03
427.251	1614.41
427.627	1667.51
428.003	1692.37
428.379	1679.49
428.756	1687.4
429.132	1710.45
429.507	1736.89
429.883	1754.52
430.259	1808.98
430.635	1810.11
431.011	1841.52
431.387	1902.76
431.763	1890.33
432.138	1954.06
432.514	1940.5
432.89	1921.29
433.265	2009.42
433.641	1997.22
434.016	2019.14
434.392	2090.33
434.767	2128.52
435.143	2098.24
435.518	2138.46
435.894	2167.16
436.269	2152.47
436.644	2220.94
437.02	2249.87
437.395	2258.91
437.77	2269.76
438.145	2331.9
438.52	2353.37
438.895	2385.01
439.271	2373.03
439.646	2458.9
440.021	2448.06
440.395	2462.29
440.77	2453.93
441.145	2453.03
441.52	2517.21
441.895	2499.58
442.27	2575.51
442.645	2547.72
443.019	2594.49
443.394	2596.53
443.769	2597.21
444.143	2641.95
444.518	2688.73
444.892	2651.89
445.267	2701.84
445.641	2709.29
446.016	2746.13
446.39	2763.98
446.764	2787.71
447.139	2797.2
447.513	2804.88
447.887	2829.97
448.262	2849.4
448.636	2859.35
449.01	2917.88
449.384	2928.72
449.758	2964.2
450.132	2978.89
450.506	3011.88
450.88	3065.44
451.254	3062.5
451.628	3063.18
452.002	3116.06
452.376	3138.43
452.75	3171.88
453.123	3220.24
453.497	3265.21
453.871	3301.37
454.244	3364.64
454.618	3388.15
454.992	3413
455.365	3415.04
455.739	3512.89
456.112	3537.29
456.486	3586.56
456.859	3638.99
457.232	3685.54
457.606	3698.19
457.979	3726.89
458.352	3781.13
458.725	3854.8
459.099	3926.21
459.472	3967.79
459.845	4024.06
460.218	4026.55
460.591	4100.22
460.964	4133.44
461.337	4207.11
461.71	4264.96
462.083	4359.87
462.456	4356.71
462.829	4399.42
463.201	4445.07
463.574	4425.41
463.947	4516.48
464.32	4633.99
464.692	4655.46
465.065	4706.75
465.438	4782.23
465.81	4839.18
466.183	4892.74
466.555	5097.48
466.928	5087.99
467.3	5053.86
467.672	5137.93
468.045	5260.19
468.417	5271.71
468.789	5314.2
469.161	5415.44
469.534	5514.64
469.906	5601.87
470.278	5598.48
470.65	5693.4
471.022	5804.8
471.394	5887.97
471.766	5988.08
472.138	6030.11
472.51	6220.39
472.882	6273.72
473.253	6386.26
473.625	6399.37
473.997	6555.07
474.369	6634.16
474.74	6680.26
475.112	6835.74
475.484	7032.34
475.855	7118.67
476.227	7085
476.598	7263.52
476.97	7412.67
477.341	7600.92
477.713	7696.73
478.084	7778.54
478.455	7997.52
478.827	8019.89
479.198	8281.35
479.569	8285.19
479.94	8562.47
480.311	8588.01
480.682	8799.08
481.053	8961.11
481.424	9144.15
481.795	9181.67
482.166	9336.92
482.537	9487.42
482.908	9723.35
483.279	9842.89
483.65	9975.32
484.021	10172.83
484.391	10277.46
484.762	10414.85
485.133	10477.22
485.503	10639.48
485.874	10871.34
486.244	10987.49
486.615	11215.74
486.985	11335.73
487.356	11565.11
487.726	11593.13
488.097	11894.14
488.467	11929.39
488.837	12269.49
489.207	12405.99
489.578	12547.23
489.948	12598.3
490.318	12799.88
490.688	12861.34
491.058	13080.09
491.428	13347.66
491.798	13421.78
492.168	13732.73
492.538	13802.33
492.908	14001.2
493.278	14163.91
493.648	14149.22
494.017	14447.52
494.387	14474.18
494.757	14616.55
495.126	14750.11
495.496	14868.75
495.866	14930.21
496.235	15168.17
496.605	15254.27
496.974	15344.89
497.344	15540.14
497.713	15494.72
498.082	15792.34
498.452	15936.97
498.821	16061.94
499.19	16110.75
499.559	16310.97
499.928	16430.29
500.298	16461.47
500.667	16675.71
501.036	16704.63
501.405	16897.17
501.774	16923.16
502.143	17183.49
502.512	17224.62
502.88	17366.31
503.249	17390.04
503.618	17509.58
503.987	17647.88
504.356	17781.21
504.724	17850.36
505.093	17901.66
505.462	18101.66
505.83	18162.22
506.199	18311.82
506.567	18551.81
506.936	18609.21
507.304	18823.67
507.672	18859.38
508.041	19047.17
508.409	19165.58
508.777	19322.87
509.145	19489.19
509.514	19563.77
509.882	19736.64
510.25	19822.52
510.618	19857.32
510.986	20007.82
511.354	20316.74
511.722	20399.22
512.09	20643.96
512.458	20668.14
512.826	20857.29
513.193	20885.09
513.561	21064.29
513.929	21095.02
514.297	21401.68
514.664	21573.2
515.032	21645.07
515.4	21929.13
515.767	22158.27
516.135	22131.83
516.502	22113.98
516.869	22477.81
517.237	22643.46
517.604	22568.88
517.972	22932.49
518.339	23154.41
518.706	23210.45
519.073	23287.96
519.44	23454.06
519.808	23777.44
520.175	23845.91
520.542	24112.57
520.909	24285.22
521.276	24282.06
521.643	24642.73
522.009	24791.65
522.376	24950.29
522.743	25203.39
523.11	25465.98
523.477	25735.81
523.843	25802.92
524.21	26193.2
524.577	26374.89
524.943	26478.39
525.31	26599.51
525.676	26957.24
526.043	26998.15
526.409	27340.51
526.776	27570.56
527.142	27623.44
527.508	27890.78
527.874	28011.68
528.241	28364.66
528.607	28322.41
528.973	28659.8
529.339	28647.37
529.705	28988.6
530.071	29194.92
530.437	29338.2
530.803	29527.12
531.169	29714.46
531.535	29637.17
531.901	29951.51
532.267	29997.39
532.632	30236.93
532.998	30339.75
533.364	30489.58
533.73	30611.84
534.095	30910.36
534.461	30976.57
534.826	31276
535.192	31291.59
535.557	31560.51
535.923	31611.81
536.288	31708.53
536.653	31942.2
537.019	31938.13
537.384	32140.84
537.749	32128.86
538.114	32296.09
538.479	32376.76
538.845	32623.99
539.21	32532.69
539.575	32695.4
539.94	32703.31
540.305	33008.84
540.67	32908.5
541.034	32997.54
541.399	33309.39
541.764	33364.31
542.129	33564.98
542.494	33639.55
542.858	33842.49
543.223	33961.8
543.587	34089.03
543.952	34048.36
544.316	34147.56
544.681	34079.32
545.045	34256.71
545.41	34599.53
545.774	34469.14
546.138	34693.31
546.503	34813.99
546.867	34768.11
547.231	35175.33
547.595	35212.17
547.959	35447.87
548.324	35431.6
548.688	35394.99
549.052	35706.62
549.416	35674.98
549.779	35710.91
550.143	36052.6
550.507	36302.08
550.871	36302.31
551.235	36367.84
551.599	36653.26
551.962	36795.18
552.326	36878.56
552.689	36982.29
553.053	36990.2
553.417	37079.24
553.78	37521.49
554.143	37408.72
554.507	37584.76
554.87	37749.28
555.234	38203.5
555.597	37996.73
555.96	38099.32
556.323	38346.1
556.686	38429.03
557.05	38588.58
557.413	38664.05
557.776	38888
558.139	39094.78
558.502	39166.64
558.865	39350.14
559.228	39709.45
559.59	39669
559.953	39808.43
560.316	40066.73
560.679	40232.15
561.041	40488.19
561.404	40660.61
561.767	40950.32
562.129	40880.72
562.492	41380.37
562.854	41317.32
563.217	41459.91
563.579	41609.97
563.941	41915.95
564.304	42027.58
564.666	42334.01
565.028	42390.06
565.39	42566.78
565.753	42647.68
566.115	42777.62
566.477	42975.58
566.839	43158.85
567.201	43268.45
567.563	43441.78
567.925	43812.62
568.287	43743.69
568.648	43947.3
569.01	44283.12
569.372	44572.37
569.734	44415.99
570.095	44827.96
570.457	44985.24
570.819	45069.08
571.18	45087.84
571.542	45414.84
571.903	45411.45
572.265	45617.32
572.626	45624.55
572.987	45803.08
573.349	45951.77
573.71	46285.77
574.071	46305.43
574.432	46502.04
574.794	46686.22
575.155	46815.48
575.516	46643.05
575.877	46789.94
576.238	46976.6
576.599	47053.89
576.96	47257.5
577.32	47118.97
577.681	47356.03
578.042	47449.36
578.403	47547.89
578.763	47632.18
579.124	47648
579.485	47959.18
579.845	47970.93
580.206	48012.51
580.566	48047.54
580.927	47934.77
581.287	48342.22
581.648	48063.35
582.008	48303.57
582.368	48260.64
582.728	48287.08
583.089	48346.51
583.449	48390.13
583.809	48432.84
584.169	48539.95
584.529	48293.41
584.889	48734.3
585.249	48402.78
585.609	48356
585.969	48632.15
586.329	48518.94
586.688	48612.94
587.048	48549.9
587.408	48579.05
587.768	48558.03
588.127	48365.95
588.487	48416.11
588.846	48778.82
589.206	48524.13
589.565	48560.52
589.925	48742.66
590.284	48637.13
590.643	48651.81
591.003	48735.43
591.362	48872.6
591.721	48831.92
592.08	48890.45
592.44	48901.75
592.799	48767.07
593.158	48786.73
593.517	48753.28
593.876	48856.1
594.235	48734.98
594.593	48845.03
594.952	48967.74
595.311	48689.33
595.67	48887.06
596.029	49167.51
596.387	49090.9
596.746	48987.85
597.104	48862.43
597.463	48972.94
597.822	49125.02
598.18	48933.39
598.538	49016.1
598.897	49348.29
599.255	48967.74
599.613	49417.67
599.972	49298.58
600.33	49358.91
600.688	49179.94
601.046	49350.78
601.404	49569.98
601.762	49423.77
602.12	49593.48
602.478	49669.64
602.836	49665.57
603.194	49516.42
603.552	49585.57
603.91	49571.11
604.268	49734.05
604.625	49619.92
604.983	49798
605.341	49767.72
605.698	49963.19
606.056	50035.28
606.413	49936.53
606.771	49973.81
607.128	50150.53
607.485	49993.02
607.843	49922.74
608.2	50348.27
608.557	50332.22
608.914	50128.61
609.272	50247.7
609.629	50363.63
609.986	50407.25
610.343	50242.05
610.7	50590.29
611.057	50488.38
611.414	50255.39
611.771	50422.61
612.127	50572.44
612.484	50569.96
612.841	50623.29
613.198	50560.24
613.554	50694.02
613.911	50843.85
614.267	50698.99
614.624	50726.11
614.98	50764.75
615.337	50914.81
615.693	50866.9
616.05	50812.44
616.406	51128.36
616.762	50975.59
617.118	50927.69
617.475	50915.48
617.831	50958.42
618.187	51016.27
618.543	50944.86
618.899	51213.33
619.255	51204.74
619.611	51132.65
619.967	51362.7
620.323	51403.83
620.678	51237.06
621.034	51201.8
621.39	51269.37
621.746	51150.28
622.101	51445.86
622.457	51225.31
622.812	51297.17
623.168	51398.63
623.523	51407.22
623.879	51449.71
624.234	51263.5
624.589	51353.89
624.945	51388.47
625.3	51459.42
625.655	51516.82
626.01	51353.66
626.365	51445.86
626.72	51350.05
627.075	51334.68
627.43	51410.84
627.785	51264.4
628.14	51338.07
628.495	51345.98
628.85	51235.7
629.205	51095.82
629.559	51341.46
629.914	51153.9
630.269	51181.24
630.623	51193.22
630.978	51196.15
631.332	51273.89
631.687	51297.85
632.041	51171.07
632.396	51113.67
632.75	51027.57
633.104	51152.31
633.459	50925.43
633.813	50955.48
634.167	50911.19
634.521	50955.03
634.875	50954.13
635.229	50901.02
635.583	50706.68
635.937	50688.6
636.291	50791.19
636.645	50742.83
636.999	50627.36
637.352	50801.36
637.706	50556.4
638.06	50654.47
638.413	50466.46
638.767	50389.4
639.121	50396.85
639.474	50289.96
639.828	50226.69
640.181	50241.6
640.534	50216.07
640.888	50167.03
641.241	49944.21
641.594	50077.99
641.947	50128.61
642.301	49979.91
642.654	50038.44
643.007	50060.36
643.36	49928.84
643.713	49888.62
644.066	50136.07
644.419	49736.53
644.771	49615.18
645.124	49210.67
645.477	49099.49
645.83	48896.78
646.182	48699.27
646.535	48638.03
646.888	48729.55
647.24	48439.16
647.593	48663.57
647.945	48581.08
648.298	48361.88
648.65	48260.86
649.002	48258.15
649.355	48400.3
649.707	48210.24
650.059	48429.9
650.411	48785.82
650.763	48760.29
651.115	49198.69
651.467	49026.27
651.819	48899.27
652.171	48886.61
652.523	48923.9
652.875	48837.8
653.227	48640.29
653.578	48997.79
653.93	48881.19
654.282	48714.64
654.633	48568.65
654.985	48590.12
655.337	48471.71
655.688	48511.93
656.039	48684.81
656.391	48365.72
656.742	48362.78
657.094	48314.2
657.445	48502.67
657.796	48381.99
658.147	48410.01
658.498	48333.18
658.849	48388.77
659.2	48353.52
659.551	48135.44
659.902	48287.76
660.253	48242.56
660.604	48349.45
660.955	48076.91
661.306	48233.97
661.656	48111.26
662.007	48074.88
662.358	47993.07
662.708	48115.78
663.059	47984.94
663.409	47768.9
663.76	48102.45
664.11	47949.69
664.461	48058.84
664.811	48098.61
665.161	48028.1
665.511	47855.22
665.862	47854.55
666.212	47875.34
666.562	47998.72
666.912	47904.26
667.262	47793.31
667.612	47733.19
667.962	47778.84
668.312	47657.26
668.662	47877.37
669.011	47487.55
669.361	47413.88
669.711	47475.57
670.06	47548.11
670.41	47452.3
670.76	47345.18
671.109	47563.93
671.459	47429.02
671.808	47276.48
672.157	47466.99
672.507	47082.36
672.856	47263.15
673.205	47367.55
673.554	47307.67
673.904	47159.42
674.253	47337.72
674.602	47261.57
674.951	46641.25
675.3	46516.05
675.649	47153.77
675.998	47001.69
676.346	47067.22
676.695	47094.57
677.044	46757.4
677.393	46955.59
677.741	46923.5
678.09	46801.92
678.438	46830.62
678.787	46876.49
679.135	46784.07
679.484	46588.59
679.832	46808.02
680.181	46553.34
680.529	46701.36
680.877	46392.89
681.225	46330.75
681.573	46727.57
681.922	46387.92
682.27	46169.62
682.618	46145.89
682.966	46084.65
683.314	46163.07
683.661	46058.21
684.009	45829.06
684.357	45731.21
684.705	45617.54
685.053	45726.69
685.4	45637.88
685.748	45538.9
686.095	45366.7
686.443	45291
686.79	45338.23
687.138	45402.86
687.485	45343.2
687.832	45154.73
688.18	45116.31
688.527	44870.9
688.874	44843.78
689.221	44756.32
689.568	44809.2
689.915	44622.32
690.262	44489.66
690.609	44372.15
690.956	44229.56
691.303	44221.65
691.65	44109.79
691.997	43999.51
692.344	43706.41
692.69	43757.25
693.037	43726.07
693.383	43368.34
693.73	43400.2
694.077	43362.24
694.423	43115.24
694.769	43101.23
695.116	42960.89
695.462	42916.82
695.808	42807.45
696.155	42878.41
696.501	42567.45
696.847	42498.98
697.193	42381.47
697.539	42514.12
697.885	42043.63
698.231	42080.69
698.577	41945.1
698.923	42025.55
699.269	41738.32
699.614	41569.51
699.96	41545.56
700.306	41414.04
700.651	41269.86
700.997	41176.3
701.342	41146.47
701.688	41215.63
702.033	40999.59
702.379	40903.54
702.724	40755.07
703.069	40829.65
703.415	40518.69
703.76	40537.45
704.105	40464.01
704.45	40287.51
704.795	40212.04
705.14	40011.59
705.485	40065.6
705.83	39887.98
706.175	39938.82
706.52	39823.57
706.865	39587.42
707.209	39553.3
707.554	39304.72
707.899	39492.96
708.243	39237.82
708.588	39174.1
708.932	39081.9
709.277	38793.99
709.621	38964.39
709.966	38655.92
710.31	38582.02
710.654	38375.93
710.998	38588.58
711.342	38403.27
711.687	38474
712.031	38185.42
712.375	38103.84
712.719	38186.1
713.063	38137.29
713.407	38191.07
713.75	37945.65
714.094	37995.6
714.438	37680.8
714.782	37815.49
715.125	37637.41
715.469	37602.16
715.812	37517.19
716.156	37364.43
716.499	37397.65
716.843	37329.63
717.186	37119.01
717.53	37215.96
717.873	37248.27
718.216	37086.92
718.559	36846.93
718.902	36662.3
719.246	36828.4
719.589	36587.95
719.932	36359.93
720.275	36527.84
720.617	36293.04
720.96	36446.94
721.303	36259.37
721.646	36341.4
721.989	35998.14
722.331	36148.19
722.674	35934.63
723.016	35898.25
723.359	35841.3
723.701	35914.07
724.044	35656.22
724.386	35437.7
724.729	35729.67
725.071	35443.12
725.413	35481.09
725.755	35345.5
726.097	35257.14
726.439	35121.1
726.782	35115.45
727.124	35215.78
727.465	34899.86
727.807	34922.46
728.149	34955.22
728.491	34806.08
728.833	34733.08
729.175	34634.1
729.516	34574.9
729.858	34584.84
730.199	34552.75
730.541	34456.48
730.882	34380.1
731.224	34331.96
731.565	34110.5
731.906	34075.93
732.248	34202.02
732.589	33988.47
732.93	33912.31
733.271	33895.59
733.612	34039.54
733.953	33964.97
734.294	33861.69
734.635	33807.68
734.976	33835.71
735.317	33491.99
735.658	33584.41
735.999	33529.27
736.339	33529.5
736.68	33675.71
737.021	33526.11
737.361	33401.14
737.702	33625.77
738.042	33311.65
738.383	33227.59
738.723	33291.99
739.063	33111.21
739.404	33154.37
739.744	33055.61
740.084	32837.54
740.424	32971.32
740.764	32829.41
741.104	32847.03
741.444	32764.1
741.784	32578.56
742.124	32622.86
742.464	32668.05
742.804	32471.45
743.143	32483.65
743.483	32331.79
743.823	32292.47
744.162	32295.18
744.502	32306.03
744.841	32133.38
745.181	32313.94
745.52	32148.07
745.86	32086.83
746.199	31978.13
746.538	31832.14
746.877	31913.72
747.216	31897.9
747.556	31835.31
747.895	31725.71
748.234	31515.32
748.573	31572.04
748.911	31599.38
749.25	31496.11
749.589	31417.46
749.928	31261.76
750.267	31334.3
750.605	31349.22
750.944	31359.61
751.283	31184.7
751.621	31235.77
751.96	31020.64
752.298	31049.11
752.636	31015.44
752.975	30785.84
753.313	30769.8
753.651	30911.26
753.989	30611.16
754.327	30474.21
754.666	30409.81
755.004	30461.11
755.342	30443.48
755.679	30300.88
756.017	30091.62
756.355	30177.95
756.693	29968.69
757.031	30029.03
757.368	29807.11
757.706	29793.55
758.044	29598.76
758.381	29692.09
758.719	29495.71
759.056	29548.59
759.394	29417.97
759.731	29231.76
760.068	29217.07
760.405	29140.69
760.743	29043.29
761.08	29009.17
761.417	28892.11
761.754	28753.58
762.091	28719.46
762.428	28569.18
762.765	28380.71
763.102	28597.2
763.438	28282.86
763.775	28293.25
764.112	28392.91
764.449	28267.49
764.785	28069.53
765.122	27896.43
765.458	27819.37
765.795	27876.09
766.131	27786.83
766.467	27618.24
766.804	27359.49
767.14	27352.04
767.476	27312.94
767.812	27234.3
768.148	27326.27
768.485	27131.48
768.821	26898.26
769.157	26800.19
769.492	26796.12
769.828	26680.64
770.164	26459.86
770.5	26453.75
770.836	26425.73
771.171	26232.74
771.507	26092.86
771.842	25882.7
772.178	25970.83
772.513	25841.34
772.849	25797.95
773.184	25609.26
773.519	25617.17
773.855	25468.69
774.19	25384.18
774.525	25313.67
774.86	25381.69
775.195	25250.85
775.53	25023.06
775.865	24942.83
776.2	24687.47
776.535	24596.85
776.87	24671.43
777.205	24551.88
777.539	24485.67
777.874	24416.74
778.209	24256.07
778.543	24112.57
778.878	24076.41
779.212	23951.22
779.547	23872.13
779.881	23955.74
780.215	23757.33
780.55	23760.72
780.884	23520.72
781.218	23558.46
781.552	23516.66
781.886	23362.31
782.22	23218.13
782.554	23186.72
782.888	22913.73
783.222	22882.55
783.556	22823.57
783.889	22787.18
784.223	22659.05
784.557	22626.74
784.89	22617.7
785.224	22449.79
785.557	22349
785.891	22314.2
786.224	22119.18
786.558	22230.59
786.891	21992.63
787.224	21910.82
787.557	21704.27
787.891	21765.52
788.224	21679.64
788.557	21631.06
788.89	21568.68
789.223	21623.15
789.556	21243.27
789.888	21237.85
790.221	21143.61
790.554	21041.47
790.887	21013.44
791.219	21003.28
791.552	20861.13
791.884	20678.54
792.217	20746.11
792.549	20564.42
792.882	20504.08
793.214	20344.54
793.546	20404.2
793.879	20250.75
794.211	20175.05
794.543	20236.29
794.875	20097.31
795.207	20168.27
795.539	20031.78
795.871	20046.92
796.203	19850.09
796.535	19762.18
796.867	19744.55
797.198	19712.46
797.53	19658.68
797.862	19459.59
798.193	19445.58
798.525	19278.8
798.856	19477.44
799.188	19218.46
799.519	19141.63
799.85	19016.66
800.182	18992.48
800.513	18919.94
800.844	18871.58
801.175	18978.24
801.506	18963.1
801.837	18812.37
802.168	18781.19
802.499	18770.57
802.83	18606.28
803.161	18514.08
803.491	18425.26
803.822	18405.15
804.153	18423.91
804.483	18207.19
804.814	18187.08
805.145	18157.47
805.475	18262.33
805.805	18052.17
806.136	18063.01
806.466	17978.04
806.796	17999.29
807.126	17767.43
807.457	17753.19
807.787	17820.76
808.117	17726.98
808.447	17624.61
808.777	17719.52
809.107	17687.2
809.436	17508.23
809.766	17529.02
810.096	17475.23
810.426	17368.12
810.755	17422.8
811.085	17210.83
811.414	17269.81
811.744	17167.22
812.073	17023.95
812.403	17112.53
812.732	17009.26
813.061	16945.75
813.39	16937.39
813.719	16836.15
814.049	16872.31
814.378	16840.22
814.707	16806.1
815.036	16661.69
815.365	16734.69
815.693	16489.27
816.022	16470.51
816.351	16500.79
816.68	16419.67
817.008	16428.25
817.337	16355.26
817.665	16302.38
817.994	16268.03
818.322	16294.25
818.651	16135.38
818.979	16148.94
819.307	16245.21
819.636	16122.95
819.964	16068.04
820.292	16084.08
820.62	16077.98
820.948	16040.24
821.276	16047.7
821.604	15942.62
821.932	15951.88
822.259	15995.05
822.587	15954.59
822.915	15934.93
823.243	16048.83
823.57	15974.48
823.898	15978.77
824.225	15864.2
824.553	15905.56
824.88	15980.81
825.207	15993.92
825.535	15887.93
825.862	15970.41
826.189	15915.73
826.516	16036.85
826.843	16016.51
827.17	16060.58
827.497	16027.81
827.824	16056.29
828.151	15984.88
828.478	15991.2
828.805	15950.53
829.131	15957.76
829.458	15964.99
829.785	15914.82
830.111	15860.13
830.438	16027.14
830.764	15914.6
831.09	15921.38
831.417	15867.37
831.743	15834.37
832.069	15861.94
832.395	15796.18
832.722	15878.44
833.048	15763.64
833.374	15827.82
833.7	15720.48
834.026	15788.05
834.351	15746.24
834.677	15735.17
835.003	15784.43
835.329	15756.18
835.654	15757.76
835.98	15619.01
836.306	15622.17
836.631	15557.99
836.956	15628.95
837.282	15584.66
837.607	15513.93
837.932	15481.84
838.258	15495.85
838.583	15470.09
838.908	15374.72
839.233	15453.82
839.558	15376.53
839.883	15372.46
840.208	15260.83
840.533	15317.55
840.858	15345.8
841.182	15205.01
841.507	15249.53
841.832	15149.19
842.156	15147.61
842.481	15086.14
842.805	15054.96
843.13	15040.04
843.454	15046.14
843.778	14914.4
844.103	14866.94
844.427	14917.56
844.751	14859.03
845.075	14807.96
845.399	14755.53
845.723	14684.35
846.047	14727.73
846.371	14563.67
846.695	14595.31
847.019	14496.78
847.343	14449.32
847.666	14321.19
847.99	14297.46
848.313	14356.9
848.637	14275.09
848.96	14201.19
849.284	14250.46
849.607	14131.82
849.931	14040.07
850.254	13937.25
850.577	13959.62
850.9	13836.91
851.223	13783.58
851.546	13729.57
851.869	13671.72
852.192	13774.31
852.515	13625.62
852.838	13573.19
853.161	13622.9
853.483	13449.35
853.806	13436.92
854.129	13450.48
854.451	13444.15
854.774	13337.26
855.096	13303.59
855.419	13184.05
855.741	13255.23
856.063	13077.61
856.385	13187.66
856.708	13086.65
857.03	13029.47
857.352	13083.94
857.674	12985.41
857.996	12916.03
858.318	12841.23
858.64	12817.28
858.961	12779.54
859.283	12760.55
859.605	12721.91
859.926	12779.76
860.248	12702.48
860.57	12601.24
860.891	12665.64
861.212	12642.59
861.534	12572.08
861.855	12543.16
862.176	12515.36
862.498	12560.33
862.819	12489.83
863.14	12377.06
863.461	12487.34
863.782	12381.58
864.103	12370.51
864.424	12429.26
864.745	12360.79
865.065	12316.05
865.386	12235.6
865.707	12138.42
866.027	12161.02
866.348	12202.38
866.668	12251.87
866.989	12238.53
867.309	12013.91
867.63	12150.17
867.95	12086.67
868.27	12104.3
868.59	12085.77
868.91	12128.48
869.23	11951.08
869.55	11974.81
869.87	11945.43
870.19	11926.45
870.51	11994.02
870.83	11890.52
871.15	11890.97
871.469	11899.56
871.789	11896.62
872.109	11860.24
872.428	11834.02
872.748	11876.74
873.067	11929.62
873.386	11839.45
873.706	11851.43
874.025	11837.19
874.344	11731.65
874.663	11796.29
874.982	11716.29
875.301	11759.68
875.62	11782.95
875.939	11729.62
876.258	11781.37
876.577	11602.17
876.896	11633.58
877.214	11676.29
877.533	11659.11
877.852	11634.26
878.17	11738.66
878.489	11624.99
878.807	11563.75
879.125	11590.64
879.444	11555.84
879.762	11548.61
880.08	11566.46
880.398	11589.29
880.716	11597.87
881.034	11571.88
881.352	11541.6
881.67	11497.08
881.988	11442.17
882.306	11407.6
882.624	11360.82
882.941	11302.51
883.259	11262.51
883.577	11264.77
883.894	11277.2
884.212	11235.62
884.529	11259.35
884.846	11247.83
885.164	11259.8
885.481	11186.36
885.798	11260.71
886.115	11185.91
886.432	11187.94
886.75	11124.44
887.067	11133.93
887.383	11013.48
887.7	11205.11
888.017	11019.36
888.334	11063.88
888.651	11030.66
888.967	10991.79
889.284	10983.88
889.6	10888.51
889.917	10823.66
890.233	10838.12
890.55	10758.35
890.866	10800.15
891.182	10843.32
891.498	10732.81
891.815	10700.72
892.131	10679.71
892.447	10641.29
892.763	10590.22
893.079	10637.67
893.395	10593.38
893.71	10542.31
894.026	10484.68
894.342	10444.91
894.657	10462.76
894.973	10414.85
895.289	10437
895.604	10399.71
895.92	10303.44
896.235	10280.85
896.55	10269.77
896.865	10230.23
897.181	10180.28
897.496	10185.48
897.811	10098.7
898.126	10056.44
898.441	10068.65
898.756	10048.99
899.071	10003.79
899.386	10058.7
899.7	9953.4
900.015	9903.45
900.33	9840.63
900.644	9848.77
900.959	9819.61
901.273	9791.59
901.588	9782.33
901.902	9750.92
902.216	9648.32
902.531	9693.97
902.845	9600.86
903.159	9575.55
903.473	9520.87
903.787	9525.61
904.101	9510.47
904.415	9563.8
904.729	9478.15
905.042	9437.93
905.356	9387.99
905.67	9435.22
905.984	9327.88
906.297	9422.56
906.611	9266.86
906.924	9285.17
907.237	9208.11
907.551	9206.3
907.864	9141.21
908.177	9112.29
908.491	9080.43
908.804	9060.54
909.117	9029.35
909.43	9021.9
909.743	9050.14
910.056	8986.42
910.368	8887.89
910.681	8865.06
910.994	8835.91
911.307	8802.01
911.619	8709.81
911.932	8749.36
912.244	8677.72
912.557	8713.43
912.869	8639.08
913.181	8613.77
913.494	8652.19
913.806	8605.18
914.118	8546.43
914.43	8482.47
914.742	8489.48
915.054	8413.78
915.366	8338.98
915.678	8305.53
915.99	8323.61
916.302	8336.72
916.613	8232.54
916.925	8254.68
917.236	8217.85
917.548	8192.54
917.859	8196.83
918.171	8057.63
918.482	8047.91
918.794	7975.6
919.105	7970.85
919.416	7937.4
919.727	7917.97
920.038	7936.27
920.349	7775.37
920.66	7790.97
920.971	7857.41
921.282	7838.2
921.593	7782.38
921.903	7708.03
922.214	7753.68
922.525	7652.21
922.835	7623.06
923.146	7592.1
923.456	7582.84
923.767	7539.45
924.077	7553.69
924.387	7506.46
924.697	7476.4
925.008	7427.36
925.318	7393.24
925.628	7313.47
925.938	7343.97
926.248	7286.35
926.558	7280.47
926.867	7235.73
927.177	7256.07
927.487	7199.34
927.796	7086.13
928.106	7130.19
928.416	7030.31
928.725	7048.61
929.034	7032.12
929.344	7002.29
929.653	7002.74
929.962	6888.17
930.271	6928.39
930.581	6894.72
930.89	6882.06
931.199	6851.78
931.508	6813.14
931.817	6862.4
932.125	6783.31
932.434	6754.38
932.743	6735.4
933.051	6673.03
933.36	6655.63
933.669	6632.35
933.977	6586.93
934.286	6578.57
934.594	6575.18
934.902	6545.58
935.21	6481.17
935.519	6491.11
935.827	6501.96
936.135	6444.11
936.443	6353.94
936.751	6348.97
937.059	6329.54
937.367	6364.11
937.674	6311.46
937.982	6244.57
938.29	6270.33
938.597	6231.01
938.905	6218.35
939.213	6187.85
939.52	6134.51
939.827	6116.44
940.135	6074.63
940.442	6064.01
940.749	5999.15
941.056	6068.75
941.363	5957.57
941.67	5970.22
941.977	5942.65
942.284	5937.91
942.591	5861.3
942.898	5863.79
943.205	5853.17
943.511	5788.53
943.818	5826.5
944.125	5774.52
944.431	5729.1
944.738	5703.34
945.044	5695.88
945.35	5733.17
945.657	5662.66
945.963	5582.44
946.269	5600.06
946.575	5594.64
946.881	5510.12
947.187	5568.2
947.493	5522.33
947.799	5518.48
948.105	5498.82
948.41	5415.44
948.716	5414.08
949.022	5374.08
949.327	5374.31
949.633	5339.73
949.938	5293.18
950.244	5333.18
950.549	5284.14
950.854	5249.57
951.16	5269.23
951.465	5271.03
951.77	5226.97
952.075	5203.92
952.38	5175.44
952.685	5240.07
952.99	5149
953.294	5100.64
953.599	5125.73
953.904	5043.7
954.209	5033.07
954.513	5045.95
954.818	5006.18
955.122	4969.57
955.426	4992.4
955.731	4887.09
956.035	4929.57
956.339	4913.53
956.643	4880.31
956.948	4833.31
957.252	4831.5
957.556	4879.18
957.86	4813.19
958.163	4812.51
958.467	4788.11
958.771	4745.4
959.075	4710.6
959.378	4686.42
959.682	4673.99
959.985	4680.31
960.289	4606.42
960.592	4588.79
960.896	4606.64
961.199	4569.58
961.502	4550.37
961.805	4519.87
962.108	4530.71
962.411	4505.4
962.714	4459.76
963.017	4448.91
963.32	4440.1
963.623	4420.21
963.926	4424.95
964.228	4373.43
964.531	4376.59
964.833	4335.24
965.136	4325.07
965.438	4305.41
965.741	4276.71
966.043	4238.97
966.345	4244.85
966.648	4235.35
966.95	4229.93
967.252	4218.86
967.554	4196.49
967.856	4177.28
968.158	4153.55
968.46	4094.34
968.761	4110.61
969.063	4091.4
969.365	4111.52
969.666	4079.43
969.968	4037.62
970.269	4046.66
970.571	4053.66
970.872	3983.84
971.174	4029.94
971.475	4003.72
971.776	4006.66
972.077	3961.69
972.378	3925.53
972.679	3900.67
972.98	3909.49
973.281	3878.98
973.582	3895.02
973.883	3836.95
974.183	3807.34
974.484	3797.17
974.785	3837.85
975.085	3790.62
975.386	3816.16
975.686	3733
975.986	3746.33
976.287	3748.14
976.587	3712.43
976.887	3668.36
977.187	3687.12
977.487	3659.55
977.787	3612.55
978.087	3597.41
978.387	3590.63
978.687	3586.78
978.987	3579.1
979.286	3544.53
979.586	3510.63
979.885	3486.45
980.185	3486.22
980.484	3484.87
980.784	3459.1
981.083	3490.74
981.382	3487.8
981.682	3430.4
981.981	3450.29
982.28	3383.85
982.579	3368.94
982.878	3399.44
983.177	3346.11
983.475	3370.52
983.774	3307.02
984.073	3338.2
984.372	3294.59
984.67	3293.23
984.969	3286
985.267	3270.86
985.566	3228.15
985.864	3200.81
986.162	3225.44
986.461	3208.94
986.759	3180.92
987.057	3173.69
987.355	3186.12
987.653	3141.6
987.951	3156.74
988.249	3140.02
988.547	3141.37
988.844	3144.76
989.142	3121.71
989.44	3097.98
989.737	3068.15
990.035	3036.52
990.332	3043.75
990.63	3047.36
990.927	3005.1
991.224	3002.62
991.521	2960.59
991.819	2966.46
992.116	2973.47
992.413	2967.37
992.71	2895.05
993.006	2897.31
993.303	2904.32
993.6	2894.6
993.897	2909.06
994.193	2859.57
994.49	2846.24
994.787	2843.75
995.083	2775.73
995.379	2793.36
995.676	2777.09
995.972	2785.9
996.268	2774.38
996.565	2727.37
996.861	2697.32
997.157	2718.56
997.453	2672.68
997.749	2690.54
998.044	2684.66
998.34	2628.39
998.636	2634.27
998.932	2660.25
999.227	2616.87
999.523	2609.41
999.818	2600.37
1000.114	2582.97
1000.409	2570.31
1000.704	2545
1001	2570.31
1001.295	2530.31
1001.59	2528.96
1001.885	2490.77
1002.18	2470.66
1002.475	2449.86
1002.77	2467.27
1003.065	2415.29
1003.359	2475.4
1003.654	2395.18
1003.949	2413.93
1004.243	2394.95
1004.538	2371.9
1004.832	2356.53
1005.127	2345.01
1005.421	2343.88
1005.715	2316.08
1006.009	2326.25
1006.304	2283.09
1006.598	2273.82
1006.892	2253.26
1007.186	2248.29
1007.48	2257.1
1007.773	2236.54
1008.067	2240.15
1008.361	2194.73
1008.655	2210.55
1008.948	2169.87
1009.242	2194.73
1009.535	2142.53
1009.829	2148.86
1010.122	2150.66
1010.415	2122.42
1010.708	2118.8
1011.001	2107.28
1011.295	2069.99
1011.588	2081.06
1011.881	2024.79
1012.173	2062.08
1012.466	2048.52
1012.759	2026.83
1013.052	2037.67
1013.344	2018.24
1013.637	2011.23
1013.93	1990.89
1014.222	1982.76
1014.514	1987.73
1014.807	1953.83
1015.099	1907.51
1015.391	1942.76
1015.683	1918.58
1015.976	1918.35
1016.268	1886.72
1016.56	1871.35
1016.851	1858.24
1017.143	1855.08
1017.435	1797.9
1017.727	1801.97
1018.018	1819.37
1018.31	1786.83
1018.602	1802.2
1018.893	1780.73
1019.185	1774.63
1019.476	1754.52
1019.767	1751.35
1020.058	1702.31
1020.35	1696.44
1020.641	1685.59
1020.932	1677.23
1021.223	1678.13
1021.514	1667.06
1021.804	1675.2
1022.095	1660.96
1022.386	1643.78
1022.677	1627.51
1022.967	1642.2
1023.258	1642.43
1023.548	1613.5
1023.839	1615.08
1024.129	1583.9
1024.419	1562.43
1024.709	1595.65
1025	1553.17
1025.29	1565.37
1025.58	1565.14
1025.87	1528.31
1026.16	1528.53
1026.449	1506.39
1026.739	1490.79
1027.029	1513.84
1027.319	1463.68
1027.608	1486.73
1027.898	1439.95
1028.187	1455.09
1028.477	1471.13
1028.766	1441.53
1029.055	1416.67
1029.344	1413.96
1029.634	1402.43
1029.923	1378.03
1030.212	1389.33
1030.501	1372.38
1030.79	1345.04
1031.078	1371.7
1031.367	1352.72
1031.656	1346.17
1031.945	1324.02
1032.233	1309.78
1032.522	1297.8
1032.81	1306.17
1033.099	1293.96
1033.387	1276.11
1033.675	1277.47
1033.963	1254.19
1034.251	1237.24
1034.54	1239.73
1034.828	1230.91
1035.116	1239.95
1035.403	1223.91
1035.691	1201.08
1035.979	1219.61
1036.267	1166.73
1036.554	1183.46
1036.842	1176.23
1037.129	1161.99
1037.417	1163.8
1037.704	1146.85
1037.992	1135.1
1038.279	1139.16
1038.566	1120.86
1038.853	1120.86
1039.14	1120.86
