Data from aluminium_surface_pro_back_FLMS001491_00006.txt Node
Date: Wed Feb 08 15:33:29 GMT 2017
User: dcchb
Spectrometer: FLMS00149
Trigger mode: 0
Integration Time (sec): 2.000000E-2
Scans to average: 10
Electric dark correction enabled: true
Nonlinearity correction enabled: false
Boxcar width: 0
XAxis mode: Wavelengths
Number of Pixels in Spectrum: 2048
>>>>>Begin Spectral Data<<<<<
341.393	-8.11
341.776	-8.11
342.16	-8.11
342.543	-65.28
342.927	-57.6
343.31	-88.33
343.693	-68.9
344.077	-54.21
344.46	-71.83
344.843	-49.46
345.226	-60.76
345.61	-39.74
345.993	-5.62
346.376	8.39
346.759	18.78
347.142	34.38
347.525	47.03
347.908	60.37
348.291	79.35
348.674	80.03
349.057	110.53
349.44	117.54
349.823	133.81
350.206	177.65
350.588	196.41
350.971	239.34
351.354	261.72
351.737	273.47
352.119	269.85
352.502	282.73
352.884	305.33
353.267	316.4
353.65	334.71
354.032	342.17
354.414	353.92
354.797	348.49
355.179	355.5
355.562	342.39
355.944	364.54
356.326	359.34
356.709	369.06
357.091	379.68
357.473	376.52
357.855	354.14
358.238	356.63
358.62	393.01
359.002	375.84
359.384	379
359.766	390.07
360.148	392.56
360.53	381.71
360.912	371.77
361.294	368.61
361.676	368.83
362.057	383.3
362.439	365.89
362.821	365.67
363.203	374.93
363.584	364.99
363.966	366.8
364.348	369.96
364.729	362.73
365.111	356.18
365.493	377.65
365.874	362.05
366.256	356.18
366.637	359.34
367.019	346.01
367.4	373.35
367.781	361.83
368.163	357.76
368.544	374.26
368.925	368.38
369.306	380.81
369.688	357.53
370.069	386.23
370.45	376.29
370.831	377.87
371.212	378.78
371.593	369.51
371.974	381.94
372.355	370.41
372.736	373.8
373.117	402.28
373.498	398.89
373.879	401.37
374.26	388.49
374.641	378.32
375.021	401.15
375.402	420.58
375.783	418.1
376.163	395.72
376.544	417.19
376.925	406.8
377.305	414.25
377.686	417.19
378.066	419.9
378.447	417.87
378.827	436.63
379.208	424.42
379.588	411.54
379.968	433.01
380.349	436.63
380.729	430.53
381.109	435.5
381.489	452.45
381.87	442.05
382.25	447.47
382.63	469.39
383.01	471.65
383.39	474.82
383.77	480.92
384.15	489.51
384.53	483.18
384.91	492.44
385.29	489.51
385.67	489.05
386.049	505.33
386.429	514.82
386.809	515.27
387.189	519.34
387.568	514.82
387.948	527.92
388.328	504.87
388.707	536.96
389.087	546
389.466	539.9
389.846	553.69
390.225	545.32
390.605	567.47
390.984	562.5
391.363	554.82
391.743	565.21
392.122	566.12
392.501	581.48
392.881	589.17
393.26	587.81
393.639	609.73
394.018	640.01
394.397	618.09
394.776	627.81
395.155	635.49
395.534	648.6
395.913	620.58
396.292	670.29
396.671	679.78
397.05	658.09
397.429	688.82
397.808	672.33
398.186	685.66
398.565	671.42
398.944	704.19
399.323	723.85
399.701	708.71
400.08	707.35
400.458	745.77
400.837	716.39
401.215	758.43
401.594	748.48
401.972	770.4
402.351	767.69
402.729	776.51
403.107	785.54
403.486	790.52
403.864	809.27
404.242	815.83
404.62	825.77
404.999	831.64
405.377	834.36
405.755	862.83
406.133	860.34
406.511	861.02
406.889	878.88
407.267	891.53
407.645	921.36
408.023	931.3
408.401	941.92
408.779	924.52
409.156	963.62
409.534	968.59
409.912	973.56
410.29	982.38
410.667	1019.44
411.045	1018.31
411.422	1029.83
411.8	1039.32
412.178	1057.4
412.555	1108.7
412.933	1105.08
413.31	1123.84
413.687	1143.5
414.065	1124.07
414.442	1145.08
414.819	1168.81
415.197	1169.49
415.574	1191.86
415.951	1207.91
416.328	1201.35
416.705	1212.88
417.082	1213.1
417.46	1262.14
417.837	1278.64
418.214	1282.48
418.591	1296.49
418.967	1322.71
419.344	1321.12
419.721	1347.34
420.098	1341.91
420.475	1326.77
420.852	1348.47
421.228	1360.67
421.605	1398.41
421.982	1433.66
422.358	1418.75
422.735	1463.49
423.111	1436.37
423.488	1458.29
423.864	1465.53
424.241	1512.53
424.617	1519.76
424.994	1542.81
425.37	1550.04
425.746	1564.96
426.123	1580.78
426.499	1591.17
426.875	1593.66
427.251	1648.57
427.627	1665.75
428.003	1685.18
428.379	1724.5
428.756	1718.63
429.132	1736.71
429.507	1793.2
429.883	1809.02
430.259	1839.75
430.635	1819.87
431.011	1856.25
431.387	1915.46
431.763	1949.13
432.138	1958.17
432.514	1985.29
432.89	1958.85
433.265	2042.91
433.641	2055.12
434.016	2072.29
434.392	2129.69
434.767	2174.43
435.143	2179.18
435.518	2189.8
435.894	2202.46
436.269	2218.95
436.644	2283.81
437.02	2286.52
437.395	2287.88
437.77	2322.23
438.145	2378.27
438.52	2417.59
438.895	2463.69
439.271	2395.67
439.646	2434.99
440.021	2505.73
440.395	2508.21
440.77	2520.41
441.145	2533.07
441.52	2590.47
441.895	2588.66
442.27	2658.94
442.645	2603.35
443.019	2664.36
443.394	2668.66
443.769	2713.18
444.143	2698.71
444.518	2722.22
444.892	2697.81
445.267	2766.51
445.641	2807.86
446.016	2826.62
446.39	2841.08
446.764	2868.65
447.139	2849.67
447.513	2881.53
447.887	2899.61
448.262	2912.95
448.636	2964.02
449.01	2973.06
449.384	3055.09
449.758	3047.18
450.132	3086.95
450.506	3104.81
450.88	3130.57
451.254	3111.13
451.628	3199.72
452.002	3241.07
452.376	3218.93
452.75	3294.18
453.123	3288.08
453.497	3315.65
453.871	3401.29
454.244	3424.57
454.618	3492.82
454.992	3501.18
455.365	3496.89
455.739	3626.37
456.112	3663.43
456.486	3679.93
456.859	3718.12
457.232	3818.91
457.606	3812.13
457.979	3816.43
458.352	3900.49
458.725	3977.78
459.099	4045.8
459.472	4089.19
459.845	4113.37
460.218	4162.4
460.591	4224.78
460.964	4230.43
461.337	4327.15
461.71	4384.09
462.083	4457.76
462.456	4497.54
462.829	4506.12
463.201	4600.59
463.574	4606.46
463.947	4649.17
464.32	4760.58
464.692	4822.95
465.065	4828.83
465.438	4927.36
465.81	5018.88
466.183	5068.14
466.555	5132.32
466.928	5210.51
467.3	5205.54
467.672	5276.5
468.045	5407.34
468.417	5460.22
468.789	5431.3
469.161	5545.19
469.534	5621.8
469.906	5756.49
470.278	5794.68
470.65	5859.31
471.022	5987.67
471.394	6125.06
471.766	6174.78
472.138	6246.42
472.51	6387.2
472.882	6487.54
473.253	6495.9
473.625	6613.19
473.997	6772.05
474.369	6799.62
474.74	6891.82
475.112	7032.61
475.484	7141.08
475.855	7262.21
476.227	7351.02
476.598	7560.28
476.97	7625.82
477.341	7795.53
477.713	7901.06
478.084	8051.57
478.455	8189.19
478.827	8350.32
479.198	8527.94
479.569	8575.62
479.94	8802.96
480.311	8910.3
480.682	9108.94
481.053	9315.94
481.424	9351.19
481.795	9474.13
482.166	9694.91
482.537	9822.59
482.908	9979.65
483.279	10103.94
483.65	10278.85
484.021	10420.77
484.391	10613.76
484.762	10667.54
485.133	10848.33
485.503	10953.19
485.874	11250.81
486.244	11365.15
486.615	11554.98
486.985	11713.17
487.356	11882.65
487.726	11973.5
488.097	12155.41
488.467	12287.16
488.837	12542.98
489.207	12681.73
489.578	12854.61
489.948	13051.44
490.318	13198.55
490.688	13267.93
491.058	13529.39
491.428	13671.08
491.798	13797.41
492.168	14087.79
492.538	14122.59
492.908	14360.78
493.278	14429.03
493.648	14471.06
494.017	14706.31
494.387	14856.36
494.757	15070.59
495.126	15136.81
495.496	15314.88
495.866	15362.79
496.235	15602.1
496.605	15737.92
496.974	15799.84
497.344	15999.83
497.713	16005.26
498.082	16273.5
498.452	16368.64
498.821	16475.75
499.19	16602.3
499.559	16702.19
499.928	16877.1
500.298	16957.55
500.667	17195.51
501.036	17084.1
501.405	17320.25
501.774	17320.7
502.143	17499.91
502.512	17597.08
502.88	17722.73
503.249	17789.17
503.618	17925.66
503.987	18049.5
504.356	18212.66
504.724	18287.46
505.093	18404.06
505.462	18504.4
505.83	18709.37
506.199	18827.1
506.567	19083.37
506.936	19043.6
507.304	19320.88
507.672	19385.28
508.041	19523.58
508.409	19699.4
508.777	19834.76
509.145	19986.4
509.514	20107.75
509.882	20331.7
510.25	20325.37
510.618	20476.55
510.986	20629.32
511.354	20888.07
511.722	21030.44
512.09	21260.03
512.458	21246.48
512.826	21400.37
513.193	21592.91
513.561	21729.4
513.929	21822.51
514.297	22196.51
514.664	22248.03
515.032	22376.62
515.4	22528.02
515.767	22613.22
516.135	22730.28
516.502	22682.6
516.869	23054.11
517.237	23266.31
517.604	23243.03
517.972	23615
518.339	23799.18
518.706	23808.67
519.073	23978.83
519.44	24140.86
519.808	24417.69
520.175	24419.05
520.542	24790.34
520.909	24838.47
521.276	25023.78
521.643	25249.31
522.009	25405.46
522.376	25587.38
522.743	25738.33
523.11	25971.32
523.477	26342.61
523.843	26369.5
524.21	26707.35
524.577	26908.25
524.943	27122.7
525.31	27317.28
525.676	27534.67
526.043	27780.99
526.409	28003.36
526.776	28182.56
527.142	28279.96
527.508	28523.57
527.874	28742.1
528.241	28924.92
528.607	29039.72
528.973	29303.66
529.339	29272.48
529.705	29683.09
530.071	29995.85
530.437	30033.14
530.803	30197.2
531.169	30281.72
531.535	30501.37
531.901	30606
532.267	30639.45
532.632	30873.57
532.998	31031.3
533.364	31212.54
533.73	31248.47
534.095	31504.06
534.461	31645.3
534.826	32013.88
535.192	31925.06
535.557	32251.38
535.923	32204.38
536.288	32460.19
536.653	32491.38
537.019	32505.16
537.384	32815.44
537.749	32927.75
538.114	32998.71
538.479	33210
538.845	33198.93
539.21	33248.65
539.575	33535.42
539.94	33722.31
540.305	33886.82
540.67	33728.63
541.034	33972.92
541.399	34216.98
541.764	34057.66
542.129	34250.88
542.494	34425.56
542.858	34593.24
543.223	34759.57
543.587	34767.02
543.952	35011.76
544.316	35047.24
544.681	35030.97
545.045	35282.49
545.41	35462.15
545.774	35519.32
546.138	35625.76
546.503	35722.03
546.867	35689.49
547.231	36067.78
547.595	36053.77
547.959	36173.54
548.324	36354.78
548.688	36313.88
549.052	36591.83
549.416	36527.66
549.779	36794.99
550.143	36790.02
550.507	37092.16
550.871	37077.92
551.235	37081.77
551.599	37276.56
551.962	37585.03
552.326	37681.07
552.689	37821.41
553.053	37725.14
553.417	37744.57
553.78	38261.85
554.143	38193.6
554.507	38451.45
554.87	38484.21
555.234	38912.45
555.597	38719.46
555.96	38887.14
556.323	39121.71
556.686	39158.55
557.05	39553.11
557.413	39612.77
557.776	39728.02
558.139	39765.99
558.502	40091.63
558.865	40252.98
559.228	40505.86
559.59	40666.53
559.953	40779.97
560.316	41174.09
560.679	41154.88
561.041	41374.31
561.404	41597.35
561.767	41862.2
562.129	41815.65
562.492	42266.49
562.854	42295.87
563.217	42445.24
563.579	42484.79
563.941	42878.67
564.304	43015.39
564.666	43216.29
565.028	43552.1
565.39	43616.28
565.753	43842.94
566.115	44017.85
566.477	44101.69
566.839	44321.35
567.201	44492.42
567.563	44722.02
567.925	44879.3
568.287	44887.66
568.648	45015.12
569.01	45206.98
569.372	45576.91
569.734	45388.67
570.095	45701.65
570.457	45816
570.819	46037.91
571.18	46092.83
571.542	46377.11
571.903	46308.19
572.265	46598.8
572.626	46596.09
572.987	46894.61
573.349	46918.34
573.71	47338.67
574.071	47259.12
574.432	47375.96
574.794	47770.3
575.155	47810.75
575.516	47721.03
575.877	47918.09
576.238	48018.88
576.599	48224.97
576.96	48123.51
577.32	48152.43
577.681	48206.44
578.042	48425.2
578.403	48501.8
578.763	48502.93
579.124	48700.89
579.485	48859.53
579.845	48985.41
580.206	48747.45
580.566	48802.59
580.927	49004.62
581.287	49178.4
581.648	49066.31
582.008	49283.48
582.368	49166.42
582.728	49314.89
583.089	49223.82
583.449	49331.84
583.809	49406.19
584.169	49503.13
584.529	49300.43
584.889	49626.07
585.249	49400.09
585.609	49350.14
585.969	49609.8
586.329	49453.64
586.688	49541.32
587.048	49493.87
587.408	49459.29
587.768	49463.81
588.127	49443.25
588.487	49511.95
588.846	49699.29
589.206	49466.07
589.565	49491.38
589.925	49629.01
590.284	49727.31
590.643	49687.31
591.003	49734.77
591.362	49902.9
591.721	49703.13
592.08	49881.2
592.44	49952.84
592.799	49906.74
593.158	49891.6
593.517	49774.09
593.876	49981.99
594.235	49900.41
594.593	49815.22
594.952	50041.88
595.311	49817.25
595.67	49933.86
596.029	50086.39
596.387	50095.66
596.746	50244.13
597.104	49957.81
597.463	50015.66
597.822	50238.48
598.18	50142.89
598.538	50101.99
598.897	50335.88
599.255	50049.11
599.613	50583.56
599.972	50371.59
600.33	50332.04
600.688	50246.62
601.046	50378.36
601.404	50437.35
601.762	50436.89
602.12	50739.71
602.478	50604.8
602.836	50589.66
603.194	50567.74
603.552	50524.58
603.91	50487.97
604.268	50579.94
604.625	50615.42
604.983	50742.87
605.341	50633.27
605.698	50835.98
606.056	50854.06
606.413	50647.28
606.771	50961.63
607.128	50902.42
607.485	50752.82
607.843	50792.82
608.2	51046.37
608.557	51055.63
608.914	50848.41
609.272	51087.5
609.629	51167.95
609.986	51287.49
610.343	51183.99
610.7	51369.98
611.057	51212.92
611.414	51296.08
611.771	51223.09
612.127	51432.8
612.484	51355.06
612.841	51462.18
613.198	51327.04
613.554	51330.2
613.911	51565.23
614.267	51589.18
614.624	51539.92
614.98	51568.39
615.337	51774.26
615.693	51711.89
616.05	51768.84
616.406	51979.68
616.762	51801.6
617.118	51768.61
617.475	51743.98
617.831	51899.91
618.187	51859.23
618.543	51869.85
618.899	52059.68
619.255	52117.08
619.611	52032.11
619.967	52101.94
620.323	52220.8
620.678	51979.23
621.034	52013.58
621.39	51990.07
621.746	51953.46
622.101	52202.5
622.457	51953.46
622.812	52023.07
623.168	52128.6
623.523	52088.83
623.879	52144.87
624.234	51902.62
624.589	52001.6
624.945	52069.85
625.3	52137.19
625.655	52055.83
626.01	51971.32
626.365	52013.8
626.72	52001.6
627.075	51943.75
627.43	51908.72
627.785	51841.15
628.14	51947.81
628.495	51954.82
628.85	51842.96
629.205	51858.78
629.559	52035.27
629.914	51979.23
630.269	51939.45
630.623	51975.16
630.978	51860.59
631.332	51953.69
631.687	51997.08
632.041	51910.98
632.396	51849.06
632.75	51729.74
633.104	51816.07
633.459	51557.09
633.813	51682.29
634.167	51688.16
634.521	51536.3
634.875	51586.92
635.229	51572.23
635.583	51391.67
635.937	51399.81
636.291	51345.57
636.645	51343.76
636.999	51247.04
637.352	51461.27
637.706	51099.93
638.06	51262.18
638.413	51217.66
638.767	51117.1
639.121	51255.4
639.474	51020.38
639.828	50986.03
640.181	50833.27
640.534	51003.66
640.888	50880.5
641.241	50725.47
641.594	50741.74
641.947	50759.82
642.301	50757.56
642.654	50642.31
643.007	50736.1
643.36	50545.59
643.713	50563.67
644.066	50757.79
644.419	50440.74
644.771	50240.97
645.124	49993.74
645.477	49873.75
645.83	49654.09
646.182	49516.47
646.535	49368.67
646.888	49443.7
647.24	49204.38
647.593	49458.16
647.945	49328.9
648.298	49178.4
648.65	48973.88
649.002	49040.77
649.355	49182.69
649.707	49077.16
650.059	49199.19
650.411	49643.02
650.763	49772.5
651.115	50110.35
651.467	50004.14
651.819	49934.99
652.171	49804.37
652.523	49789.91
652.875	49743.58
653.227	49589.91
653.578	49825.84
653.93	49586.52
654.282	49474.66
654.633	49358.5
654.985	49412.29
655.337	49539.06
655.688	49319.41
656.039	49596.24
656.391	49113.09
656.742	49233.31
657.094	49253.65
657.445	49379.75
657.796	49229.24
658.147	49138.4
658.498	49164.61
658.849	49124.16
659.2	48985.41
659.551	48949.02
659.902	49154.89
660.253	49033.77
660.604	49179.07
660.955	48935.01
661.306	49050.72
661.656	48982.47
662.007	48902.7
662.358	48837.61
662.708	48890.72
663.059	48801.68
663.409	48645.3
663.76	48998.51
664.11	48826.54
664.461	48789.93
664.811	48765.75
665.161	48655.92
665.511	48641.46
665.862	48580.9
666.212	48525.31
666.562	48637.62
666.912	48479.88
667.262	48399.21
667.612	48408.7
667.962	48444.86
668.312	48467.45
668.662	48605.08
669.011	48407.57
669.361	48406.44
669.711	48448.25
670.06	48293.67
670.41	48326.89
670.76	48209.61
671.109	48348.81
671.459	48265.2
671.808	48203.96
672.157	48346.33
672.507	48126.67
672.856	48052.32
673.205	48096.16
673.554	48220.68
673.904	48194.02
674.253	48431.52
674.602	48212.77
674.951	47626.8
675.3	47376.18
675.649	47976.85
675.998	47892.55
676.346	47844.87
676.695	47969.16
677.044	47701.82
677.393	47905.66
677.741	47743.41
678.09	47584.77
678.438	47456.41
678.787	47715.84
679.135	47569.62
679.484	47366.24
679.832	47476.97
680.181	47279.92
680.529	47392.45
680.877	47286.24
681.225	47328.95
681.573	47477.42
681.922	47013.03
682.27	46965.8
682.618	47128.28
682.966	47032.46
683.314	47007.15
683.661	46782.53
684.009	46689.42
684.357	46736.88
684.705	46651.91
685.053	46531.46
685.4	46452.82
685.748	46238.81
686.095	46256.89
686.443	46053.51
686.79	46121.98
687.138	46224.58
687.485	46164.92
687.832	45920.63
688.18	45949.1
688.527	45793.17
688.874	45802.44
689.221	45680.64
689.568	45558.38
689.915	45486.97
690.262	45399.74
690.609	45296.01
690.956	45282.68
691.303	45276.58
691.65	44964.27
691.997	44912.29
692.344	44727.44
692.69	44662.13
693.037	44746.2
693.383	44368.58
693.73	44540.55
694.077	44249.94
694.423	44275.25
694.769	44141.47
695.116	44037.06
695.462	44026.67
695.808	43803.4
696.155	43781.7
696.501	43627.13
696.847	43463.74
697.193	43137.65
697.539	43292.45
697.885	43062.62
698.231	42892.69
698.577	42965.68
698.923	42979.92
699.269	42676.42
699.614	42475.52
699.96	42361.4
700.306	42355.75
700.651	42182.2
700.997	42086.15
701.342	42068.53
701.688	41784.69
702.033	41759.16
702.379	41722.32
702.724	41516.68
703.069	41689.33
703.415	41283.46
703.76	41357.13
704.105	41273.07
704.45	41073.07
704.795	40878.5
705.14	40708.34
705.485	40876.47
705.83	40538.62
706.175	40652.52
706.52	40572.97
706.865	40335.46
707.209	40414.11
707.554	40107.22
707.899	40285.3
708.243	39918.07
708.588	39888.24
708.932	39570.29
709.277	39523.28
709.621	39669.27
709.966	39319.22
710.31	39442.61
710.654	39062.28
710.998	39158.32
711.342	39041.71
711.687	38993.35
712.031	38828.16
712.375	38659.8
712.719	38773.02
713.063	38719.46
713.407	38652.12
713.75	38543.42
714.094	38519.92
714.438	38192.7
714.782	38359.92
715.125	38150.21
715.469	38262.53
715.812	38026.37
716.156	37913.83
716.499	37849.43
716.843	37959.48
717.186	37625.03
717.53	37907.96
717.873	37777.79
718.216	37577.35
718.559	37395.66
718.902	37348.2
719.246	37316.34
719.589	37245.83
719.932	37159.28
720.275	37028.43
720.617	37113.4
720.96	36898.04
721.303	36952.73
721.646	36905.05
721.989	36658.73
722.331	36783.24
722.674	36685.62
723.016	36531.72
723.359	36417.6
723.701	36483.59
724.044	36199.75
724.386	36125.18
724.729	36260.77
725.071	36116.37
725.413	36217.83
725.755	36043.6
726.097	35979.42
726.439	35831.63
726.782	35722.7
727.124	35940.1
727.465	35627.11
727.807	35643.84
728.149	35433.22
728.491	35517.74
728.833	35573.56
729.175	35509.6
729.516	35410.4
729.858	35092.44
730.199	35282.04
730.541	35164.75
730.882	35233.45
731.224	35181.02
731.565	34810.64
731.906	34850.64
732.248	34894.93
732.589	34698.1
732.93	34640.93
733.271	34494.26
733.612	34647.25
733.953	34631.21
734.294	34452.46
734.635	34301.05
734.976	34444.09
735.317	34336.53
735.658	34116.87
735.999	34237.77
736.339	34082.52
736.68	34244.1
737.021	34111.9
737.361	33895.41
737.702	34048.17
738.042	33873.71
738.383	33859.02
738.723	33800.5
739.063	33632.82
739.404	33745.58
739.744	33670.1
740.084	33570.67
740.424	33548.98
740.764	33444.35
741.104	33590.78
741.444	33408.19
741.784	33129.78
742.124	33308.08
742.464	33122.32
742.804	33187.63
743.143	32991.48
743.483	33082.77
743.823	32757.59
744.162	32866.28
744.502	33007.75
744.841	32616.12
745.181	32892.5
745.52	32562.79
745.86	32616.35
746.199	32703.35
746.538	32567.31
746.877	32607.98
747.216	32525.5
747.556	32275.11
747.895	32388.78
748.234	32065.4
748.573	32120.09
748.911	31982.24
749.25	31967.55
749.589	31834.45
749.928	31793.77
750.267	31883.48
750.605	31662.7
750.944	31661.79
751.283	31575.92
751.621	31548.13
751.96	31400.33
752.298	31384.51
752.636	31352.42
752.975	31116.27
753.313	31070.17
753.651	31153.79
753.989	30992.66
754.327	30960.34
754.666	30691.88
755.004	30808.48
755.342	30723.29
755.679	30736.85
756.017	30567.81
756.355	30514.71
756.693	30441.94
757.031	30456.63
757.368	30254.6
757.706	30202.17
758.044	30054.38
758.381	30088.73
758.719	29918.11
759.056	30008.05
759.394	29870.66
759.731	29665.46
760.068	29639.47
760.405	29485.58
760.743	29491
761.08	29463.43
761.417	29315.19
761.754	29159.94
762.091	29058.25
762.428	29096.89
762.765	28907.06
763.102	28944.58
763.438	28769.22
763.775	28540.52
764.112	28640.41
764.449	28634.76
764.785	28460.52
765.122	28219.17
765.458	28062.57
765.795	28188.67
766.131	28110.25
766.467	27860.31
766.804	27824.16
767.14	27674.33
767.476	27708
767.812	27576.7
768.148	27650.37
768.485	27338.74
768.821	27242.25
769.157	27149.37
769.492	27028.24
769.828	27105.76
770.164	26764.3
770.5	26731.3
770.836	26692.21
771.171	26741.02
771.507	26558.88
771.842	26299.68
772.178	26348.71
772.513	26107.36
772.849	26047.7
773.184	25910.08
773.519	25979.91
773.855	25818.78
774.19	25737.88
774.525	25605
774.86	25623.31
775.195	25593.71
775.53	25511.67
775.865	25312.81
776.2	25168.18
776.535	24949.2
776.87	24929.09
777.205	24872.14
777.539	24791.24
777.874	24881.18
778.209	24634.86
778.543	24612.49
778.878	24413.62
779.212	24409.56
779.547	24194.65
779.881	24368.2
780.215	24106.29
780.55	24171.37
780.884	23970.02
781.218	23804.83
781.552	23853.86
781.886	23773.19
782.22	23702.23
782.554	23503.14
782.888	23322.58
783.222	23266.76
783.556	23198.29
783.889	23130.49
784.223	23045.3
784.557	22901.57
784.89	22988.12
785.224	22832.42
785.557	22748.81
785.891	22749.94
786.224	22605.76
786.558	22609.83
786.891	22314.24
787.224	22236.51
787.557	22262.49
787.891	22150.63
788.224	22130.52
788.557	22061.82
788.89	21987.02
789.223	21919.68
789.556	21767.59
789.888	21650.98
790.221	21638.33
790.554	21393.14
790.887	21494.83
791.219	21381.16
791.552	21403.31
791.884	21126.48
792.217	21089.19
792.549	21077.44
792.882	20861.4
793.214	20833.83
793.546	20829.54
793.879	20713.38
794.211	20609.2
794.543	20661.18
794.875	20501.41
795.207	20591.58
795.539	20485.59
795.871	20449.66
796.203	20271.59
796.535	20226.16
796.867	20053.29
797.198	20005.15
797.53	20073.4
797.862	19931.93
798.193	19855.55
798.525	19804.25
798.856	19783.24
799.188	19486.07
799.519	19531.27
799.85	19343.25
800.182	19390.03
800.513	19460.76
800.844	19274.32
801.175	19280.65
801.506	19199.98
801.837	19172.63
802.168	19180.09
802.499	19040.43
802.83	18861.68
803.161	18923.6
803.491	18802.25
803.822	18812.64
804.153	18842.92
804.483	18579.65
804.814	18541.46
805.145	18537.17
805.475	18577.17
805.805	18508.69
806.136	18473.21
806.466	18434.12
806.796	18333.11
807.126	18217.63
807.457	18163.39
807.787	18157.29
808.117	18050.4
808.447	18062.83
808.777	18056.05
809.107	17980.57
809.436	17971.31
809.766	17862.16
810.096	17832.33
810.426	17701.48
810.755	17759.11
811.085	17715.49
811.414	17628.72
811.744	17543.75
812.073	17573.8
812.403	17508.95
812.732	17409.51
813.061	17372.45
813.39	17329.06
813.719	17207.94
814.049	17346.69
814.378	17223.76
814.707	17077.09
815.036	17040.48
815.365	17069.86
815.693	16825.12
816.022	16938.79
816.351	16764.56
816.68	16685.92
817.008	16816.76
817.337	16607.05
817.665	16651.34
817.994	16677.1
818.322	16583.77
818.651	16506.26
818.979	16471.69
819.307	16540.38
819.636	16442.99
819.964	16311.01
820.292	16468.97
820.62	16362.08
820.948	16238.7
821.276	16377.9
821.604	16312.37
821.932	16288.19
822.259	16271.01
822.587	16293.16
822.915	16259.26
823.243	16360.73
823.57	16275.98
823.898	16293.84
824.225	16225.59
824.553	16294.52
824.88	16342.42
825.207	16338.58
825.535	16224.01
825.862	16278.92
826.189	16200.51
826.516	16303.33
826.843	16328.19
827.17	16325.25
827.497	16311.92
827.824	16315.98
828.151	16404.12
828.478	16257.45
828.805	16285.25
829.131	16167.06
829.458	16173.84
829.785	16091.58
830.111	16186.27
830.438	16311.24
830.764	16225.14
831.09	16361.86
831.417	16136.1
831.743	16259.94
832.069	16180.62
832.395	16153.28
832.722	16147.85
833.048	16138.59
833.374	16069.89
833.7	16014.75
834.026	16159.15
834.351	16175.87
834.677	16070.11
835.003	16160.06
835.329	15953.28
835.654	16010.68
835.98	15926.39
836.306	15946.05
836.631	15897.01
836.956	15899.95
837.282	15847.97
837.607	15799.39
837.932	15798.71
838.258	15781.53
838.583	15759.84
838.908	15643.91
839.233	15638.49
839.558	15632.16
839.883	15500.19
840.208	15568.43
840.533	15485.5
840.858	15543.8
841.182	15472.84
841.507	15485.95
841.832	15355.78
842.156	15405.72
842.481	15377.48
842.805	15309.23
843.13	15242.11
843.454	15247.08
843.778	15165.05
844.103	15181.78
844.427	15110.59
844.751	15212.28
845.075	15084.83
845.399	14994.89
845.723	15031.72
846.047	15049.8
846.371	14930.03
846.695	14922.35
847.019	14853.42
847.343	14719.19
847.666	14671.05
847.99	14678.74
848.313	14636.25
848.637	14564.62
848.96	14550.61
849.284	14515.13
849.607	14420.44
849.931	14362.14
850.254	14289.37
850.577	14233.55
850.9	14085.08
851.223	14130.96
851.546	14059.77
851.869	13984.07
852.192	13995.37
852.515	13906.56
852.838	13841.7
853.161	13878.76
853.483	13796.5
853.806	13679.67
854.129	13610.29
854.451	13596.73
854.774	13509.73
855.096	13535.27
855.419	13490.07
855.741	13491.88
856.063	13358.1
856.385	13299.11
856.708	13284.2
857.03	13238.55
857.352	13304.31
857.674	13199.91
857.996	13205.56
858.318	13151.55
858.64	13138.44
858.961	13051.21
859.283	13073.58
859.605	12929.86
859.926	12957.43
860.248	12971.44
860.57	12917.88
860.891	12976.64
861.212	12835.85
861.534	12801.05
861.855	12774.38
862.176	12815.51
862.498	12798.34
862.819	12714.04
863.14	12717.89
863.461	12679.24
863.782	12636.31
864.103	12663.88
864.424	12677.89
864.745	12665.23
865.065	12657.77
865.386	12599.02
865.707	12575.97
866.027	12595.63
866.348	12410.78
866.668	12580.26
866.989	12421.17
867.309	12412.36
867.63	12434.28
867.95	12418.01
868.27	12335.98
868.59	12338.01
868.91	12332.13
869.23	12397.89
869.55	12231.12
869.87	12351.57
870.19	12346.82
870.51	12299.14
870.83	12301.17
871.15	12240.38
871.469	12247.39
871.789	12324.68
872.109	12172.59
872.428	12148.64
872.748	12202.87
873.067	12202.42
873.386	12186.15
873.706	12145.92
874.025	12092.82
874.344	12086.72
874.663	12058.02
874.982	12020.96
875.301	12094.63
875.62	12048.53
875.939	11981.63
876.258	11987.51
876.577	12018.92
876.896	11976.21
877.214	11914.74
877.533	11916.78
877.852	11974.18
878.17	11962.88
878.489	11914.97
878.807	11958.58
879.125	11929.66
879.444	11941.18
879.762	11858.47
880.08	11888.53
880.398	11852.37
880.716	11835.2
881.034	11837.23
881.352	11799.94
881.67	11674.98
881.988	11743.9
882.306	11674.07
882.624	11679.72
882.941	11626.84
883.259	11642.66
883.577	11552.94
883.894	11502.55
884.212	11625.03
884.529	11550.91
884.846	11426.85
885.164	11506.39
885.481	11362.89
885.798	11458.03
886.115	11336.45
886.432	11352.5
886.75	11381.2
887.067	11293.29
887.383	11310.69
887.7	11301.65
888.017	11307.53
888.334	11281.09
888.651	11166.51
888.967	11200.41
889.284	11152.05
889.6	11067.08
889.917	11005.84
890.233	11034.09
890.55	11025.5
890.866	10933.53
891.182	10944.37
891.498	10945.5
891.815	10932.4
892.131	10941.89
892.447	10915
892.763	10819.18
893.079	10831.38
893.395	10732.4
893.71	10767.65
894.026	10752.97
894.342	10686.53
894.657	10572.86
894.973	10625.96
895.289	10661.22
895.604	10571.05
895.92	10538.96
896.235	10572.18
896.55	10592.29
896.865	10515.68
897.181	10397.95
897.496	10384.39
897.811	10388
898.126	10319.53
898.441	10293.09
898.756	10274.79
899.071	10243.6
899.386	10296.48
899.7	10248.57
900.015	10212.42
900.33	10081.57
900.644	10169.7
900.959	10147.33
901.273	10087.67
901.588	10015.58
901.902	10010.16
902.216	9892.2
902.531	9873.21
902.845	9915.02
903.159	9940.11
903.473	9863.27
903.787	9871.63
904.101	9716.16
904.415	9833.44
904.729	9848.58
905.042	9755.03
905.356	9685.2
905.67	9681.36
905.984	9663.95
906.297	9609.49
906.611	9567.69
906.924	9522.49
907.237	9502.83
907.551	9494.69
907.864	9439.33
908.177	9463.51
908.491	9445.66
908.804	9275.04
909.117	9285.89
909.43	9281.14
909.743	9225.77
910.056	9259.45
910.368	9166.79
910.681	9147.36
910.994	9110.98
911.307	8995.95
911.619	8948.04
911.932	8957.98
912.244	8967.93
912.557	8920.92
912.869	8879.12
913.181	8875.95
913.494	8741.72
913.806	8722.06
914.118	8730.19
914.43	8721.38
914.742	8711.66
915.054	8709.4
915.366	8664.89
915.678	8591.21
915.99	8626.24
916.302	8490.2
916.613	8498.34
916.925	8505.79
917.236	8455.85
917.548	8391.9
917.859	8454.72
918.171	8279.58
918.482	8241.17
918.794	8231.9
919.105	8252.47
919.416	8150.32
919.727	8151.9
920.038	8112.13
920.349	8062.42
920.66	8067.39
920.971	8053.38
921.282	7986.71
921.593	7985.81
921.903	7907.62
922.214	7932.48
922.525	7870.78
922.835	7832.59
923.146	7808.41
923.456	7738.36
923.767	7711.24
924.077	7796.89
924.387	7746.49
924.697	7683.89
925.008	7600.28
925.318	7563.9
925.628	7549.21
925.938	7519.83
926.248	7427.63
926.558	7429.89
926.867	7418.36
927.177	7427.4
927.487	7413.17
927.796	7355.32
928.106	7288.2
928.416	7254.3
928.725	7300.4
929.034	7263.11
929.344	7275.09
929.653	7192.16
929.962	7129.56
930.271	7157.35
930.581	7101.99
930.89	7094.76
931.199	6979.73
931.508	6998.49
931.817	7024.02
932.125	6994.65
932.434	6988.32
932.743	6850.92
933.051	6878.72
933.36	6871.71
933.669	6812.28
933.977	6796.01
934.286	6746.52
934.594	6692.96
934.902	6650.25
935.21	6619.29
935.519	6624.71
935.827	6634.66
936.135	6572.06
936.443	6533.42
936.751	6497.71
937.059	6499.07
937.367	6491.83
937.674	6448.67
937.982	6434.21
938.29	6426.98
938.597	6372.52
938.905	6253.88
939.213	6334.1
939.52	6295.46
939.827	6305.17
940.135	6241.22
940.442	6233.31
940.749	6217.27
941.056	6200.09
941.363	6101.11
941.67	6083.26
941.977	6012.75
942.284	5999.87
942.591	6019.98
942.898	5966.2
943.205	6006.2
943.511	5969.14
943.818	5929.14
944.125	5898.18
944.431	5882.13
944.738	5873.09
945.044	5825.19
945.35	5838.74
945.657	5773.89
945.963	5766.88
946.269	5702.25
946.575	5739.31
946.881	5704.06
947.187	5653.89
947.493	5631.74
947.799	5671.29
948.105	5579.32
948.41	5559.88
948.716	5543.16
949.022	5497.28
949.327	5518.08
949.633	5450.28
949.938	5443.05
950.244	5451.41
950.549	5394.24
950.854	5359.89
951.16	5419.32
951.465	5309.72
951.77	5333.45
952.075	5283.96
952.38	5288.7
952.685	5215.71
952.99	5257.29
953.294	5238.08
953.599	5152.89
953.904	5174.13
954.209	5161.02
954.513	5080.8
954.818	5113.57
955.122	5071.53
955.426	5091.65
955.731	5041.93
956.035	5041.48
956.339	5008.03
956.643	4926.9
956.948	4951.08
957.252	4878.09
957.556	4915.61
957.86	4904.31
958.163	4819.34
958.467	4869.28
958.771	4893.68
959.075	4864.31
959.378	4806.46
959.682	4740.69
959.985	4740.69
960.289	4726.68
960.592	4692.79
960.896	4674.93
961.199	4641.04
961.502	4689.17
961.805	4594.71
962.108	4634.03
962.411	4582.28
962.714	4573.24
963.017	4563.98
963.32	4538.89
963.623	4502.51
963.926	4524.88
964.228	4485.33
964.531	4463.87
964.833	4434.26
965.136	4428.16
965.438	4443.08
965.741	4385.22
966.043	4352.46
966.345	4336.86
966.648	4340.93
966.95	4304.77
967.252	4285.11
967.554	4292.57
967.856	4264.55
968.158	4220.48
968.46	4194.04
968.761	4214.38
969.063	4205.79
969.365	4155.17
969.666	4161.27
969.968	4102.07
970.269	4109.52
970.571	4133.03
970.872	4066.14
971.174	4055.74
971.475	4039.02
971.776	4065.68
972.077	4044.22
972.378	3992.01
972.679	3962.18
972.98	3951.11
973.281	3934.39
973.582	3978.91
973.883	3870.43
974.183	3905.91
974.484	3907.72
974.785	3881.06
975.085	3855.75
975.386	3832.7
975.686	3838.35
975.986	3802.41
976.287	3797.67
976.587	3757.44
976.887	3745.47
977.187	3740.27
977.487	3738.01
977.787	3711.12
978.087	3700.72
978.387	3658.69
978.687	3656.66
978.987	3693.49
979.286	3660.05
979.586	3665.47
979.885	3598.8
980.185	3603.1
980.484	3578.92
980.784	3572.36
981.083	3497.56
981.382	3516.55
981.682	3535.75
981.981	3543.89
982.28	3516.55
982.579	3453.95
982.878	3474.97
983.177	3444.01
983.475	3430.9
983.774	3405.59
984.073	3427.28
984.372	3397.91
984.67	3389.54
984.969	3384.57
985.267	3347.51
985.566	3378.47
985.864	3333.27
986.162	3307.29
986.461	3287.85
986.759	3304.35
987.057	3247.63
987.355	3267.51
987.653	3223.22
987.951	3225.71
988.249	3206.72
988.547	3199.72
988.844	3180.06
989.142	3155.65
989.44	3128.31
989.737	3119.72
990.035	3116.78
990.332	3106.61
990.63	3095.09
990.927	3066.61
991.224	3012.6
991.521	3028.88
991.819	3002.21
992.116	2996.33
992.413	2974.19
992.71	3001.98
993.006	2945.71
993.303	2937.8
993.6	2898.48
993.897	2921.53
994.193	2897.35
994.49	2891.48
994.787	2879.73
995.083	2830.69
995.379	2835.66
995.676	2826.17
995.972	2839.73
996.268	2792.95
996.565	2823.91
996.861	2758.37
997.157	2787.53
997.453	2766.96
997.749	2728.54
998.044	2726.96
998.34	2715.21
998.636	2722.22
998.932	2678.38
999.227	2722.44
999.523	2687.87
999.818	2665.95
1000.114	2630.02
1000.409	2629.34
1000.704	2613.07
1001	2576.46
1001.295	2605.38
1001.59	2581.88
1001.885	2548.44
1002.18	2540.75
1002.475	2546.4
1002.77	2536.68
1003.065	2508.44
1003.359	2492.17
1003.654	2470.92
1003.949	2484.93
1004.243	2475.44
1004.538	2416.24
1004.832	2420.98
1005.127	2437.03
1005.421	2383.02
1005.715	2378.72
1006.009	2370.14
1006.304	2359.51
1006.598	2360.42
1006.892	2337.82
1007.186	2305.5
1007.48	2280.42
1007.773	2291.04
1008.067	2286.07
1008.361	2267.54
1008.655	2255.34
1008.948	2262.34
1009.242	2187.99
1009.535	2204.94
1009.829	2192.06
1010.122	2217.6
1010.415	2176.24
1010.708	2143.7
1011.001	2127.88
1011.295	2159.75
1011.588	2150.93
1011.881	2122.68
1012.173	2072.97
1012.466	2102.57
1012.759	2073.65
1013.052	2090.59
1013.344	2048.11
1013.637	2018.73
1013.93	2034.33
1014.222	2046.3
1014.514	2017.6
1014.807	1992.97
1015.099	1979.19
1015.391	1977.6
1015.683	1972.41
1015.976	1973.08
1016.268	1941.9
1016.56	1931.05
1016.851	1893.99
1017.143	1895.12
1017.435	1907.1
1017.727	1882.69
1018.018	1882.92
1018.31	1816.25
1018.602	1883.37
1018.893	1817.38
1019.185	1814.9
1019.476	1826.87
1019.767	1796.37
1020.058	1785.07
1020.35	1781.45
1020.641	1776.7
1020.932	1724.5
1021.223	1715.46
1021.514	1722.69
1021.804	1723.6
1022.095	1711.85
1022.386	1704.16
1022.677	1662.81
1022.967	1683.37
1023.258	1628.46
1023.548	1627.33
1023.839	1649.25
1024.129	1641.12
1024.419	1576.94
1024.709	1624.39
1025	1591.62
1025.29	1574.22
1025.58	1581.46
1025.87	1556.6
1026.16	1557.73
1026.449	1557.95
1026.739	1522.47
1027.029	1523.83
1027.319	1510.95
1027.608	1515.02
1027.898	1497.62
1028.187	1479.31
1028.477	1459.42
1028.766	1449.93
1029.055	1447.9
1029.344	1423.27
1029.634	1438.41
1029.923	1408.58
1030.212	1411.74
1030.501	1405.64
1030.79	1410.84
1031.078	1361.8
1031.367	1369.71
1031.656	1353.66
1031.945	1348.69
1032.233	1348.47
1032.522	1332.65
1032.81	1338.3
1033.099	1325.87
1033.387	1300.33
1033.675	1313.44
1033.963	1307.34
1034.251	1283.16
1034.54	1251.97
1034.828	1258.75
1035.116	1251.29
1035.403	1232.31
1035.691	1229.37
1035.979	1217.85
1036.267	1237.96
1036.554	1212.43
1036.842	1203.39
1037.129	1204.06
1037.417	1166.33
1037.704	1179.43
1037.992	1182.14
1038.279	1161.58
1038.566	1154.35
1038.853	1154.35
1039.14	1154.35
