Data from aluminium_surface_pro_back_FLMS001491_00060.txt Node
Date: Wed Feb 08 15:34:16 GMT 2017
User: dcchb
Spectrometer: FLMS00149
Trigger mode: 0
Integration Time (sec): 2.000000E-2
Scans to average: 10
Electric dark correction enabled: true
Nonlinearity correction enabled: false
Boxcar width: 0
XAxis mode: Wavelengths
Number of Pixels in Spectrum: 2048
>>>>>Begin Spectral Data<<<<<
341.393	-19.41
341.776	-19.41
342.16	-19.41
342.543	-73.19
342.927	-77.94
343.31	-64.38
343.693	-74.32
344.077	-66.64
344.46	-69.57
344.843	-65.28
345.226	-48.56
345.61	-37.26
345.993	-16.92
346.376	-10.59
346.759	0.71
347.142	53.13
347.525	40.93
347.908	73.25
348.291	77.31
348.674	90.42
349.057	117.77
349.44	136.52
349.823	129.97
350.206	169.52
350.588	216.75
350.971	245.67
351.354	241.38
351.737	253.58
352.119	263.52
352.502	302.17
352.884	317.31
353.267	296.74
353.65	333.8
354.032	355.27
354.414	328.83
354.797	333.35
355.179	366.35
355.562	351.43
355.944	379.45
356.326	366.57
356.709	382.39
357.091	364.31
357.473	364.31
357.855	361.37
358.238	395.5
358.62	372.45
359.002	376.06
359.384	373.13
359.766	374.03
360.148	374.71
360.53	358.89
360.912	381.49
361.294	360.47
361.676	384.2
362.057	387.59
362.439	385.33
362.821	377.19
363.203	389.85
363.584	349.4
363.966	359.11
364.348	352.79
364.729	364.76
365.111	369.28
365.493	362.96
365.874	366.8
366.256	380.58
366.637	363.18
367.019	370.41
367.4	367.48
367.781	375.61
368.163	369.28
368.544	347.36
368.925	369.28
369.306	394.59
369.688	351.66
370.069	391.2
370.45	396.4
370.831	371.77
371.212	386.01
371.593	406.57
371.974	386.91
372.355	389.85
372.736	390.3
373.117	411.09
373.498	374.26
373.879	378.78
374.26	371.54
374.641	391.2
375.021	381.04
375.402	403.86
375.783	414.25
376.163	437.53
376.544	407.25
376.925	410.41
377.305	408.38
377.686	422.39
378.066	419.45
378.447	457.42
378.827	407.02
379.208	433.01
379.588	457.42
379.968	444.76
380.349	445.21
380.729	461.94
381.109	461.26
381.489	440.24
381.87	459.23
382.25	457.42
382.63	465.55
383.01	469.62
383.39	482.05
383.77	467.36
384.15	476.17
384.53	487.47
384.91	473.24
385.29	500.35
385.67	488.15
386.049	489.51
386.429	516.85
386.809	516.17
387.189	543.52
387.568	513.24
387.948	520.92
388.328	511.65
388.707	545.78
389.087	546.68
389.466	550.07
389.846	541.71
390.225	554.36
390.605	553.69
390.984	554.36
391.363	543.97
391.743	590.75
392.122	585.1
392.501	607.47
392.881	587.36
393.26	626.23
393.639	614.25
394.018	641.82
394.397	629.39
394.776	647.69
395.155	628.03
395.534	627.81
395.913	654.7
396.292	668.94
396.671	666.23
397.05	675.49
397.429	684.53
397.808	676.85
398.186	699.9
398.565	696.28
398.944	712.55
399.323	730.18
399.701	710.74
400.08	729.73
400.458	718.88
400.837	734.47
401.215	747.58
401.594	717.07
401.972	764.08
402.351	750.74
402.729	784.87
403.107	788.93
403.486	820.8
403.864	801.36
404.242	827.13
404.62	834.36
404.999	827.35
405.377	849.5
405.755	878.2
406.133	864.19
406.511	850.4
406.889	888.37
407.267	921.36
407.645	926.78
408.023	925.43
408.401	935.37
408.779	959.33
409.156	972.66
409.534	991.19
409.912	980.12
410.29	992.09
410.667	1002.26
411.045	1016.27
411.422	1047.01
411.8	1052.43
412.178	1057.63
412.555	1096.95
412.933	1107.57
413.31	1109.6
413.687	1114.12
414.065	1160.45
414.442	1144.4
414.819	1172.65
415.197	1158.42
415.574	1191.86
415.951	1211.07
416.328	1206.1
416.705	1217.4
417.082	1223.72
417.46	1261.92
417.837	1256.04
418.214	1279.32
418.591	1298.3
418.967	1321.12
419.344	1319.54
419.721	1341.91
420.098	1319.54
420.475	1365.87
420.852	1359.99
421.228	1386.88
421.605	1394.57
421.982	1393.66
422.358	1408.13
422.735	1431.18
423.111	1428.69
423.488	1466.66
423.864	1476.37
424.241	1523.38
424.617	1543.49
424.994	1539.42
425.37	1535.58
425.746	1555.24
426.123	1595.92
426.499	1594.79
426.875	1614
427.251	1608.35
427.627	1661.68
428.003	1664.17
428.379	1699.42
428.756	1727.89
429.132	1742.58
429.507	1781
429.883	1786.65
430.259	1855.35
430.635	1837.49
431.011	1853.76
431.387	1891.05
431.763	1943.93
432.138	1939.19
432.514	1939.86
432.89	1980.32
433.265	2042.91
433.641	2030.94
434.016	2054.44
434.392	2076.13
434.767	2158.84
435.143	2130.37
435.518	2175.34
435.894	2184.15
436.269	2205.39
436.644	2243.59
437.02	2262.57
437.395	2307.76
437.77	2308.22
438.145	2349.57
438.52	2397.71
438.895	2415.11
439.271	2395.9
439.646	2481.09
440.021	2489
440.395	2463.01
440.77	2482
441.145	2473.18
441.52	2573.52
441.895	2521.09
442.27	2584.59
442.645	2606.51
443.019	2619.39
443.394	2637.47
443.769	2673.4
444.143	2654.65
444.518	2717.02
444.892	2693.52
445.267	2745.27
445.641	2734.87
446.016	2751.37
446.39	2818.03
446.764	2816.9
447.139	2810.8
447.513	2862.78
447.887	2891.7
448.262	2875.88
448.636	2918.37
449.01	2981.42
449.384	2951.59
449.758	2968.54
450.132	3030.91
450.506	3069.33
450.88	3057.8
451.254	3072.04
451.628	3124.24
452.002	3148.65
452.376	3199.72
452.75	3236.33
453.123	3255.08
453.497	3325.59
453.871	3345.93
454.244	3389.54
454.618	3376.89
454.992	3439.03
455.365	3476.1
455.739	3596.54
456.112	3625.24
456.486	3668.41
456.859	3666.6
457.232	3795.63
457.606	3727.84
457.979	3783.21
458.352	3895.52
458.725	3932.58
459.099	3913.6
459.472	3996.53
459.845	4066.81
460.218	4086.93
460.591	4156.3
460.964	4139.35
461.337	4296.41
461.71	4323.53
462.083	4373.7
462.456	4473.58
462.829	4435.17
463.201	4549.29
463.574	4541.83
463.947	4584.54
464.32	4695.72
464.692	4743.86
465.065	4807.36
465.438	4839
465.81	4928.26
466.183	4973.23
466.555	5111.53
466.928	5142.72
467.3	5095.94
467.672	5197.63
468.045	5348.36
468.417	5335.03
468.789	5391.07
469.161	5476.49
469.534	5554.23
469.906	5699.09
470.278	5641.01
470.65	5790.84
471.022	5933.21
471.394	6002.58
471.766	6083.71
472.138	6147.21
472.51	6295.68
472.882	6390.14
473.253	6407.32
473.625	6530.25
473.997	6664.49
474.369	6752.17
474.74	6742.68
475.112	6940.41
475.484	7036.68
475.855	7167.75
476.227	7215.43
476.598	7408.87
476.97	7534.07
477.341	7662.2
477.713	7754.17
478.084	7814.96
478.455	8080.04
478.827	8149.87
479.198	8356.19
479.569	8357.1
479.94	8627.82
480.311	8672.79
480.682	8882.05
481.053	9129.05
481.424	9218.32
481.795	9363.62
482.166	9565.2
482.537	9627.57
482.908	9895.59
483.279	9825.76
483.65	10103.72
484.021	10347.33
484.391	10410.6
484.762	10485.18
485.133	10676.36
485.503	10780.76
485.874	11036.8
486.244	11150.47
486.615	11239.51
486.985	11449.67
487.356	11630.46
487.726	11771.24
488.097	12025.47
488.467	12027.28
488.837	12392.47
489.207	12480.38
489.578	12662.52
489.948	12772.57
490.318	12983.42
490.688	13012.12
491.058	13227.03
491.428	13458.21
491.798	13586.56
492.168	13772.32
492.538	13984.52
492.908	14051.41
493.278	14314.91
493.648	14340.22
494.017	14536.14
494.387	14689.13
494.757	14801.22
495.126	14955.57
495.496	15104.04
495.866	15130.48
496.235	15400.53
496.605	15579.51
496.974	15638.94
497.344	15704.02
497.713	15905.6
498.082	15992.6
498.452	16151.69
498.821	16230.11
499.19	16447.05
499.559	16491.8
499.928	16613.6
500.298	16755.75
500.667	17043.65
501.036	16933.37
501.405	17077.09
501.774	17208.84
502.143	17406.12
502.512	17461.94
502.88	17625.55
503.249	17652.22
503.618	17779.67
503.987	17876.17
504.356	18018.99
504.724	18043.17
505.093	18210.4
505.462	18270.28
505.83	18428.92
506.199	18543.27
506.567	18905.29
506.936	18835.01
507.304	19095.57
507.672	19061.22
508.041	19199.52
508.409	19545.05
508.777	19569.46
509.145	19730.58
509.514	19841.09
509.882	19881.54
510.25	20098.71
510.618	20300.06
510.986	20292.6
511.354	20562.65
511.722	20796.54
512.09	20999.25
512.458	20913.83
512.826	21156.76
513.193	21248.28
513.561	21441.5
513.929	21500.48
514.297	21798.33
514.664	21872.22
515.032	22052.78
515.4	22112.67
515.767	22325.09
516.135	22362.38
516.502	22474.92
516.869	22866.77
517.237	22966.43
517.604	23074
517.972	23312.86
518.339	23392.41
518.706	23433.99
519.073	23712.4
519.44	23753.98
519.808	24085.72
520.175	24069.45
520.542	24539.27
520.909	24659.04
521.276	24674.41
521.643	24949.88
522.009	25157.33
522.376	25299.48
522.743	25473.93
523.11	25667.38
523.477	26072.56
523.843	26141.94
524.21	26503.06
524.577	26687.24
524.943	26729.72
525.31	26979.21
525.676	27281.57
526.043	27471.62
526.409	27663.93
526.776	27960.42
527.142	27916.36
527.508	28133.75
527.874	28498.49
528.241	28643.57
528.607	28759.05
528.973	28910
529.339	28974.63
529.705	29262.99
530.071	29516.54
530.437	29620.72
530.803	29948.17
531.169	30022.29
531.535	30171.44
531.901	30299.57
532.267	30319.46
532.632	30537.76
532.998	30558.32
533.364	30871.53
533.73	30984.3
534.095	31191.07
534.461	31236.04
534.826	31404.63
535.192	31510.84
535.557	31727.1
535.923	31803.03
536.288	32031.95
536.653	32206.64
537.019	32191.72
537.384	32264.04
537.749	32466.75
538.114	32486.18
538.479	32742.67
538.845	32889.78
539.21	32834.19
539.575	33141.76
539.94	33145.82
540.305	33335.2
540.67	33296.78
541.034	33426.95
541.399	33530.9
541.764	33591.69
542.129	33752.14
542.494	33935.41
542.858	34104.22
543.223	34066.03
543.587	34303.31
543.952	34268.51
544.316	34479.35
544.681	34438.22
545.045	34687.25
545.41	34886.34
545.774	34903.07
546.138	35044.98
546.503	35078.65
546.867	35104.87
547.231	35470.06
547.595	35427.57
547.959	35602.26
548.324	35647
548.688	35803.61
549.052	35945.52
549.416	36063.94
549.779	36162.69
550.143	36122.47
550.507	36514.1
550.871	36479.75
551.235	36652.17
551.599	36790.7
551.962	36899.85
552.326	37018.26
552.689	37266.39
553.053	37095.55
553.417	37270.01
553.78	37830.45
554.143	37655.54
554.507	37949.76
554.87	37925.81
555.234	38411.22
555.597	38147.95
555.96	38484.44
556.323	38584.78
556.686	38660.03
557.05	39131.2
557.413	39060.7
557.776	39299.79
558.139	39571.42
558.502	39599.66
558.865	39713.33
559.228	39999.2
559.59	40133.89
559.953	40147.67
560.316	40558.28
560.679	40597.83
561.041	40973.19
561.404	41196.91
561.767	41357.81
562.129	41163.47
562.492	41760.51
562.854	41722.55
563.217	41838.25
563.579	41938.36
563.941	42229.2
564.304	42468.29
564.666	42770.66
565.028	42753.48
565.39	42963.64
565.753	43067.37
566.115	43367.7
566.477	43599.33
566.839	43581.48
567.201	43974.01
567.563	44090.85
567.925	44312.76
568.287	44392.76
568.648	44566.54
569.01	44873.88
569.372	45121.33
569.734	44869.81
570.095	45231.16
570.457	45338.27
570.819	45638.38
571.18	45664.14
571.542	45927.86
571.903	46017.58
572.265	46199.72
572.626	46310.22
572.987	46366.94
573.349	46515.64
573.71	46770.32
574.071	46865.01
574.432	46927.16
574.794	47234.94
575.155	47286.47
575.516	47239.46
575.877	47409.63
576.238	47477.65
576.599	47673.35
576.96	47776.85
577.32	47791.99
577.681	47842.16
578.042	48137.97
578.403	47990.4
578.763	48091.87
579.124	48276.05
579.485	48490.96
579.845	48586.1
580.206	48476.72
580.566	48534.12
580.927	48541.8
581.287	48811.63
581.648	48599.65
582.008	48839.65
582.368	48733.21
582.728	48792.19
583.089	48831.29
583.449	48869.93
583.809	48964.62
584.169	49008.23
584.529	48888.01
584.889	49178.4
585.249	49010.72
585.609	48921.23
585.969	49203.48
586.329	49109.47
586.688	49216.36
587.048	49123.71
587.408	49021.11
587.768	49161.22
588.127	49121.22
588.487	48998.97
588.846	49306.53
589.206	49103.14
589.565	49132.07
589.925	49287.55
590.284	49224.95
590.643	49322.8
591.003	49329.8
591.362	49434.21
591.721	49309.92
592.08	49212.29
592.44	49488.22
592.799	49457.03
593.158	49350.6
593.517	49423.81
593.876	49468.11
594.235	49376.81
594.593	49620.64
594.952	49520.53
595.311	49518.73
595.67	49657.71
596.029	49818.83
596.387	49705.16
596.746	49804.82
597.104	49730.47
597.463	49628.55
597.822	49759.85
598.18	49623.58
598.538	49671.26
598.897	49887.53
599.255	49540.19
599.613	50036.23
599.972	49810.47
600.33	49868.55
600.688	49760.08
601.046	49954.19
601.404	50150.57
601.762	50072.38
602.12	50107.86
602.478	49963.91
602.836	50060.86
603.194	49968.21
603.552	50022.89
603.91	49862.45
604.268	50222.44
604.625	50006.4
604.983	50287.52
605.341	50127.07
605.698	50338.59
606.056	50419.04
606.413	50343.56
606.771	50520.73
607.128	50433.05
607.485	50342.66
607.843	50389.21
608.2	50614.29
608.557	50673.72
608.914	50482.54
609.272	50680.96
609.629	50724.8
609.986	50886.6
610.343	50617.68
610.7	50927.5
611.057	50835.98
611.414	50770.22
611.771	50873.94
612.127	50981.29
612.484	50904
612.841	51023.32
613.198	50888.86
613.554	50938.58
613.911	51118.91
614.267	51117.55
614.624	51193.03
614.98	51257.66
615.337	51401.39
615.693	51301.96
616.05	51282.52
616.406	51514.15
616.762	51354.16
617.118	51311.67
617.475	51405
617.831	51473.7
618.187	51472.8
618.543	51516.87
618.899	51710.98
619.255	51698.56
619.611	51616.3
619.967	51742.85
620.323	51779.23
620.678	51694.04
621.034	51627.6
621.39	51501.5
621.746	51534.94
622.101	51907.59
622.457	51702.4
622.812	51781.04
623.168	51809.51
623.523	51841.15
623.879	51925.67
624.234	51613.59
624.589	51777.65
624.945	51842.28
625.3	51893.81
625.655	51808.38
626.01	51796.18
626.365	51828.27
626.72	51828.95
627.075	51761.83
627.43	51784.2
627.785	51747.82
628.14	51762.74
628.495	51718.22
628.85	51741.27
629.205	51591.89
629.559	51775.16
629.914	51531.33
630.269	51630.31
630.623	51494.27
630.978	51455.62
631.332	51540.14
631.687	51566.81
632.041	51372.24
632.396	51377.66
632.75	51374.5
633.104	51325.01
633.459	51206.59
633.813	51156.88
634.167	51164.56
634.521	51148.97
634.875	51213.82
635.229	51129.08
635.583	50953.72
635.937	51117.55
636.291	51014.96
636.645	50971.8
636.999	50838.24
637.352	50911.01
637.706	50727.73
638.06	50831.01
638.413	50757.11
638.767	50609.32
639.121	50725.02
639.474	50450.68
639.828	50474.18
640.181	50457.91
640.534	50605.25
640.888	50483.22
641.241	50379.72
641.594	50311.93
641.947	50435.54
642.301	50311.93
642.654	50355.99
643.007	50322.77
643.36	50328.42
643.713	50114.19
644.066	50264.92
644.419	50037.81
644.771	49723.69
645.124	49370.26
645.477	49297.04
645.83	49179.98
646.182	48993.99
646.535	48837.84
646.888	48943.37
647.24	48752.42
647.593	48978.4
647.945	48715.81
648.298	48589.26
648.65	48545.87
649.002	48455.48
649.355	48601.01
649.707	48642.82
650.059	48721.23
650.411	49029.25
650.763	49181.11
651.115	49485.73
651.467	49254.55
651.819	49170.49
652.171	49189.47
652.523	49103.14
652.875	49050.49
653.227	48936.37
653.578	49197.6
653.93	49119.19
654.282	48768.24
654.633	48646.43
654.985	48801
655.337	48703.61
655.688	48573.21
656.039	48771.85
656.391	48448.25
656.742	48466.32
657.094	48502.48
657.445	48729.59
657.796	48501.58
658.147	48374.35
658.498	48521.01
658.849	48442.6
659.2	48480.11
659.551	48288.48
659.902	48357.63
660.253	48428.81
660.604	48371.64
660.955	48305.88
661.306	48375.48
661.656	48332.09
662.007	48249.83
662.358	48368.93
662.708	48370.06
663.059	48238.99
663.409	48008.94
663.76	48435.36
664.11	48281.47
664.461	48247.35
664.811	48302.26
665.161	48168.25
665.511	48097.07
665.862	48100.91
666.212	48046.22
666.562	48195.37
666.912	48046.9
667.262	47948.6
667.612	48177.52
667.962	48063.4
668.312	47969.16
668.662	48255.03
669.011	48146.78
669.361	47970.74
669.711	47957.41
670.06	47992.44
670.41	47839
670.76	47868.83
671.109	47941.82
671.459	47782.27
671.808	47915.83
672.157	47833.8
672.507	47639
672.856	47688.72
673.205	47880.35
673.554	47884.87
673.904	47725.1
674.253	47853.69
674.602	47711.77
674.951	47032.24
675.3	46965.57
675.649	47384.55
675.998	47466.35
676.346	47522.39
676.695	47733.01
677.044	47223.65
677.393	47245.79
677.741	47494.82
678.09	47144.1
678.438	47227.04
678.787	47292.12
679.135	47292.34
679.484	46927.83
679.832	47133.03
680.181	46893.48
680.529	46900.94
680.877	46826.14
681.225	46886.25
681.573	46973.26
681.922	46688.29
682.27	46507.05
682.618	46625.92
682.966	46567.17
683.314	46642.64
683.661	46427.28
684.009	46260.28
684.357	46140.51
684.705	46087.18
685.053	46111.13
685.4	46028.42
685.748	45785.27
686.095	45798.6
686.443	45614.2
686.79	45526.74
687.138	45688.09
687.485	45508.21
687.832	45411.72
688.18	45520.19
688.527	45061.22
688.874	45271.83
689.221	45217.14
689.568	45018.28
689.915	44882.24
690.262	44843.59
690.609	44919.3
690.956	44796.82
691.303	44727.89
691.65	44429.37
691.997	44330.84
692.344	44275.93
692.69	44183.5
693.037	44295.59
693.383	43962.04
693.73	44011.53
694.077	43671.2
694.423	43793.45
694.769	43559.11
695.116	43514.82
695.462	43448.38
695.808	43285.22
696.155	43435.04
696.501	43055.62
696.847	42977.43
697.193	42738.57
697.539	42895.4
697.885	42525.92
698.231	42396.43
698.577	42378.35
698.923	42275.75
699.269	42236.43
699.614	41888.87
699.96	41901.53
700.306	41795.77
700.651	41525.94
700.997	41444.81
701.342	41472.84
701.688	41455.66
702.033	41450.92
702.379	41266.97
702.724	41173.41
703.069	41049.8
703.415	40830.37
703.76	40959.4
704.105	40899.52
704.45	40626.53
704.795	40326.88
705.14	40332.08
705.485	40306.99
705.83	40060.67
706.175	40063.83
706.52	39873.33
706.865	39729.38
707.209	39746.55
707.554	39634.01
707.899	39612.32
708.243	39461.82
708.588	39419.1
708.932	39116.29
709.277	39227.92
709.621	39031.32
709.966	38612.35
710.31	38907.93
710.654	38457.32
710.998	38718.78
711.342	38529.18
711.687	38425.23
712.031	38319.7
712.375	38175.75
712.719	38149.99
713.063	38152.92
713.407	38292.58
713.75	38047.39
714.094	37895.08
714.438	37902.08
714.782	37957.67
715.125	37661.86
715.469	37681.52
715.812	37618.7
716.156	37367.18
716.499	37466.61
716.843	37484.69
717.186	37228.2
717.53	37335.77
717.873	37287.86
718.216	37286.05
718.559	37058.04
718.902	36775.33
719.246	36900.07
719.589	36699.85
719.932	36517.71
720.275	36585.96
720.617	36518.62
720.96	36324.04
721.303	36337.83
721.646	36325.4
721.989	36077.95
722.331	36187.1
722.674	36121.79
723.016	36106.88
723.359	35914.34
723.701	35959.99
724.044	35708.92
724.386	35685.87
724.729	35820.1
725.071	35461.24
725.413	35542.6
725.755	35547.79
726.097	35373.56
726.439	35212.44
726.782	35244.98
727.124	35236.62
727.465	35086.34
727.807	35107.13
728.149	34971.54
728.491	34863.74
728.833	34995.04
729.175	34816.29
729.516	34761.15
729.858	34750.75
730.199	34753.92
730.541	34750.53
730.882	34546.46
731.224	34828.72
731.565	34486.81
731.906	34544.66
732.248	34367.03
732.589	34284.1
732.93	34168.85
733.271	34213.82
733.612	34243.87
733.953	34182.63
734.294	33983.99
734.635	33941.51
734.976	34093.37
735.317	33681.18
735.658	33788.52
735.999	33778.58
736.339	33668.97
736.68	33775.86
737.021	33720.5
737.361	33447.28
737.702	33519.37
738.042	33476.66
738.383	33333.62
738.723	33330.23
739.063	33277.8
739.404	33208.42
739.744	33204.13
740.084	32951.03
740.424	33074.86
740.764	32999.61
741.104	33019.95
741.444	32811.82
741.784	32688.43
742.124	32832.84
742.464	32641.43
742.804	32586.97
743.143	32497.7
743.483	32443.92
743.823	32300.87
744.162	32277.37
744.502	32269.01
744.841	32142.01
745.181	32216.58
745.52	32079.64
745.86	32009.13
746.199	31975.23
746.538	31918.06
746.877	32033.31
747.216	31840.77
747.556	31664.96
747.895	31830.6
748.234	31671.96
748.573	31596.49
748.911	31726.43
749.25	31505.19
749.589	31487.34
749.928	31336.83
750.267	31456.38
750.605	31303.61
750.944	31283.05
751.283	31085.99
751.621	31151.75
751.96	31020.46
752.298	30928.48
752.636	30987.24
752.975	30778.2
753.313	30708.6
753.651	30846.45
753.989	30681.71
754.327	30702.5
754.666	30440.36
755.004	30622.73
755.342	30566
755.679	30377.53
756.017	30250.98
756.355	30297.99
756.693	30193.81
757.031	30057.09
757.368	29972.35
757.706	29869.75
758.044	29890.32
758.381	29911.33
758.719	29787.27
759.056	29621.62
759.394	29585.47
759.731	29389.09
760.068	29306.6
760.405	29236.1
760.743	29067.74
761.08	29197
761.417	28971.92
761.754	28921.75
762.091	28843.56
762.428	28790.68
762.765	28526.51
763.102	28606.06
763.438	28530.35
763.775	28254.88
764.112	28331.49
764.449	28310.92
764.785	28089.23
765.122	27996.35
765.458	27876.58
765.795	27788
766.131	27742.58
766.467	27718.62
766.804	27379.87
767.14	27301.68
767.476	27280.44
767.812	27101.91
768.148	27148.01
768.485	26937.63
768.821	26826.89
769.157	26866.89
769.492	26743.96
769.828	26708.7
770.164	26413.8
770.5	26436.85
770.836	26409.96
771.171	26211.54
771.507	26190.53
771.842	26036.41
772.178	26016.97
772.513	25864.21
772.849	25884.77
773.184	25739.92
773.519	25712.35
773.855	25586.7
774.19	25451.34
774.525	25386.93
774.86	25233.72
775.195	25206.82
775.53	25021.52
775.865	24949.88
776.2	24738.36
776.535	24596.22
776.87	24583.34
777.205	24419.27
777.539	24389.44
777.874	24440.52
778.209	24268.99
778.543	24085.72
778.878	23976.12
779.212	24033.29
779.547	23797.37
779.881	23916.01
780.215	23745.39
780.55	23778.61
780.884	23529.13
781.218	23459.3
781.552	23487.77
781.886	23346.98
782.22	23160.32
782.554	23050.95
782.888	23028.58
783.222	22825.87
783.556	22712.65
783.889	22673.1
784.223	22650.96
784.557	22580.9
784.89	22587.46
785.224	22394.24
785.557	22397.18
785.891	22282.15
786.224	22153.12
786.558	22177.07
786.891	21946.34
787.224	21809.4
787.557	21844.65
787.891	21801.04
788.224	21788.61
788.557	21754.26
788.89	21665
789.223	21578.9
789.556	21473.81
789.888	21393.82
790.221	21232.01
790.554	21226.36
790.887	21172.35
791.219	21091
791.552	21048.74
791.884	20952.7
792.217	20910.21
792.549	20822.31
792.882	20645.81
793.214	20617.34
793.546	20605.14
793.879	20535.31
794.211	20346.39
794.543	20304.13
794.875	20375.09
795.207	20313.17
795.539	20252.38
795.871	20189.55
796.203	20045.38
796.535	19859.62
796.867	19877.02
797.198	19868.66
797.53	19827.76
797.862	19660.08
798.193	19687.87
798.525	19517.48
798.856	19563.13
799.188	19342.12
799.519	19309.58
799.85	19239.97
800.182	19208.79
800.513	19143.25
800.844	18997.49
801.175	19017.83
801.506	18897.61
801.837	18802.02
802.168	18757.05
802.499	18588.92
802.83	18592.53
803.161	18564.06
803.491	18376.95
803.822	18467.11
804.153	18392.76
804.483	18175.6
804.814	18084.98
805.145	18239.32
805.475	18176.5
805.805	18140.57
806.136	18136.5
806.466	18097.41
806.796	18043.17
807.126	17794.14
807.457	17877.3
807.787	17905.77
808.117	17794.81
808.447	17763.63
808.777	17840.01
809.107	17722.05
809.436	17750.75
809.766	17651.32
810.096	17530.41
810.426	17517.53
810.755	17612.45
811.085	17430.98
811.414	17428.95
811.744	17208.62
812.073	17283.64
812.403	17287.71
812.732	17070.54
813.061	17168.62
813.39	17126.36
813.719	17061.5
814.049	17167.94
814.378	16966.36
814.707	16924.55
815.036	16927.72
815.365	16826.25
815.693	16685.24
816.022	16662.64
816.351	16627.61
816.68	16555.53
817.008	16526.15
817.337	16459.93
817.665	16445.02
817.994	16465.81
818.322	16423.78
818.651	16275.98
818.979	16286.61
819.307	16313.95
819.636	16321.86
819.964	16101.3
820.292	16252.71
820.62	16079.83
820.948	16100.62
821.276	16185.82
821.604	16045.48
821.932	16129.55
822.259	16128.87
822.587	16063.11
822.915	16011.36
823.243	16090
823.57	16057.91
823.898	16046.84
824.225	16062.2
824.553	15967.74
824.88	16043.9
825.207	16074.63
825.535	16021.53
825.862	16015.2
826.189	15959.83
826.516	16043.22
826.843	16117.12
827.17	16007.06
827.497	16093.62
827.824	16028.08
828.151	16077.8
828.478	15956.9
828.805	15991.7
829.131	15885.03
829.458	16011.13
829.785	15810.91
830.111	16000.51
830.438	16032.83
830.764	16023.11
831.09	16020.85
831.417	15876.67
831.743	15872.15
832.069	15999.61
832.395	15882.1
832.722	15912.15
833.048	15864.47
833.374	15930.23
833.7	15708.77
834.026	15844.13
834.351	15843.23
834.677	15783.57
835.003	15780.18
835.329	15748.77
835.654	15784.92
835.98	15729.33
836.306	15719.39
836.631	15667.19
836.956	15719.16
837.282	15699.95
837.607	15607.98
837.932	15549.9
838.258	15589
838.583	15546.74
838.908	15394.65
839.233	15408.21
839.558	15316.91
839.883	15379.06
840.208	15299.74
840.533	15411.15
840.858	15339.96
841.182	15343.13
841.507	15392.17
841.832	15278.72
842.156	15221.77
842.481	15234.66
842.805	15160.53
843.13	15154.88
843.454	15129.8
843.778	15068.11
844.103	14989.01
844.427	14977.94
844.751	15094.55
845.075	14927.55
845.399	14933.87
845.723	14809.58
846.047	14903.59
846.371	14771.39
846.695	14703.37
847.019	14589.48
847.343	14560.32
847.666	14477.39
847.99	14457.5
848.313	14483.04
848.637	14328.92
848.96	14357.16
849.284	14277.62
849.607	14068.81
849.931	14142.03
850.254	14078.98
850.577	13949.72
850.9	14000.11
851.223	13900
851.546	13827.69
851.869	13734.81
852.192	13909.49
852.515	13672.89
852.838	13671.08
853.161	13713.34
853.483	13530.52
853.806	13534.36
854.129	13564.64
854.451	13435.38
854.774	13435.38
855.096	13409.62
855.419	13379.79
855.741	13325.78
856.063	13204.43
856.385	13276.52
856.708	13200.13
857.03	13181.38
857.352	13199.68
857.674	13070.42
857.996	13020.93
858.318	13046.24
858.64	12985.68
858.961	12983.87
859.283	12932.8
859.605	12870.2
859.926	12845.57
860.248	12843.31
860.57	12808.05
860.891	12826.81
861.212	12779.13
861.534	12674.95
861.855	12696.87
862.176	12603.31
862.498	12683.76
862.819	12667.72
863.14	12557.66
863.461	12608.51
863.782	12504.78
864.103	12639.92
864.424	12437.44
864.745	12536.42
865.065	12470.89
865.386	12401.06
865.707	12345.92
866.027	12481.73
866.348	12378.69
866.668	12414.17
866.989	12484.9
867.309	12348.86
867.63	12377.56
867.95	12341.4
868.27	12262.08
868.59	12253.27
868.91	12192.25
869.23	12323.09
869.55	12210.78
869.87	12309.76
870.19	12227.28
870.51	12232.93
870.83	12241.51
871.15	12039.26
871.469	12095.53
871.789	12251.68
872.109	12155.41
872.428	12073.38
872.748	12086.49
873.067	12111.57
873.386	12044.46
873.706	12111.12
874.025	12018.02
874.344	11940.28
874.663	12057.34
874.982	11933.27
875.301	11990
875.62	11937.57
875.939	11947.06
876.258	11888.76
876.577	11891.92
876.896	11855.31
877.214	11845.37
877.533	11811.02
877.852	11827.74
878.17	11827.74
878.489	11816.44
878.807	11697.35
879.125	11661.87
879.444	11700.74
879.762	11678.37
880.08	11781.19
880.398	11700.29
880.716	11697.35
881.034	11618.03
881.352	11596.56
881.67	11612.15
881.988	11592.04
882.306	11574.64
882.624	11543.91
882.941	11494.87
883.259	11438.6
883.577	11486.05
883.894	11429.11
884.212	11411.93
884.529	11346.85
884.846	11352.72
885.164	11352.27
885.481	11289
885.798	11295.1
886.115	11222.56
886.432	11264.14
886.75	11251.03
887.067	11229.34
887.383	11192.73
887.7	11227.08
888.017	11183.24
888.334	11165.38
888.651	11194.31
888.967	11065.5
889.284	11074.09
889.6	11061.21
889.917	10951.83
890.233	11004.71
890.55	10953.19
890.866	11035.22
891.182	10963.58
891.498	10855.56
891.815	10882.68
892.131	10810.82
892.447	10815.34
892.763	10789.8
893.079	10736.24
893.395	10668
893.71	10660.99
894.026	10635.45
894.342	10592.52
894.657	10542.8
894.973	10552.29
895.289	10524.95
895.604	10542.12
895.92	10378.96
896.235	10449.7
896.55	10426.42
896.865	10351.39
897.181	10380.32
897.496	10260.78
897.811	10245.63
898.126	10244.5
898.441	10170.38
898.756	10134.45
899.071	10106.66
899.386	10147.33
899.7	9997.05
900.015	10044.74
900.33	9896.04
900.644	9984.62
900.959	10051.97
901.273	9905.53
901.588	9900.78
901.902	9845.87
902.216	9813.56
902.531	9755.7
902.845	9765.65
903.159	9722.71
903.473	9698.53
903.787	9691.75
904.101	9618.31
904.415	9668.47
904.729	9595.48
905.042	9548.7
905.356	9577.4
905.67	9510.51
905.984	9444.53
906.297	9471.19
906.611	9394.81
906.924	9449.95
907.237	9330.18
907.551	9282.5
907.864	9263.74
908.177	9181.48
908.491	9262.61
908.804	9209.5
909.117	9108.04
909.43	9127.7
909.743	9099.9
910.056	9106.91
910.368	8976.06
910.681	9004.99
910.994	8985.33
911.307	8853.13
911.619	8867.82
911.932	8839.8
912.244	8784.88
912.557	8796.41
912.869	8783.98
913.181	8768.84
913.494	8688.84
913.806	8704.21
914.118	8631.89
914.43	8613.14
914.742	8589.41
915.054	8525.23
915.366	8579.92
915.678	8515.28
915.99	8416.98
916.302	8445
916.613	8367.27
916.925	8374.95
917.236	8369.07
917.548	8238.23
917.859	8262.64
918.171	8251.79
918.482	8187.38
918.794	8153.71
919.105	8170.43
919.416	8070.1
919.727	8022.87
920.038	8095.63
920.349	7962.53
920.66	7945.13
920.971	7980.16
921.282	7885.92
921.593	7885.24
921.903	7821.07
922.214	7783.78
922.525	7703.1
922.835	7647.28
923.146	7610.68
923.456	7685.7
923.767	7657.45
924.077	7575.65
924.387	7530.23
924.697	7516.21
925.008	7519.83
925.318	7445.71
925.628	7400.29
925.938	7386.73
926.248	7354.41
926.558	7321.87
926.867	7350.34
927.177	7239.84
927.487	7235.32
927.796	7164.59
928.106	7222.44
928.416	7187.64
928.725	7171.14
929.034	7059.5
929.344	7112.38
929.653	7136.56
929.962	7067.19
930.271	7010.92
930.581	7005.04
930.89	7000.07
931.199	6894.54
931.508	6963.91
931.817	6969.34
932.125	6922.11
932.434	6842.79
932.743	6782.67
933.051	6782.45
933.36	6751.04
933.669	6722.56
933.977	6683.69
934.286	6677.82
934.594	6702.9
934.902	6643.02
935.21	6598.27
935.519	6600.08
935.827	6606.86
936.135	6591.04
936.443	6505.17
936.751	6471.5
937.059	6473.98
937.367	6400.99
937.674	6450.93
937.982	6441.44
938.29	6360.76
938.597	6327.77
938.905	6299.75
939.213	6297.94
939.52	6202.58
939.827	6250.03
940.135	6207.1
940.442	6151.5
940.749	6132.75
941.056	6133.88
941.363	6062.24
941.67	6082.81
941.977	6043.49
942.284	6011.62
942.591	5996.93
942.898	5973.43
943.205	5946.76
943.511	5912.19
943.818	5959.42
944.125	5837.61
944.431	5887.33
944.738	5881.68
945.044	5830.61
945.35	5767.56
945.657	5707.9
945.963	5737.5
946.269	5744.28
946.575	5731.63
946.881	5659.77
947.187	5700.9
947.493	5679.43
947.799	5554.46
948.105	5611.18
948.41	5577.73
948.716	5559.88
949.022	5525.08
949.327	5511.97
949.633	5497.51
949.938	5467
950.244	5447.57
950.549	5381.81
950.854	5382.94
951.16	5389.94
951.465	5336.16
951.77	5342.71
952.075	5265.65
952.38	5299.78
952.685	5300.45
952.99	5215.71
953.294	5250.51
953.599	5134.13
953.904	5127.35
954.209	5135.26
954.513	5134.13
954.818	5062.04
955.122	5066.79
955.426	5038.77
955.731	5017.75
956.035	4987.92
956.339	4958.32
956.643	4944.53
956.948	4935.94
957.252	4866.11
957.556	4880.13
957.86	4868.15
958.163	4839.45
958.467	4837.64
958.771	4801.48
959.075	4817.08
959.378	4755.16
959.682	4748.38
959.985	4721.49
960.289	4744.54
960.592	4686.01
960.896	4660.92
961.199	4576.41
961.502	4623.18
961.805	4613.24
962.108	4566.91
962.411	4548.38
962.714	4545.9
963.017	4528.95
963.32	4514.94
963.623	4518.55
963.926	4465.22
964.228	4420.25
964.531	4431.32
964.833	4417.77
965.136	4396.97
965.438	4355.62
965.741	4328.5
966.043	4333.47
966.345	4313.14
966.648	4304.55
966.95	4305
967.252	4263.19
967.554	4273.14
967.856	4207.6
968.158	4189.97
968.46	4192.46
968.761	4199.92
969.063	4183.87
969.365	4165.12
969.666	4161.95
969.968	4075.63
970.269	4070.43
970.571	4103.2
970.872	4096.19
971.174	4033.59
971.475	3987.95
971.776	4003.99
972.077	3985.46
972.378	3940.26
972.679	3993.6
972.98	3922.41
973.281	3931
973.582	3887.61
973.883	3886.48
974.183	3847.16
974.484	3838.57
974.785	3853.26
975.085	3868.4
975.386	3838.8
975.686	3801.96
975.986	3794.28
976.287	3766.93
976.587	3733.26
976.887	3745.01
977.187	3729.87
977.487	3711.12
977.787	3647.39
978.087	3658.92
978.387	3635.86
978.687	3663.66
978.987	3639.25
979.286	3598.35
979.586	3606.26
979.885	3552.03
980.185	3566.94
980.484	3550.22
980.784	3546.15
981.083	3511.35
981.382	3517.68
981.682	3483.55
981.981	3498.69
982.28	3484.23
982.579	3459.15
982.878	3435.64
983.177	3397.68
983.475	3426.15
983.774	3375.08
984.073	3342.09
984.372	3353.39
984.67	3346.61
984.969	3333.73
985.267	3302.77
985.566	3315.65
985.864	3279.72
986.162	3285.59
986.461	3269.77
986.759	3223.9
987.057	3223.67
987.355	3225.48
987.653	3197.46
987.951	3197.91
988.249	3174.18
988.547	3142.32
988.844	3150.91
989.142	3126.95
989.44	3090.12
989.737	3109.55
990.035	3071.36
990.332	3080.85
990.63	3060.96
990.927	3028.88
991.224	3005.37
991.521	2997.92
991.819	2992.27
992.116	2970.8
992.413	2927.86
992.71	2939.39
993.006	2917.01
993.303	2896.22
993.6	2913.62
993.897	2869.33
994.193	2879.95
994.49	2848.54
994.787	2860.97
995.083	2831.37
995.379	2825.94
995.676	2806.73
995.972	2836.56
996.268	2799.5
996.565	2764.02
996.861	2744.36
997.157	2768.32
997.453	2723.8
997.749	2708.88
998.044	2664.82
998.34	2680.41
998.636	2662.11
998.932	2667.75
999.227	2655.1
999.523	2657.36
999.818	2618.94
1000.114	2627.98
1000.409	2587.53
1000.704	2592.28
1001	2566.51
1001.295	2562.22
1001.59	2527.42
1001.885	2549.34
1002.18	2507.76
1002.475	2508.89
1002.77	2481.77
1003.065	2420.76
1003.359	2478.38
1003.654	2467.08
1003.949	2435.9
1004.243	2471.38
1004.538	2418.27
1004.832	2385.73
1005.127	2404.94
1005.421	2338.05
1005.715	2376.24
1006.009	2336.24
1006.304	2316.13
1006.598	2318.84
1006.892	2306.86
1007.186	2300.76
1007.48	2284.04
1007.773	2238.39
1008.067	2240.42
1008.361	2235.68
1008.655	2220.99
1008.948	2225.73
1009.242	2209.24
1009.535	2182.57
1009.829	2161.33
1010.122	2146.86
1010.415	2165.4
1010.708	2106.19
1011.001	2117.26
1011.295	2110.93
1011.588	2129.92
1011.881	2050.6
1012.173	2069.35
1012.466	2058.96
1012.759	2029.81
1013.052	2067.54
1013.344	2027.32
1013.637	2015.12
1013.93	2000.65
1014.222	1995.46
1014.514	1996.36
1014.807	1932.41
1015.099	1932.63
1015.391	1957.94
1015.683	1953.42
1015.976	1939.19
1016.268	1944.84
1016.56	1913.88
1016.851	1904.84
1017.143	1872.3
1017.435	1910.03
1017.727	1844.95
1018.018	1859.41
1018.31	1823.26
1018.602	1841.56
1018.893	1811.28
1019.185	1795.91
1019.476	1797.72
1019.767	1754.78
1020.058	1758.63
1020.35	1756.14
1020.641	1736.93
1020.932	1750.04
1021.223	1723.15
1021.514	1689.7
1021.804	1677.5
1022.095	1691.74
1022.386	1667.33
1022.677	1663.49
1022.967	1651.96
1023.258	1666.2
1023.548	1635.69
1023.839	1586.43
1024.129	1605.86
1024.419	1623.94
1024.709	1569.03
1025	1584.17
1025.29	1548.46
1025.58	1540.78
1025.87	1535.13
1026.16	1497.16
1026.449	1547.56
1026.739	1523.38
1027.029	1503.27
1027.319	1484.96
1027.608	1499.88
1027.898	1489.25
1028.187	1469.82
1028.477	1468.46
1028.766	1458.97
1029.055	1424.85
1029.344	1431.63
1029.634	1422.82
1029.923	1421.01
1030.212	1398.64
1030.501	1397.96
1030.79	1388.24
1031.078	1374
1031.367	1352.99
1031.656	1372.42
1031.945	1343.27
1032.233	1356.38
1032.522	1345.53
1032.81	1306.89
1033.099	1274.8
1033.387	1303.5
1033.675	1293.55
1033.963	1260.33
1034.251	1266.66
1034.54	1260.11
1034.828	1244.29
1035.116	1243.16
1035.403	1226.66
1035.691	1226.21
1035.979	1213.78
1036.267	1194.12
1036.554	1192.99
1036.842	1199.77
1037.129	1184.18
1037.417	1176.95
1037.704	1144.86
1037.992	1173.56
1038.279	1155.93
1038.566	1161.13
1038.853	1161.13
1039.14	1161.13
