Data from aluminium_macbook_case_FLMS001491_096.txt Node
Date: Tue Feb 07 10:44:27 GMT 2017
User: dcchb
Spectrometer: FLMS00149
Trigger mode: 0
Integration Time (sec): 2.000000E-2
Scans to average: 10
Electric dark correction enabled: true
Nonlinearity correction enabled: false
Boxcar width: 0
XAxis mode: Wavelengths
Number of Pixels in Spectrum: 2048
>>>>>Begin Spectral Data<<<<<
341.393	-12.73
341.776	-12.73
342.16	-12.73
342.543	-77.36
342.927	-75.55
343.31	-76.45
343.693	-73.97
344.077	-54.53
344.46	-72.16
344.843	-41.2
345.226	-35.78
345.61	-28.54
345.993	-10.47
346.376	-6.62
346.759	10.1
347.142	14.84
347.525	46.26
347.908	57.33
348.291	85.12
348.674	83.99
349.057	102.07
349.44	120.38
349.823	160.38
350.206	172.58
350.588	254.16
350.971	246.02
351.354	283.31
351.737	291.67
352.119	305.91
352.502	315.85
352.884	326.7
353.267	306.36
353.65	351.56
354.032	361.05
354.414	376.64
354.797	384.1
355.179	390.43
355.562	370.32
355.944	393.82
356.326	393.14
356.709	413.93
357.091	410.77
357.473	391.11
357.855	387.94
358.238	400.14
358.62	426.36
359.002	414.16
359.384	404.44
359.766	407.83
360.148	420.94
360.53	410.77
360.912	415.51
361.294	424.78
361.676	387.49
362.057	429.52
362.439	422.74
362.821	431.56
363.203	401.5
363.584	393.82
363.966	406.92
364.348	411.22
364.729	407.83
365.111	417.09
365.493	411.22
365.874	403.99
366.256	399.01
366.637	430.65
367.019	433.59
367.4	420.03
367.781	420.26
368.163	423.2
368.544	411.9
368.925	421.39
369.306	434.04
369.688	446.02
370.069	442.86
370.45	457.09
370.831	438.34
371.212	454.61
371.593	443.08
371.974	463.87
372.355	468.17
372.736	454.15
373.117	470.2
373.498	483.08
373.879	458
374.26	457.32
374.641	441.73
375.021	446.7
375.402	460.03
375.783	495.28
376.163	533.02
376.544	521.72
376.925	490.54
377.305	494.83
377.686	514.94
378.066	479.46
378.447	535.06
378.827	512.23
379.208	528.5
379.588	528.5
379.968	524.89
380.349	538.67
380.729	529.41
381.109	558.11
381.489	559.69
381.87	546.13
382.25	564.43
382.63	560.82
383.01	583.42
383.39	574.6
383.77	592.68
384.15	603.3
384.53	599.01
384.91	628.61
385.29	643.98
385.67	653.02
386.049	613.92
386.429	631.33
386.809	633.36
387.189	666.8
387.568	660.7
387.948	662.06
388.328	683.53
388.707	698.67
389.087	694.83
389.466	696.86
389.846	714.49
390.225	716.07
390.605	724.66
390.984	741.15
391.363	761.94
391.743	774.15
392.122	768.27
392.501	785.22
392.881	765.78
393.26	786.8
393.639	799.68
394.018	793.13
394.397	801.72
394.776	804.65
395.155	822.51
395.534	842.62
395.913	827.7
396.292	849.62
396.671	848.49
397.05	881.04
397.429	888.49
397.808	873.58
398.186	912.67
398.565	898.21
398.944	896.18
399.323	935.72
399.701	929.62
400.08	938.21
400.458	983.63
400.837	973.92
401.215	987.47
401.594	979.56
401.972	1016.63
402.351	1025.44
402.729	1017.98
403.107	1042.84
403.486	1062.73
403.864	1048.04
404.242	1092.56
404.62	1075.38
404.999	1097.53
405.377	1119.67
405.755	1133.23
406.133	1140.24
406.511	1144.08
406.889	1178.66
407.267	1179.33
407.645	1194.7
408.023	1246.45
408.401	1224.08
408.779	1286.45
409.156	1290.97
409.534	1296.39
409.912	1318.54
410.29	1350.4
410.667	1360.12
411.045	1371.42
411.422	1394.02
411.8	1409.61
412.178	1446.22
412.555	1452.77
412.933	1477.63
413.31	1472.89
413.687	1537.29
414.065	1555.37
414.442	1558.76
414.819	1578.87
415.197	1573.22
415.574	1612.09
415.951	1678.76
416.328	1643.05
416.705	1718.98
417.082	1690.05
417.46	1711.52
417.837	1723.05
418.214	1714.91
418.591	1753.1
418.967	1784.97
419.344	1795.36
419.721	1797.85
420.098	1831.29
420.475	1874.68
420.852	1867.68
421.228	1919.43
421.605	1919.65
421.982	1925.08
422.358	1974.34
422.735	1987.45
423.111	1977.5
423.488	2028.35
423.864	2045.75
424.241	2089.14
424.617	2115.58
424.994	2149.03
425.37	2134.34
425.746	2156.26
426.123	2198.06
426.499	2201.23
426.875	2217.5
427.251	2248.23
427.627	2329.59
428.003	2387.89
428.379	2387.66
428.756	2437.83
429.132	2465.85
429.507	2480.99
429.883	2528.68
430.259	2544.27
430.635	2575.68
431.011	2626.08
431.387	2675.79
431.763	2739.29
432.138	2700.65
432.514	2816.35
432.89	2799.18
433.265	2900.64
433.641	2945.61
434.016	2962.79
434.392	2987.42
434.767	3093.41
435.143	3030.36
435.518	3128.66
435.894	3142.22
436.269	3167.08
436.644	3248.21
437.02	3269.9
437.395	3272.61
437.77	3311.48
438.145	3365.04
438.52	3431.25
438.895	3465.15
439.271	3437.13
439.646	3616.33
440.021	3601.42
440.395	3562.55
440.77	3592.38
441.145	3647.29
441.52	3727.74
441.895	3712.6
442.27	3734.29
442.645	3719.83
443.019	3788.98
443.394	3817.23
443.769	3876.44
444.143	3836.89
444.518	3899.04
444.892	3941.52
445.267	3941.07
445.641	4016.55
446.016	4022.2
446.39	4103.78
446.764	4090.9
447.139	4120.72
447.513	4143.55
447.887	4229.42
448.262	4238.46
448.636	4283.21
449.01	4337.22
449.384	4426.93
449.758	4392.13
450.132	4443.43
450.506	4467.16
450.88	4552.13
451.254	4545.12
451.628	4560.26
452.002	4698.56
452.376	4644.55
452.75	4796.41
453.123	4790.54
453.497	4829.18
453.871	4913.47
454.244	4964.32
454.618	5025.11
454.992	5104.43
455.365	5162.05
455.739	5261.94
456.112	5291.54
456.486	5367.92
456.859	5447.24
457.232	5544.64
457.606	5547.13
457.979	5659.22
458.352	5769.95
458.725	5825.09
459.099	5862.6
459.472	6002.26
459.845	6035.25
460.218	6067.79
460.591	6084.06
460.964	6155.25
461.337	6316.6
461.71	6450.83
462.083	6497.16
462.456	6507.33
462.829	6632.98
463.201	6709.36
463.574	6756.81
463.947	6836.59
464.32	7022.8
464.692	7070.03
465.065	7058.05
465.438	7300.3
465.81	7288.33
466.183	7457.59
466.555	7607.86
466.928	7688.54
467.3	7663.23
467.672	7845.37
468.045	8022.54
468.417	7999.49
468.789	8051.92
469.161	8173.27
469.534	8310.22
469.906	8536.2
470.278	8571
470.65	8747.04
471.022	8923.31
471.394	9028.84
471.766	9094.15
472.138	9231.78
472.51	9470.41
472.882	9596.29
473.253	9651.43
473.625	9881.93
473.997	10017.52
474.369	10115.14
474.74	10180.45
475.112	10470.16
475.484	10637.16
475.855	10859.76
476.227	10939.08
476.598	11289.35
476.97	11325.06
477.341	11675.55
477.713	11816.57
478.084	11828.32
478.455	12253.84
478.827	12329.55
479.198	12699.71
479.569	12824.22
479.94	13144.22
480.311	13293.59
480.682	13556.41
481.053	13743.07
481.424	14024.87
481.795	14129.28
482.166	14399.78
482.537	14552.09
482.908	14864.62
483.279	15052.64
483.65	15337.61
484.021	15643.59
484.391	15768.1
484.762	16052.16
485.133	16077.7
485.503	16354.75
485.874	16785.48
486.244	16884.91
486.615	17376.65
486.985	17518.34
487.356	17866.35
487.726	17939.57
488.097	18383.17
488.467	18401.93
488.837	18935.7
489.207	19069.03
489.578	19336.14
489.948	19513.99
490.318	19762.35
490.688	19933.87
491.058	20282.56
491.428	20413.4
491.798	20640.97
492.168	20977.46
492.538	21153.5
492.908	21388.52
493.278	21698.34
493.648	21673.26
494.017	21998.9
494.387	22182.17
494.757	22349.4
495.126	22709.39
495.496	22676.4
495.866	22943.51
496.235	23268.02
496.605	23490.61
496.974	23674.56
497.344	23793.65
497.713	24092.63
498.082	24364.03
498.452	24607.42
498.821	24679.51
499.19	24771.26
499.559	25073.62
499.928	25298.7
500.298	25421.63
500.667	25696.43
501.036	25731.91
501.405	25886.93
501.774	26054.16
502.143	26278.56
502.512	26371.67
502.88	26524.2
503.249	26569.4
503.618	26852.56
503.987	26979.56
504.356	27210.74
504.724	27225.43
505.093	27462.71
505.462	27476.95
505.83	27791.97
506.199	27985.18
506.567	28453.87
506.936	28434.89
507.304	28660.19
507.672	29019.73
508.041	29029.45
508.409	29376.11
508.777	29584.01
509.145	29852.25
509.514	29959.37
509.882	30169.53
510.25	30368.4
510.618	30592.12
510.986	30756.41
511.354	30996.18
511.722	31226.45
512.09	31607.23
512.458	31665.76
512.826	31829.37
513.193	32073.44
513.561	32094.23
513.929	32447.44
514.297	32724.27
514.664	32780.08
515.032	33000.19
515.4	33307.08
515.767	33426.17
516.135	33698.48
516.502	33536.45
516.869	34173.04
517.237	34254.85
517.604	34279.25
517.972	34754.72
518.339	34999.01
518.706	35120.59
519.073	35393.8
519.44	35684.64
519.808	36071.3
520.175	36133.67
520.542	36614.11
520.909	36983.14
521.276	36894.33
521.643	37382.68
522.009	37706.96
522.376	37875.32
522.743	38216.33
523.11	38484.57
523.477	39018.56
523.843	39271.67
524.21	39536.29
524.577	39809.05
524.943	39776.06
525.31	40063.73
525.676	40403.84
526.043	40665.75
526.409	40930.83
526.776	41191.61
527.142	41378.95
527.508	41603.13
527.874	41841.99
528.241	42081.31
528.607	42323.34
528.973	42650.11
529.339	42705.02
529.705	43094.84
530.071	43442.4
530.437	43606.01
530.803	43832.9
531.169	44102.27
531.535	44074.7
531.901	44337.52
532.267	44767.34
532.632	44911.52
532.998	45066.09
533.364	45251.85
533.73	45603.48
534.095	45807.54
534.461	46008.66
534.826	46186.96
535.192	46318.94
535.557	46576.78
535.923	46655.65
536.288	46842.31
536.653	47106.94
537.019	46986.94
537.384	47361.62
537.749	47412.69
538.114	47474.61
538.479	47573.82
538.845	47873.25
539.21	47729.97
539.575	47959.57
539.94	48018.1
540.305	48219.23
540.67	48262.62
541.034	48431.88
541.399	48664.19
541.764	48747.35
542.129	48927.91
542.494	49011.52
542.858	49172.2
543.223	49306.2
543.587	49434.34
543.952	49410.38
544.316	49491.74
544.681	49606.53
545.045	49906.64
545.41	50006.07
545.774	50187.08
546.138	50182.79
546.503	50328.55
546.867	50352.73
547.231	50709.33
547.595	50794.53
547.959	50947.29
548.324	50974.41
548.688	51042.66
549.052	51258.69
549.416	51271.35
549.779	51406.49
550.143	51488.29
550.507	51744.11
550.871	51883.08
551.235	51779.13
551.599	52116.98
551.962	52119.91
552.326	52184.77
552.689	52370.76
553.053	52247.82
553.417	52512.67
553.78	52766.9
554.143	52680.8
554.507	52823.85
554.87	52949.5
555.234	53262.48
555.597	53121.02
555.96	53260.9
556.323	53507.22
556.686	53449.15
557.05	53742.02
557.413	53719.42
557.776	53901.56
558.139	54083.25
558.502	54102.69
558.865	54199.63
559.228	54419.29
559.59	54525.73
559.953	54572.28
560.316	54901.54
560.679	54874.42
561.041	55109.67
561.404	55172.26
561.767	55327.29
562.129	55352.37
562.492	55608.86
562.854	55651.57
563.217	55657
563.579	55800.04
563.941	56014.05
564.304	56089.75
564.666	56313.7
565.028	56243.42
565.39	56445
565.753	56537.88
566.115	56640.02
566.477	56721.83
566.839	56793.01
567.201	56967.92
567.563	57033.68
567.925	57113
568.287	57198.65
568.648	57235.94
569.01	57423.73
569.372	57601.8
569.734	57506.44
570.095	57673.67
570.457	57740.11
570.819	57755.25
571.18	57770.39
571.542	58035.69
571.903	57977.39
572.265	58065.75
572.626	58171.96
572.987	58224.39
573.349	58261.22
573.71	58348
574.071	58403.82
574.432	58562.91
574.794	58623.92
575.155	58636.13
575.516	58624.6
575.877	58793.64
576.238	58768.55
576.599	58899.17
576.96	58929
577.32	58918.83
577.681	59060.07
578.042	59119.5
578.403	59023.69
578.763	59142.78
579.124	59154.76
579.485	59219.39
579.845	59313.62
580.206	59202.89
580.566	59261.2
580.927	59299.61
581.287	59362.89
581.648	59248.99
582.008	59396.56
582.368	59371.93
582.728	59404.02
583.089	59396.56
583.449	59390.01
583.809	59479.04
584.169	59430.01
584.529	59439.72
584.889	59570.79
585.249	59394.53
585.609	59404.24
585.969	59563.56
586.329	59416.9
586.688	59509.1
587.048	59469.78
587.408	59411.02
587.768	59497.35
588.127	59446.05
588.487	59429.33
588.846	59604.01
589.206	59488.31
589.565	59429.1
589.925	59547.29
590.284	59484.24
590.643	59530.79
591.003	59577.8
591.362	59618.93
591.721	59581.87
592.08	59549.78
592.44	59655.54
592.799	59682.2
593.158	59616.89
593.517	59607.85
593.876	59689.89
594.235	59637.68
594.593	59660.96
594.952	59748.41
595.311	59608.53
595.67	59616.67
596.029	59803.55
596.387	59752.03
596.746	59815.98
597.104	59683.33
597.463	59704.12
597.822	59785.48
598.18	59685.82
598.538	59679.94
598.897	59860.05
599.255	59642.88
599.613	59939.37
599.972	59825.93
600.33	59858.47
600.688	59790.67
601.046	59978.01
601.404	59993.83
601.762	59986.83
602.12	60004.91
602.478	60075.19
602.836	60082.42
603.194	59917.45
603.552	60013.49
603.91	59930.78
604.268	60086.03
604.625	59978.24
604.983	60139.59
605.341	59984.57
605.698	60089.2
606.056	60130.78
606.413	60095.52
606.771	60173.49
607.128	60194.73
607.485	60082.19
607.843	60143.88
608.2	60278.34
608.557	60349.3
608.914	60252.36
609.272	60334.16
609.629	60396.31
609.986	60439.02
610.343	60352.92
610.7	60580.94
611.057	60557.89
611.414	60486.47
611.771	60453.93
612.127	60635.85
612.484	60582.07
612.841	60697.32
613.198	60517.21
613.554	60644.21
613.911	60752.68
614.267	60722.85
614.624	60613.48
614.98	60731.44
615.337	60785.68
615.693	60770.76
616.05	60668.39
616.406	60869.97
616.762	60818.44
617.118	60832.23
617.475	60881.72
617.831	60946.8
618.187	60867.93
618.543	60959.68
618.899	61016.4
619.255	60937.54
619.611	61003.3
619.967	61064.09
620.323	61091.66
620.678	61013.47
621.034	60895.05
621.39	60988.61
621.746	60912.23
622.101	61146.12
622.457	60928.72
622.812	61026.8
623.168	61028.16
623.523	60982.96
623.879	61067.7
624.234	60928.04
624.589	60948.84
624.945	61005.33
625.3	61055.27
625.655	60953.13
626.01	61023.64
626.365	61045.56
626.72	60928.72
627.075	60916.07
627.43	60972.34
627.785	60868.84
628.14	60905.67
628.495	60910.87
628.85	60870.87
629.205	60845.56
629.559	60964.88
629.914	60814.6
630.269	60838.1
630.623	60741.84
630.978	60719.01
631.332	60832
631.687	60885.11
632.041	60710.2
632.396	60797.43
632.75	60631.78
633.104	60697.99
633.459	60540.71
633.813	60510.88
634.167	60550.2
634.521	60608.28
634.875	60588.39
635.229	60488.96
635.583	60399.25
635.937	60483.54
636.291	60380.04
636.645	60453.48
636.999	60355.18
637.352	60410.54
637.706	60261.85
638.06	60382.07
638.413	60317.44
638.767	60231.57
639.121	60283.09
639.474	60158.12
639.828	60135.75
640.181	60099.59
640.534	60117.67
640.888	59946.6
641.241	59900.05
641.594	59902.99
641.947	59992.7
642.301	59855.08
642.654	59875.42
643.007	59807.17
643.36	59826.6
643.713	59771.24
644.066	59848.53
644.419	59636.1
644.771	59514.07
645.124	59244.47
645.477	59251.03
645.83	59034.76
646.182	58969.9
646.535	58839.29
646.888	58853.75
647.24	58787.99
647.593	58868.21
647.945	58807.2
648.298	58648.33
648.65	58631.61
649.002	58526.3
649.355	58665.28
649.707	58633.19
650.059	58738.72
650.411	59048.09
650.763	58998.6
651.115	59260.52
651.467	59121.99
651.819	59115.66
652.171	59093.06
652.523	59076.12
652.875	59056
653.227	58943.69
653.578	59045.16
653.93	58924.03
654.282	58912.5
654.633	58856.23
654.985	58900.53
655.337	58805.39
655.688	58860.08
656.039	58955.89
656.391	58715.67
656.742	58744.15
657.094	58810.13
657.445	58825.05
657.796	58792.73
658.147	58695.56
658.498	58697.14
658.849	58830.02
659.2	58689.46
659.551	58634.09
659.902	58708.89
660.253	58625.73
660.604	58696.47
660.955	58468.9
661.306	58525.85
661.656	58467.77
662.007	58442.91
662.358	58493.53
662.708	58448.34
663.059	58404.04
663.409	58221.68
663.76	58415.57
664.11	58364.04
664.461	58380.77
664.811	58293.54
665.161	58244.5
665.511	58212.18
665.862	58285.85
666.212	58345.74
666.562	58269.58
666.912	58255.57
667.262	58104.62
667.612	58162.24
667.962	58198.85
668.312	58161.79
668.662	58262.58
669.011	58176.7
669.361	57978.74
669.711	58030.04
670.06	58016.03
670.41	57953.43
670.76	57927.67
671.109	58023.71
671.459	57985.3
671.808	57944.17
672.157	57984.62
672.507	57822.36
672.856	57851.97
673.205	57867.11
673.554	57956.15
673.904	57846.32
674.253	57991.85
674.602	57893.77
674.951	57485.42
675.3	57457.4
675.649	57783.27
675.998	57801.35
676.346	57811.97
676.695	57825.08
677.044	57653.33
677.393	57753.89
677.741	57743.95
678.09	57675.48
678.438	57638.19
678.787	57607.23
679.135	57635.93
679.484	57474.12
679.832	57548.25
680.181	57339.89
680.529	57452.66
680.877	57366.78
681.225	57377.18
681.573	57437.06
681.922	57192.32
682.27	57137.18
682.618	57183.51
682.966	57059.22
683.314	57116.17
683.661	57083.4
684.009	56858.1
684.357	56785.78
684.705	56746.01
685.053	56699
685.4	56734.26
685.748	56583.98
686.095	56566.8
686.443	56439.58
686.79	56479.35
687.138	56407.26
687.485	56482.06
687.832	56334.49
688.18	56285.46
688.527	56111.45
688.874	56128.62
689.221	56029.19
689.568	56031.68
689.915	55892.47
690.262	55911
690.609	55752.14
690.956	55709.2
691.303	55723.21
691.65	55583.33
691.997	55597.79
692.344	55381.52
692.69	55465.36
693.037	55435.53
693.383	55144.69
693.73	55300.62
694.077	55083.45
694.423	55094.07
694.769	54969.11
695.116	54964.59
695.462	54958.03
695.808	54837.36
696.155	54914.42
696.501	54647.53
696.847	54619.74
697.193	54407.09
697.539	54592.39
697.885	54400.31
698.231	54268.78
698.577	54251.61
698.923	54239.41
699.269	53976.82
699.614	53786.54
699.96	53818.85
700.306	53820.66
700.651	53684.17
700.997	53535.92
701.342	53525.75
701.688	53415.25
702.033	53305.87
702.379	53424.51
702.724	53246.66
703.069	53290.51
703.415	52933.68
703.76	52918.54
704.105	52915.83
704.45	52792.67
704.795	52610.98
705.14	52478.78
705.485	52603.29
705.83	52256.86
706.175	52291.66
706.52	52192.68
706.865	52108.62
707.209	51946.36
707.554	51759.02
707.899	51942.97
708.243	51723.32
708.588	51642.19
708.932	51483.32
709.277	51418.92
709.621	51481.29
709.966	51235.42
710.31	51258.02
710.654	50995.42
710.998	51064.12
711.342	51022.54
711.687	50910.46
712.031	50741.42
712.375	50629.11
712.719	50703.91
713.063	50721.99
713.407	50736.67
713.75	50568.32
714.094	50538.71
714.438	50301.66
714.782	50312.05
715.125	50112.06
715.469	50166.75
715.812	50079.52
716.156	49935.79
716.499	49837.04
716.843	49969.24
717.186	49682.01
717.53	49858.05
717.873	49790.03
718.216	49709.58
718.559	49468.69
718.902	49273.44
719.246	49411.74
719.589	49360.67
719.932	49122.25
720.275	49181.24
720.617	49141.46
720.96	49000.45
721.303	49117.96
721.646	49026.89
721.989	48860.57
722.331	48844.52
722.674	48725.2
723.016	48786.9
723.359	48532.89
723.701	48682.27
724.044	48478.2
724.386	48379.9
724.729	48431.2
725.071	48151.88
725.413	48230.53
725.755	48127.25
726.097	47877.09
726.439	47738.56
726.782	47759.8
727.124	47770.65
727.465	47642.52
727.807	47521.17
728.149	47314.62
728.491	47329.76
728.833	47379.7
729.175	47267.84
729.516	47041.4
729.858	47090.89
730.199	47014.74
730.541	46803.9
730.882	46692.04
731.224	46925.93
731.565	46494.75
731.906	46555.54
732.248	46503.11
732.589	46349.67
732.93	46128.43
733.271	46337.24
733.612	46402.1
733.953	46239.17
734.294	45986.29
734.635	45820.65
734.976	45953.07
735.317	45696.13
735.658	45711.5
735.999	45653.64
736.339	45546.98
736.68	45454.55
737.021	45507.21
737.361	45359.41
737.702	45569.58
738.042	45350.15
738.383	45209.59
738.723	45328.91
739.063	45146.54
739.404	45099.99
739.744	45020.67
740.084	44930.5
740.424	45077.39
740.764	44917.84
741.104	45068.35
741.444	44664.29
741.784	44616.16
742.124	44717.85
742.464	44584.75
742.804	44568.93
743.143	44428.14
743.483	44556.95
743.823	44388.14
744.162	44369.38
744.502	44319.44
744.841	44099.33
745.181	44131.2
745.52	44052.1
745.86	43952.67
746.199	43901.6
746.538	43712.23
746.877	43999.22
747.216	43757.65
747.556	43756.74
747.895	43646.47
748.234	43431.56
748.573	43419.13
748.911	43393.82
749.25	43267.04
749.589	43053.26
749.928	43032.24
750.267	43116.54
750.605	42977.1
750.944	42741.4
751.283	42752.93
751.621	42724.46
751.96	42505.48
752.298	42450.11
752.636	42434.75
752.975	42317.91
753.313	41913.4
753.651	42243.56
753.989	41868.43
754.327	41776.23
754.666	41513.87
755.004	41563.58
755.342	41563.58
755.679	41376.02
756.017	41027.78
756.355	41218.05
756.693	40987.1
757.031	41017.61
757.368	40766.09
757.706	40656.71
758.044	40470.28
758.381	40648.35
758.719	40222.6
759.056	40344.86
759.394	40101.7
759.731	39846.34
760.068	39737.42
760.405	39774.02
760.743	39443.86
761.08	39548.49
761.417	39388.27
761.754	39325.9
762.091	39240.48
762.428	39049.75
762.765	38821.51
763.102	38898.57
763.438	38637.56
763.775	38553.04
764.112	38546.26
764.449	38672.81
764.785	38260.39
765.122	38073.28
765.458	37991.92
765.795	37953.28
766.131	37778.82
766.467	37772.04
766.804	37702.89
767.14	37342.68
767.476	37512.84
767.812	37247.99
768.148	37302.9
768.485	37118.28
768.821	36799.41
769.157	36825.4
769.492	36857.72
769.828	36811.39
770.164	36475.58
770.5	36341.12
770.836	36292.08
771.171	36174.12
771.507	36004.41
771.842	35728.93
772.178	35735.94
772.513	35727.35
772.849	35649.16
773.184	35489.17
773.519	35411.43
773.855	35321.03
774.19	35120.14
774.525	34937.09
774.86	34994.72
775.195	34916.07
775.53	34727.38
775.865	34482.41
776.2	34190.67
776.535	34046.04
776.87	34030.22
777.205	33740.51
777.539	33631.36
777.874	33735.31
778.209	33476.79
778.543	33251.26
778.878	33154.99
779.212	32942.57
779.547	32807.2
779.881	32968.33
780.215	32539.64
780.55	32644.27
780.884	32470.26
781.218	32317.95
781.552	32347.55
781.886	32107.56
782.22	31890.39
782.554	31726.1
782.888	31502.6
783.222	31274.14
783.556	31261.25
783.889	31235.27
784.223	30875.5
784.557	30814.71
784.89	30799.12
785.224	30574.49
785.557	30531.56
785.891	30295.4
786.224	30312.58
786.558	30118.69
786.891	29931.8
787.224	29900.84
787.557	29826.49
787.891	29710.79
788.224	29627.4
788.557	29691.8
788.89	29650.68
789.223	29505.59
789.556	29247.3
789.888	29081.42
790.221	29215.43
790.554	28965.5
790.887	29067.64
791.219	28843.92
791.552	28768.21
791.884	28682.34
792.217	28500.65
792.549	28477.15
792.882	28306.98
793.214	28225.18
793.546	28177.27
793.879	28134.33
794.211	27823.38
794.543	28052.75
794.875	27855.92
795.207	28035.12
795.539	27753.1
795.871	27708.81
796.203	27570.05
796.535	27431.98
796.867	27347.46
797.198	27281.92
797.53	27179.1
797.862	27075.83
798.193	27195.6
798.525	27023.17
798.856	27030.63
799.188	26691.2
799.519	26727.36
799.85	26463.64
800.182	26432.68
800.513	26512.23
800.844	26213.48
801.175	26330.31
801.506	26331.67
801.837	26163.31
802.168	26087.15
802.499	26118.56
802.83	25857.55
803.161	25851
803.491	25828.18
803.822	25636.77
804.153	25647.62
804.483	25298.7
804.814	25240.85
805.145	25178.7
805.475	25198.59
805.805	24989.33
806.136	24959.5
806.466	24988.88
806.796	24900.52
807.126	24702.1
807.457	24654.42
807.787	24591.6
808.117	24539.4
808.447	24502.79
808.777	24406.52
809.107	24184.83
809.436	24084.49
809.766	24144.38
810.096	24011.05
810.426	24018.28
810.755	23870.94
811.085	23861.9
811.414	23757.72
811.744	23465.98
812.073	23438.18
812.403	23572.19
812.732	23351.63
813.061	23318.64
813.39	23204.52
813.719	23101.47
814.049	23171.3
814.378	23105.76
814.707	23026.44
815.036	22948.03
815.365	22931.98
815.693	22642.95
816.022	22780.8
816.351	22657.86
816.68	22494.71
817.008	22541.94
817.337	22474.82
817.665	22376.29
817.994	22525.21
818.322	22356.18
818.651	22357.31
818.979	22217.88
819.307	22308.04
819.636	22253.81
819.964	22067.37
820.292	22204.54
820.62	22184.66
820.948	22036.41
821.276	22182.17
821.604	22092
821.932	22214.26
822.259	22265.78
822.587	22097.43
822.915	22052.23
823.243	22179.91
823.57	22099.69
823.898	22133.36
824.225	22010.2
824.553	22170.42
824.88	22205.67
825.207	22171.78
825.535	22210.87
825.862	22113.47
826.189	22209.74
826.516	22248.38
826.843	22306.01
827.17	22246.8
827.497	22282.96
827.824	22242.28
828.151	22255.16
828.478	22225.79
828.805	22306.91
829.131	22170.65
829.458	22159.57
829.785	21986.47
830.111	22097.43
830.438	22194.37
830.764	22147.82
831.09	22214.03
831.417	22090.2
831.743	22187.82
832.069	22127.03
832.395	22021.05
832.722	22013.81
833.048	21978.33
833.374	22024.89
833.7	21858.11
834.026	21904.21
834.351	21897.43
834.677	21844.33
835.003	21829.64
835.329	21897.21
835.654	21768.85
835.98	21639.81
836.306	21743.31
836.631	21578.12
836.956	21557.55
837.282	21517.33
837.607	21431
837.932	21537.67
838.258	21417.45
838.583	21439.37
838.908	21286.6
839.233	21272.59
839.558	21247.51
839.883	21181.97
840.208	21058.13
840.533	20980.62
840.858	20959.38
841.182	21075.31
841.507	20914.86
841.832	20790.8
842.156	20866.95
842.481	20761.87
842.805	20847.97
843.13	20790.57
843.454	20731.59
843.778	20535.66
844.103	20464.7
844.427	20549.22
844.751	20460.86
845.075	20389.68
845.399	20320.53
845.723	20263.35
846.047	20322.11
846.371	20130.47
846.695	20188.33
847.019	20032.85
847.343	19880.54
847.666	19778.39
847.99	19659.53
848.313	19744.72
848.637	19650.94
848.96	19558.96
849.284	19536.82
849.607	19348.12
849.931	19275.35
850.254	19234.9
850.577	19148.58
850.9	19114.23
851.223	18958.3
851.546	18930.51
851.869	18732.54
852.192	18829.04
852.515	18620.68
852.838	18554.7
853.161	18717.63
853.483	18597.41
853.806	18528.48
854.129	18557.86
854.451	18481.03
854.774	18396.51
855.096	18410.52
855.419	18333.46
855.741	18212.11
856.063	18127.36
856.385	18095.05
856.708	18088.72
857.03	18173.01
857.352	18001.49
857.674	18008.95
857.996	17896.86
858.318	17859.57
858.64	17901.83
858.961	17890.98
859.283	17852.34
859.605	17700.71
859.926	17807.37
860.248	17692.57
860.57	17707.49
860.891	17640.82
861.212	17649.63
861.534	17533.48
861.855	17619.13
862.176	17483.99
862.498	17502.29
862.819	17523.31
863.14	17377.1
863.461	17362.18
863.782	17277.89
864.103	17243.09
864.424	17200.16
864.745	17298.46
865.065	17159.93
865.386	17175.3
865.707	17122.42
866.027	17131
866.348	17038.8
866.668	17062.31
866.989	16988.18
867.309	16859.15
867.63	16943.44
867.95	16824.35
868.27	16723.33
868.59	16883.33
868.91	16761.3
869.23	16705.03
869.55	16656.44
869.87	16801.97
870.19	16637.68
870.51	16707.06
870.83	16645.14
871.15	16384.13
871.469	16537.35
871.789	16528.76
872.109	16533.05
872.428	16286.28
872.748	16386.39
873.067	16436.79
873.386	16508.65
873.706	16427.29
874.025	16298.94
874.344	16249.45
874.663	16306.62
874.982	16281.99
875.301	16258.03
875.62	16151.6
875.939	16157.7
876.258	16023.91
876.577	16080.18
876.896	16007.42
877.214	15961.32
877.533	16021.88
877.852	16024.14
878.17	16057.59
878.489	16050.58
878.807	15960.64
879.125	15811.49
879.444	15914.99
879.762	15832.51
880.08	15755.67
880.398	15635
880.716	15816.91
881.034	15732.62
881.352	15731.49
881.67	15636.81
881.988	15631.61
882.306	15630.48
882.624	15525.17
882.941	15421.67
883.259	15385.97
883.577	15511.61
883.894	15389.81
884.212	15382.12
884.529	15416.25
884.846	15351.62
885.164	15341.22
885.481	15338.28
885.798	15380.77
886.115	15154.33
886.432	15365.63
886.75	15225.29
887.067	15176.93
887.383	15150.27
887.7	15183.71
888.017	15064.17
888.334	15138.51
888.651	15121.79
888.967	15086.99
889.284	15053.09
889.6	14915.92
889.917	14868.24
890.233	14856.26
890.55	14838.18
890.866	14898.97
891.182	14832.53
891.498	14830.5
891.815	14762.03
892.131	14717.28
892.447	14693.33
892.763	14591.64
893.079	14575.82
893.395	14556.83
893.71	14502.82
894.026	14545.76
894.342	14557.74
894.657	14388.93
894.973	14424.86
895.289	14303.06
895.604	14292.66
895.92	14236.39
896.235	14195.04
896.55	14162.72
896.865	14165.66
897.181	13979.22
897.496	14068.03
897.811	14062.16
898.126	13918.21
898.441	13908.94
898.756	13794.59
899.071	13784.2
899.386	13743.75
899.7	13711.43
900.015	13589.4
900.33	13517.09
900.644	13537.2
900.959	13562.96
901.273	13464.66
901.588	13413.14
901.902	13395.28
902.216	13290.88
902.531	13274.83
902.845	13193.48
903.159	13206.14
903.473	13070.77
903.787	13098.79
904.101	12952.81
904.415	12960.04
904.729	12868.52
905.042	12804.79
905.356	12844.56
905.67	12789.88
905.984	12790.1
906.297	12727.28
906.611	12610.9
906.924	12594.17
907.237	12605.7
907.551	12542.88
907.864	12390.56
908.177	12432.37
908.491	12435.76
908.804	12336.1
909.117	12212.94
909.43	12185.6
909.743	12069.22
910.056	12078.26
910.368	12031.25
910.681	11952.61
910.994	11897.02
911.307	11842.1
911.619	11829.67
911.932	11767.3
912.244	11716.23
912.557	11691.6
912.869	11611.83
913.181	11513.75
913.494	11591.26
913.806	11365.51
914.118	11449.8
914.43	11271.95
914.742	11413.87
915.054	11238.96
915.366	11223.36
915.678	11200.54
915.99	11156.7
916.302	11090.71
916.613	11069.02
916.925	11029.47
917.236	11005.74
917.548	10906.99
917.859	10963.48
918.171	10797.84
918.482	10801.68
918.794	10772.3
919.105	10731.4
919.416	10594.91
919.727	10679.2
920.038	10668.35
920.349	10495.7
920.66	10548.58
920.971	10564.62
921.282	10452.08
921.593	10383.16
921.903	10364.85
922.214	10377.96
922.525	10280.56
922.835	10290.51
923.146	10251.41
923.456	10190.17
923.767	10160.11
924.077	10135.93
924.387	10083.28
924.697	10049.61
925.008	10054.58
925.318	9970.06
925.628	9930.74
925.938	9937.07
926.248	9831.54
926.558	9788.82
926.867	9761.93
927.177	9706.34
927.487	9621.6
927.796	9561.71
928.106	9681.03
928.416	9536.63
928.725	9550.19
929.034	9528.94
929.344	9571.88
929.653	9488.95
929.962	9444.43
930.271	9330.53
930.581	9360.59
930.89	9324.43
931.199	9236.75
931.508	9247.14
931.817	9147.03
932.125	9165.34
932.434	9111.33
932.743	8987.49
933.051	9052.8
933.36	8974.83
933.669	8961.95
933.977	8903.42
934.286	8904.33
934.594	8829.3
934.902	8800.38
935.21	8789.53
935.519	8808.74
935.827	8741.39
936.135	8619.59
936.443	8609.87
936.751	8647.61
937.059	8562.64
937.367	8504.79
937.674	8505.92
937.982	8389.31
938.29	8453.72
938.597	8374.85
938.905	8261.63
939.213	8312.03
939.52	8247.62
939.827	8238.58
940.135	8199.26
940.442	8138.92
940.749	8086.95
941.056	8145.03
941.363	8026.84
941.67	7961.98
941.977	7937.57
942.284	7920.63
942.591	7872.26
942.898	7884.69
943.205	7925.82
943.511	7793.62
943.818	7819.16
944.125	7710.91
944.431	7742.1
944.738	7721.76
945.044	7648.77
945.35	7595.89
945.657	7520.64
945.963	7522.44
946.269	7521.54
946.575	7429.11
946.881	7344.37
947.187	7427.98
947.493	7327.65
947.799	7362.22
948.105	7279.06
948.41	7265.28
948.716	7190.02
949.022	7175.56
949.327	7138.72
949.633	7096.01
949.938	7064.15
950.244	6994.77
950.549	7006.98
950.854	6966.53
951.16	7003.36
951.465	6944.83
951.77	6842.69
952.075	6809.69
952.38	6743.93
952.685	6864.38
952.99	6764.5
953.294	6712.52
953.599	6673.43
953.904	6605.18
954.209	6604.95
954.513	6557.05
954.818	6620.32
955.122	6486.31
955.426	6470.49
955.731	6444.73
956.035	6427.11
956.339	6361.57
956.643	6395.24
956.948	6383.94
957.252	6355.69
957.556	6318.18
957.86	6268.92
958.163	6303.49
958.467	6208.35
958.771	6236.15
959.075	6216.26
959.378	6123.38
959.682	6155.93
959.985	6072.09
960.289	6067.11
960.592	6012.88
960.896	6023.95
961.199	5972.65
961.502	5960.45
961.805	5978.08
962.108	5915.25
962.411	5910.28
962.714	5911.41
963.017	5816.05
963.32	5878.64
963.623	5775.14
963.926	5763.17
964.228	5757.97
964.531	5729.04
964.833	5715.49
965.136	5624.87
965.438	5646.79
965.741	5658.31
966.043	5603.62
966.345	5611.53
966.648	5569.27
966.95	5589.84
967.252	5524.3
967.554	5513.91
967.856	5536.28
968.158	5495.15
968.46	5432.1
968.761	5424.65
969.063	5418.77
969.365	5386.45
969.666	5409.05
969.968	5362.73
970.269	5315.5
970.571	5294.48
970.872	5278.21
971.174	5253.35
971.475	5218.32
971.776	5209.28
972.077	5197.31
972.378	5183.07
972.679	5119.12
972.98	5157.99
973.281	5077.08
973.582	5086.8
973.883	5118.66
974.183	5021.27
974.484	5003.19
974.785	5027.14
975.085	5012.45
975.386	4981.72
975.686	4941.49
975.986	4910.76
976.287	4878.45
976.587	4864.21
976.887	4877.32
977.187	4850.88
977.487	4771.1
977.787	4813.81
978.087	4749.18
978.387	4716.19
978.687	4722.29
978.987	4690.65
979.286	4675.96
979.586	4604.78
979.885	4615.4
980.185	4631.67
980.484	4579.92
980.784	4572.46
981.083	4562.75
981.382	4540.83
981.682	4529.98
981.981	4451.34
982.28	4426.93
982.579	4457.44
982.878	4463.99
983.177	4439.81
983.475	4351.68
983.774	4360.72
984.073	4345.8
984.372	4301.29
984.67	4306.93
984.969	4268.74
985.267	4264.68
985.566	4222.19
985.864	4224.23
986.162	4202.53
986.461	4182.42
986.759	4200.27
987.057	4142.42
987.355	4112.14
987.653	4121.85
987.951	4091.12
988.249	4044.34
988.547	4041.41
988.844	4053.38
989.142	4014.74
989.44	3970.67
989.737	3943.78
990.035	3914.18
990.332	3921.18
990.63	3864.01
990.927	3870.11
991.224	3843.22
991.521	3874.63
991.819	3804.8
992.116	3773.84
992.413	3763.9
992.71	3742.2
993.006	3746.5
993.303	3694.52
993.6	3711.24
993.897	3687.06
994.193	3678.93
994.49	3677.57
994.787	3623.56
995.083	3598.25
995.379	3586.73
995.676	3536.56
995.972	3515.32
996.268	3498.14
996.565	3518.03
996.861	3487.3
997.157	3479.16
997.453	3435.32
997.749	3400.07
998.044	3397.81
998.34	3393.74
998.636	3411.82
998.932	3348.77
999.227	3350.8
999.523	3349.9
999.818	3305.61
1000.114	3293.4
1000.409	3264.02
1000.704	3261.76
1001	3282.1
1001.295	3168.21
1001.59	3200.3
1001.885	3201.43
1002.18	3127.98
1002.475	3135.67
1002.77	3135.44
1003.065	3106.97
1003.359	3074.42
1003.654	3049.57
1003.949	3081.2
1004.243	3085.27
1004.538	3001.66
1004.832	2983.58
1005.127	3005.73
1005.421	2965.28
1005.715	2971.83
1006.009	2927.08
1006.304	2916.01
1006.598	2904.03
1006.892	2896.35
1007.186	2825.39
1007.48	2873.75
1007.773	2834.88
1008.067	2811.38
1008.361	2833.3
1008.655	2793.75
1008.948	2786.97
1009.242	2735.45
1009.535	2723.02
1009.829	2741.1
1010.122	2702.46
1010.415	2727.32
1010.708	2655
1011.001	2667.2
1011.295	2671.27
1011.588	2641.44
1011.881	2595.12
1012.173	2592.18
1012.466	2601.67
1012.759	2550.14
1013.052	2558.73
1013.344	2518.96
1013.637	2532.29
1013.93	2511.73
1014.222	2499.07
1014.514	2465.63
1014.807	2470.37
1015.099	2451.62
1015.391	2452.52
1015.683	2407.1
1015.976	2422.92
1016.268	2419.3
1016.56	2383.37
1016.851	2335.69
1017.143	2350.6
1017.435	2370.26
1017.727	2331.85
1018.018	2305.63
1018.31	2295.46
1018.602	2295.24
1018.893	2250.94
1019.185	2253.88
1019.476	2242.36
1019.767	2219.76
1020.058	2196.03
1020.35	2185.86
1020.641	2161.91
1020.932	2154.9
1021.223	2121.46
1021.514	2124.39
1021.804	2107.67
1022.095	2091.85
1022.386	2049.59
1022.677	2045.07
1022.967	2033.77
1023.258	2025.86
1023.548	2016.37
1023.839	1991.52
1024.129	1980.89
1024.419	1987.22
1024.709	1961.91
1025	1935.92
1025.29	1918.3
1025.58	1918.3
1025.87	1883.5
1026.16	1883.04
1026.449	1900.67
1026.739	1862.71
1027.029	1851.86
1027.319	1841.46
1027.608	1833.1
1027.898	1803.95
1028.187	1824.06
1028.477	1800.11
1028.766	1779.77
1029.055	1772.09
1029.344	1747.23
1029.634	1734.57
1029.923	1712.43
1030.212	1721.47
1030.501	1695.7
1030.79	1688.92
1031.078	1673.11
1031.367	1653.67
1031.656	1670.85
1031.945	1630.62
1032.233	1638.53
1032.522	1626.78
1032.81	1602.83
1033.099	1608.25
1033.387	1586.1
1033.675	1583.84
1033.963	1547.46
1034.251	1574.35
1034.54	1514.92
1034.828	1524.64
1035.116	1509.49
1035.403	1455.03
1035.691	1502.49
1035.979	1483.51
1036.267	1489.38
1036.554	1455.48
1036.842	1439.67
1037.129	1460.91
1037.417	1427.46
1037.704	1421.59
1037.992	1392.21
1038.279	1397.63
1038.566	1366.67
1038.853	1366.67
1039.14	1366.67
