Data from aluminium_macbook_case_FLMS001491_002.txt Node
Date: Tue Feb 07 10:43:06 GMT 2017
User: dcchb
Spectrometer: FLMS00149
Trigger mode: 0
Integration Time (sec): 2.000000E-2
Scans to average: 10
Electric dark correction enabled: true
Nonlinearity correction enabled: false
Boxcar width: 0
XAxis mode: Wavelengths
Number of Pixels in Spectrum: 2048
>>>>>Begin Spectral Data<<<<<
341.393	7.66
341.776	7.66
342.16	7.66
342.543	-80.48
342.927	-68.28
343.31	-48.39
343.693	-80.93
344.077	-71.44
344.46	-67.15
344.843	-30.08
345.226	-44.55
345.61	-36.64
345.993	-23.53
346.376	-0.93
346.759	14.89
347.142	14.66
347.525	41.55
347.908	66.18
348.291	71.83
348.674	84.04
349.057	110.48
349.44	127.43
349.823	140.76
350.206	186.41
350.588	218.95
350.971	246.07
351.354	267.99
351.737	298.27
352.119	313.41
352.502	306.63
352.884	318.16
353.267	332.17
353.65	341.21
354.032	347.53
354.414	348.89
354.797	362.45
355.179	370.36
355.562	382.79
355.944	397.93
356.326	405.38
356.709	422.11
357.091	400.19
357.473	402.45
357.855	402.9
358.238	416.68
358.62	412.84
359.002	439.73
359.384	411.94
359.766	425.72
360.148	422.11
360.53	419.62
360.912	424.37
361.294	430.92
361.676	432.05
362.057	421.66
362.439	401.09
362.821	387.98
363.203	410.13
363.584	427.98
363.966	413.29
364.348	431.15
364.729	414.42
365.111	430.47
365.493	409.68
365.874	417.59
366.256	421.2
366.637	423.46
367.019	416.46
367.4	436.57
367.781	458.72
368.163	444.25
368.544	440.41
368.925	439.51
369.306	458.04
369.688	446.97
370.069	435.67
370.45	458.94
370.831	472.95
371.212	459.17
371.593	444.25
371.974	468.21
372.355	463.01
372.736	457.36
373.117	486.96
373.498	458.94
373.879	473.63
374.26	443.58
374.641	448.77
375.021	462.78
375.402	498.04
375.783	493.74
376.163	527.64
376.544	520.18
376.925	524.7
377.305	523.35
377.686	519.73
378.066	521.54
378.447	530.58
378.827	524.03
379.208	541.88
379.588	543.46
379.968	545.95
380.349	547.3
380.729	536.45
381.109	554.76
381.489	581.2
381.87	593.63
382.25	586.4
382.63	598.6
383.01	599.28
383.39	595.89
383.77	592.95
384.15	625.04
384.53	650.35
384.91	647.41
385.29	624.59
385.67	635.44
386.049	644.7
386.429	655.1
386.809	660.07
387.189	676.56
387.568	670.46
387.948	669.33
388.328	696.9
388.707	712.95
389.087	709.11
389.466	724.02
389.846	710.24
390.225	757.01
390.605	751.82
390.984	745.26
391.363	760.18
391.743	782.55
392.122	796.33
392.501	808.31
392.881	808.09
393.26	834.75
393.639	829.1
394.018	835.43
394.397	840.4
394.776	854.64
395.155	845.15
395.534	870.91
395.913	877.91
396.292	871.36
396.671	931.7
397.05	920.85
397.429	925.82
397.808	932.6
398.186	920.4
398.565	969.21
398.944	940.51
399.323	995.65
399.701	957.01
400.08	1014.86
400.458	994.97
400.837	988.42
401.215	1017.8
401.594	1051.02
401.972	1038.81
402.351	1054.86
402.729	1079.72
403.107	1095.08
403.486	1117.23
403.864	1118.13
404.242	1119.04
404.62	1120.17
404.999	1161.52
405.377	1180.73
405.755	1189.09
406.133	1209.21
406.511	1230.45
406.889	1236.32
407.267	1257.79
407.645	1258.7
408.023	1304.57
408.401	1301.63
408.779	1340.5
409.156	1400.61
409.534	1377.56
409.912	1401.29
410.29	1402.87
410.667	1427.5
411.045	1465.7
411.422	1486.03
411.8	1489.42
412.178	1503.89
412.555	1529.2
412.933	1574.62
413.31	1556.32
413.687	1611.23
414.065	1625.24
414.442	1644.22
414.819	1676.09
415.197	1706.14
415.574	1725.12
415.951	1716.08
416.328	1754.73
416.705	1764.22
417.082	1799.47
417.46	1801.05
417.837	1844.22
418.214	1858.91
418.591	1862.3
418.967	1916.31
419.344	1846.7
419.721	1909.3
420.098	1921.96
420.475	1980.48
420.852	1973.25
421.228	2030.2
421.605	2027.72
421.982	2049.18
422.358	2089.63
422.735	2086.24
423.111	2130.54
423.488	2149.29
423.864	2193.13
424.241	2212.34
424.617	2205.56
424.994	2230.87
425.37	2257.09
425.746	2316.75
426.123	2319.68
426.499	2350.19
426.875	2404.43
427.251	2420.25
427.627	2499.12
428.003	2524.43
428.379	2534.59
428.756	2568.27
429.132	2639.9
429.507	2656.63
429.883	2697.3
430.259	2694.36
430.635	2758.77
431.011	2774.14
431.387	2894.58
431.763	2920.35
432.138	2934.13
432.514	2999.89
432.89	2987.92
433.265	3064.75
433.641	3104.3
434.016	3131.87
434.392	3191.75
434.767	3245.31
435.143	3214.58
435.518	3292.99
435.894	3321.47
436.269	3346.32
436.644	3425.19
437.02	3504.29
437.395	3512.65
437.77	3541.8
438.145	3582.25
438.52	3627.45
438.895	3692.3
439.271	3686.43
439.646	3790.83
440.021	3802.81
440.395	3831.96
440.77	3804.84
441.145	3875.12
441.52	4012.3
441.895	3929.59
442.27	4016.14
442.645	3990.15
443.019	4028.57
443.394	4062.01
443.769	4112.18
444.143	4130.48
444.518	4191.5
444.892	4194.21
445.267	4201.9
445.641	4276.24
446.016	4259.52
446.39	4347.43
446.764	4379.74
447.139	4379.29
447.513	4425.17
447.887	4511.04
448.262	4520.98
448.636	4523.92
449.01	4621.09
449.384	4641.88
449.758	4709.68
450.132	4804.14
450.506	4743.58
450.88	4847.53
451.254	4858.83
451.628	4939.05
452.002	4943.34
452.376	5044.81
452.75	5079.16
453.123	5129.33
453.497	5206.39
453.871	5228.76
454.244	5358.02
454.618	5401.64
454.992	5451.81
455.365	5432.82
455.739	5657.9
456.112	5711.46
456.486	5702.42
456.859	5756.2
457.232	5978.57
457.606	5913.94
457.979	6026.25
458.352	6194.84
458.725	6235.97
459.099	6321.84
459.472	6415.4
459.845	6507.37
460.218	6476.86
460.591	6604.54
460.964	6635.05
461.337	6764.09
461.71	6949.39
462.083	7010.18
462.456	7022.84
462.829	7075.72
463.201	7154.13
463.574	7174.02
463.947	7324.3
464.32	7551.86
464.692	7533.33
465.065	7613.78
465.438	7698.98
465.81	7880.67
466.183	7945.53
466.555	8138.97
466.928	8144.84
467.3	8228.23
467.672	8422.58
468.045	8630.25
468.417	8695.56
468.789	8713.87
469.161	8849.91
469.534	8979.17
469.906	9211.25
470.278	9272.72
470.65	9390.46
471.022	9555.43
471.394	9696.44
471.766	9772.37
472.138	9969.65
472.51	10157.67
472.882	10286.48
473.253	10389.76
473.625	10544.33
473.997	10736.86
474.369	10839.23
474.74	10972.79
475.112	11177.08
475.484	11442.38
475.855	11577.97
476.227	11688.93
476.598	12067.68
476.97	12170.95
477.341	12533.2
477.713	12724.16
478.084	12777.94
478.455	13182.9
478.827	13298.38
479.198	13684.58
479.569	13742.44
479.94	14146.27
480.311	14206.15
480.682	14541.96
481.053	14837.55
481.424	15111.44
481.795	15285.45
482.166	15503.74
482.537	15778.54
482.908	16120
483.279	16117.29
483.65	16434.34
484.021	16804.28
484.391	16891.73
484.762	17080.65
485.133	17354.77
485.503	17694.65
485.874	18033.85
486.244	18213.05
486.615	18568.07
486.985	18808.52
487.356	19260.71
487.726	19317.66
488.097	19870.41
488.467	19924.65
488.837	20378.87
489.207	20474.01
489.578	20781.57
489.948	21128.68
490.318	21458.16
490.688	21480.76
491.058	21796.91
491.428	22186.51
491.798	22327.75
492.168	22730.9
492.538	22861.74
492.908	23066.26
493.278	23408.4
493.648	23495.85
494.017	23673.7
494.387	23910.08
494.757	24105.55
495.126	24356.17
495.496	24403.62
495.866	24714.35
496.235	24997.28
496.605	25243.83
496.974	25380.77
497.344	25686.98
497.713	25778.95
498.082	26109.34
498.452	26412.84
498.821	26446.96
499.19	26594.07
499.559	27010.79
499.928	27232.02
500.298	27343.43
500.667	27752.69
501.036	27628.85
501.405	28040.14
501.774	28022.51
502.143	28270.19
502.512	28312.22
502.88	28808.48
503.249	28594.25
503.618	29009.6
503.987	29156.04
504.356	29323.49
504.724	29393.78
505.093	29576.6
505.462	29574.56
505.83	29901.78
506.199	30096.58
506.567	30538.6
506.936	30529.56
507.304	30997.57
507.672	31111.24
508.041	31123
508.409	31619.25
508.777	31774.96
509.145	32061.28
509.514	32216.98
509.882	32453.13
510.25	32629.4
510.618	32898.32
510.986	33071.87
511.354	33443.39
511.722	33678.86
512.09	34067.55
512.458	34016.7
512.826	34460.76
513.193	34586.18
513.561	34697.82
513.929	35026.62
514.297	35368.99
514.664	35529.21
515.032	35768.75
515.4	35995.41
515.767	36264.55
516.135	36306.14
516.502	36143.65
516.869	36810.76
517.237	36879.23
517.604	36914.26
517.972	37359.44
518.339	37657.96
518.706	37753.56
519.073	37936.38
519.44	38212.53
519.808	38637.37
520.175	38659.97
520.542	39282.55
520.909	39515.54
521.276	39604.81
521.643	39998.69
522.009	40391.45
522.376	40723.65
522.743	40928.61
523.11	41491.08
523.477	41841.81
523.843	42032.99
524.21	42603.82
524.577	42637.27
524.943	43049.69
525.31	43244.71
525.676	43683.12
526.043	43943.9
526.409	44012.15
526.776	44507.95
527.142	44547.05
527.508	44931.45
527.874	45222.74
528.241	45256.86
528.607	45435.16
528.973	45822.72
529.339	45826.11
529.705	46108.14
530.071	46503.83
530.437	46718.74
530.803	46733.21
531.169	47065.17
531.535	46929.13
531.901	47083.48
532.267	47426.75
532.632	47658.15
532.998	47886.62
533.364	48161.19
533.73	48400.73
534.095	48580.84
534.461	48921.4
534.826	49025.8
535.192	49171.56
535.557	49475.06
535.923	49551.21
536.288	49677.31
536.653	49865.33
537.019	49910.98
537.384	50200.23
537.749	50328.82
538.114	50433.67
538.479	50618.98
538.845	50794.79
539.21	50707.57
539.575	50867.79
539.94	51061
540.305	51195.24
540.67	51060.55
541.034	51203.37
541.399	51471.84
541.764	51450.14
542.129	51534.21
542.494	51629.12
542.858	51776.01
543.223	51804.49
543.587	51904.82
543.952	51905.95
544.316	52017.81
544.681	52037.93
545.045	52193.63
545.41	52413.28
545.774	52435.66
546.138	52543.67
546.503	52792.26
546.867	52721.98
547.231	53030.22
547.595	53058.92
547.959	53310.89
548.324	53343.43
548.688	53522.18
549.052	53663.87
549.416	53819.8
549.779	53777.77
550.143	53856.86
550.507	54118.55
550.871	54184.99
551.235	54264.99
551.599	54534.36
551.962	54540.91
552.326	54668.59
552.689	54823.84
553.053	54700.91
553.417	54784.29
553.78	55195.58
554.143	55054.34
554.507	55166.43
554.87	55222.93
555.234	55489.59
555.597	55341.12
555.96	55478.51
556.323	55544.5
556.686	55525.52
557.05	55817.94
557.413	55770.03
557.776	55852.51
558.139	56097.71
558.502	56099.97
558.865	56124.37
559.228	56356.23
559.59	56426.74
559.953	56561.65
560.316	56824.01
560.679	56832.83
561.041	57087.51
561.404	57106.49
561.767	57341.29
562.129	57226.72
562.492	57595.29
562.854	57608.85
563.217	57614.05
563.579	57842.97
563.941	57928.84
564.304	58103.3
564.666	58267.14
565.028	58309.63
565.39	58378.78
565.753	58562.05
566.115	58617.87
566.477	58754.36
566.839	58810.63
567.201	59000.68
567.563	58987.12
567.925	59150.05
568.287	59141.69
568.648	59122.48
569.01	59305.08
569.372	59397.51
569.734	59324.74
570.095	59497.84
570.457	59550.04
570.819	59572.42
571.18	59636.6
571.542	59719.76
571.903	59743.71
572.265	59818.96
572.626	59852.41
572.987	59804.95
573.349	59912.07
573.71	60083.82
574.071	60146.41
574.432	60219.18
574.794	60383.24
575.155	60277.03
575.516	60278.39
575.877	60412.17
576.238	60487.65
576.599	60598.15
576.96	60703.69
577.32	60706.4
577.681	60804.25
578.042	60834.98
578.403	60877.47
578.763	60927.86
579.124	60976.22
579.485	61096.22
579.845	61154.3
580.206	61141.87
580.566	61170.34
580.927	61191.58
581.287	61256.89
581.648	61251.47
582.008	61361.07
582.368	61246.72
582.728	61312.26
583.089	61251.92
583.449	61238.36
583.809	61257.34
584.169	61337.79
584.529	61211.02
584.889	61382.54
585.249	61227.51
585.609	61105.03
585.969	61250.79
586.329	61136.44
586.688	61149.1
587.048	61147.29
587.408	61049.89
587.768	61081.08
588.127	61074.52
588.487	61046.28
588.846	61193.39
589.206	61038.82
589.565	61079.04
589.925	61147.52
590.284	61098.48
590.643	61174.86
591.003	61233.62
591.362	61350.22
591.721	61281.98
592.08	61293.5
592.44	61394.97
592.799	61310.22
593.158	61365.36
593.517	61377.34
593.876	61420.73
594.235	61384.57
594.593	61479.49
594.952	61515.42
595.311	61477.68
595.67	61564.91
596.029	61726.48
596.387	61652.36
596.746	61714.96
597.104	61592.7
597.463	61603.32
597.822	61726.71
598.18	61615.75
598.538	61570.56
598.897	61706.37
599.255	61554.74
599.613	61839.02
599.972	61627.73
600.33	61718.8
600.688	61622.31
601.046	61636.09
601.404	61704.34
601.762	61708.18
602.12	61799.02
602.478	61713.38
602.836	61715.86
603.194	61637
603.552	61627.96
603.91	61536.21
604.268	61700.04
604.625	61534.4
604.983	61698.91
605.341	61587.96
605.698	61699.37
606.056	61802.87
606.413	61682.87
606.771	61786.14
607.128	61831.79
607.485	61782.53
607.843	61743.21
608.2	61972.35
608.557	62029.98
608.914	61988.85
609.272	62118.79
609.629	62134.61
609.986	62230.2
610.343	62145.46
610.7	62347.94
611.057	62289.41
611.414	62301.38
611.771	62318.33
612.127	62382.96
612.484	62448.73
612.841	62491.66
613.198	62449.18
613.554	62417.09
613.911	62628.16
614.267	62587.03
614.624	62511.55
614.98	62554.94
615.337	62649.17
615.693	62590.64
616.05	62612.79
616.406	62705.67
616.762	62528.95
617.118	62581.15
617.475	62537.08
617.831	62606.01
618.187	62575.73
618.543	62616.86
618.899	62670.19
619.255	62596.52
619.611	62618.89
619.967	62677.87
620.323	62703.63
620.678	62569.63
621.034	62576.86
621.39	62450.08
621.746	62442.4
622.101	62705.44
622.457	62488.05
622.812	62596.52
623.168	62628.83
623.523	62594.71
623.879	62695.95
624.234	62577.54
624.589	62638.78
624.945	62640.36
625.3	62662.05
625.655	62683.52
626.01	62719.9
626.365	62749.51
626.72	62756.97
627.075	62741.15
627.43	62724.65
627.785	62649.85
628.14	62712.67
628.495	62750.19
628.85	62769.85
629.205	62702.28
629.559	62904.08
629.914	62658.66
630.269	62686.46
630.623	62668.83
630.978	62619.79
631.332	62718.55
631.687	62759.68
632.041	62637.42
632.396	62637.87
632.75	62542.28
633.104	62592.45
633.459	62437.88
633.813	62374.6
634.167	62412.79
634.521	62348.16
634.875	62411.21
635.229	62286.02
635.583	62161.73
635.937	62214.16
636.291	62164.66
636.645	62099.13
636.999	62084.44
637.352	62113.59
637.706	61942.98
638.06	61947.04
638.413	61921.96
638.767	61829.98
639.121	61835.86
639.474	61693.49
639.828	61747.73
640.181	61741.63
640.534	61684.9
640.888	61589.76
641.241	61518.35
641.594	61582.31
641.947	61580.73
642.301	61583.44
642.654	61593.15
643.007	61541.86
643.36	61549.54
643.713	61547.05
644.066	61592.93
644.419	61501.18
644.771	61326.95
645.124	61080.63
645.477	61146.84
645.83	60989.33
646.182	60862.33
646.535	60769.22
646.888	60874.08
647.24	60736
647.593	60829.33
647.945	60786.62
648.298	60726.74
648.65	60637.02
649.002	60609.68
649.355	60717.7
649.707	60669.34
650.059	60720.41
650.411	60933.74
650.763	61017.35
651.115	61291.24
651.467	61113.17
651.819	61130.34
652.171	61039.04
652.523	60979.84
652.875	60930.8
653.227	60851.48
653.578	61039.95
653.93	60904.81
654.282	60787.98
654.633	60680.18
654.985	60728.77
655.337	60713.18
655.688	60681.77
656.039	60773.06
656.391	60463.92
656.742	60513.18
657.094	60484.94
657.445	60484.26
657.796	60442.9
658.147	60392.28
658.498	60348.89
658.849	60442.9
659.2	60320.42
659.551	60286.52
659.902	60317.71
660.253	60299.18
660.604	60285.84
660.955	60168.56
661.306	60285.17
661.656	60265.05
662.007	60246.52
662.358	60254.43
662.708	60242.91
663.059	60255.11
663.409	60068.45
663.76	60266.18
664.11	60253.75
664.461	60294.66
664.811	60202.68
665.161	60276.13
665.511	60208.56
665.862	60253.98
666.212	60333.3
666.562	60327.65
666.912	60273.42
667.262	60197.48
667.612	60330.36
667.962	60310.02
668.312	60276.8
668.662	60301.89
669.011	60250.82
669.361	60292.4
669.711	60134.44
670.06	60198.84
670.41	60171.27
670.76	60070.48
671.109	60192.29
671.459	60107.32
671.808	60046.98
672.157	60039.52
672.507	59914.78
672.856	59922.01
673.205	59943.71
673.554	60008.34
673.904	59936.47
674.253	59982.12
674.602	59849.47
674.951	59503.94
675.3	59338.75
675.649	59752.75
675.998	59690.61
676.346	59606.31
676.695	59723.83
677.044	59512.08
677.393	59505.3
677.741	59503.27
678.09	59431.4
678.438	59444.74
678.787	59418.97
679.135	59329.03
679.484	59169.72
679.832	59290.39
680.181	59040
680.529	59179.43
680.877	59088.36
681.225	59079.77
681.573	59183.27
681.922	59074.8
682.27	58976.5
682.618	58950.06
682.966	58920
683.314	59006.56
683.661	58852.89
684.009	58842.94
684.357	58797.3
684.705	58736.73
685.053	58835.94
685.4	58718.65
685.748	58662.84
686.095	58661.25
686.443	58524.08
686.79	58482.5
687.138	58594.14
687.485	58571.09
687.832	58487.47
688.18	58536.74
688.527	58386.91
688.874	58389.17
689.221	58351.43
689.568	58319.12
689.915	58216.29
690.262	58171.78
690.609	58114.15
690.956	58061.72
691.303	57953.93
691.65	57902.18
691.997	57800.26
692.344	57618.57
692.69	57635.52
693.037	57655.18
693.383	57396.88
693.73	57523.88
694.077	57303.32
694.423	57426.48
694.769	57242.31
695.116	57194.63
695.462	57118.24
695.808	56965.03
696.155	57007.29
696.501	56830.12
696.847	56814.98
697.193	56598.48
697.539	56636.67
697.885	56455.44
698.231	56244.82
698.577	56334.99
698.923	56197.59
699.269	56099.97
699.614	55951.49
699.96	55953.53
700.306	55881.21
700.651	55651.62
700.997	55545.18
701.342	55692.29
701.688	55450.72
702.033	55396.48
702.379	55382.24
702.724	55247.78
703.069	55389.02
703.415	54977.51
703.76	55070.16
704.105	54986.1
704.45	54799.66
704.795	54728.02
705.14	54717.4
705.485	54663.39
705.83	54573.45
706.175	54599.67
706.52	54476.28
706.865	54421.14
707.209	54378.65
707.554	54351.31
707.899	54404.64
708.243	54325.32
708.588	54234.48
708.932	53980.25
709.277	54013.01
709.621	54169.62
709.966	53904.32
710.31	53912.45
710.654	53683.98
710.998	53822.29
711.342	53871.78
711.687	53633.82
712.031	53617.54
712.375	53528.28
712.719	53627.04
713.063	53503.65
713.407	53483.54
713.75	53454.39
714.094	53408.96
714.438	53134.17
714.782	53256.2
715.125	53003.78
715.469	53134.39
715.812	52940.27
716.156	52891.24
716.499	52861.63
716.843	52757.68
717.186	52625.48
717.53	52637.01
717.873	52592.94
718.216	52470
718.559	52302.33
718.902	52087.42
719.246	52081.99
719.589	51911.6
719.932	51839.74
720.275	51888.55
720.617	51780.08
720.96	51654.88
721.303	51583.93
721.646	51619.41
721.989	51385.06
722.331	51336.48
722.674	51266.87
723.016	51263.26
723.359	51218.29
723.701	51062.81
724.044	50937.84
724.386	50673.22
724.729	50828.24
725.071	50593.67
725.413	50735.81
725.755	50592.77
726.097	50574.91
726.439	50293.34
726.782	50210.18
727.124	50366.11
727.465	50143.51
727.807	50155.72
728.149	50170.63
728.491	50063.97
728.833	50160.69
729.175	50082.27
729.516	49951.43
729.858	49829.62
730.199	49801.83
730.541	49652.9
730.882	49758.66
731.224	49847.25
731.565	49527.03
731.906	49633.24
732.248	49707.37
732.589	49425.11
732.93	49448.62
733.271	49433.47
733.612	49517.31
733.953	49513.92
734.294	49325.68
734.635	49227.83
734.976	49385.79
735.317	49259.69
735.658	49175.18
735.999	49045.69
736.339	49210.2
736.68	49308.96
737.021	48997.78
737.361	48838.01
737.702	49063.54
738.042	48955.07
738.383	48872.13
738.723	48899.02
739.063	48721.4
739.404	48701.06
739.744	48665.36
740.084	48424.01
740.424	48385.59
740.764	48241.64
741.104	48241.64
741.444	48219.72
741.784	48000.97
742.124	47964.36
742.464	47836.45
742.804	47691.15
743.143	47645.27
743.483	47577.03
743.823	47432.85
744.162	47335.9
744.502	47401.89
744.841	47111.95
745.181	47280.76
745.52	46948.34
745.86	46950.15
746.199	46917.38
746.538	46725.3
746.877	46734.11
747.216	46768.69
747.556	46513.33
747.895	46427
748.234	46213.45
748.573	46151.53
748.911	46157.18
749.25	45964.41
749.589	45903.4
749.928	45928.48
750.267	45868.14
750.605	45784.3
750.944	45617.08
751.283	45335.73
751.621	45499.34
751.96	45282.4
752.298	45071.56
752.636	45217.54
752.975	45050.54
753.313	44818
753.651	44993.82
753.989	44712.92
754.327	44733.48
754.666	44518.35
755.004	44658.46
755.342	44449.42
755.679	44483.77
756.017	44241.97
756.355	44336.66
756.693	44290.56
757.031	44217.79
757.368	43855.32
757.706	43874.3
758.044	43676.56
758.381	43757.69
758.719	43726.05
759.056	43752.04
759.394	43470.47
759.731	43253.52
760.068	43175.79
760.405	43181.44
760.743	42951.38
761.08	43065.28
761.417	42997.49
761.754	42667.1
762.091	42738.51
762.428	42712.52
762.765	42374.45
763.102	42595.91
763.438	42310.72
763.775	42145.76
764.112	42072.99
764.449	42119.09
764.785	42010.39
765.122	41750.06
765.458	41599.78
765.795	41540.8
766.131	41391.2
766.467	41149.85
766.804	40959.8
767.14	40869.86
767.476	40723.19
767.812	40597.32
768.148	40667.38
768.485	40288.63
768.821	40039.37
769.157	39869.88
769.492	39937.23
769.828	39701.07
770.164	39407.3
770.5	39367.07
770.836	39177.47
771.171	38949.23
771.507	39021.54
771.842	38622.01
772.178	38599.63
772.513	38446.42
772.849	38300.66
773.184	37959.43
773.519	38037.16
773.855	37789.26
774.19	37655.03
774.525	37413.68
774.86	37413.45
775.195	37342.49
775.53	37008.04
775.865	36907.93
776.2	36552.68
776.535	36359.24
776.87	36444.66
777.205	36156.76
777.539	36046.93
777.874	36023.88
778.209	35677.23
778.543	35580.51
778.878	35477.91
779.212	35517.46
779.547	35368.53
779.881	35332.83
780.215	35096.22
780.55	35108.65
780.884	34924.7
781.218	34812.62
781.552	34724.48
781.886	34684.71
782.22	34404.49
782.554	34145.51
782.888	34023.03
783.222	33938.51
783.556	33904.17
783.889	33783.94
784.223	33447.91
784.557	33532.88
784.89	33620.56
785.224	33345.31
785.557	33051.53
785.891	33160.91
786.224	33147.8
786.558	33194.58
786.891	32873.91
787.224	32608.15
787.557	32622.62
787.891	32588.72
788.224	32562.05
788.557	32413.13
788.89	32543.07
789.223	32404.32
789.556	32048.62
789.888	31954.16
790.221	31845.69
790.554	31765.69
790.887	31759.36
791.219	31477.34
791.552	31420.61
791.884	31266.49
792.217	31188.3
792.549	31154.18
792.882	30987.86
793.214	30856.34
793.546	30902.89
793.879	30832.16
794.211	30501.09
794.543	30651.6
794.875	30443.92
795.207	30446.4
795.539	30260.65
795.871	30192.17
796.203	29834.44
796.535	29686.65
796.867	29723.03
797.198	29645.07
797.53	29602.13
797.862	29361.69
798.193	29469.25
798.525	29107.68
798.856	29106.55
799.188	28780.23
799.519	28727.8
799.85	28438.55
800.182	28487.81
800.513	28607.58
800.844	28268.38
801.175	28352.22
801.506	28263.86
801.837	28173.92
802.168	27973.7
802.499	27914.04
802.83	27780.71
803.161	27505.46
803.491	27580.49
803.822	27452.13
804.153	27256.88
804.483	27175.08
804.814	27023.67
805.145	27060.05
805.475	26993.39
805.805	26904.35
806.136	26883.78
806.466	26821.87
806.796	26765.37
807.126	26422.1
807.457	26560.4
807.787	26503.91
808.117	26367.19
808.447	26209.68
808.777	26300.3
809.107	26148.66
809.436	26069.79
809.766	26050.13
810.096	25988.67
810.426	25879.29
810.755	25746.87
811.085	25716.13
811.414	25740.09
811.744	25545.74
812.073	25561.11
812.403	25441.11
812.732	25219.87
813.061	25388
813.39	25160.67
813.719	25211.51
814.049	25359.76
814.378	25200.67
814.707	25065.53
815.036	24999.09
815.365	24958.41
815.693	24815.82
816.022	24820.56
816.351	24687.68
816.68	24702.6
817.008	24882.48
817.337	24574.92
817.665	24489.72
817.994	24660.34
818.322	24508.03
818.651	24426.22
818.979	24412.66
819.307	24455.6
819.636	24402.95
819.964	24233.23
820.292	24400.46
820.62	24342.83
820.948	24309.39
821.276	24421.02
821.604	24245.66
821.932	24272.1
822.259	24466.9
822.587	24203.86
822.915	24161.14
823.243	24250.41
823.57	24157.75
823.898	24223.06
824.225	24155.49
824.553	24001.15
824.88	24223.74
825.207	24182.39
825.535	24125.67
825.862	24284.53
826.189	24107.59
826.516	24168.15
826.843	24241.59
827.17	24150.07
827.497	24078.66
827.824	24160.01
828.151	24171.99
828.478	24072.56
828.805	24084.08
829.131	24041.37
829.458	23997.53
829.785	23847.03
830.111	23914.37
830.438	23955.73
830.764	23902.85
831.09	23925.44
831.417	23829.18
831.743	23933.35
832.069	23841.6
832.395	23645
832.722	23775.17
833.048	23662.17
833.374	23561.39
833.7	23523.2
834.026	23584.21
834.351	23564.78
834.677	23510.09
835.003	23606.13
835.329	23464.67
835.654	23470.09
835.98	23237.1
836.306	23282.3
836.631	23257.44
836.956	23312.81
837.282	23338.34
837.607	23225.58
837.932	23063.77
838.258	23038.91
838.583	23058.12
838.908	22840.05
839.233	22912.36
839.558	22848.64
839.883	22725.48
840.208	22714.63
840.533	22728.19
840.858	22759.15
841.182	22754.18
841.507	22582.88
841.832	22443.45
842.156	22544.92
842.481	22541.75
842.805	22376.33
843.13	22456.33
843.454	22315.77
843.778	22302.21
844.103	22325.71
844.427	22254.08
844.751	22226.28
845.075	22254.98
845.399	22155.77
845.723	22190.12
846.047	22211.14
846.371	21982.9
846.695	21981.31
847.019	21750.81
847.343	21843.92
847.666	21598.95
847.99	21520.31
848.313	21598.5
848.637	21459.75
848.96	21307.89
849.284	21382.23
849.607	21253.88
849.931	21278.06
850.254	21149.47
850.577	20943.83
850.9	20792.42
851.223	20775.7
851.546	20751.97
851.869	20610.73
852.192	20739.31
852.515	20608.7
852.838	20483.73
853.161	20617.06
853.483	20412.09
853.806	20411.41
854.129	20355.14
854.451	20315.37
854.774	20212.1
855.096	20236.95
855.419	20047.58
855.741	20111.76
856.063	19902.5
856.385	19899.56
856.708	19796.97
857.03	19798.1
857.352	19729.4
857.674	19611.43
857.996	19627.93
858.318	19477.65
858.64	19499.12
858.961	19476.75
859.283	19351.78
859.605	19272.01
859.926	19198.79
860.248	19134.84
860.57	19081.28
860.891	19162.18
861.212	19133.93
861.534	18992.24
861.855	18907.27
862.176	18904.33
862.498	18860.49
862.819	18883.77
863.14	18865.69
863.461	18746.6
863.782	18543.66
864.103	18600.39
864.424	18487.62
864.745	18583.89
865.065	18469.09
865.386	18405.59
865.707	18388.19
866.027	18341.18
866.348	18314.97
866.668	18328.98
866.989	18224.8
867.309	17985.26
867.63	18180.06
867.95	18143.45
868.27	17901.65
868.59	18058.93
868.91	18092.83
869.23	17954.98
869.55	17855.77
869.87	17927.41
870.19	17900.07
870.51	17860.97
870.83	17798.83
871.15	17697.81
871.469	17784.14
871.789	17752.05
872.109	17801.54
872.428	17626.17
872.748	17676.12
873.067	17611.03
873.386	17674.99
873.706	17570.81
874.025	17499.62
874.344	17483.81
874.663	17538.04
874.982	17452.39
875.301	17465.5
875.62	17380.53
875.939	17446.07
876.258	17380.08
876.577	17326.07
876.896	17330.36
877.214	17234.77
877.533	17318.84
877.852	17382.11
878.17	17368.1
878.489	17309.57
878.807	17302.12
879.125	17331.04
879.444	17257.37
879.762	17181.21
880.08	17214.43
880.398	17098.05
880.716	17057.83
881.034	17072.07
881.352	17128.33
881.67	17058.96
881.988	17147.09
882.306	17116.81
882.624	17015.12
882.941	16945.74
883.259	16940.77
883.577	16906.65
883.894	16884.27
884.212	16835.24
884.529	16918.62
884.846	16862.35
885.164	16752.75
885.481	16718.63
885.798	16783.49
886.115	16679.99
886.432	16681.57
886.75	16550.5
887.067	16691.28
887.383	16649.93
887.7	16599.08
888.017	16574.23
888.334	16613.55
888.651	16546.43
888.967	16497.39
889.284	16404.06
889.6	16379.88
889.917	16209.72
890.233	16267.11
890.55	16265.98
890.866	16339.66
891.182	16177.63
891.498	16069.61
891.815	16081.36
892.131	16036.61
892.447	16001.36
892.763	16002.71
893.079	15977.18
893.395	15815.38
893.71	15821.48
894.026	15800.01
894.342	15708.26
894.657	15659.22
894.973	15648.6
895.289	15557.53
895.604	15435.5
895.92	15377.42
896.235	15377.65
896.55	15379.91
896.865	15286.8
897.181	15174.94
897.496	15258.55
897.811	15176.07
898.126	15054.72
898.441	14998
898.756	14965.45
899.071	14836.87
899.386	14865.34
899.7	14765.46
900.015	14776.53
900.33	14565.01
900.644	14681.85
900.959	14674.16
901.273	14445.92
901.588	14372.7
901.902	14275.98
902.216	14196.66
902.531	14300.84
902.845	14226.72
903.159	14107.85
903.473	14098.81
903.787	14063.33
904.101	13972.03
904.415	13958.02
904.729	13816.33
905.042	13795.54
905.356	13758.71
905.67	13780.17
905.984	13679.84
906.297	13631.25
906.611	13488.88
906.924	13492.95
907.237	13408.88
907.551	13439.84
907.864	13381.77
908.177	13380.86
908.491	13182.22
908.804	13214.31
909.117	13050.48
909.43	13014.09
909.743	13007.77
910.056	12907.2
910.368	12916.02
910.681	12836.7
910.994	12773.87
911.307	12794.66
911.619	12636.02
911.932	12722.35
912.244	12580.66
912.557	12603.71
912.869	12564.39
913.181	12461.79
913.494	12538.85
913.806	12421.79
914.118	12361.91
914.43	12381.12
914.742	12360.55
915.054	12286.88
915.366	12235.81
915.678	12124.85
915.99	12057.73
916.302	12003.5
916.613	12003.05
916.925	12050.95
917.236	11951.97
917.548	11944.52
917.859	11965.98
918.171	11789.04
918.482	11705.2
918.794	11671.76
919.105	11714.47
919.416	11669.72
919.727	11690.96
920.038	11593.11
920.349	11610.06
920.66	11518.31
920.971	11443.96
921.282	11411.88
921.593	11352.44
921.903	11344.53
922.214	11253.46
922.525	11251.2
922.835	11140.7
923.146	11156.06
923.456	11144.54
923.767	11063.41
924.077	11035.84
924.387	11028.38
924.697	10879.01
925.008	10934.37
925.318	10953.81
925.628	10936.86
925.938	10841.04
926.248	10692.57
926.558	10756.75
926.867	10814.6
927.177	10636.75
927.487	10554.95
927.796	10510.2
928.106	10515.85
928.416	10471.79
928.725	10503.88
929.034	10402.41
929.344	10432.47
929.653	10425.23
929.962	10287.61
930.271	10226.82
930.581	10216.88
930.89	10125.58
931.199	10050.55
931.508	10080.38
931.817	10046.26
932.125	10001.29
932.434	10008.52
932.743	9910.67
933.051	9836.78
933.36	9831.58
933.669	9718.13
933.977	9676.1
934.286	9615.09
934.594	9673.84
934.902	9569.44
935.21	9554.75
935.519	9504.58
935.827	9390.69
936.135	9347.75
936.443	9303.46
936.751	9251.48
937.059	9263.68
937.367	9168.32
937.674	9150.92
937.982	9149.34
938.29	9065.72
938.597	9046.97
938.905	8947.31
939.213	8905.73
939.52	8872.28
939.827	8867.76
940.135	8864.82
940.442	8745.28
940.749	8739.18
941.056	8719.97
941.363	8626.41
941.67	8605.62
941.977	8584.6
942.284	8486.08
942.591	8515.45
942.898	8462.35
943.205	8399.52
943.511	8340.77
943.818	8266.65
944.125	8296.93
944.431	8198.17
944.738	8252.18
945.044	8159.08
945.35	8056.94
945.657	8002.25
945.963	8032.53
946.269	8032.75
946.575	7924.96
946.881	7934.68
947.187	7944.85
947.493	7838.41
947.799	7806.77
948.105	7763.16
948.41	7764.74
948.716	7815.81
949.022	7643.16
949.327	7677.96
949.633	7600.22
949.938	7596.16
950.244	7602.94
950.549	7567.91
950.854	7459.44
951.16	7457.4
951.465	7341.93
951.77	7363.62
952.075	7326.78
952.38	7286.33
952.685	7289.95
952.99	7236.39
953.294	7179.67
953.599	7178.54
953.904	7109.84
954.209	7150.52
954.513	7144.87
954.818	7071.65
955.122	7089.73
955.426	7061.71
955.731	7003.63
956.035	6959.56
956.339	6946.46
956.643	6968.6
956.948	6902.16
957.252	6851.32
957.556	6837.31
957.86	6814.03
958.163	6801.37
958.467	6762.05
958.771	6686.12
959.075	6713.69
959.378	6610.65
959.682	6621.94
959.985	6615.62
960.289	6602.74
960.592	6601.15
960.896	6563.41
961.199	6513.25
961.502	6595.5
961.805	6489.29
962.108	6472.34
962.411	6441.38
962.714	6389.18
963.017	6367.94
963.32	6404.32
963.623	6409.97
963.926	6384.89
964.228	6269.64
964.531	6316.42
964.833	6283.2
965.136	6236.19
965.438	6199.36
965.741	6196.19
966.043	6155.06
966.345	6113.48
966.648	6107.61
966.95	6095.63
967.252	6054.73
967.554	6017.89
967.856	5968.4
968.158	5988.06
968.46	5927.73
968.761	5952.81
969.063	5906.03
969.365	5851.12
969.666	5860.38
969.968	5806.15
970.269	5793.94
970.571	5765.7
970.872	5790.33
971.174	5729.76
971.475	5737.9
971.776	5710.33
972.077	5661.52
972.378	5644.12
972.679	5619.26
972.98	5546.72
973.281	5593.72
973.582	5548.3
973.883	5522.76
974.183	5494.06
974.484	5496.78
974.785	5419.49
975.085	5463.78
975.386	5417.23
975.686	5300.17
975.986	5327.29
976.287	5347.18
976.587	5264.69
976.887	5246.39
977.187	5211.13
977.487	5151.7
977.787	5155.77
978.087	5152.83
978.387	5116.45
978.687	5094.75
978.987	5104.92
979.286	5080.97
979.586	5038.26
979.885	4986.96
980.185	4951.93
980.484	4975.43
980.784	4977.92
981.083	4926.62
981.382	4891.14
981.682	4856.12
981.981	4817.25
982.28	4793.29
982.579	4779.28
982.878	4746.29
983.177	4752.39
983.475	4706.97
983.774	4647.76
984.073	4642.34
984.372	4567.54
984.67	4579.06
984.969	4574.09
985.267	4519.4
985.566	4540.19
985.864	4460.42
986.162	4462.91
986.461	4448.89
986.759	4349.24
987.057	4360.76
987.355	4370.7
987.653	4411.83
987.951	4340.65
988.249	4316.24
988.547	4302.01
988.844	4297.71
989.142	4306.07
989.44	4235.57
989.737	4190.6
990.035	4186.75
990.332	4184.04
990.63	4131.39
990.927	4125.06
991.224	4129.81
991.521	4090.03
991.819	4083.48
992.116	4070.15
992.413	4009.36
992.71	4018.62
993.006	3991.51
993.303	3998.74
993.6	3916.48
993.897	3939.98
994.193	3909.47
994.49	3895.46
994.787	3872.86
995.083	3860.89
995.379	3834.67
995.676	3797.84
995.972	3784.96
996.268	3753.77
996.565	3749.7
996.861	3719.42
997.157	3765.97
997.453	3688.91
997.749	3735.69
998.044	3667.22
998.34	3666.09
998.636	3640.33
998.932	3642.36
999.227	3589.48
999.523	3587.9
999.818	3547.45
1000.114	3554.45
1000.409	3538.64
1000.704	3515.36
1001	3499.99
1001.295	3471.07
1001.59	3476.49
1001.885	3406.44
1002.18	3401.24
1002.475	3362.37
1002.77	3421.58
1003.065	3368.92
1003.359	3345.19
1003.654	3339.77
1003.949	3335.03
1004.243	3292.77
1004.538	3248.25
1004.832	3269.94
1005.127	3264.29
1005.421	3211.86
1005.715	3195.37
1006.009	3197.4
1006.304	3149.95
1006.598	3183.16
1006.892	3152.21
1007.186	3103.39
1007.48	3091.87
1007.773	3069.27
1008.067	3034.24
1008.361	3013
1008.655	3025.88
1008.948	3012.32
1009.242	3005.99
1009.535	3023.62
1009.829	2951.98
1010.122	2943.85
1010.415	2941.59
1010.708	2924.87
1011.001	2885.77
1011.295	2838.09
1011.588	2867.02
1011.881	2878.09
1012.173	2851.2
1012.466	2795.6
1012.759	2791.08
1013.052	2780.24
1013.344	2762.61
1013.637	2785.21
1013.93	2715.15
1014.222	2709.05
1014.514	2675.83
1014.807	2712.67
1015.099	2679.9
1015.391	2681.48
1015.683	2612.78
1015.976	2624.31
1016.268	2632.22
1016.56	2593.35
1016.851	2573.46
1017.143	2575.05
1017.435	2532.33
1017.727	2514.48
1018.018	2489.62
1018.31	2487.36
1018.602	2449.85
1018.893	2476.06
1019.185	2446.91
1019.476	2431.77
1019.767	2397.87
1020.058	2376.63
1020.35	2362.17
1020.641	2388.61
1020.932	2354.94
1021.223	2324.43
1021.514	2321.72
1021.804	2280.14
1022.095	2257.31
1022.386	2255.05
1022.677	2229.74
1022.967	2227.94
1023.258	2164.89
1023.548	2185.23
1023.839	2157.88
1024.129	2132.8
1024.419	2154.72
1024.709	2074.04
1025	2090.54
1025.29	2101.39
1025.58	2080.37
1025.87	2035.4
1026.16	2043.53
1026.449	1999.02
1026.739	1989.75
1027.029	1988.17
1027.319	1974.38
1027.608	1977.32
1027.898	1966.25
1028.187	1932.58
1028.477	1918.57
1028.766	1923.54
1029.055	1871.56
1029.344	1884.89
1029.634	1847.15
1029.923	1847.61
1030.212	1836.08
1030.501	1797.21
1030.79	1787.04
1031.078	1778.91
1031.367	1754.05
1031.656	1736.65
1031.945	1743.88
1032.233	1746.59
1032.522	1719.93
1032.81	1685.58
1033.099	1695.07
1033.387	1710.66
1033.675	1679.93
1033.963	1668.63
1034.251	1649.65
1034.54	1620.72
1034.828	1555.86
1035.116	1636.09
1035.403	1586.6
1035.691	1569.2
1035.979	1592.92
1036.267	1532.36
1036.554	1506.15
1036.842	1517.22
1037.129	1507.05
1037.417	1525.36
1037.704	1484.68
1037.992	1465.7
1038.279	1461.18
1038.566	1456.66
1038.853	1456.66
1039.14	1456.66
