Data from aluminium_surface_pro_back_FLMS001491_00023.txt Node
Date: Wed Feb 08 15:33:49 GMT 2017
User: dcchb
Spectrometer: FLMS00149
Trigger mode: 0
Integration Time (sec): 2.000000E-2
Scans to average: 10
Electric dark correction enabled: true
Nonlinearity correction enabled: false
Boxcar width: 0
XAxis mode: Wavelengths
Number of Pixels in Spectrum: 2048
>>>>>Begin Spectral Data<<<<<
341.393	-21.81
341.776	-21.81
342.16	-21.81
342.543	-74.01
342.927	-91.18
343.31	-65.65
343.693	-64.74
344.077	-71.3
344.46	-65.87
344.843	-69.94
345.226	-34.46
345.61	-27.23
345.993	-1.24
346.376	-5.76
346.759	-9.15
347.142	34.46
347.525	41.69
347.908	57.74
348.291	76.27
348.674	88.47
349.057	116.72
349.44	126.44
349.823	148.58
350.206	184.97
350.588	213.21
350.971	217.73
351.354	259.32
351.737	246.21
352.119	277.39
352.502	275.36
352.884	302.7
353.267	307.22
353.65	311.74
354.032	335.7
354.414	340.44
354.797	337.96
355.179	347.67
355.562	352.19
355.944	353.1
356.326	369.82
356.709	352.42
357.091	347.9
357.473	369.14
357.855	368.01
358.238	366.21
358.62	389.71
359.002	365.75
359.384	377.05
359.766	370.05
360.148	375.24
360.53	380.22
360.912	384.51
361.294	385.19
361.676	368.46
362.057	372.76
362.439	370.27
362.821	393.55
363.203	389.26
363.584	360.1
363.966	358.07
364.348	387.22
364.729	373.89
365.111	358.3
365.493	379.99
365.874	372.76
366.256	394
366.637	372.31
367.019	351.97
367.4	368.92
367.781	391.06
368.163	360.1
368.544	372.08
368.925	372.08
369.306	391.97
369.688	398.29
370.069	381.57
370.45	370.72
370.831	374.34
371.212	378.18
371.593	384.06
371.974	415.24
372.355	371.85
372.736	397.62
373.117	390.84
373.498	402.14
373.879	366.66
374.26	395.36
374.641	396.94
375.021	385.19
375.402	417.28
375.783	408.01
376.163	424.28
376.544	429.93
376.925	439.42
377.305	405.07
377.686	406.66
378.066	436.26
378.447	443.49
378.827	411.4
379.208	429.93
379.588	431.51
379.968	434.68
380.349	433.32
380.729	452.08
381.109	448.91
381.489	473.32
381.87	457.95
382.25	459.08
382.63	459.31
383.01	480.33
383.39	456.15
383.77	484.39
384.15	480.78
384.53	488.46
384.91	475.13
385.29	509.7
385.67	485.75
386.049	499.31
386.429	513.09
386.809	515.35
387.189	496.15
387.568	528.46
387.948	514.68
388.328	519.65
388.707	541.79
389.087	553.54
389.466	532.3
389.846	543.15
390.225	534.79
390.605	563.49
390.984	571.85
391.363	571.17
391.743	595.13
392.122	598.29
392.501	594
392.881	605.52
393.26	635.35
393.639	619.31
394.018	629.7
394.397	625.41
394.776	629.93
395.155	631.28
395.534	640.1
395.913	650.94
396.292	646.65
396.671	654.56
397.05	666.08
397.429	673.54
397.808	688
398.186	671.28
398.565	691.39
398.944	696.14
399.323	715.35
399.701	726.65
400.08	735.91
400.458	727.1
400.837	746.08
401.215	752.64
401.594	740.88
401.972	785.63
402.351	803.03
402.729	770.26
403.107	806.65
403.486	812.52
403.864	823.37
404.242	828.34
404.62	825.4
404.999	860.66
405.377	837.83
405.755	849.13
406.133	858.85
406.511	887.1
406.889	874.89
407.267	874.21
407.645	916.02
408.023	928.9
408.401	918.51
408.779	953.76
409.156	947.88
409.534	982.23
409.912	1010.48
410.29	1009.13
410.667	1025.4
411.045	1015.68
411.422	1021.33
411.8	1067.66
412.178	1072.85
412.555	1100.2
412.933	1105.85
413.31	1125.28
413.687	1154.43
414.065	1133.42
414.442	1163.02
414.819	1147.2
415.197	1158.5
415.574	1191.95
415.951	1195.11
416.328	1244.6
416.705	1214.54
417.082	1252.28
417.46	1276.46
417.837	1278.27
418.214	1287.08
418.591	1297.03
418.967	1286.18
419.344	1347.2
419.721	1342.45
420.098	1345.39
420.475	1338.61
420.852	1386.07
421.228	1370.25
421.605	1384.48
421.982	1417.02
422.358	1437.36
422.735	1475.55
423.111	1453.18
423.488	1469.23
423.864	1521.88
424.241	1517.36
424.617	1524.82
424.994	1553.52
425.37	1580.86
425.746	1579.05
426.123	1586.96
426.499	1608.66
426.875	1621.99
427.251	1672.16
427.627	1708.09
428.003	1716.45
428.379	1701.76
428.756	1751.03
429.132	1808.2
429.507	1805.72
429.883	1804.13
430.259	1831.25
430.635	1843
431.011	1856.11
431.387	1917.35
431.763	1929.78
432.138	1959.16
432.514	2000.96
432.89	2013.17
433.265	2039.83
433.641	2077.12
434.016	2061.53
434.392	2119.83
434.767	2164.35
435.143	2179.49
435.518	2191.02
435.894	2209.32
436.269	2258.58
436.644	2260.17
437.02	2279.38
437.395	2323.67
437.77	2331.8
438.145	2392.59
438.52	2400.05
438.895	2415.19
439.271	2446.15
439.646	2458.13
440.021	2477.79
440.395	2512.59
440.77	2479.14
441.145	2507.39
441.52	2565.24
441.895	2544
442.27	2613.38
442.645	2654.96
443.019	2693.83
443.394	2649.08
443.769	2687.73
444.143	2670.1
444.518	2748.52
444.892	2712.81
445.267	2760.72
445.641	2772.47
446.016	2837.33
446.39	2844.56
446.764	2851.56
447.139	2854.95
447.513	2897.89
447.887	2894.27
448.262	2923.65
448.636	2941.05
449.01	2967.49
449.384	2998.68
449.758	3010.88
450.132	3066.02
450.506	3065.12
450.88	3081.39
451.254	3120.71
451.628	3167.49
452.002	3212.91
452.376	3216.07
452.75	3265.56
453.123	3281.61
453.497	3337.65
453.871	3358.22
454.244	3433.47
454.618	3459.23
454.992	3515.5
455.365	3516.86
455.739	3614.93
456.112	3625.1
456.486	3698.09
456.859	3715.95
457.232	3772.22
457.606	3714.37
457.979	3861.03
458.352	3880.24
458.725	3929.5
459.099	3994.58
459.472	4057.41
459.845	4091.08
460.218	4159.1
460.591	4178.99
460.964	4208.36
461.337	4301.47
461.71	4341.24
462.083	4391.86
462.456	4428.02
462.829	4445.19
463.201	4596.15
463.574	4549.82
463.947	4636.15
464.32	4751.4
464.692	4769.25
465.065	4821
465.438	4896.03
465.81	4992.52
466.183	4995.69
466.555	5112.75
466.928	5164.27
467.3	5149.58
467.672	5232.52
468.045	5352.51
468.417	5340.54
468.789	5472.06
469.161	5496.69
469.534	5569.68
469.906	5757.7
470.278	5717.02
470.65	5820.52
471.022	5971.03
471.394	6068.65
471.766	6115.43
472.138	6121.76
472.51	6316.56
472.882	6428.19
473.253	6486.27
473.625	6591.58
473.997	6684.68
474.369	6720.61
474.74	6812.82
475.112	6935.52
475.484	7088.51
475.855	7154.28
476.227	7215.97
476.598	7467.26
476.97	7511.78
477.341	7684.88
477.713	7810.08
478.084	7898.21
478.455	8095.04
478.827	8198.77
479.198	8414.36
479.569	8445.54
479.94	8644.63
480.311	8761.24
480.682	8913.1
481.053	9165.97
481.424	9287.78
481.795	9324.39
482.166	9480.32
482.537	9689.58
482.908	9845.5
483.279	10018.38
483.65	10079.4
484.021	10375.21
484.391	10488.2
484.762	10616.78
485.133	10642.55
485.503	10868.75
485.874	11078.01
486.244	11137.9
486.615	11374.96
486.985	11485.46
487.356	11742.63
487.726	11844.1
488.097	12078.67
488.467	12173.13
488.837	12471.42
489.207	12590.29
489.578	12753.22
489.948	12966.1
490.318	13017.85
490.688	13075.02
491.058	13408.12
491.428	13494.22
491.798	13634.78
492.168	13861.44
492.538	13972.4
492.908	14157.93
493.278	14362.45
493.648	14331.04
494.017	14583.46
494.387	14677.69
494.757	14883.79
495.126	15079.26
495.496	15156.78
495.866	15264.8
496.235	15417.33
496.605	15527.16
496.974	15720.38
497.344	15827.49
497.713	15888.73
498.082	16041.95
498.452	16225.68
498.821	16313.36
499.19	16343.64
499.559	16599.9
499.928	16686.45
500.298	16858.43
500.667	16950.18
501.036	16914.24
501.405	17172.77
501.774	17139.78
502.143	17347.23
502.512	17404.18
502.88	17648.01
503.249	17580.67
503.618	17803.94
503.987	17852.75
504.356	17942.24
504.724	18075.34
505.093	18235.57
505.462	18266.98
505.83	18397.37
506.199	18633.07
506.567	18878.26
506.936	18821.09
507.304	19086.39
507.672	19298.14
508.041	19271.7
508.409	19504.68
508.777	19603.67
509.145	19792.59
509.514	19908.97
509.882	19996.65
510.25	20168.62
510.618	20268.51
510.986	20405.68
511.354	20610.87
511.722	20784.43
512.09	20959.11
512.458	20936.06
512.826	21119.78
513.193	21234.81
513.561	21287.46
513.929	21618.75
514.297	21738.98
514.664	21902.14
515.032	22071.62
515.4	22252.18
515.767	22244.95
516.135	22514.78
516.502	22379.41
516.869	22859.17
517.237	23019.85
517.604	22958.83
517.972	23099.39
518.339	23401.98
518.706	23455.54
519.073	23512.72
519.44	23817.57
519.808	24100.5
520.175	24274.5
520.542	24478.34
520.909	24578
521.276	24605.57
521.643	25017.08
522.009	25110.41
522.376	25408.48
522.743	25575.03
523.11	25916.72
523.477	26012.76
523.843	26231.51
524.21	26490.94
524.577	26720.54
524.943	26949.91
525.31	27056.8
525.676	27355.33
526.043	27350.13
526.409	27568.88
526.776	27948.3
527.142	28018.59
527.508	28232.82
527.874	28327.05
528.241	28548.29
528.607	28597.78
528.973	28932.91
529.339	28861.05
529.705	29139.23
530.071	29399.57
530.437	29629.84
530.803	29873.45
531.169	29955.48
531.535	29969.04
531.901	29985.54
532.267	30304.63
532.632	30504.62
532.998	30651.28
533.364	30844.95
533.73	30973.54
534.095	31244.26
534.461	31330.81
534.826	31473.18
535.192	31486.29
535.557	31848.32
535.923	31831.59
536.288	31987.97
536.653	32008.54
537.019	32055.99
537.384	32194.07
537.749	32319.26
538.114	32399.49
538.479	32592.7
538.845	32756.54
539.21	32743.21
539.575	32902.52
539.94	33020.26
540.305	33194.49
540.67	33045.57
541.034	33327.15
541.399	33415.05
541.764	33608.95
542.129	33779.56
542.494	33790.86
542.858	33933.91
543.223	33886
543.587	34300.68
543.952	34203.51
544.316	34344.52
544.681	34535.48
545.045	34638.98
545.41	34770.27
545.774	34884.85
546.138	34999.87
546.503	35005.29
546.867	35076.93
547.231	35393.76
547.595	35530.7
547.959	35638.72
548.324	35572.29
548.688	35651.38
549.052	35856.35
549.416	35918.26
549.779	35998.04
550.143	36145.15
550.507	36237.13
550.871	36434.41
551.235	36481.64
551.599	36681.63
551.962	36848.64
552.326	36996.88
552.689	37125.24
553.053	37019.93
553.417	37256.08
553.78	37722.06
554.143	37444.78
554.507	37728.84
554.87	37903.75
555.234	38338.31
555.597	38152.56
555.96	38372.89
556.323	38548.25
556.686	38517.52
557.05	38900.11
557.413	39066.88
557.776	39133.55
558.139	39433.2
558.502	39476.82
558.865	39542.35
559.228	39917.93
559.59	40063.92
559.953	40110.92
560.316	40556.33
560.679	40551.14
561.041	40832.94
561.404	40892.37
561.767	41272.47
562.129	41148.86
562.492	41471.56
562.854	41555.18
563.217	41610.77
563.579	41827.49
563.941	42029.74
564.304	42233.35
564.666	42553.8
565.028	42674.47
565.39	42904.07
565.753	43101.8
566.115	43161.24
566.477	43493.66
566.839	43720.77
567.201	43878.06
567.563	44027.43
567.925	44164.83
568.287	44298.84
568.648	44257.93
569.01	44711.03
569.372	44887.29
569.734	44876.67
570.095	45153.28
570.457	45256.1
570.819	45379.94
571.18	45533.38
571.542	45855.86
571.903	45873.71
572.265	46049.3
572.626	46184.66
572.987	46148.28
573.349	46402.51
573.71	46591.2
574.071	46691.31
574.432	46889.95
574.794	47100.12
575.155	47131.98
575.516	47027.13
575.877	47202.71
576.238	47377.85
576.599	47510.73
576.96	47597.28
577.32	47720.89
577.681	47779.2
578.042	47946.65
578.403	47900.77
578.763	48169.92
579.124	48023.71
579.485	48346.86
579.845	48499.85
580.206	48298.28
580.566	48448.78
580.927	48367.88
581.287	48535.56
581.648	48502.11
582.008	48630.47
582.368	48463.7
582.728	48609.91
583.089	48592.73
583.449	48611.04
583.809	48733.29
584.169	48800.19
584.529	48809.68
584.889	49180.29
585.249	48868.43
585.609	48833.18
585.969	49139.61
586.329	48969.67
586.688	49105.04
587.048	48953.18
587.408	48933.52
587.768	49048.31
588.127	48943.23
588.487	48868.66
588.846	49149.56
589.206	48831.82
589.565	48843.57
589.925	49128.76
590.284	48988.66
590.643	49043.12
591.003	49128.99
591.362	49138.26
591.721	49234.98
592.08	49098.48
592.44	49299.38
592.799	49284.69
593.158	49291.47
593.517	49219.61
593.876	49324.01
594.235	49304.13
594.593	49276.78
594.952	49434.97
595.311	49366.05
595.67	49432.26
596.029	49668.41
596.387	49604.01
596.746	49718.58
597.104	49476.1
597.463	49462.99
597.822	49680.61
598.18	49466.83
598.538	49492.37
598.897	49697.56
599.255	49462.77
599.613	49945.69
599.972	49704.34
600.33	49884.23
600.688	49751.57
601.046	49935.07
601.404	50031.57
601.762	49972.13
602.12	50035.86
602.478	50047.38
602.836	50148.17
603.194	49866.37
603.552	49992.92
603.91	49881.97
604.268	50098.91
604.625	49928.97
604.983	50153.14
605.341	49969.87
605.698	50195.86
606.056	50286.47
606.413	50230.66
606.771	50347.04
607.128	50296.64
607.485	50216.65
607.843	50301.62
608.2	50496.64
608.557	50672.45
608.914	50549.97
609.272	50687.14
609.629	50725.11
609.986	50788.38
610.343	50666.35
610.7	50906.12
611.057	50849.4
611.414	50849.17
611.771	50844.88
612.127	50921.49
612.484	50976.63
612.841	51108.37
613.198	51035.38
613.554	51021.82
613.911	51127.36
614.267	51199.67
614.624	51129.84
614.98	51141.14
615.337	51337.07
615.693	51419.55
616.05	51283.96
616.406	51393.34
616.762	51330.97
617.118	51349.95
617.475	51401.02
617.831	51453.45
618.187	51448.7
618.543	51387.91
618.899	51683.27
619.255	51658.64
619.611	51533.45
619.967	51589.94
620.323	51755.59
620.678	51569.83
621.034	51554.92
621.39	51585.65
621.746	51437.86
622.101	51763.95
622.457	51439.66
622.812	51539.77
623.168	51577.97
623.523	51652.99
623.879	51751.97
624.234	51521.7
624.589	51683.73
624.945	51690.51
625.3	51700.9
625.655	51680.56
626.01	51669.94
626.365	51700.45
626.72	51633.33
627.075	51658.19
627.43	51618.19
627.785	51555.59
628.14	51596.72
628.495	51547.01
628.85	51613.9
629.205	51487.57
629.559	51593.33
629.914	51415.94
630.269	51521.02
630.623	51374.81
630.978	51314.24
631.332	51377.75
631.687	51524.86
632.041	51340.91
632.396	51375.94
632.75	51265.21
633.104	51297.07
633.459	51207.35
633.813	51230.18
634.167	51173.91
634.521	51216.62
634.875	51268.82
635.229	51179.78
635.583	51037.42
635.937	51065.44
636.291	50916.97
636.645	50881.49
636.999	50918.32
637.352	50968.04
637.706	50763.07
638.06	50817.76
638.413	50746.58
638.767	50622.06
639.121	50659.12
639.474	50450.31
639.828	50452.57
640.181	50437.2
640.534	50582.96
640.888	50422.74
641.241	50284.44
641.594	50373.7
641.947	50403.08
642.301	50293.25
642.654	50382.29
643.007	50251.9
643.36	50221.84
643.713	50053.94
644.066	50239.47
644.419	49789.09
644.771	49566.04
645.124	49234.52
645.477	49279.72
645.83	48978.94
646.182	48844.48
646.535	48714.31
646.888	48811.94
647.24	48645.39
647.593	48732.39
647.945	48701.21
648.298	48537.82
648.65	48402
649.002	48369.91
649.355	48536.69
649.707	48449.69
650.059	48553.64
650.411	48937.13
650.763	49018.26
651.115	49376.44
651.467	49208.99
651.819	49223
652.171	49148.43
652.523	49087.41
652.875	49097.81
653.227	48958.37
653.578	49216.45
653.93	48965.61
654.282	48859.85
654.633	48728.1
654.985	48879.05
655.337	48754.09
655.688	48770.81
656.039	48928.54
656.391	48574.2
656.742	48640.19
657.094	48700.08
657.445	48743.01
657.796	48677.48
658.147	48597.71
658.498	48509.57
658.849	48600.64
659.2	48482.23
659.551	48421.89
659.902	48488.56
660.253	48557.93
660.604	48435
660.955	48257.6
661.306	48315.45
661.656	48281.56
662.007	48280.43
662.358	48302.35
662.708	48176.25
663.059	48088.79
663.409	47967.44
663.76	48236.36
664.11	48152.97
664.461	48199.52
664.811	48208.34
665.161	48146.42
665.511	48064.16
665.862	48107.55
666.212	48131.95
666.562	48041.34
666.912	48030.26
667.262	47982.58
667.612	47876.82
667.962	48015.8
668.312	48039.08
668.662	47982.58
669.011	48051.96
669.361	47982.81
669.711	47750.04
670.06	47808.12
670.41	47601.57
670.76	47669.82
671.109	47793.66
671.459	47645.41
671.808	47527.9
672.157	47652.42
672.507	47367.91
672.856	47491.52
673.205	47560.22
673.554	47599.77
673.904	47461.92
674.253	47717.05
674.602	47445.65
674.951	46883.17
675.3	46688.6
675.649	47234.58
675.998	47279.32
676.346	47236.84
676.695	47391.41
677.044	47007.01
677.393	47100.12
677.741	47139.44
678.09	47027.8
678.438	46851.99
678.787	46976.96
679.135	46987.35
679.484	46611.32
679.832	46846.11
680.181	46558.89
680.529	46711.43
680.877	46634.82
681.225	46584.65
681.573	46751.2
681.922	46463.98
682.27	46362.28
682.618	46315.96
682.966	46063.76
683.314	46233.02
683.661	46092.23
684.009	45767.95
684.357	45838
684.705	45716.65
685.053	45894.27
685.4	45692.7
685.748	45523.89
686.095	45527.5
686.443	45355.08
686.79	45385.36
687.138	45410.22
687.485	45495.19
687.832	45165.93
688.18	45130
688.527	44914.86
688.874	44990.57
689.221	44865.83
689.568	44778.14
689.915	44663.8
690.262	44624.93
690.609	44483.69
690.956	44407.08
691.303	44631.26
691.65	44145.62
691.997	44186.97
692.344	43974.1
692.69	44000.09
693.037	44030.37
693.383	43647.55
693.73	43828.79
694.077	43577.72
694.423	43466.31
694.769	43581.11
695.116	43422.7
695.462	43268.35
695.808	43158.75
696.155	43204.85
696.501	42789.5
696.847	42752.66
697.193	42509.05
697.539	42587.92
697.885	42398.55
698.231	42280.81
698.577	42142.28
698.923	42192
699.269	42021.61
699.614	41936.64
699.96	41721.95
700.306	41610.32
700.651	41530.09
700.997	41398.57
701.342	41405.58
701.688	41231.35
702.033	41126.72
702.379	41019.15
702.724	40975.76
703.069	41004.23
703.415	40647.86
703.76	40722.21
704.105	40615.32
704.45	40578.26
704.795	40390.24
705.14	40206.97
705.485	40138.04
705.83	39967.88
706.175	40037.48
706.52	39836.81
706.865	39699.18
707.209	39633.87
707.554	39570.6
707.899	39572.41
708.243	39502.58
708.588	39362.02
708.932	39107.79
709.277	38920.22
709.621	39074.57
709.966	38781.01
710.31	38844.97
710.654	38556.84
710.998	38600.45
711.342	38630.06
711.687	38540.34
712.031	38255.83
712.375	38357.75
712.719	38328.37
713.063	38344.87
713.407	38398.43
713.75	38104.87
714.094	38100.58
714.438	37972.67
714.782	37806.58
715.125	37783.98
715.469	37771.1
715.812	37663.53
716.156	37361.16
716.499	37487.04
716.843	37516.19
717.186	37123.66
717.53	37340.6
717.873	37266.25
718.216	37292.01
718.559	37024.45
718.902	36886.15
719.246	37002.3
719.589	36859.48
719.932	36699.94
720.275	36639.6
720.617	36631.92
720.96	36583.11
721.303	36435.09
721.646	36524.12
721.989	36345.37
722.331	36390.57
722.674	36378.14
723.016	36179.95
723.359	36088.88
723.701	36125.49
724.044	35921.65
724.386	35772.73
724.729	36095.66
725.071	35734.77
725.413	35815.67
725.755	35714.65
726.097	35506.3
726.439	35435.11
726.782	35415.68
727.124	35560.31
727.465	35307.21
727.807	35272.18
728.149	35222.92
728.491	35207.55
728.833	35273.08
729.175	35194.89
729.516	35003.94
729.858	34967.1
730.199	34936.14
730.541	34858.86
730.882	34844.62
731.224	34947.89
731.565	34622.71
731.906	34551.29
732.248	34744.06
732.589	34591.07
732.93	34414.58
733.271	34379.32
733.612	34460
733.953	34357.18
734.294	34284.18
734.635	34032.44
734.976	34142.04
735.317	33911.76
735.658	33980.91
735.999	34023.4
736.339	33895.27
736.68	33918.32
737.021	33714.71
737.361	33639.45
737.702	33787.02
738.042	33716.74
738.383	33553.58
738.723	33677.42
739.063	33552.9
739.404	33587.03
739.744	33391.33
740.084	33452.79
740.424	33439.46
740.764	33210.09
741.104	33371.44
741.444	33134.16
741.784	33152.01
742.124	33190.2
742.464	33044.22
742.804	33018
743.143	32876.08
743.483	32876.31
743.823	32852.36
744.162	32686.94
744.502	32732.36
744.841	32608.52
745.181	32804
745.52	32595.19
745.86	32641.06
746.199	32385.02
746.538	32501.63
746.877	32467.06
747.216	32417.79
747.556	32160.4
747.895	32248.98
748.234	32145.26
748.573	32037.69
748.911	31884.7
749.25	31964.24
749.589	31583.46
749.928	31781.42
750.267	31665.5
750.605	31665.27
750.944	31554.31
751.283	31519.51
751.621	31464.82
751.96	31267.77
752.298	31233.42
752.636	31387.31
752.975	31136.24
753.313	31079.52
753.651	31286.07
753.989	30985.96
754.327	30935.8
754.666	30764.73
755.004	30876.59
755.342	30880.88
755.679	30824.16
756.017	30685.18
756.355	30715.69
756.693	30410.39
757.031	30511.4
757.368	30395.92
757.706	30270.96
758.044	30143.05
758.381	30216.95
758.719	30022.83
759.056	29990.96
759.394	29890.4
759.731	29655.83
760.068	29675.94
760.405	29682.95
760.743	29516.85
761.08	29481.37
761.417	29439.11
761.754	29294.71
762.091	29319.34
762.428	29124.77
762.765	28979.92
763.102	29042.29
763.438	28856.53
763.775	28801.39
764.112	28627.83
764.449	28697.44
764.785	28546.48
765.122	28329.54
765.458	28231.69
765.795	28188.75
766.131	28119.15
766.467	28105.36
766.804	27825.14
767.14	27739.5
767.476	27725.49
767.812	27712.38
768.148	27520.52
768.485	27349.22
768.821	27163.01
769.157	27191.49
769.492	27018.84
769.828	27013.41
770.164	26878.28
770.5	26813.87
770.836	26650.94
771.171	26511.51
771.507	26591.96
771.842	26255.69
772.178	26352.87
772.513	26255.69
772.849	26170.05
773.184	26057.96
773.519	25958.98
773.855	26039.43
774.19	25891.18
774.525	25792.88
774.86	25701.36
775.195	25655.71
775.53	25578.88
775.865	25364.19
776.2	25185.67
776.535	25071.09
776.87	24991.55
777.205	24921.04
777.539	24760.14
777.874	24844.88
778.209	24516.53
778.543	24489.19
778.878	24346.14
779.212	24410.09
779.547	24289.64
779.881	24256.65
780.215	24057.56
780.55	24013.27
780.884	23916.55
781.218	23907.73
781.552	23912.25
781.886	23707.74
782.22	23557.91
782.554	23469.33
782.888	23302.78
783.222	23163.8
783.556	23119.05
783.889	22963.8
784.223	22853.07
784.557	22758.61
784.89	22844.71
785.224	22687.2
785.557	22591.61
785.891	22564.27
786.224	22491.5
786.558	22481.1
786.891	22244.27
787.224	22131.51
787.557	22128.8
787.891	22175.12
788.224	22051.74
788.557	22028.69
788.89	21964.06
789.223	21994.11
789.556	21746.43
789.888	21759.09
790.221	21577.4
790.554	21454.92
790.887	21480.68
791.219	21406.1
791.552	21337.18
791.884	21162.72
792.217	21160.91
792.549	21059.9
792.882	20784.88
793.214	20796.63
793.546	20760.7
793.879	20637.08
794.211	20554.6
794.543	20644.32
794.875	20548.05
795.207	20550.99
795.539	20462.63
795.871	20443.19
796.203	20307.38
796.535	20151.67
796.867	20111.9
797.198	20126.82
797.53	20001.85
797.862	19944.9
798.193	19863.55
798.525	19795.75
798.856	19842.53
799.188	19581.29
799.519	19519.83
799.85	19452.93
800.182	19502.43
800.513	19462.2
800.844	19207.74
801.175	19426.49
801.506	19381.07
801.837	19176.78
802.168	19177.01
802.499	19079.39
802.83	19045.49
803.161	18930.69
803.491	19037.8
803.822	18890.01
804.153	18755.33
804.483	18608.66
804.814	18557.59
805.145	18488.89
805.475	18554.43
805.805	18375.22
806.136	18565.73
806.466	18386.3
806.796	18418.84
807.126	18182.23
807.457	18178.39
807.787	18111.05
808.117	18099.3
808.447	17959.87
808.777	18059.98
809.107	17963.71
809.436	17856.37
809.766	17891.85
810.096	17765.3
810.426	17774.11
810.755	17719.87
811.085	17727.56
811.414	17671.51
811.744	17509.94
812.073	17441.24
812.403	17459.31
812.732	17336.15
813.061	17392.88
813.39	17330.73
813.719	17262.03
814.049	17301.58
814.378	17150.62
814.707	17085.77
815.036	17125.09
815.365	17007.35
815.693	16808.94
816.022	16932.1
816.351	16833.12
816.68	16697.08
817.008	16754.02
817.337	16603.07
817.665	16646.91
817.994	16697.3
818.322	16604.65
818.651	16553.35
818.979	16473.58
819.307	16482.62
819.636	16489.4
819.964	16342.51
820.292	16450.3
820.62	16384.09
820.948	16273.13
821.276	16344.09
821.604	16294.15
821.932	16341.83
822.259	16267.03
822.587	16264.09
822.915	16257.09
823.243	16360.81
823.57	16294.6
823.898	16394.03
824.225	16246.47
824.553	16204.88
824.88	16330.53
825.207	16356.07
825.535	16234.04
825.862	16258.67
826.189	16202.17
826.516	16304.32
826.843	16486.69
827.17	16343.64
827.497	16326.69
827.824	16295.73
828.151	16347.48
828.478	16213.92
828.805	16315.16
829.131	16228.39
829.458	16176.18
829.785	16159.01
830.111	16199.24
830.438	16192
830.764	16199.69
831.09	16272.23
831.417	16112.68
831.743	16193.81
832.069	16168.5
832.395	16079.46
832.722	16152.23
833.048	16081.05
833.374	16061.39
833.7	16099.8
834.026	16006.25
834.351	16096.86
834.677	16043.31
835.003	16154.04
835.329	16008.96
835.654	16101.16
835.98	15957.66
836.306	15958.79
836.631	15768.96
836.956	15927.6
837.282	15878.34
837.607	15828.85
837.932	15808.96
838.258	15791.11
838.583	15770.77
838.908	15684.22
839.233	15693.03
839.558	15628.4
839.883	15512.93
840.208	15499.59
840.533	15623.66
840.858	15561.29
841.182	15574.17
841.507	15547.5
841.832	15492.14
842.156	15437.9
842.481	15449.88
842.805	15328.07
843.13	15402.87
843.454	15300.95
843.778	15339.37
844.103	15260.95
844.427	15245.81
844.751	15224.8
845.075	15196.32
845.399	15165.82
845.723	15059.38
846.047	15024.8
846.371	14952.94
846.695	14863
847.019	14886.05
847.343	14815.54
847.666	14629.11
847.99	14663.23
848.313	14685.38
848.637	14607.41
848.96	14504.59
849.284	14521.99
849.607	14369.9
849.931	14401.99
850.254	14219.17
850.577	14241.77
850.9	14122.23
851.223	14079.74
851.546	14013.3
851.869	13979.18
852.192	14047.65
852.515	13840.2
852.838	13846.08
853.161	13859.41
853.483	13732.18
853.806	13650.15
854.129	13660.32
854.451	13613.77
854.774	13583.26
855.096	13447.44
855.419	13475.46
855.741	13427.56
856.063	13401.79
856.385	13330.61
856.708	13344.62
857.03	13262.14
857.352	13270.72
857.674	13221.69
857.996	13113.44
858.318	13110.5
858.64	13111.41
858.961	13059.43
859.283	13015.36
859.605	12915.93
859.926	13002.93
860.248	12938.76
860.57	12901.92
860.891	12924.74
861.212	12824.41
861.534	12840.91
861.855	12761.81
862.176	12848.59
862.498	12794.8
862.819	12706.9
863.14	12698.99
863.461	12601.59
863.782	12634.58
864.103	12639.78
864.424	12577.18
864.745	12638.88
865.065	12563.4
865.386	12448.37
865.707	12512.78
866.027	12510.29
866.348	12473.68
866.668	12515.72
866.989	12428.26
867.309	12355.27
867.63	12417.87
867.95	12411.54
868.27	12333.8
868.59	12280.92
868.91	12282.95
869.23	12341.71
869.55	12186.46
869.87	12320.47
870.19	12258.77
870.51	12251.32
870.83	12245.67
871.15	12139
871.469	12160.7
871.789	12123.41
872.109	12079.34
872.428	12009.29
872.748	12063.52
873.067	12125.67
873.386	12082.06
873.706	12030.76
874.025	12025.79
874.344	11973.58
874.663	11993.7
874.982	11899.01
875.301	11913.25
875.62	11869.63
875.939	11887.48
876.258	11929.97
876.577	11873.25
876.896	11880.48
877.214	11839.58
877.533	11805.23
877.852	11850.42
878.17	11784.21
878.489	11880.7
878.807	11788.05
879.125	11790.99
879.444	11810.42
879.762	11703.53
880.08	11786.24
880.398	11721.84
880.716	11757.32
881.034	11686.13
881.352	11676.19
881.67	11671.22
881.988	11711.22
882.306	11669.64
882.624	11597.32
882.941	11533.6
883.259	11579.47
883.577	11495.86
883.894	11496.99
884.212	11500.83
884.529	11517.32
884.846	11445.01
885.164	11450.89
885.481	11396.42
885.798	11531.11
886.115	11287.5
886.432	11383.54
886.75	11310.55
887.067	11387.61
887.383	11219.7
887.7	11328.18
888.017	11229.87
888.334	11254.51
888.651	11237.56
888.967	11280.95
889.284	11112.36
889.6	11073.04
889.917	11042.08
890.233	11046.83
890.55	10960.95
890.866	11004.57
891.182	10998.24
891.498	10899.94
891.815	10906.04
892.131	10829.88
892.447	10849.32
892.763	10833.5
893.079	10854.29
893.395	10867.4
893.71	10732.94
894.026	10724.58
894.342	10715.99
894.657	10674.18
894.973	10643.45
895.289	10626.27
895.604	10611.13
895.92	10502.89
896.235	10518.48
896.55	10557.12
896.865	10471.93
897.181	10408.43
897.496	10432.83
897.811	10382.66
898.126	10291.14
898.441	10266.96
898.756	10313.51
899.071	10203.01
899.386	10304.02
899.7	10152.39
900.015	10084.37
900.33	10091.15
900.644	10064.71
900.959	10083.46
901.273	10042.79
901.588	9940.64
901.902	9922.79
902.216	9893.86
902.531	9873.07
902.845	9822.68
903.159	9780.87
903.473	9770.48
903.787	9756.92
904.101	9752.85
904.415	9710.14
904.729	9740.65
905.042	9630.37
905.356	9635.11
905.67	9576.36
905.984	9616.13
906.297	9557.83
906.611	9439.64
906.924	9506.08
907.237	9422.69
907.551	9381.11
907.864	9361.67
908.177	9351.73
908.491	9326.65
908.804	9283.26
909.117	9235.8
909.43	9125.07
909.743	9086.65
910.056	9185.86
910.368	9107.22
910.681	9049.59
910.994	8990.16
911.307	8969.59
911.619	8953.1
911.932	8972.08
912.244	8827.45
912.557	8892.76
912.869	8860.67
913.181	8793.55
913.494	8790.16
913.806	8670.85
914.118	8666.1
914.43	8616.16
914.742	8649.15
915.054	8591.98
915.366	8571.87
915.678	8505.88
915.99	8578.19
916.302	8449.61
916.613	8450.96
916.925	8401.02
917.236	8443.96
917.548	8384.98
917.859	8315.37
918.171	8269.05
918.482	8227.47
918.794	8245.32
919.105	8219.33
919.416	8208.03
919.727	8137.53
920.038	8075.83
920.349	8078.54
920.66	7937.08
920.971	8012.11
921.282	7991.32
921.593	7962.39
921.903	7922.62
922.214	7922.16
922.525	7799.68
922.835	7766.46
923.146	7756.07
923.456	7715.84
923.767	7705.67
924.077	7678.78
924.387	7675.84
924.697	7631.32
925.008	7589.07
925.318	7519.69
925.628	7542.06
925.938	7488.28
926.248	7421.84
926.558	7367.83
926.867	7390.43
927.177	7347.49
927.487	7354.72
927.796	7298.9
928.106	7252.35
928.416	7236.98
928.725	7243.76
929.034	7208.06
929.344	7173.26
929.653	7171.68
929.962	7100.72
930.271	7072.7
930.581	7073.6
930.89	6994.28
931.199	6966.94
931.508	7015.3
931.817	7014.84
932.125	6951.12
932.434	6952.02
932.743	6840.61
933.051	6830.44
933.36	6810.56
933.669	6698.02
933.977	6720.61
934.286	6738.47
934.594	6690.33
934.902	6581.86
935.21	6645.59
935.519	6563.1
935.827	6574.86
936.135	6534.18
936.443	6515.42
936.751	6454.86
937.059	6446.72
937.367	6438.81
937.674	6387.52
937.982	6381.41
938.29	6372.83
938.597	6316.56
938.905	6276.56
939.213	6196.56
939.52	6196.33
939.827	6216.45
940.135	6201.53
940.442	6157.47
940.749	6161.76
941.056	6218.03
941.363	6063.23
941.67	6067.3
941.977	6030.01
942.284	5968.54
942.591	6000.63
942.898	5957.24
943.205	5945.04
943.511	5937.36
943.818	5899.39
944.125	5825.72
944.431	5840.86
944.738	5812.16
945.044	5761.32
945.35	5751.83
945.657	5740.98
945.963	5675.9
946.269	5689.45
946.575	5690.81
946.881	5594.99
947.187	5637.93
947.493	5622.11
947.799	5585.28
948.105	5542.34
948.41	5562.9
948.716	5502.79
949.022	5490.36
949.327	5479.06
949.633	5488.33
949.938	5426.41
950.244	5409.24
950.549	5381.21
950.854	5378.05
951.16	5367.88
951.465	5299.86
951.77	5340.31
952.075	5248.34
952.38	5208.79
952.685	5279.97
952.99	5171.05
953.294	5113.65
953.599	5177.38
953.904	5152.52
954.209	5138.06
954.513	5095.8
954.818	5050.6
955.122	5056.7
955.426	5020.32
955.731	4987.1
956.035	4988.68
956.339	4975.35
956.643	4949.36
956.948	4906.42
957.252	4893.09
957.556	4868.23
957.86	4865.3
958.163	4797.73
958.467	4811.06
958.771	4816.03
959.075	4777.16
959.378	4795.69
959.682	4744.85
959.985	4745.52
960.289	4710.95
960.592	4701.01
960.896	4653.1
961.199	4660.1
961.502	4631.63
961.805	4624.62
962.108	4577.17
962.411	4555.25
962.714	4567.45
963.017	4535.36
963.32	4553.44
963.623	4484.97
963.926	4481.35
964.228	4478.87
964.531	4447.45
964.833	4404.06
965.136	4434.12
965.438	4395.48
965.741	4373.11
966.043	4349.38
966.345	4301.24
966.648	4342.6
966.95	4309.38
967.252	4260.34
967.554	4295.82
967.856	4293.11
968.158	4205.43
968.46	4191.19
968.761	4216.73
969.063	4189.38
969.365	4175.14
969.666	4120.46
969.968	4150.51
970.269	4124.07
970.571	4097.86
970.872	4080.46
971.174	4020.35
971.475	4064.64
971.776	3957.07
972.077	3989.16
972.378	3992.55
972.679	3969.05
972.98	3956.39
973.281	3935.6
973.582	3946.45
973.883	3895.38
974.183	3873.68
974.484	3847.7
974.785	3833.01
975.085	3846.11
975.386	3844.98
975.686	3814.48
975.986	3831.2
976.287	3778.09
976.587	3776.28
976.887	3717.08
977.187	3714.37
977.487	3675.95
977.787	3721.82
978.087	3662.62
978.387	3674.59
978.687	3637.53
978.987	3619.68
979.286	3586.23
979.586	3607.93
979.885	3562.51
980.185	3561.15
980.484	3575.16
980.784	3567.48
981.083	3550.08
981.382	3492
981.682	3508.72
981.981	3478.44
982.28	3462.17
982.579	3448.16
982.878	3467.14
983.177	3424.88
983.475	3400.02
983.774	3387.14
984.073	3342.85
984.372	3335.39
984.67	3352.57
984.969	3332
985.267	3361.15
985.566	3330.19
985.864	3261.72
986.162	3287.03
986.461	3254.94
986.759	3230.08
987.057	3179.01
987.355	3218.11
987.653	3202.97
987.951	3170.2
988.249	3179.24
988.547	3153.7
988.844	3132.23
989.142	3133.59
989.44	3110.99
989.737	3092.69
990.035	3073.25
990.332	3096.53
990.63	3075.06
990.927	3054.04
991.224	3039.36
991.521	3037.77
991.819	3005.68
992.116	2991.9
992.413	2953.93
992.71	2933.82
993.006	2927.27
993.303	2918
993.6	2909.42
993.897	2912.35
994.193	2867.38
994.49	2896.08
994.787	2859.25
995.083	2826.71
995.379	2826.71
995.676	2845.24
995.972	2827.38
996.268	2749.65
996.565	2773.15
996.861	2769.76
997.157	2725.92
997.453	2740.61
997.749	2700.83
998.044	2691.34
998.34	2663.55
998.636	2689.31
998.932	2677.78
999.227	2608.86
999.523	2599.37
999.818	2635.3
1000.114	2587.16
1000.409	2576.77
1000.704	2558.69
1001	2595.98
1001.295	2556.2
1001.59	2559.59
1001.885	2540.39
1002.18	2509.43
1002.475	2508.3
1002.77	2512.36
1003.065	2474.4
1003.359	2485.7
1003.654	2447.73
1003.949	2405.47
1004.243	2417.45
1004.538	2423.33
1004.832	2379.03
1005.127	2377.23
1005.421	2394.63
1005.715	2372.48
1006.009	2363.44
1006.304	2327.28
1006.598	2340.39
1006.892	2302.43
1007.186	2281.41
1007.48	2289.09
1007.773	2243.9
1008.067	2251.35
1008.361	2209.77
1008.655	2226.27
1008.948	2226.72
1009.242	2198.93
1009.535	2207.74
1009.829	2170.45
1010.122	2172.26
1010.415	2172.49
1010.708	2141.07
1011.001	2162.77
1011.295	2119.15
1011.588	2141.07
1011.881	2105.59
1012.173	2114.18
1012.466	2089.32
1012.759	2079.15
1013.052	2053.84
1013.344	2038.48
1013.637	2011.59
1013.93	2021.08
1014.222	2011.13
1014.514	1988.08
1014.807	1960.06
1015.099	1954.41
1015.391	1926.16
1015.683	1923.68
1015.976	1933.62
1016.268	1883.23
1016.56	1921.87
1016.851	1883.45
1017.143	1857.24
1017.435	1870.35
1017.727	1837.35
1018.018	1853.17
1018.31	1862.44
1018.602	1812.49
1018.893	1825.83
1019.185	1796.9
1019.476	1777.47
1019.767	1770.24
1020.058	1770.69
1020.35	1745.38
1020.641	1741.76
1020.932	1729.33
1021.223	1747.86
1021.514	1713.29
1021.804	1694.98
1022.095	1684.36
1022.386	1682.78
1022.677	1675.1
1022.967	1659.73
1023.258	1652.05
1023.548	1620.18
1023.839	1589.22
1024.129	1620.41
1024.419	1615.44
1024.709	1566.4
1025	1577.47
1025.29	1567.3
1025.58	1563.01
1025.87	1505.84
1026.16	1522.33
1026.449	1541.32
1026.739	1525.5
1027.029	1495.67
1027.319	1486.85
1027.608	1442.11
1027.898	1443.24
1028.187	1435.56
1028.477	1441.21
1028.766	1432.17
1029.055	1422.45
1029.344	1424.48
1029.634	1393.07
1029.923	1391.49
1030.212	1363.69
1030.501	1370.47
1030.79	1381.09
1031.078	1344.48
1031.367	1347.42
1031.656	1372.05
1031.945	1359.85
1032.233	1319.17
1032.522	1329.12
1032.81	1309.91
1033.099	1278.05
1033.387	1315.33
1033.675	1283.47
1033.963	1273.98
1034.251	1241.21
1034.54	1245.05
1034.828	1233.98
1035.116	1238.27
1035.403	1203.7
1035.691	1218.16
1035.979	1221.1
1036.267	1202.57
1036.554	1185.84
1036.842	1189.69
1037.129	1191.49
1037.417	1177.26
1037.704	1167.99
1037.992	1149.91
1038.279	1128.67
1038.566	1142.91
1038.853	1142.91
1039.14	1142.91
