Data from aluminium_macbook_case_FLMS001491_004.txt Node
Date: Tue Feb 07 10:43:06 GMT 2017
User: dcchb
Spectrometer: FLMS00149
Trigger mode: 0
Integration Time (sec): 2.000000E-2
Scans to average: 10
Electric dark correction enabled: true
Nonlinearity correction enabled: false
Boxcar width: 0
XAxis mode: Wavelengths
Number of Pixels in Spectrum: 2048
>>>>>Begin Spectral Data<<<<<
341.393	8.81
341.776	8.81
342.16	8.81
342.543	-48.36
342.927	-48.13
343.31	-63.05
343.693	-69.83
344.077	-66.21
344.46	-53.78
344.843	-70.28
345.226	-58.53
345.61	-18.3
345.993	-18.76
346.376	-1.81
346.759	22.37
347.142	25.08
347.525	31.41
347.908	26.44
348.291	86.55
348.674	96.04
349.057	132.65
349.44	107.34
349.823	137.17
350.206	174.01
350.588	227.34
350.971	264.4
351.354	294.46
351.737	289.03
352.119	288.35
352.502	305.3
352.884	336.26
353.267	335.58
353.65	344.62
354.032	344.4
354.414	365.41
354.797	388.69
355.179	371.29
355.562	388.46
355.944	395.92
356.326	398.41
356.709	396.15
357.091	400.67
357.473	403.38
357.855	418.29
358.238	431.4
358.62	414
359.002	404.96
359.384	403.15
359.766	425.75
360.148	430.27
360.53	425.07
360.912	401.57
361.294	410.84
361.676	427.11
362.057	409.71
362.439	406.99
362.821	416.03
363.203	427.11
363.584	409.48
363.966	427.33
364.348	420.1
364.729	430.95
365.111	419.2
365.493	429.37
365.874	429.14
366.256	435.47
366.637	427.33
367.019	423.94
367.4	434.34
367.781	430.27
368.163	433.21
368.544	437.73
368.925	450.61
369.306	442.93
369.688	444.06
370.069	458.74
370.45	447.67
370.831	449.25
371.212	458.29
371.593	459.65
371.974	482.7
372.355	458.52
372.736	475.92
373.117	469.14
373.498	497.84
373.879	494.9
374.26	459.42
374.641	451.29
375.021	459.2
375.402	499.42
375.783	522.92
376.163	537.84
376.544	533.32
376.925	516.6
377.305	520.44
377.686	531.96
378.066	515.47
378.447	519.53
378.827	553.66
379.208	542.81
379.588	554.34
379.968	555.92
380.349	573.32
380.729	569.02
381.109	557.05
381.489	571.06
381.87	553.88
382.25	583.26
382.63	604.73
383.01	587.78
383.39	609.93
383.77	636.82
384.15	611.06
384.53	634.79
384.91	617.61
385.29	639.31
385.67	663.49
386.049	651.51
386.429	668.01
386.809	648.34
387.189	665.97
387.568	653.09
387.948	678.17
388.328	687.21
388.707	683.82
389.087	730.38
389.466	724.95
389.846	718.85
390.225	755.23
390.605	760.43
390.984	750.71
391.363	769.02
391.743	767.66
392.122	774.44
392.501	793.2
392.881	801.11
393.26	814.44
393.639	858.28
394.018	834.33
394.397	846.31
394.776	846.08
395.155	888.11
395.534	910.94
395.913	904.16
396.292	868.9
396.671	909.13
397.05	924.04
397.429	908
397.808	899.86
398.186	949.58
398.565	945.74
398.944	962.23
399.323	979.86
399.701	977.15
400.08	982.8
400.458	1046.75
400.837	1048.11
401.215	1030.26
401.594	1036.81
401.972	1069.12
402.351	1056.24
402.729	1050.82
403.107	1088.11
403.486	1103.47
403.864	1126.98
404.242	1139.41
404.62	1155.22
404.999	1162.23
405.377	1163.13
405.755	1186.41
406.133	1219.85
406.511	1244.71
406.889	1248.78
407.267	1267.54
407.645	1258.95
408.023	1306.63
408.401	1303.47
408.779	1346.63
409.156	1383.24
409.534	1344.82
409.912	1398.61
410.29	1396.57
410.667	1456.23
411.045	1436.12
411.422	1447.42
411.8	1468.89
412.178	1524.48
412.555	1546.17
412.933	1581.88
413.31	1587.98
413.687	1602.22
414.065	1614.19
414.442	1627.08
414.819	1653.29
415.197	1673.4
415.574	1698.49
415.951	1740.07
416.328	1757.02
416.705	1758.15
417.082	1766.06
417.46	1795.66
417.837	1813.29
418.214	1850.12
418.591	1841.76
418.967	1870.23
419.344	1885.83
419.721	1914.53
420.098	1906.62
420.475	1962.43
420.852	1957.46
421.228	2017.8
421.605	2042.43
421.982	2057.12
422.358	2112.49
422.735	2109.32
423.111	2129.89
423.488	2172.37
423.864	2176.89
424.241	2227.06
424.617	2255.08
424.994	2250.56
425.37	2257.12
425.746	2289.66
426.123	2319.71
426.499	2378.92
426.875	2337.79
427.251	2456.66
427.627	2475.19
428.003	2489.65
428.379	2531.91
428.756	2562.19
429.132	2597.22
429.507	2641.96
429.883	2681.74
430.259	2741.17
430.635	2783.2
431.011	2744.56
431.387	2881.05
431.763	2916.08
432.138	2908.4
432.514	2933.48
432.89	3013.48
433.265	3036.98
433.641	3114.04
434.016	3138.45
434.392	3220.93
434.767	3265
435.143	3255.06
435.518	3294.6
435.894	3308.16
436.269	3387.26
436.644	3416.86
437.02	3476.52
437.395	3446.46
437.77	3494.6
438.145	3583.63
438.52	3633.8
438.895	3674.03
439.271	3723.52
439.646	3735.49
440.021	3790.41
440.395	3853.46
440.77	3849.62
441.145	3876.51
441.52	3962.38
441.895	3975.49
442.27	3981.82
442.645	4013.68
443.019	4087.35
443.394	4095.03
443.769	4105.43
444.143	4081.7
444.518	4231.3
444.892	4172.55
445.267	4268.36
445.641	4282.6
446.016	4287.12
446.39	4302.03
446.764	4400.79
447.139	4359.89
447.513	4446.44
447.887	4449.83
448.262	4509.26
448.636	4538.64
449.01	4626.32
449.384	4639.43
449.758	4700.67
450.132	4742.02
450.506	4746.77
450.88	4819.31
451.254	4801.23
451.628	4895.24
452.002	4977.27
452.376	5020.88
452.75	5064.27
453.123	5146.98
453.497	5166.64
453.871	5240.99
454.244	5311.05
454.618	5344.49
454.992	5436.24
455.365	5441.89
455.739	5560.08
456.112	5665.39
456.486	5692.96
456.859	5780.41
457.232	5918.49
457.606	5905.16
457.979	5990.35
458.352	6151.93
458.725	6256.56
459.099	6274.64
459.472	6388.31
459.845	6481.64
460.218	6562.09
460.591	6577.23
460.964	6617.91
461.337	6790.33
461.71	6876.66
462.083	6932.47
462.456	7046.82
462.829	7019.48
463.201	7160.26
463.574	7219.25
463.947	7290.43
464.32	7505.57
464.692	7548.73
465.065	7639.57
465.438	7750.98
465.81	7833.47
466.183	7889.51
466.555	8130.86
466.928	8133.57
467.3	8172.21
467.672	8363.4
468.045	8592.09
468.417	8635.48
468.789	8657.17
469.161	8780.79
469.534	8961.35
469.906	9169.48
470.278	9326.08
470.65	9399.98
471.022	9499.19
471.394	9703.93
471.766	9818.5
472.138	10016.91
472.51	10117.47
472.882	10179.85
473.253	10412.38
473.625	10624.13
473.997	10784.12
474.369	10827.06
474.74	10905.93
475.112	11203.1
475.484	11424.33
475.855	11564.89
476.227	11742.97
476.598	12122.85
476.97	12201.49
477.341	12482.38
477.713	12620.46
478.084	12771.19
478.455	13258.41
478.827	13258.86
479.198	13619.08
479.569	13674.89
479.94	14087.09
480.311	14215.67
480.682	14535.89
481.053	14886.84
481.424	15130.68
481.795	15270.33
482.166	15494.51
482.537	15727.5
482.908	16047.04
483.279	16195.51
483.65	16513.92
484.021	16762.72
484.391	16991.19
484.762	17214.46
485.133	17288.13
485.503	17563.15
485.874	17946.42
486.244	18182.57
486.615	18486.07
486.985	18820.3
487.356	19160.4
487.726	19409.66
488.097	19765.36
488.467	19869.99
488.837	20360.82
489.207	20596.07
489.578	20836.06
489.948	21108.37
490.318	21345.43
490.688	21541.13
491.058	21797.39
491.428	22123.94
491.798	22360.32
492.168	22703.13
492.538	22836.01
492.908	23048.66
493.278	23405.49
493.648	23376.56
494.017	23657.23
494.387	23909.65
494.757	24007.28
495.126	24380.38
495.496	24433.26
495.866	24633.02
496.235	24966.8
496.605	25225.78
496.974	25348.03
497.344	25650.17
497.713	25838.42
498.082	25989.15
498.452	26342.58
498.821	26445.18
499.19	26574.67
499.559	26946.18
499.928	27142.34
500.298	27350.02
500.667	27553.17
501.036	27616.22
501.405	27988.19
501.774	27975.54
502.143	28306.6
502.512	28487.84
502.88	28648.29
503.249	28710.88
503.618	28910.43
503.987	29036.98
504.356	29314.48
504.724	29302.28
505.093	29493.24
505.462	29648.71
505.83	29835.6
506.199	30135.7
506.567	30532.76
506.936	30496.83
507.304	30998.06
507.672	31056.36
508.041	31163.47
508.409	31505.61
508.777	31849.78
509.145	32043
509.514	32181.98
509.882	32474.63
510.25	32546.94
510.618	32885.46
510.986	32983.09
511.354	33401.61
511.722	33720.92
512.09	34053.57
512.458	34207.46
512.826	34368.59
513.193	34590.28
513.561	34591.63
513.929	34998.63
514.297	35336.02
514.664	35576.24
515.032	35804.93
515.4	35895.78
515.767	36111.59
516.135	36318.37
516.502	36243.79
516.869	36700.05
517.237	36924.45
517.604	36902.08
517.972	37337.32
518.339	37446.92
518.706	37623.42
519.073	37930.08
519.44	38204.42
519.808	38662.94
520.175	38568.93
520.542	39252.53
520.909	39466.76
521.276	39589.92
521.643	40062.9
522.009	40437.58
522.376	40742.66
522.743	40894.29
523.11	41415.18
523.477	41752.57
523.843	42027.37
524.21	42371.09
524.577	42778.76
524.943	42945.09
525.31	43315.7
525.676	43768.79
526.043	43695.35
526.409	43977.83
526.776	44404.03
527.142	44574.2
527.508	44708.2
527.874	45162.43
528.241	45251.69
528.607	45274.06
528.973	45788.17
529.339	45839.02
529.705	46024.78
530.071	46379.12
530.437	46607.59
530.803	46855.72
531.169	46915.6
531.535	46961.93
531.901	47231.98
532.267	47385.65
532.632	47708.58
532.998	47890.72
533.364	48059.98
533.73	48291.61
534.095	48581.1
534.461	48840.52
534.826	49064.47
535.192	49125.49
535.557	49522.54
535.923	49650.9
536.288	49758.01
536.653	49960.49
537.019	49884.79
537.384	50212.47
537.749	50278.68
538.114	50281.16
538.479	50485
538.845	50729.06
539.21	50668.72
539.575	50955.27
539.94	50973.12
540.305	51225.09
540.67	51013.12
541.034	51230.74
541.399	51367.01
541.764	51332.66
542.129	51558.42
542.494	51559.55
542.858	51699.21
543.223	51829.15
543.587	51873.21
543.952	51858.98
544.316	52026.65
544.681	51981.68
545.045	52292.86
545.41	52385.06
545.774	52453.99
546.138	52562.01
546.503	52681.78
546.867	52799.52
547.231	53070.24
547.595	53076.12
547.959	53271.59
548.324	53270.69
548.688	53465.94
549.052	53621.87
549.416	53733.5
549.779	53704.12
550.143	53945.93
550.507	54159.25
550.871	54165.58
551.235	54177.78
551.599	54438.12
551.962	54606.47
552.326	54647.38
552.689	54776.64
553.053	54659.58
553.417	54756.3
553.78	55083.52
554.143	54968.5
554.507	55102.28
554.87	55246
555.234	55477.86
555.597	55290.3
555.96	55384.31
556.323	55586.34
556.686	55582.72
557.05	55711.3
557.413	55777.29
557.776	55818.87
558.139	56108.58
558.502	56023.61
558.865	56165.53
559.228	56283.49
559.59	56420.44
559.953	56488.46
560.316	56831.73
560.679	56804.61
561.041	56988.78
561.404	57136.8
561.767	57319.85
562.129	57215.22
562.492	57538.83
562.854	57558.26
563.217	57632.16
563.579	57724.81
563.941	57966.16
564.304	58009.55
564.666	58188.98
565.028	58256.1
565.39	58292.7
565.753	58498.35
566.115	58612.47
566.477	58727.72
566.839	58773.37
567.201	58981.27
567.563	58959.58
567.925	59118.9
568.287	59097.43
568.648	59170.65
569.01	59253.81
569.372	59447.7
569.734	59313.47
570.095	59533.58
570.457	59522.05
570.819	59550.98
571.18	59590.3
571.542	59670.75
571.903	59706
572.265	59736.96
572.626	59778.09
572.987	59889.05
573.349	59978.54
573.71	60108.7
574.071	60071.64
574.432	60211.3
574.794	60336.49
575.155	60350.73
575.516	60227.79
575.877	60397.06
576.238	60428.02
576.599	60582.59
576.96	60607.67
577.32	60601.12
577.681	60816.25
578.042	60905.74
578.403	60876.14
578.763	60901.9
579.124	60952.07
579.485	61074.78
579.845	61138.05
580.206	61104.83
580.566	61098.96
580.927	61159.3
581.287	61294.66
581.648	61150.03
582.008	61288.11
582.368	61214.89
582.728	61320.2
583.089	61215.11
583.449	61249.46
583.809	61218.96
584.169	61288.11
584.529	61135.34
584.889	61325.17
585.249	61137.6
585.609	61127.66
585.969	61206.53
586.329	61123.82
586.688	61149.58
587.048	61106.19
587.408	61038.4
587.768	61075.46
588.127	61092.4
588.487	61020.77
588.846	61156.58
589.206	61053.54
589.565	61008.34
589.925	61160.65
590.284	61108.9
590.643	61160.43
591.003	61205.17
591.362	61332.62
591.721	61280.87
592.08	61250.37
592.44	61371.04
592.799	61297.6
593.158	61285.39
593.517	61374.88
593.876	61423.02
594.235	61421.21
594.593	61462.34
594.952	61567.87
595.311	61436.35
595.67	61539.85
596.029	61660.3
596.387	61646.06
596.746	61693.75
597.104	61548.44
597.463	61601.54
597.822	61717.02
598.18	61562.68
598.538	61567.65
598.897	61690.58
599.255	61504.6
599.613	61848.77
599.972	61627.08
600.33	61692.16
600.688	61609.91
601.046	61616.46
601.404	61689.68
601.762	61667.53
602.12	61698.26
602.478	61648.1
602.836	61734.87
603.194	61582.11
603.552	61630.02
603.91	61556.35
604.268	61641.09
604.625	61539.62
604.983	61685.16
605.341	61516.12
605.698	61690.58
606.056	61761.99
606.413	61662.79
606.771	61791.37
607.128	61863.68
607.485	61769.9
607.843	61799.05
608.2	61911.82
608.557	62031.82
608.914	61942.78
609.272	62063.9
609.629	62137.12
609.986	62215.99
610.343	62106.16
610.7	62313.62
611.057	62240.85
611.414	62285.14
611.771	62302.32
612.127	62477.91
612.484	62390.9
612.841	62465.48
613.198	62444.46
613.554	62490.33
613.911	62582.08
614.267	62539.37
614.624	62517.9
614.98	62528.3
615.337	62656.21
615.693	62602.87
616.05	62550.67
616.406	62704.34
616.762	62596.55
617.118	62525.81
617.475	62567.17
617.831	62581.41
618.187	62600.39
618.543	62566.04
618.899	62622.31
619.255	62539.15
619.611	62578.47
619.967	62632.03
620.323	62701.4
620.678	62555.87
621.034	62529.66
621.39	62453.27
621.746	62460.5
622.101	62709.99
622.457	62484.46
622.812	62554.51
623.168	62619.37
623.523	62583.89
623.879	62682.65
624.234	62561.52
624.589	62611.46
624.945	62656.66
625.3	62695.3
625.655	62707.5
626.01	62655.75
626.365	62759.03
626.72	62738.24
627.075	62753.15
627.43	62677.67
627.785	62607.62
628.14	62766.03
628.495	62776.43
628.85	62756.77
629.205	62623.21
629.559	62851.45
629.914	62700.5
630.269	62739.82
630.623	62677
630.978	62638.8
631.332	62711.35
631.687	62783.89
632.041	62640.84
632.396	62687.84
632.75	62567.85
633.104	62535.98
633.459	62410.11
633.813	62395.87
634.167	62368.3
634.521	62372.82
634.875	62359.04
635.229	62296.44
635.583	62166.28
635.937	62257.8
636.291	62162.89
636.645	62121.53
636.999	62028.88
637.352	62072.27
637.706	61933.29
638.06	61993.62
638.413	61917.69
638.767	61841.99
639.121	61840.41
639.474	61712.73
639.828	61711.82
640.181	61674.54
640.534	61671.82
640.888	61628.89
641.241	61467.76
641.594	61558.61
641.947	61594.54
642.301	61564.03
642.654	61590.7
643.007	61551.15
643.36	61559.29
643.713	61587.31
644.066	61568.55
644.419	61434.54
644.771	61342.57
645.124	61105.74
645.477	61098.96
645.83	60930.15
646.182	60799.98
646.535	60744.84
646.888	60849.7
647.24	60684.51
647.593	60889.92
647.945	60835.24
648.298	60673.21
648.65	60639.76
649.002	60630.72
649.355	60699.42
649.707	60639.99
650.059	60705.07
650.411	60959.08
650.763	60985.29
651.115	61252.17
651.467	61173.53
651.819	61120.2
652.171	60983.93
652.523	60975.57
652.875	60945.97
653.227	60804.28
653.578	60981
653.93	60897.83
654.282	60730.15
654.633	60711.85
654.985	60818.74
655.337	60724.96
655.688	60684.73
656.039	60750.27
656.391	60448.13
656.742	60449.48
657.094	60501.69
657.445	60533.55
657.796	60446.77
658.147	60336.94
658.498	60397.28
658.849	60386.21
659.2	60401.12
659.551	60256.95
659.902	60308.02
660.253	60282.93
660.604	60391.18
660.955	60192.77
661.306	60250.85
661.656	60239.32
662.007	60186.67
662.358	60230.28
662.708	60243.61
663.059	60272.77
663.409	60083.17
663.76	60314.8
664.11	60265.53
664.461	60235.7
664.811	60251.3
665.161	60320.45
665.511	60228.25
665.862	60216.27
666.212	60300.79
666.562	60331.75
666.912	60283.84
667.262	60266.44
667.612	60274.8
667.962	60290.84
668.312	60236.83
668.662	60335.81
669.011	60239.55
669.361	60229.15
669.711	60233.44
670.06	60152.09
670.41	60181.47
670.76	60032.77
671.109	60140.34
671.459	60146.67
671.808	59986.45
672.157	60096.95
672.507	59867.35
672.856	59949.16
673.205	59940.57
673.554	59991.19
673.904	59877.3
674.253	59987.35
674.602	59897.63
674.951	59480.7
675.3	59309.4
675.649	59705.55
675.998	59678.88
676.346	59681.37
676.695	59715.49
677.044	59523.63
677.393	59532.9
677.741	59522.5
678.09	59470.53
678.438	59341.04
678.787	59420.58
679.135	59364.09
679.484	59197.99
679.832	59271.44
680.181	59000.71
680.529	59186.69
680.877	59079.35
681.225	59078.9
681.573	59172.91
681.922	58966.59
682.27	58941.5
682.618	58937.66
682.966	58874.16
683.314	58996.64
683.661	58912.8
684.009	58867.83
684.357	58833.48
684.705	58776.76
685.053	58790.32
685.4	58789.19
685.748	58636.2
686.095	58557.56
686.443	58548.52
686.79	58508.74
687.138	58539.93
687.485	58560.04
687.832	58527.05
688.18	58540.16
688.527	58339.03
688.874	58388.3
689.221	58299.03
689.568	58271.46
689.915	58179.04
690.262	58255.64
690.609	58064.91
690.956	58028.08
691.303	57966.61
691.65	57901.08
691.997	57878.48
692.344	57674.19
692.69	57668.54
693.037	57705.83
693.383	57534.08
693.73	57508.77
694.077	57356.68
694.423	57361.88
694.769	57245.73
695.116	57199.85
695.462	57085.5
695.808	56973.87
696.155	57007.09
696.501	56719.19
696.847	56811.61
697.193	56562.58
697.539	56607.1
697.885	56458.4
698.231	56311.97
698.577	56308.8
698.923	56158.98
699.269	56154.46
699.614	55999.21
699.96	55889.83
700.306	55911.3
700.651	55702.72
700.997	55615.49
701.342	55528.03
701.688	55537.52
702.033	55434.25
702.379	55406.68
702.724	55332.56
703.069	55324.2
703.415	54996.52
703.76	55039.91
704.105	54977.54
704.45	54895.05
704.795	54766.47
705.14	54764.44
705.485	54698.67
705.83	54607.83
706.175	54632.01
706.52	54555.85
706.865	54441.51
707.209	54403.77
707.554	54398.57
707.899	54316.54
708.243	54288.06
708.588	54223.43
708.932	54003.33
709.277	54048.75
709.621	53985.7
709.966	53837.68
710.31	53941.18
710.654	53679.94
710.998	53819.15
711.342	53807.85
711.687	53775.99
712.031	53637.91
712.375	53517.01
712.719	53619.83
713.063	53600.4
713.407	53533.73
713.75	53288.32
714.094	53379.61
714.438	53180.75
714.782	53239.05
715.125	53062.79
715.469	53154.31
715.812	52866.18
716.156	52813.07
716.499	52764.94
716.843	52864.6
717.186	52504.16
717.53	52650.37
717.873	52640.65
718.216	52531.5
718.559	52280.43
718.902	52085.64
719.246	52049.7
719.589	52027.33
719.932	51894.23
720.275	51796.15
720.617	51710.5
720.96	51674.35
721.303	51549.38
721.646	51576.04
721.989	51383.28
722.331	51304.64
722.674	51240.46
723.016	51347.8
723.359	51188.94
723.701	51112.78
724.044	50870.98
724.386	50676.18
724.729	50792.34
725.071	50754.37
725.413	50700.59
725.755	50595.73
726.097	50563.64
726.439	50323.42
726.782	50341.5
727.124	50358.22
727.465	50292.01
727.807	50151.22
728.149	50028.29
728.491	50024
728.833	50121.39
729.175	49996.88
729.516	49890.89
729.858	49823.77
730.199	49915.98
730.541	49784
730.882	49762.53
731.224	49718.01
731.565	49536.1
731.906	49583.33
732.248	49635.53
732.589	49457
732.93	49409.55
733.271	49508.08
733.612	49454.29
733.953	49626.27
734.294	49266.05
734.635	49198.25
734.976	49475.31
735.317	49066.51
735.658	49238.71
735.999	49223.79
736.339	49201.19
736.68	49183.34
737.021	48941.54
737.361	48946.96
737.702	48957.13
738.042	48948.77
738.383	48879.17
738.723	48867.19
739.063	48753.97
739.404	48773.86
739.744	48682.56
740.084	48313.98
740.424	48426.75
740.764	48238.05
741.104	48276.47
741.444	48076.02
741.784	47967.55
742.124	47963.48
742.464	47855.24
742.804	47814.79
743.143	47705.41
743.483	47702.25
743.823	47349.49
744.162	47438.75
744.502	47370.51
744.841	47135.03
745.181	47221.36
745.52	47118.54
745.86	47006.45
746.199	46785.44
746.538	46670.64
746.877	46890.29
747.216	46608.94
747.556	46476.52
747.895	46558.1
748.234	46329.18
748.573	46081.73
748.911	46149.97
749.25	46039.92
749.589	45880.83
749.928	45969.86
750.267	45801.51
750.605	45755.41
750.944	45590.67
751.283	45472.7
751.621	45519.93
751.96	45140.73
752.298	45167.17
752.636	45251.47
752.975	45030.68
753.313	44750.46
753.651	44909.1
753.989	44731.71
754.327	44746.17
754.666	44481.99
755.004	44635.66
755.342	44553.18
755.679	44366.97
756.017	44227.09
756.355	44409.91
756.693	44190.25
757.031	44327.42
757.368	43917.49
757.706	43836.59
758.044	43730.83
758.381	43831.39
758.719	43637.27
759.056	43672.75
759.394	43456.03
759.731	43284.51
760.068	43273.66
760.405	43050.62
760.743	43083.84
761.08	43230.05
761.417	42902.83
761.754	42757.29
762.091	42774.24
762.428	42629.39
762.765	42336.29
763.102	42617.64
763.438	42232.79
763.775	42133.81
764.112	42134.71
764.449	42117.99
764.785	41943.3
765.122	41617.44
765.458	41519.13
765.795	41471.9
766.131	41372.25
766.467	41094.06
766.804	41047.06
767.14	40812.03
767.476	40667.63
767.812	40622.43
768.148	40665.82
768.485	40241.65
768.821	40179.06
769.157	39872.4
769.492	39789.24
769.828	39645.29
770.164	39284.39
770.5	39339.53
770.836	39194
771.171	38977.28
771.507	38954
771.842	38599.44
772.178	38616.39
772.513	38366
772.849	38272.21
773.184	38053.01
773.519	37959.23
773.855	37745.9
774.19	37562.63
774.525	37397.43
774.86	37342.75
775.195	37308.85
775.53	36976.65
775.865	36847.39
776.2	36604.91
776.535	36433.39
776.87	36244.7
777.205	36078.83
777.539	36017.81
777.874	36122.21
778.209	35774.88
778.543	35625.73
778.878	35424.38
779.212	35466.19
779.547	35305.29
779.881	35249.47
780.215	35008.12
780.55	35169.24
780.884	34921.79
781.218	34930.15
781.552	34877.5
781.886	34640.22
782.22	34560.67
782.554	34402.26
782.888	34026.45
783.222	34039.1
783.556	33756.85
783.889	33702.39
784.223	33485.22
784.557	33494.03
784.89	33534.94
785.224	33452
785.557	33093.37
785.891	33165.23
786.224	33068.74
786.558	33098.56
786.891	32815.18
787.224	32686.37
787.557	32653.6
787.891	32726.6
788.224	32620.39
788.557	32573.61
788.89	32461.97
789.223	32362.31
789.556	32071.02
789.888	31972.49
790.221	31896.79
790.554	31676.23
790.887	31582.22
791.219	31571.37
791.552	31407.08
791.884	31277.37
792.217	31253.87
792.549	31122.8
792.882	30958.28
793.214	30865.4
793.546	30989.24
793.879	30771.62
794.211	30526.2
794.543	30437.84
794.875	30424.06
795.207	30454.57
795.539	30254.35
795.871	30148.59
796.203	29784.08
796.535	29763.51
796.867	29806.9
797.198	29594.02
797.53	29617.07
797.862	29416.18
798.193	29352.45
798.525	29118.56
798.856	29088.95
799.188	28844.89
799.519	28749.98
799.85	28559.02
800.182	28528.74
800.513	28616.2
800.844	28306.6
801.175	28396.32
801.506	28232.48
801.837	28168.98
802.168	27908.64
802.499	27891.7
802.83	27674.07
803.161	27707.75
803.491	27502.1
803.822	27477.02
804.153	27211.26
804.483	27123.35
804.814	26969.01
805.145	27046.97
805.475	27038.84
805.805	26846.53
806.136	26919.29
806.466	26844.27
806.796	26746.42
807.126	26500.09
807.457	26467.1
807.787	26509.81
808.117	26429.59
808.447	26303.26
808.777	26266.65
809.107	26126.32
809.436	26067.79
809.766	25929.04
810.096	25893.33
810.426	25800.9
810.755	25913.22
811.085	25755.93
811.414	25789.6
811.744	25499.22
812.073	25565.66
812.403	25472.32
812.732	25341.03
813.061	25327.47
813.39	25244.99
813.719	25110.3
814.049	25264.42
814.378	25158.66
814.707	25091.32
815.036	25182.61
815.365	24977.2
815.693	24863.98
816.022	24791.89
816.351	24763.87
816.68	24682.06
817.008	24800.03
817.337	24571.56
817.665	24512.8
817.994	24672.57
818.322	24555.06
818.651	24367.95
818.979	24354.39
819.307	24561.39
819.636	24405.91
819.964	24194.39
820.292	24334.05
820.62	24301.06
820.948	24316.2
821.276	24447.27
821.604	24344.9
821.932	24457.44
822.259	24303.32
822.587	24177.9
822.915	24141.51
823.243	24261.96
823.57	24191.68
823.898	24198.23
824.225	23968.86
824.553	24046.83
824.88	24259.25
825.207	24237.33
825.535	24046.37
825.862	24154.85
826.189	24133.83
826.516	24192.58
826.843	24244.56
827.17	24273.03
827.497	24020.39
827.824	24127.95
828.151	24157.1
828.478	24041.85
828.805	24176.77
829.131	23894.51
829.458	23829.43
829.785	23897.68
830.111	23918.69
830.438	23937
830.764	23955.08
831.09	23909.43
831.417	23754.86
831.743	23783.33
832.069	23794.85
832.395	23713.5
832.722	23808.41
833.048	23596.89
833.374	23722.54
833.7	23523.45
834.026	23527.06
834.351	23466.28
834.677	23440.97
835.003	23533.17
835.329	23397.35
835.654	23371.59
835.98	23231.71
836.306	23306.73
836.631	23175.21
836.956	23363
837.282	23314.19
837.607	23060.86
837.932	23026.51
838.258	23045.27
838.583	22935.22
838.908	22897.25
839.233	22905.16
839.558	22810.7
839.883	22826.07
840.208	22612.96
840.533	22759.4
840.858	22749.68
841.182	22671.95
841.507	22678.5
841.832	22549.01
842.156	22474.44
842.481	22539.97
842.805	22441.9
843.13	22462.46
843.454	22429.69
843.778	22340.2
844.103	22287.78
844.427	22347.89
844.751	22245.06
845.075	22167.55
845.399	22217.49
845.723	22175.46
846.047	22218.85
846.371	21831.52
846.695	21970.04
847.019	21766.66
847.343	21715.59
847.666	21572.77
847.99	21622.71
848.313	21633.78
848.637	21475.82
848.96	21371.87
849.284	21343.85
849.607	21368.48
849.931	21143.17
850.254	21123.06
850.577	20884.2
850.9	20803.75
851.223	20823.41
851.546	20816.85
851.869	20624.09
852.192	20871.54
852.515	20601.04
852.838	20500.48
853.161	20465
853.483	20419.58
853.806	20407.15
854.129	20342.52
854.451	20363.76
854.774	20187.27
855.096	20263.42
855.419	20113.14
855.741	20029.76
856.063	19893.94
856.385	19886.03
856.708	19827.28
857.03	19794.96
857.352	19668.64
857.674	19642.87
857.996	19637.68
858.318	19481.3
858.64	19421.64
858.961	19519.03
859.283	19433.16
859.605	19277.23
859.926	19257.35
860.248	19279.04
860.57	19078.37
860.891	19283.56
861.212	18990.01
861.534	18994.75
861.855	18917.47
862.176	18965.6
862.498	18990.69
862.819	18907.53
863.14	18707.3
863.461	18775.55
863.782	18606.29
864.103	18615.33
864.424	18589.57
864.745	18519.06
865.065	18490.14
865.386	18402.23
865.707	18477.71
866.027	18497.14
866.348	18343.02
866.668	18282.46
866.989	18276.36
867.309	18107.32
867.63	18170.6
867.95	18199.97
868.27	17913.65
868.59	18062.12
868.91	17966.31
869.23	17896.7
869.55	17930.6
869.87	17900.32
870.19	17828.23
870.51	17810.38
870.83	17885.18
871.15	17682.25
871.469	17682.25
871.789	17726.77
872.109	17766.09
872.428	17705.75
872.748	17672.3
873.067	17600.89
873.386	17553.66
873.706	17719.08
874.025	17459.43
874.344	17523.16
874.663	17531.29
874.982	17504.85
875.301	17525.87
875.62	17453.33
875.939	17342.14
876.258	17457.17
876.577	17401.35
876.896	17310.05
877.214	17340.56
877.533	17379.66
877.852	17309.83
878.17	17419.88
878.489	17340.11
878.807	17302.14
879.125	17307.12
879.444	17265.76
879.762	17288.58
880.08	17229.83
880.398	17126.33
880.716	17185.08
881.034	17155.93
881.352	17086.1
881.67	17225.31
881.988	17024.64
882.306	17140.11
882.624	17059.44
882.941	17012.66
883.259	16937.18
883.577	16877.52
883.894	16961.14
884.212	16814.25
884.529	16815.15
884.846	16772.89
885.164	16846.56
885.481	16823.51
885.798	16756.4
886.115	16755.27
886.432	16626.46
886.75	16597.3
887.067	16663.74
887.383	16611.54
887.7	16504.2
888.017	16598.89
888.334	16592.33
888.651	16484.31
888.967	16473.24
889.284	16429.4
889.6	16365.9
889.917	16291.55
890.233	16306.69
890.55	16220.59
890.866	16266.92
891.182	16196.86
891.498	16106.02
891.815	16132.91
892.131	16061.05
892.447	16068.28
892.763	15934.5
893.079	15932.91
893.395	15878.68
893.71	15829.41
894.026	15758.23
894.342	15818.57
894.657	15625.58
894.973	15624.45
895.289	15501.06
895.604	15522.53
895.92	15359.37
896.235	15393.04
896.55	15378.8
896.865	15300.16
897.181	15249.77
897.496	15272.82
897.811	15174.74
898.126	15033.95
898.441	14974.52
898.756	14950.12
899.071	14869.21
899.386	14918.48
899.7	14821.08
900.015	14691.59
900.33	14653.63
900.644	14588.09
900.959	14666.73
901.273	14577.92
901.588	14393.52
901.902	14304.03
902.216	14266.29
902.531	14276.91
902.845	14283.92
903.159	14159.85
903.473	14040.99
903.787	14054.55
904.101	13879.18
904.415	13996.92
904.729	13875.34
905.042	13780.88
905.356	13831.73
905.67	13729.13
905.984	13711.73
906.297	13647.32
906.611	13611.39
906.924	13557.84
907.237	13475.58
907.551	13440.55
907.864	13347.22
908.177	13387.67
908.491	13229.03
908.804	13157.17
909.117	13049.15
909.43	13081.01
909.743	13004.4
910.056	12981.81
910.368	12906.55
910.681	12827.69
910.994	12781.36
911.307	12701.59
911.619	12683.06
911.932	12718.76
912.244	12618.43
912.557	12591.76
912.869	12473.12
913.181	12597.41
913.494	12505.43
913.806	12420.46
914.118	12378.21
914.43	12300.92
914.742	12328.49
915.054	12283.97
915.366	12221.37
915.678	12179.57
915.99	12006.24
916.302	11998.33
916.613	12046.01
916.925	12025.67
917.236	11947.93
917.548	11858.45
917.859	11946.8
918.171	11753.82
918.482	11789.29
918.794	11664.78
919.105	11695.29
919.416	11657.32
919.727	11612.35
920.038	11569.87
920.349	11542.97
920.66	11464.11
920.971	11465.69
921.282	11418.91
921.593	11317.22
921.903	11302.3
922.214	11269.08
922.525	11254.39
922.835	11181.17
923.146	11164
923.456	11098.47
923.767	11020.5
924.077	11120.61
924.387	11023.21
924.697	10950.67
925.008	10925.81
925.318	10888.08
925.628	10912.93
925.938	10828.64
926.248	10744.35
926.558	10805.82
926.867	10741.86
927.177	10677.46
927.487	10594.3
927.796	10549.33
928.106	10590.91
928.416	10486.28
928.725	10516.33
929.034	10427.75
929.344	10421.65
929.653	10387.3
929.962	10339.16
930.271	10203.35
930.581	10200.41
930.89	10085.38
931.199	10064.82
931.508	10077.93
931.817	10069.57
932.125	10046.06
932.434	9941.43
932.743	9846.75
933.051	9821.89
933.36	9786.18
933.669	9726.07
933.977	9691.27
934.286	9662.34
934.594	9690.82
934.902	9576.7
935.21	9535.79
935.519	9463.03
935.827	9463.48
936.135	9309.36
936.443	9293.31
936.751	9275.91
937.059	9274.11
937.367	9213.32
937.674	9241.79
937.982	9094
938.29	8989.82
938.597	9071.63
938.905	8957.05
939.213	8897.17
939.52	8814.01
939.827	8904.85
940.135	8809.71
940.442	8761.13
940.749	8778.3
941.056	8708.7
941.363	8682.03
941.67	8677.29
941.977	8635.48
942.284	8524.3
942.591	8490.17
942.898	8412.66
943.205	8397.97
943.511	8396.39
943.818	8276.62
944.125	8293.79
944.431	8194.13
944.738	8229.84
945.044	8181.03
945.35	8139.45
945.657	8059.68
945.963	8014.03
946.269	8013.12
946.575	7975.38
946.881	7930.19
947.187	7944.42
947.493	7905.55
947.799	7793.24
948.105	7861.71
948.41	7715.05
948.716	7811.09
949.022	7687.71
949.327	7633.02
949.633	7564.77
949.938	7583.08
950.244	7556.86
950.549	7521.38
950.854	7441.61
951.16	7442.06
951.465	7406.36
951.77	7331.33
952.075	7348.73
952.38	7273.48
952.685	7316.42
952.99	7227.83
953.294	7282.52
953.599	7141.06
953.904	7147.61
954.209	7185.35
954.513	7129.08
954.818	7074.84
955.122	7031.23
955.426	7028.52
955.731	6994.84
956.035	6979.7
956.339	6968.63
956.643	6942.19
956.948	6878.92
957.252	6870.55
957.556	6866.94
957.86	6843.89
958.163	6826.04
958.467	6790.56
958.771	6722.99
959.075	6714.63
959.378	6643.22
959.682	6676.43
959.985	6642.31
960.289	6602.09
960.592	6612.71
960.896	6570.45
961.199	6547.62
961.502	6483.22
961.805	6473.28
962.108	6440.51
962.411	6430.34
962.714	6443.9
963.017	6464.01
963.32	6424.69
963.623	6349.89
963.926	6343.56
964.228	6310.34
964.531	6294.07
964.833	6286.84
965.136	6261.3
965.438	6186.5
965.741	6166.62
966.043	6181.31
966.345	6094.08
966.648	6099.05
966.95	6076
967.252	6059.28
967.554	6010.46
967.856	5970.46
968.158	5955.55
968.46	5932.27
968.761	5944.48
969.063	5916.91
969.365	5844.59
969.666	5856.34
969.968	5822.67
970.269	5778.61
970.571	5791.49
970.872	5808.89
971.174	5755.33
971.475	5661.77
971.776	5657.7
972.077	5644.37
972.378	5630.81
972.679	5609.57
972.98	5614.77
973.281	5603.02
973.582	5563.02
973.883	5557.14
974.183	5485.73
974.484	5475.11
974.785	5431.27
975.085	5420.65
975.386	5414.55
975.686	5385.17
975.986	5302.69
976.287	5343.81
976.587	5281.67
976.887	5217.26
977.187	5176.36
977.487	5167.77
977.787	5191.73
978.087	5113.31
978.387	5140.2
978.687	5114.44
978.987	5042.58
979.286	5063.37
979.586	5044.39
979.885	4959.42
980.185	5056.36
980.484	4940.44
980.784	4916.48
981.083	4948.12
981.382	4885.75
981.682	4915.35
981.981	4853.88
982.28	4808.24
982.579	4738.63
982.878	4801.68
983.177	4699.76
983.475	4677.17
983.774	4690.5
984.073	4632.42
984.372	4591.07
984.67	4596.49
984.969	4612.08
985.267	4512.65
985.566	4503.38
985.864	4510.39
986.162	4462.48
986.461	4476.04
986.759	4406.66
987.057	4401.47
987.355	4410.96
987.653	4388.59
987.951	4396.95
988.249	4297.74
988.547	4277.85
988.844	4300.9
989.142	4278.53
989.44	4221.36
989.737	4143.39
990.035	4177.74
990.332	4187.23
990.63	4184.97
990.927	4140.46
991.224	4080.57
991.521	4154.24
991.819	4074.47
992.116	4061.59
992.413	4041.7
992.71	4020.46
993.006	3956.96
993.303	4001.25
993.6	3946.34
993.897	3977.07
994.193	3938.65
994.49	3897.52
994.787	3878.77
995.083	3852.33
995.379	3811.43
995.676	3812.33
995.972	3759.22
996.268	3805.55
996.565	3757.42
996.861	3799.22
997.157	3738.43
997.453	3724.65
997.749	3666.57
998.044	3707.7
998.34	3679.68
998.636	3708.6
998.932	3606.46
999.227	3634.25
999.523	3572.34
999.818	3561.04
1000.114	3547.25
1000.409	3531.21
1000.704	3472
1001	3466.35
1001.295	3429.06
1001.59	3481.72
1001.885	3435.84
1002.18	3430.64
1002.475	3370.53
1002.77	3396.75
1003.065	3315.62
1003.359	3376.63
1003.654	3327.82
1003.949	3307.48
1004.243	3283.98
1004.538	3311.33
1004.832	3275.85
1005.127	3211.89
1005.421	3234.94
1005.715	3183.19
1006.009	3178.22
1006.304	3187.26
1006.598	3138.9
1006.892	3161.72
1007.186	3116.98
1007.48	3106.58
1007.773	3059.58
1008.067	3052.58
1008.361	3049.41
1008.655	3037.21
1008.948	3001.73
1009.242	3021.84
1009.535	2985.23
1009.829	2967.15
1010.122	2934.16
1010.415	2918.57
1010.708	2907.72
1011.001	2902.97
1011.295	2912.24
1011.588	2851.45
1011.881	2856.2
1012.173	2842.64
1012.466	2823.43
1012.759	2812.58
1013.052	2829.98
1013.344	2771
1013.637	2729.42
1013.93	2771.9
1014.222	2703.88
1014.514	2709.53
1014.807	2691.91
1015.099	2674.28
1015.391	2644.9
1015.683	2660.95
1015.976	2612.13
1016.268	2615.52
1016.56	2589.99
1016.851	2604.23
1017.143	2554.06
1017.435	2540.72
1017.727	2502.76
1018.018	2520.61
1018.31	2461.86
1018.602	2509.09
1018.893	2472.93
1019.185	2430.22
1019.476	2409.2
1019.767	2411.01
1020.058	2392.03
1020.35	2357.9
1020.641	2343.44
1020.932	2319.26
1021.223	2306.61
1021.514	2281.97
1021.804	2284.46
1022.095	2251.69
1022.386	2251.69
1022.677	2251.92
1022.967	2208.98
1023.258	2182.09
1023.548	2196.33
1023.839	2180.96
1024.129	2135.99
1024.419	2128.98
1024.709	2137.8
1025	2129.44
1025.29	2103.45
1025.58	2058.02
1025.87	2057.57
1026.16	2027.29
1026.449	2024.81
1026.739	1985.03
1027.029	1965.15
1027.319	1967.18
1027.608	1975.54
1027.898	1949.55
1028.187	1929.21
1028.477	1914.53
1028.766	1912.49
1029.055	1828.43
1029.344	1877.92
1029.634	1837.92
1029.923	1849.22
1030.212	1827.97
1030.501	1801.76
1030.79	1820.29
1031.078	1796.56
1031.367	1783
1031.656	1763.57
1031.945	1738.26
1032.233	1714.98
1032.522	1709.33
1032.81	1728.77
1033.099	1676.34
1033.387	1682.22
1033.675	1664.14
1033.963	1664.81
1034.251	1653.29
1034.54	1599.73
1034.828	1593.4
1035.116	1602.44
1035.403	1601.99
1035.691	1596.12
1035.979	1570.81
1036.267	1580.75
1036.554	1531.26
1036.842	1506.18
1037.129	1505.27
1037.417	1500.07
1037.704	1490.58
1037.992	1479.28
1038.279	1454.65
1038.566	1452.17
1038.853	1452.17
1039.14	1452.17
