Data from aluminium_surface_pro_back_FLMS001491_00091.txt Node
Date: Wed Feb 08 15:34:46 GMT 2017
User: dcchb
Spectrometer: FLMS00149
Trigger mode: 0
Integration Time (sec): 2.000000E-2
Scans to average: 10
Electric dark correction enabled: true
Nonlinearity correction enabled: false
Boxcar width: 0
XAxis mode: Wavelengths
Number of Pixels in Spectrum: 2048
>>>>>Begin Spectral Data<<<<<
341.393	-10.52
341.776	-10.52
342.16	-10.52
342.543	-63.85
342.927	-63.63
343.31	-53.69
343.693	-55.72
344.077	-69.96
344.46	-71.31
344.843	-60.24
345.226	-48.26
345.61	-29.96
345.993	-0.81
346.376	-21.6
346.759	23.38
347.142	10.49
347.525	48.01
347.908	48.69
348.291	82.81
348.674	90.04
349.057	108.12
349.44	132.75
349.823	158.51
350.206	183.6
350.588	227.66
350.971	233.77
351.354	227.66
351.737	248.91
352.119	264.95
352.502	283.93
352.884	301.56
353.267	300.2
353.65	314.67
354.032	344.27
354.414	340.65
354.797	354.89
355.179	352.63
355.562	338.17
355.944	337.27
356.326	355.34
356.709	377.94
357.091	364.84
357.473	378.17
357.855	377.26
358.238	363.71
358.62	373.42
359.002	401.9
359.384	379.52
359.766	378.62
360.148	375.23
360.53	390.15
360.912	366.87
361.294	371.39
361.676	361.22
362.057	362.12
362.439	363.71
362.821	383.14
363.203	365.74
363.584	365.96
363.966	379.52
364.348	390.15
364.729	370.26
365.111	374.78
365.493	358.06
365.874	362.8
366.256	367.32
366.637	375
367.019	358.73
367.4	383.14
367.781	377.49
368.163	370.03
368.544	377.04
368.925	384.5
369.306	390.6
369.688	372.74
370.069	376.59
370.45	384.04
370.831	373.42
371.212	375.91
371.593	376.59
371.974	391.95
372.355	396.02
372.736	396.02
373.117	387.66
373.498	378.62
373.879	388.34
374.26	392.18
374.641	354.21
375.021	379.07
375.402	396.02
375.783	391.05
376.163	415.68
376.544	423.14
376.925	390.37
377.305	414.33
377.686	389.92
378.066	417.94
378.447	429.24
378.827	428.34
379.208	429.24
379.588	415.68
379.968	433.31
380.349	448
380.729	429.69
381.109	425.4
381.489	442.35
381.87	422.01
382.25	453.87
382.63	451.61
383.01	452.52
383.39	469.01
383.77	455.45
384.15	454.55
384.53	479.18
384.91	485.96
385.29	458.62
385.67	500.88
386.049	482.12
386.429	507.66
386.809	504.49
387.189	508.11
387.568	518.5
387.948	509.01
388.328	530.25
388.707	525.51
389.087	528.45
389.466	539.07
389.846	557.15
390.225	535.68
390.605	539.29
390.984	561.21
391.363	576.13
391.743	573.42
392.122	571.16
392.501	570.71
392.881	590.59
393.26	596.92
393.639	607.99
394.018	608.9
394.397	586.52
394.776	621.33
395.155	625.17
395.534	603.7
395.913	621.55
396.292	660.42
396.671	646.41
397.05	671.95
397.429	692.96
397.808	652.96
398.186	655.45
398.565	682.11
398.944	687.76
399.323	713.75
399.701	713.98
400.08	690.48
400.458	712.85
400.837	728.22
401.215	737.71
401.594	741.77
401.972	752.4
402.351	748.33
402.729	766.18
403.107	757.82
403.486	758.95
403.864	768.44
404.242	795.78
404.62	805.5
404.999	809.8
405.377	814.31
405.755	816.35
406.133	830.13
406.511	855.9
406.889	860.64
407.267	876.91
407.645	880.98
408.023	894.31
408.401	916.68
408.779	914.88
409.156	938.61
409.534	926.4
409.912	950.58
410.29	995.55
410.667	996.91
411.045	987.64
411.422	1006.17
411.8	1012.28
412.178	1039.62
412.555	1033.74
412.933	1070.81
413.31	1086.85
413.687	1103.8
414.065	1122.33
414.442	1107.87
414.819	1094.31
415.197	1122.78
415.574	1153.74
415.951	1153.74
416.328	1176.34
416.705	1169.79
417.082	1188.77
417.46	1215.43
417.837	1231.48
418.214	1243.91
418.591	1238.48
418.967	1247.07
419.344	1268.31
419.721	1263.12
420.098	1299.05
420.475	1299.5
420.852	1310.35
421.228	1315.09
421.605	1340.4
421.982	1361.87
422.358	1385.83
422.735	1367.52
423.111	1368.65
423.488	1419.27
423.864	1412.72
424.241	1414.98
424.617	1471.02
424.994	1461.53
425.37	1486.84
425.746	1494.97
426.123	1504.47
426.499	1518.25
426.875	1522.32
427.251	1577.68
427.627	1623.11
428.003	1605.71
428.379	1638.47
428.756	1648.42
429.132	1677.12
429.507	1717.34
429.883	1727.29
430.259	1749.21
430.635	1762.99
431.011	1772.26
431.387	1821.97
431.763	1860.84
432.138	1855.42
432.514	1890.9
432.89	1904.91
433.265	1951.23
433.641	1972.02
434.016	2007.73
434.392	1997.33
434.767	2049.54
435.143	2029.2
435.518	2065.58
435.894	2100.83
436.269	2131.79
436.644	2136.77
437.02	2190.32
437.395	2167.73
437.77	2265.58
438.145	2257.44
438.52	2285.46
438.895	2280.26
439.271	2313.48
439.646	2343.09
440.021	2348.74
440.395	2396.87
440.77	2376.31
441.145	2389.41
441.52	2402.3
441.895	2481.16
442.27	2435.06
442.645	2474.16
443.019	2518.68
443.394	2508.73
443.769	2521.61
444.143	2554.38
444.518	2605.23
444.892	2575.17
445.267	2631.44
445.641	2640.26
446.016	2639.13
446.39	2680.48
446.764	2677.32
447.139	2691.78
447.513	2758.44
447.887	2739.24
448.262	2746.92
448.636	2782.17
449.01	2841.83
449.384	2859.23
449.758	2844.77
450.132	2891.32
450.506	2892.23
450.88	2927.03
451.254	2926.58
451.628	2993.01
452.002	3029.62
452.376	3059.91
452.75	3075.5
453.123	3094.48
453.497	3160.02
453.871	3171.77
454.244	3223.74
454.618	3256.28
454.992	3309.84
455.365	3325.89
455.739	3357.98
456.112	3407.01
456.486	3438.65
456.859	3482.27
457.232	3544.86
457.606	3548.25
457.979	3575.82
458.352	3668.48
458.725	3754.12
459.099	3748.7
459.472	3796.61
459.845	3825.99
460.218	3897.4
460.591	3922.26
460.964	3948.7
461.337	4050.84
461.71	4091.06
462.083	4169.48
462.456	4162.7
462.829	4191.18
463.201	4254.68
463.574	4283.83
463.947	4339.87
464.32	4447.44
464.692	4456.25
465.065	4503.48
465.438	4545.52
465.81	4669.58
466.183	4723.59
466.555	4779.41
466.928	4819.63
467.3	4838.16
467.672	4896.47
468.045	5056.24
468.417	5127.2
468.789	5146.18
469.161	5168.1
469.534	5223.24
469.906	5352.05
470.278	5400.86
470.65	5451.03
471.022	5552.27
471.394	5700.06
471.766	5721.98
472.138	5775.77
472.51	5895.31
472.882	6045.36
473.253	6054.18
473.625	6125.14
473.997	6287.84
474.369	6375.07
474.74	6396.54
475.112	6537.33
475.484	6684.44
475.855	6742.52
476.227	6772.58
476.598	6971.44
476.97	7081.27
477.341	7208.27
477.713	7285.56
478.084	7420.24
478.455	7587.24
478.827	7615.72
479.198	7900
479.569	7897.74
479.94	8082.82
480.311	8198.98
480.682	8377.73
481.053	8590.38
481.424	8747.89
481.795	8824.95
482.166	8947.89
482.537	9052.52
482.908	9279.63
483.279	9287.99
483.65	9484.37
484.021	9740.63
484.391	9826.51
484.762	9856.11
485.133	9997.8
485.503	10165.71
485.874	10394.4
486.244	10421.97
486.615	10649.99
486.985	10758.46
487.356	10982.63
487.726	11058.79
488.097	11323.42
488.467	11349.63
488.837	11608.38
489.207	11776.06
489.578	11911.88
489.948	12020.35
490.318	12281.36
490.688	12257.4
491.058	12437.29
491.428	12677.96
491.798	12813.1
492.168	13054.22
492.538	13105.97
492.908	13233.88
493.278	13435.23
493.648	13408.79
494.017	13696.01
494.387	13787.08
494.757	13881.09
495.126	14138.26
495.496	14162.21
495.866	14275.66
496.235	14427.29
496.605	14546.16
496.974	14618.92
497.344	14758.81
497.713	14923.1
498.082	15035.86
498.452	15218.68
498.821	15251.9
499.19	15314.27
499.559	15549.29
499.928	15666.81
500.298	15768.27
500.667	15879
501.036	15902.96
501.405	16099.11
501.774	16080.58
502.143	16395.37
502.512	16392.21
502.88	16497.74
503.249	16612.32
503.618	16664.52
503.987	16762.6
504.356	16966.21
504.724	16999.65
505.093	17146.09
505.462	17250.49
505.83	17357.38
506.199	17587.21
506.567	17749.91
506.936	17692.97
507.304	17977.93
507.672	18043.24
508.041	18161.88
508.409	18311.26
508.777	18501.53
509.145	18562.1
509.514	18556
509.882	18794.63
510.25	18819.72
510.618	19026.72
510.986	19155.75
511.354	19238.46
511.722	19477.33
512.09	19663.31
512.458	19635.29
512.826	19768.84
513.193	20012
513.561	19967.03
513.929	20200.47
514.297	20411.31
514.664	20570.86
515.032	20622.16
515.4	20924.52
515.767	20993.9
516.135	21115.7
516.502	21061.47
516.869	21468.91
517.237	21521.11
517.604	21486.77
517.972	21918.39
518.339	22060.54
518.706	22160.65
519.073	22196.58
519.44	22354.54
519.808	22634.53
520.175	22677.47
520.542	23069.77
520.909	23161.07
521.276	23166.27
521.643	23389.77
522.009	23692.58
522.376	23888.51
522.743	23958.34
523.11	24275.17
523.477	24523.07
523.843	24691.88
524.21	24873.57
524.577	25024.07
524.943	25172.32
525.31	25389.71
525.676	25621.57
526.043	25878.97
526.409	25930.04
526.776	26304.04
527.142	26298.39
527.508	26578.16
527.874	26722.33
528.241	26935.44
528.607	26979.05
528.973	27217.01
529.339	27294.97
529.705	27646.83
530.071	27891.34
530.437	27852.47
530.803	28160.26
531.169	28410.2
531.535	28173.37
531.901	28277.77
532.267	28462.63
532.632	28750.3
532.998	28850.41
533.364	28974.7
533.73	29197.52
534.095	29261.48
534.461	29388.48
534.826	29546.44
535.192	29805.42
535.557	29895.81
535.923	29889.26
536.288	30047.44
536.653	30061.23
537.019	30165.86
537.384	30360.2
537.749	30550.48
538.114	30613.08
538.479	30773.75
538.845	30957.03
539.21	30924.03
539.575	31122.9
539.94	31141.43
540.305	31394.98
540.67	31267.3
541.034	31527.86
541.399	31564.92
541.764	31749.09
542.129	31899.15
542.494	31883.33
542.858	32028.18
543.223	32140.5
543.587	32374.16
543.952	32371
544.316	32443.77
544.681	32454.39
545.045	32636.98
545.41	32857.99
545.774	32999.68
546.138	32888.05
546.503	33176.18
546.867	33048.04
547.231	33519.67
547.595	33468.82
547.959	33654.36
548.324	33602.38
548.688	33789.72
549.052	33984.29
549.416	33925.53
549.779	34012.76
550.143	34098.86
550.507	34336.6
550.871	34595.57
551.235	34482.36
551.599	34848.45
551.962	34816.58
552.326	35010.7
552.689	35116.69
553.053	34984.26
553.417	35078.27
553.78	35659.05
554.143	35383.35
554.507	35704.47
554.87	35786.28
555.234	36128.19
555.597	35888.19
555.96	36233.95
556.323	36380.16
556.686	36513.49
557.05	36878.68
557.413	37007.94
557.776	36928.62
558.139	37194.38
558.502	37313.69
558.865	37499
559.228	37827.13
559.59	37841.59
559.953	38018.08
560.316	38445.64
560.679	38369.49
561.041	38609.71
561.404	38848.57
561.767	39023.71
562.129	38932.86
562.492	39346.18
562.854	39351.15
563.217	39399.29
563.579	39578.95
563.941	39902.55
564.304	40181.42
564.666	40202.66
565.028	40363.11
565.39	40541.41
565.753	40738.69
566.115	40869.76
566.477	41093.93
566.839	41365.79
567.201	41534.83
567.563	41689.4
567.925	41935.95
568.287	41965.32
568.648	42050.07
569.01	42275.6
569.372	42753.1
569.734	42563.73
570.095	42829.71
570.457	42987.9
570.819	43020.21
571.18	43097.72
571.542	43461.1
571.903	43528.45
572.265	43605.96
572.626	43678.05
572.987	43894.09
573.349	44119.39
573.71	44262.89
574.071	44463.56
574.432	44465.6
574.794	44883.21
575.155	44791.01
575.516	44902.65
575.877	44978.13
576.238	45235.29
576.599	45299.25
576.96	45263.32
577.32	45324.1
577.681	45514.61
578.042	45750.31
578.403	45721.61
578.763	45796.41
579.124	45815.39
579.485	45985.78
579.845	46084.08
580.206	46033.01
580.566	46007.48
580.927	46007.93
581.287	46311.2
581.648	46327.02
582.008	46415.15
582.368	46348.26
582.728	46442.95
583.089	46395.49
583.449	46498.31
583.809	46602.26
584.169	46595.48
584.529	46556.84
584.889	46926.32
585.249	46714.12
585.609	46515.26
585.969	46828.92
586.329	46741.24
586.688	46783.28
587.048	46626.22
587.408	46683.39
587.768	46687.01
588.127	46679.78
588.487	46698.53
588.846	47016.94
589.206	46539.67
589.565	46750.96
589.925	46821.92
590.284	46684.97
590.643	46861.47
591.003	46913.44
591.362	47002.7
591.721	46936.94
592.08	46929.26
592.44	46842.03
592.799	47068.69
593.158	46877.28
593.517	46989.6
593.876	46917.51
594.235	46922.71
594.593	47001.35
594.952	47069.82
595.311	47009.94
595.67	47149.14
596.029	47402.02
596.387	47288.57
596.746	47359.31
597.104	47234.56
597.463	47160.89
597.822	47360.44
598.18	47084.74
598.538	47175.58
598.897	47500.09
599.255	47165.41
599.613	47615.57
599.972	47479.98
600.33	47426.87
600.688	47382.13
601.046	47646.76
601.404	47644.27
601.762	47568.34
602.12	47811.05
602.478	47755.23
602.836	47930.59
603.194	47691.95
603.552	47893.53
603.91	47607.89
604.268	47957.48
604.625	47845.17
604.983	48037.48
605.341	47961.1
605.698	48121.55
606.056	48246.74
606.413	48103.01
606.771	48303.01
607.128	48286.51
607.485	48161.32
607.843	48179.4
608.2	48412.16
608.557	48390.46
608.914	48388.88
609.272	48592.72
609.629	48593.62
609.986	48716.33
610.343	48534.19
610.7	48804.92
611.057	48777.8
611.414	48688.08
611.771	48778.93
612.127	48829.32
612.484	48867.97
612.841	48930.56
613.198	48824.58
613.554	48909.77
613.911	49026.15
614.267	49010.79
614.624	49072.03
614.98	49088.98
615.337	49256.2
615.693	49178.69
616.05	49242.19
616.406	49427.05
616.762	49284.45
617.118	49358.12
617.475	49283.55
617.831	49370.78
618.187	49457.56
618.543	49536.65
618.899	49743.88
619.255	49672.69
619.611	49593.15
619.967	49652.13
620.323	49785.91
620.678	49634.27
621.034	49565.12
621.39	49702.52
621.746	49589.98
622.101	50023.19
622.457	49662.97
622.812	49856.87
623.168	49803.99
623.523	49781.84
623.879	49875.85
624.234	49706.81
624.589	49770.54
624.945	49748.62
625.3	49866.13
625.655	49875.4
626.01	49867.71
626.365	49892.12
626.72	49763.99
627.075	49867.26
627.43	49824.33
627.785	49671.56
628.14	49810.99
628.495	49786.36
628.85	49775.74
629.205	49674.5
629.559	49912.01
629.914	49684.89
630.269	49752.69
630.623	49597.21
630.978	49611
631.332	49763.31
631.687	49841.5
632.041	49615.52
632.396	49668.85
632.75	49492.81
633.104	49541.17
633.459	49383.21
633.813	49396.54
634.167	49333.72
634.521	49372.13
634.875	49339.37
635.229	49319.48
635.583	49085.14
635.937	48939.15
636.291	48929.89
636.645	48900.28
636.999	48844.01
637.352	49065.93
637.706	48653.73
638.06	48856.22
638.413	48754.3
638.767	48591.59
639.121	48620.52
639.474	48367.41
639.828	48440.86
640.181	48457.13
640.534	48488.54
640.888	48250.36
641.241	48077.93
641.594	48161.09
641.947	48303.91
642.301	48099.4
642.654	48234.08
643.007	48121.09
643.36	48114.09
643.713	47985.5
644.066	48194.09
644.419	47861.89
644.771	47524.95
645.124	47291.51
645.477	47292.19
645.83	46885.19
646.182	46703.73
646.535	46687.01
646.888	46805.42
647.24	46649.72
647.593	46799.09
647.945	46602.49
648.298	46499.22
648.65	46448.37
649.002	46348.26
649.355	46436.62
649.707	46367.02
650.059	46516.62
650.411	46779.66
650.763	46956.83
651.115	47301.23
651.467	47093.1
651.819	47034.57
652.171	46895.14
652.523	46894.23
652.875	46913.67
653.227	46649.49
653.578	46936.04
653.93	46829.83
654.282	46551.64
654.633	46583.51
654.985	46641.36
655.337	46659.21
655.688	46600.91
656.039	46672.77
656.391	46308.03
656.742	46474.58
657.094	46588.48
657.445	46630.29
657.796	46507.12
658.147	46503.73
658.498	46505.09
658.849	46537.63
659.2	46381.48
659.551	46331.08
659.902	46452.44
660.253	46298.54
660.604	46451.98
660.955	46113.46
661.306	46380.12
661.656	46230.97
662.007	46362.5
662.358	46215.38
662.708	46260.58
663.059	46223.97
663.409	45887.48
663.76	46229.17
664.11	46088.83
664.461	46193.91
664.811	46055.61
665.161	46165.21
665.511	45944.2
665.862	45993.69
666.212	46118.21
666.562	46067.36
666.912	46007.7
667.262	45842.06
667.612	45814.71
667.962	45799.8
668.312	45650.65
668.662	45904.88
669.011	45648.39
669.361	45565.91
669.711	45494.95
670.06	45438.68
670.41	45381.28
670.76	45325.69
671.109	45552.57
671.459	45382.18
671.808	45329.08
672.157	45332.69
672.507	45209.76
672.856	45040.27
673.205	45098.35
673.554	45112.59
673.904	45028.07
674.253	45300.83
674.602	45048.41
674.951	44470.79
675.3	44307.63
675.649	44853.16
675.998	44794.63
676.346	44781.07
676.695	44968.86
677.044	44636.89
677.393	44681.41
677.741	44758.7
678.09	44752.14
678.438	44612.49
678.787	44779.49
679.135	44744.69
679.484	44514.41
679.832	44571.81
680.181	44249.56
680.529	44493.84
680.877	44414.98
681.225	44264.7
681.573	44545.82
681.922	44398.93
682.27	43977.7
682.618	44177.47
682.966	44014.08
683.314	44047.3
683.661	44060.64
684.009	43802.56
684.357	43644.15
684.705	43577.26
685.053	43679.63
685.4	43665.84
685.748	43344.04
686.095	43519.63
686.443	43300.2
686.79	43139.08
687.138	43142.92
687.485	43178.4
687.832	42994.45
688.18	43040.1
688.527	42822.02
688.874	42710.61
689.221	42745.19
689.568	42644.63
689.915	42405.76
690.262	42394.46
690.609	42375.26
690.956	42003.51
691.303	42044.42
691.65	41849.39
691.997	41933.01
692.344	41734.37
692.69	41758.55
693.037	41749.96
693.383	41519.01
693.73	41570.08
694.077	41190.43
694.423	41240.37
694.769	41085.8
695.116	41059.58
695.462	40841.96
695.808	40707.5
696.155	40796.99
696.501	40650.33
696.847	40588.18
697.193	40255.54
697.539	40354.52
697.885	40178.03
698.231	39999.95
698.577	39980.52
698.923	39994.3
699.269	39644.93
699.614	39610.36
699.96	39478.83
700.306	39396.58
700.651	39278.16
700.997	39104.83
701.342	39104.16
701.688	39038.17
702.033	38833.2
702.379	38827.78
702.724	38675.92
703.069	38729.7
703.415	38367
703.76	38303.72
704.105	38365.64
704.45	38354.8
704.795	38070.51
705.14	37959.1
705.485	37866
705.83	37815.38
706.175	37784.19
706.52	37741.71
706.865	37650.41
707.209	37494.25
707.554	37437.98
707.899	37522.05
708.243	37086.58
708.588	37173.58
708.932	36972.23
709.277	36841.62
709.621	36948.28
709.966	36660.15
710.31	36789.87
710.654	36365.24
710.998	36548.97
711.342	36430.1
711.687	36377.67
712.031	36253.16
712.375	36195.76
712.719	36162.99
713.063	35994.86
713.407	36086.61
713.75	35867.63
714.094	35952.15
714.438	35716.67
714.782	35740.4
715.125	35607.75
715.469	35704.47
715.812	35391.71
716.156	35288.66
716.499	35238.72
716.843	35207.31
717.186	34983.81
717.53	35308.32
717.873	35269
718.216	35145.39
718.559	34989.01
718.902	34708.79
719.246	34893.87
719.589	34618.17
719.932	34606.87
720.275	34484.16
720.617	34328.01
720.96	34428.35
721.303	34361.46
721.646	34344.73
721.989	34231.74
722.331	34253.44
722.674	34055.25
723.016	34098.19
723.359	33903.61
723.701	34017.28
724.044	33740.91
724.386	33599.22
724.729	33740.45
725.071	33628.14
725.413	33518.54
725.755	33446.68
726.097	33351.76
726.439	33241.94
726.782	33264.53
727.124	33207.59
727.465	33049.85
727.807	33060.25
728.149	32909.97
728.491	33011.66
728.833	32950.42
729.175	32752.23
729.516	32705.68
729.858	32682.63
730.199	32728.05
730.541	32558.56
730.882	32481.05
731.224	32529.41
731.565	32445.57
731.906	32403.09
732.248	32451.9
732.589	32378.68
732.93	32220.49
733.271	32208.07
733.612	32096.2
733.953	32191.79
734.294	32016.43
734.635	31940.5
734.976	32058.46
735.317	31710.9
735.658	31883.33
735.999	31707.51
736.339	31656.67
736.68	31897.57
737.021	31782.77
737.361	31629.32
737.702	31627.52
738.042	31593.62
738.383	31508.87
738.723	31677.68
739.063	31380.97
739.404	31503.68
739.744	31472.94
740.084	31133.29
740.424	31247.64
740.764	31208.09
741.104	31372.38
741.444	31051.71
741.784	30962
742.124	31062.11
742.464	30966.06
742.804	30794.32
743.143	30761.55
743.483	30768.78
743.823	30553.87
744.162	30519.3
744.502	30692.85
744.841	30399.07
745.181	30468.22
745.52	30335.35
745.86	30307.78
746.199	30326.08
746.538	30183.49
746.877	30278.85
747.216	30039.54
747.556	30011.51
747.895	29964.73
748.234	29884.06
748.573	29911.63
748.911	29774.91
749.25	29617.17
749.589	29590.96
749.928	29681.35
750.267	29611.07
750.605	29659.43
750.944	29432.77
751.283	29356.62
751.621	29347.58
751.96	29166.34
752.298	29155.26
752.636	29202.49
752.975	28960.69
753.313	28900.13
753.651	28926.57
753.989	28724.32
754.327	28746.91
754.666	28591.89
755.004	28653.58
755.342	28689.97
755.679	28594.15
756.017	28413.82
756.355	28492.46
756.693	28282.97
757.031	28343.08
757.368	28251.11
757.706	28136.08
758.044	28008.63
758.381	27975.41
758.719	27886.37
759.056	27867.39
759.394	27775.87
759.731	27554.4
760.068	27558.24
760.405	27357.57
760.743	27385.82
761.08	27432.82
761.417	27240.96
761.754	27205.71
762.091	27169.33
762.428	27049.56
762.765	26852.27
763.102	26972.05
763.438	26876.45
763.775	26805.72
764.112	26715.55
764.449	26612.05
764.785	26578.84
765.122	26431.49
765.458	26487.09
765.795	26304.04
766.131	26299.75
766.467	26234.66
766.804	26005.52
767.14	25923.71
767.476	25913.54
767.812	25703.15
768.148	25860.66
768.485	25522.37
768.821	25394.23
769.157	25412.09
769.492	25248.7
769.828	25229.49
770.164	25064.75
770.5	24970.97
770.836	24903.4
771.171	24741.6
771.507	24646
771.842	24538.66
772.178	24464.09
772.513	24327.82
772.849	24435.84
773.184	24187.49
773.519	24193.14
773.855	24147.94
774.19	23937.77
774.525	23813.71
774.86	23843.77
775.195	23692.13
775.53	23600.61
775.865	23543.66
776.2	23366.04
776.535	23206.95
776.87	23174.4
777.205	23138.25
777.539	23063.22
777.874	23111.13
778.209	22808.31
778.543	22783.68
778.878	22678.82
779.212	22664.36
779.547	22483.12
779.881	22608.32
780.215	22486.06
780.55	22448.32
780.884	22222.34
781.218	22161.32
781.552	22203.58
781.886	22051.27
782.22	21854.44
782.554	21914.78
782.888	21632.3
783.222	21534
783.556	21390.5
783.889	21416.94
784.223	21294.45
784.557	21279.09
784.89	21276.38
785.224	21151.63
785.557	20999.77
785.891	20930.4
786.224	20957.06
786.558	20902.37
786.891	20614.7
787.224	20664.41
787.557	20596.39
787.891	20516.62
788.224	20569.05
788.557	20476.17
788.89	20370.41
789.223	20324.31
789.556	20110.76
789.888	20158.21
790.221	20094.94
790.554	19972.46
790.887	19862.18
791.219	19894.04
791.552	19758.22
791.884	19666.25
792.217	19599.13
792.549	19414.28
792.882	19370.44
793.214	19348.52
793.546	19466.48
793.879	19254.06
794.211	19045.25
794.543	19188.07
794.875	19087.05
795.207	19098.81
795.539	18929.32
795.871	18957.79
796.203	18753.73
796.535	18782.66
796.867	18658.37
797.198	18532.27
797.53	18504.25
797.862	18376.11
798.193	18388.32
798.525	18229.9
798.856	18273.97
799.188	18092.05
799.519	18069.91
799.85	18045.73
800.182	17993.07
800.513	17947.42
800.844	17764.38
801.175	17956.01
801.506	17762.34
801.837	17813.42
802.168	17706.53
802.499	17676.24
802.83	17626.08
803.161	17506.98
803.491	17412.75
803.822	17453.43
804.153	17363.03
804.483	17172.98
804.814	17126.43
805.145	17120.33
805.475	17151.96
805.805	17074.9
806.136	16957.39
806.466	16888.47
806.796	16918.98
807.126	16778.87
807.457	16807.79
807.787	16678.98
808.117	16685.08
808.447	16701.58
808.777	16715.82
809.107	16632.2
809.436	16503.62
809.766	16405.77
810.096	16450.06
810.426	16380.46
810.755	16391.53
811.085	16300.24
811.414	16275.15
811.744	16149.96
812.073	16030.64
812.403	16108.6
812.732	16025.67
813.061	15999.23
813.39	15926.69
813.719	15886.23
814.049	16006.01
814.378	15807.59
814.707	15888.72
815.036	15859.57
815.365	15651.44
815.693	15595.17
816.022	15595.85
816.351	15535.06
816.68	15463.2
817.008	15578.9
817.337	15332.13
817.665	15418.68
817.994	15358.57
818.322	15380.71
818.651	15321.73
818.979	15167.84
819.307	15309.3
819.636	15213.94
819.964	15051
820.292	15043.55
820.62	15084.67
820.948	15042.19
821.276	15146.37
821.604	14999.25
821.932	15015.07
822.259	15062.75
822.587	15019.14
822.915	15063.43
823.243	15051.68
823.57	14943.66
823.898	14993.6
824.225	14928.75
824.553	14938.92
824.88	14968.52
825.207	15070.66
825.535	14915.19
825.862	14958.12
826.189	14870.67
826.516	14990.44
826.843	14987.5
827.17	14959.03
827.497	14985.02
827.824	14933.94
828.151	15022.75
828.478	14872.25
828.805	14956.54
829.131	14858.47
829.458	14797
829.785	14665.48
830.111	14801.97
830.438	14902.08
830.764	14791.57
831.09	14901.63
831.417	14774.4
831.743	14864.57
832.069	14841.06
832.395	14704.8
832.722	14806.26
833.048	14636.1
833.374	14745.25
833.7	14621.41
834.026	14702.54
834.351	14708.19
834.677	14628.87
835.003	14728.98
835.329	14652.37
835.654	14605.14
835.98	14639.71
836.306	14580.73
836.631	14538.7
836.956	14590.9
837.282	14578.7
837.607	14531.02
837.932	14453.5
838.258	14498.02
838.583	14530.56
838.908	14326.73
839.233	14411.02
839.558	14307.97
839.883	14352.72
840.208	14236.33
840.533	14205.15
840.858	14293.96
841.182	14216.67
841.507	14313.39
841.832	14150.01
842.156	14212.83
842.481	14141.87
842.805	14065.49
843.13	14060.52
843.454	14037.47
843.778	13971.26
844.103	13983.46
844.427	13888.32
844.751	13994.31
845.075	13940.52
845.399	13909.56
845.723	13812.17
846.047	13846.74
846.371	13687.2
846.695	13668.21
847.019	13616.69
847.343	13612.17
847.666	13463.93
847.99	13425.73
848.313	13416.47
848.637	13378.05
848.96	13349.58
849.284	13394.77
849.607	13227.55
849.931	13144.61
850.254	13090.83
850.577	13059.19
850.9	12976.25
851.223	12936.93
851.546	12881.12
851.869	12811.06
852.192	12817.84
852.515	12792.08
852.838	12729.71
853.161	12721.35
853.483	12554.35
853.806	12564.06
854.129	12647
854.451	12538.98
854.774	12534.01
855.096	12406.33
855.419	12441.35
855.741	12412.88
856.063	12451.52
856.385	12288.14
856.708	12322.03
857.03	12284.3
857.352	12281.13
857.674	12211.98
857.996	12209.27
858.318	12075.49
858.64	12111.87
858.961	12080.46
859.283	11912.78
859.605	11892.22
859.926	11987.58
860.248	11872.56
860.57	11874.14
860.891	11932.67
861.212	11809.28
861.534	11776.51
861.855	11755.5
862.176	11711.66
862.498	11750.3
862.819	11697.87
863.14	11682.5
863.461	11708.27
863.782	11564.09
864.103	11673.92
864.424	11617.19
864.745	11676.4
865.065	11618.32
865.386	11548.72
865.707	11572.45
866.027	11526.58
866.348	11531.1
866.668	11555.5
866.989	11488.84
867.309	11450.65
867.63	11517.99
867.95	11405.22
868.27	11354.38
868.59	11423.08
868.91	11340.37
869.23	11341.27
869.55	11303.3
869.87	11344.21
870.19	11289.97
870.51	11318.67
870.83	11304.66
871.15	11241.39
871.469	11291.33
871.789	11157.09
872.109	11185.34
872.428	11110.09
872.748	11193.93
873.067	11185.79
873.386	11184.44
873.706	11115.06
874.025	11131.78
874.344	11041.16
874.663	11044.33
874.982	11113.48
875.301	11035.29
875.62	11051.56
875.939	11013.82
876.258	11051.56
876.577	10998.68
876.896	11010.2
877.214	10972.24
877.533	11006.36
877.852	10986.25
878.17	10952.35
878.489	10922.07
878.807	10965.91
879.125	10890.21
879.444	10888.4
879.762	10899.93
880.08	10804.79
880.398	10814.96
880.716	10860.6
881.034	10775.18
881.352	10864.45
881.67	10771.12
881.988	10842.53
882.306	10816.54
882.624	10729.31
882.941	10658.12
883.259	10630.78
883.577	10685.92
883.894	10630.33
884.212	10610.22
884.529	10639.37
884.846	10557.56
885.164	10589.65
885.481	10498.13
885.798	10533.61
886.115	10410.9
886.432	10487.28
886.75	10474.4
887.067	10461.74
887.383	10385.14
887.7	10441.86
888.017	10381.07
888.334	10368.87
888.651	10412.48
888.967	10334.74
889.284	10285.48
889.6	10221.98
889.917	10101.53
890.233	10240.28
890.55	10177.01
890.866	10156.89
891.182	10023.11
891.498	10070.79
891.815	9996.22
892.131	9994.64
892.447	9977.92
892.763	9997.58
893.079	10035.32
893.395	9932.95
893.71	9824.47
894.026	9859.05
894.342	9848.88
894.657	9767.98
894.973	9810.69
895.289	9787.41
895.604	9821.76
895.92	9741.54
896.235	9735.21
896.55	9721.2
896.865	9653.18
897.181	9662.67
897.496	9614.54
897.811	9581.54
898.126	9515.55
898.441	9495.44
898.756	9473.97
899.071	9379.29
899.386	9477.59
899.7	9340.87
900.015	9306.07
900.33	9233.53
900.644	9246.86
900.959	9302.45
901.273	9263.13
901.588	9210.7
901.902	9145.62
902.216	9141.1
902.531	9099.52
902.845	9054.78
903.159	9045.06
903.473	8995.79
903.787	8928
904.101	8900.43
904.415	8983.37
904.729	8979.52
905.042	8897.27
905.356	8916.25
905.67	8831.51
905.984	8773.43
906.297	8753.54
906.611	8750.38
906.924	8708.57
907.237	8713.09
907.551	8678.29
907.864	8565.75
908.177	8584.96
908.491	8520.1
908.804	8469.93
909.117	8523.72
909.43	8428.8
909.743	8463.61
910.056	8429.48
910.368	8389.71
910.681	8348.58
910.994	8362.36
911.307	8234.68
911.619	8244.4
911.932	8280.56
912.244	8151.07
912.557	8151.07
912.869	8094.8
913.181	8093.45
913.494	8033.11
913.806	8024.97
914.118	7991.98
914.43	7916.95
914.742	7979.55
915.054	7927.35
915.366	7814.13
915.678	7802.83
915.99	7851.87
916.302	7766.67
916.613	7722.83
916.925	7669.28
917.236	7705.88
917.548	7614.59
917.859	7573.46
918.171	7544.31
918.482	7542.73
918.794	7504.53
919.105	7553.35
919.416	7424.76
919.727	7419.11
920.038	7410.3
920.349	7349.51
920.66	7319.45
920.971	7317.65
921.282	7293.92
921.593	7221.38
921.903	7224.77
922.214	7229.97
922.525	7184.09
922.835	7171.44
923.146	7099.57
923.456	7125.79
923.767	7066.13
924.077	7014.38
924.387	7012.12
924.697	6978.45
925.008	6912.23
925.318	6874.49
925.628	6922.63
925.938	6845.12
926.248	6805.8
926.558	6772.8
926.867	6776.64
927.177	6745.46
927.487	6810.54
927.796	6647.16
928.106	6625.46
928.416	6637.21
928.725	6613.03
929.034	6598.12
929.344	6585.01
929.653	6570.77
929.962	6550.21
930.271	6498.46
930.581	6457.78
930.89	6486.48
931.199	6415.52
931.508	6356.99
931.817	6383.21
932.125	6390.67
932.434	6321.51
932.743	6326.94
933.051	6313.61
933.36	6248.75
933.669	6199.03
933.977	6202.65
934.286	6197.22
934.594	6160.61
934.902	6118.13
935.21	6087.4
935.519	6123.55
935.827	6054.4
936.135	6021.41
936.443	5982.99
936.751	5991.35
937.059	5965.37
937.367	5981.86
937.674	5928.98
937.982	5908.42
938.29	5882.43
938.597	5934.63
938.905	5841.3
939.213	5818.48
939.52	5790.91
939.827	5785.94
940.135	5733.28
940.442	5688.54
940.749	5711.36
941.056	5689.89
941.363	5652.83
941.67	5613.96
941.977	5570.57
942.284	5508.2
942.591	5533.96
942.898	5467.98
943.205	5478.37
943.511	5456.45
943.818	5470.24
944.125	5433.4
944.431	5409.67
944.738	5392.5
945.044	5369.45
945.35	5401.31
945.657	5286.97
945.963	5267.08
946.269	5336.91
946.575	5306.85
946.881	5195.22
947.187	5219.17
947.493	5235.22
947.799	5159.74
948.105	5155.67
948.41	5119.74
948.716	5136.69
949.022	5068.44
949.327	5058.95
949.633	5003.81
949.938	5011.49
950.244	5060.53
950.549	4961.32
950.854	4957.03
951.16	4936.69
951.465	4949.57
951.77	4903.25
952.075	4861.21
952.38	4827.77
952.685	4862.57
952.99	4782.12
953.294	4813.53
953.599	4788.22
953.904	4785.28
954.209	4697.6
954.513	4738.28
954.818	4720.65
955.122	4686.3
955.426	4669.35
955.731	4601.11
956.035	4592.75
956.339	4595.23
956.643	4582.13
956.948	4527.66
957.252	4501.68
957.556	4530.83
957.86	4518.4
958.163	4495.35
958.467	4472.75
958.771	4524.27
959.075	4430.49
959.378	4389.59
959.682	4438.4
959.985	4379.87
960.289	4378.97
960.592	4371.96
960.896	4278.18
961.199	4323.83
961.502	4297.39
961.805	4267.56
962.108	4280.89
962.411	4230.27
962.714	4214.23
963.017	4172.19
963.32	4207.9
963.623	4202.02
963.926	4189.37
964.228	4130.84
964.531	4129.48
964.833	4122.93
965.136	4063.04
965.438	4067.79
965.741	4039.99
966.043	4061.01
966.345	4061.46
966.648	4016.72
966.95	4002.03
967.252	3967.9
967.554	3972.88
967.856	3915.02
968.158	3904.18
968.46	3884.06
968.761	3884.74
969.063	3893.1
969.365	3906.44
969.666	3837.51
969.968	3830.28
970.269	3821.02
970.571	3792.99
970.872	3786.44
971.174	3762.49
971.475	3729.72
971.776	3737.4
972.077	3694.24
972.378	3696.95
972.679	3669.83
972.98	3701.24
973.281	3634.58
973.582	3657.63
973.883	3598.65
974.183	3583.73
974.484	3548.71
974.785	3558.88
975.085	3577.18
975.386	3553.45
975.686	3543.28
975.986	3532.89
976.287	3518.42
976.587	3485.66
976.887	3437.75
977.187	3456.96
977.487	3431.42
977.787	3418.54
978.087	3419.67
978.387	3406.34
978.687	3376.73
978.987	3343.51
979.286	3306.9
979.586	3350.29
979.885	3289.5
980.185	3231.2
980.484	3245.66
980.784	3242.73
981.083	3279.56
981.382	3245.66
981.682	3223.29
981.981	3205.21
982.28	3202.95
982.579	3132.22
982.878	3179
983.177	3156.4
983.475	3133.8
983.774	3101.03
984.073	3107.81
984.372	3088.15
984.67	3091.77
984.969	3090.41
985.267	3049.74
985.566	3038.89
985.864	3060.81
986.162	3000.47
986.461	3003.64
986.759	3012.22
987.057	2977.87
987.355	2967.48
987.653	2953.69
987.951	2951.43
988.249	2918.44
988.547	2931.77
988.844	2883.86
989.142	2897.88
989.44	2897.2
989.737	2871.44
990.035	2804.77
990.332	2841.38
990.63	2820.14
990.927	2828.5
991.224	2817.43
991.521	2806.58
991.819	2797.77
992.116	2734.49
992.413	2783.98
992.71	2732.68
993.006	2716.41
993.303	2716.19
993.6	2687.49
993.897	2691.1
994.193	2694.94
994.49	2670.99
994.787	2679.12
995.083	2654.72
995.379	2628.96
995.676	2642.06
995.972	2587.38
996.268	2597.32
996.565	2599.35
996.861	2583.76
997.157	2539.02
997.453	2554.83
997.749	2573.14
998.044	2563.2
998.34	2526.13
998.636	2485.68
998.932	2455.63
999.227	2483.2
999.523	2448.4
999.818	2458.79
1000.114	2431.67
1000.409	2410.88
1000.704	2411.33
1001	2441.39
1001.295	2387.61
1001.59	2407.72
1001.885	2340.83
1002.18	2358
1002.475	2297.44
1002.77	2373.37
1003.065	2305.8
1003.359	2299.25
1003.654	2278.46
1003.949	2262.41
1004.243	2277.78
1004.538	2245.69
1004.832	2239.36
1005.127	2236.65
1005.421	2224.22
1005.715	2221.96
1006.009	2189.19
1006.304	2177.67
1006.598	2165.01
1006.892	2161.85
1007.186	2141.96
1007.48	2149.42
1007.773	2126.37
1008.067	2113.04
1008.361	2066.71
1008.655	2049.08
1008.948	2079.59
1009.242	2042.08
1009.535	2070.78
1009.829	2027.16
1010.122	2039.37
1010.415	2007.28
1010.708	2002.98
1011.001	2001.63
1011.295	1969.31
1011.588	1997.79
1011.881	1947.84
1012.173	1955.08
1012.466	1915.53
1012.759	1936.32
1013.052	1926.83
1013.344	1907.17
1013.637	1933.16
1013.93	1889.54
1014.222	1865.59
1014.514	1866.72
1014.807	1864
1015.099	1842.76
1015.391	1811.58
1015.683	1854.74
1015.976	1841.86
1016.268	1776.78
1016.56	1779.94
1016.851	1765.7
1017.143	1754.4
1017.435	1769.32
1017.727	1769.09
1018.018	1723.67
1018.31	1744.69
1018.602	1722.77
1018.893	1695.42
1019.185	1674.86
1019.476	1673.5
1019.767	1669.43
1020.058	1657.46
1020.35	1604.8
1020.641	1637.57
1020.932	1611.81
1021.223	1594.86
1021.514	1568.19
1021.804	1585.59
1022.095	1596.67
1022.386	1555.76
1022.677	1549.44
1022.967	1523.9
1023.258	1507.63
1023.548	1524.8
1023.839	1542.43
1024.129	1507.63
1024.419	1480.74
1024.709	1480.51
1025	1484.58
1025.29	1463.79
1025.58	1442.09
1025.87	1437.8
1026.16	1454.3
1026.449	1419.95
1026.739	1422.89
1027.029	1425.37
1027.319	1417.91
1027.608	1398.03
1027.898	1363
1028.187	1354.19
1028.477	1356.9
1028.766	1381.08
1029.055	1328.43
1029.344	1365.03
1029.634	1332.72
1029.923	1320.97
1030.212	1307.18
1030.501	1298.14
1030.79	1280.74
1031.078	1257.01
1031.367	1282.33
1031.656	1244.13
1031.945	1215.43
1032.233	1266.73
1032.522	1242.1
1032.81	1216.34
1033.099	1225.83
1033.387	1224.93
1033.675	1194.42
1033.963	1194.64
1034.251	1206.85
1034.54	1167.07
1034.828	1168.88
1035.116	1164.81
1035.403	1142.67
1035.691	1153.51
1035.979	1138.6
1036.267	1100.41
1036.554	1134.98
1036.842	1119.84
1037.129	1123.23
1037.417	1113.74
1037.704	1111.93
1037.992	1089.79
1038.279	1073.07
1038.566	1079.62
1038.853	1079.62
1039.14	1079.62
