Data from aluminium_surface_pro_back_FLMS001491_00068.txt Node
Date: Wed Feb 08 15:34:24 GMT 2017
User: dcchb
Spectrometer: FLMS00149
Trigger mode: 0
Integration Time (sec): 2.000000E-2
Scans to average: 10
Electric dark correction enabled: true
Nonlinearity correction enabled: false
Boxcar width: 0
XAxis mode: Wavelengths
Number of Pixels in Spectrum: 2048
>>>>>Begin Spectral Data<<<<<
341.393	-20.72
341.776	-20.72
342.16	-20.72
342.543	-63.66
342.927	-47.16
343.31	-54.39
343.693	-73.37
344.077	-55.3
344.46	-62.53
344.843	-50.32
345.226	-53.94
345.61	-29.76
345.993	-16.65
346.376	-14.62
346.759	-15.3
347.142	13.18
347.525	45.04
347.908	73.97
348.291	80.07
348.674	98.83
349.057	115.1
349.44	113.74
349.823	143.34
350.206	156
350.588	237.58
350.971	238.03
351.354	273.51
351.737	271.48
352.119	282.55
352.502	312.6
352.884	297.69
353.267	330.23
353.65	356.45
354.032	358.93
354.414	349.44
354.797	356.9
355.179	360.97
355.562	362.77
355.944	352.83
356.326	362.55
356.709	378.59
357.091	363.68
357.473	365.03
357.855	377.46
358.238	363.45
358.62	367.97
359.002	396.67
359.384	386.95
359.766	375.43
360.148	374.52
360.53	400.51
360.912	382.43
361.294	370.91
361.676	364.81
362.057	383.56
362.439	372.49
362.821	384.24
363.203	371.36
363.584	403.68
363.966	370.23
364.348	377.69
364.729	374.75
365.111	369.55
365.493	345.6
365.874	377.46
366.256	353.06
366.637	362.55
367.019	363
367.4	384.24
367.781	383.11
368.163	377.01
368.544	363.22
368.925	375.43
369.306	377.46
369.688	375.88
370.069	383.56
370.45	371.13
370.831	375.2
371.212	376.78
371.593	392.15
371.974	406.16
372.355	390.79
372.736	384.92
373.117	407.07
373.498	368.42
373.879	383.11
374.26	371.81
374.641	374.3
375.021	387.86
375.402	406.16
375.783	401.19
376.163	417.23
376.544	420.17
376.925	435.77
377.305	405.71
377.686	427.86
378.066	423.79
378.447	427.86
378.827	411.59
379.208	437.12
379.588	445.93
379.968	459.27
380.349	452.49
380.729	448.19
381.109	466.73
381.489	465.37
381.87	466.95
382.25	467.63
382.63	459.04
383.01	457.69
383.39	480.51
383.77	499.72
384.15	475.99
384.53	463.11
384.91	472.15
385.29	491.81
385.67	527.06
386.049	509.21
386.429	503.56
386.809	511.47
387.189	530.9
387.568	549.66
387.948	528.64
388.328	540.62
388.707	561.19
389.087	579.26
389.466	537.46
389.846	541.98
390.225	547.85
390.605	567.06
390.984	570.68
391.363	579.49
391.743	573.16
392.122	595.08
392.501	609.32
392.881	591.24
393.26	611.81
393.639	610.45
394.018	632.37
394.397	640.28
394.776	633.5
395.155	648.19
395.534	649.32
395.913	679.6
396.292	661.07
396.671	672.6
397.05	656.32
397.429	672.82
397.808	691.35
398.186	683.44
398.565	715.08
398.944	711.01
399.323	717.34
399.701	723.44
400.08	751.24
400.458	765.47
400.837	757.79
401.215	749.2
401.594	761.41
401.972	769.77
402.351	781.29
402.729	799.37
403.107	800.73
403.486	792.14
403.864	803.44
404.242	825.59
404.62	829.43
404.999	838.92
405.377	869.65
405.755	868.52
406.133	875.53
406.511	895.19
406.889	904
407.267	911.23
407.645	914.17
408.023	929.31
408.401	943.55
408.779	958.24
409.156	987.39
409.534	993.49
409.912	1001.85
410.29	1033.72
410.667	1019.03
411.045	1044.79
411.422	1038.24
411.8	1072.36
412.178	1089.99
412.555	1117.56
412.933	1112.81
413.31	1148.51
413.687	1138.12
414.065	1165.69
414.442	1150.1
414.819	1189.19
415.197	1173.83
415.574	1230.09
415.951	1237.33
416.328	1235.07
416.705	1243.88
417.082	1239.36
417.46	1273.71
417.837	1299.02
418.214	1314.39
418.591	1322.07
418.967	1312.58
419.344	1318.23
419.721	1349.41
420.098	1363.42
420.475	1355.74
420.852	1404.78
421.228	1405.23
421.605	1398
421.982	1414.72
422.358	1450.65
422.735	1447.72
423.111	1480.03
423.488	1513.03
423.864	1497.21
424.241	1522.29
424.617	1562.97
424.994	1557.09
425.37	1573.36
425.746	1597.32
426.123	1598.9
426.499	1617.88
426.875	1644.1
427.251	1662.63
427.627	1704.43
428.003	1705.79
428.379	1775.84
428.756	1733.58
429.132	1775.84
429.507	1811.1
429.883	1830.53
430.259	1881.83
430.635	1888.83
431.011	1918.89
431.387	1943.97
431.763	1946.46
432.138	1970.64
432.514	1987.81
432.89	2027.14
433.265	2039.79
433.641	2065.33
434.016	2124.08
434.392	2150.07
434.767	2136.96
435.143	2170.86
435.518	2203.18
435.894	2228.71
436.269	2280.24
436.644	2299.67
437.02	2324.53
437.395	2333.79
437.77	2387.13
438.145	2400.91
438.52	2420.35
438.895	2446.33
439.271	2427.13
439.646	2500.8
440.021	2539.66
440.395	2595.71
440.77	2544.41
441.145	2548.7
441.52	2614.47
441.895	2602.94
442.27	2630.96
442.645	2657.85
443.019	2711.86
443.394	2697.4
443.769	2721.35
444.143	2756.38
444.518	2775.36
444.892	2799.09
445.267	2806.55
445.641	2810.39
446.016	2847.45
446.39	2867.11
446.764	2912.99
447.139	2897.4
447.513	2944.4
447.887	2950.28
448.262	2968.13
448.636	3018.97
449.01	3032.31
449.384	3057.39
449.758	3082.48
450.132	3108.24
450.506	3113.44
450.88	3181.68
451.254	3132.87
451.628	3175.35
452.002	3243.83
452.376	3270.95
452.75	3312.53
453.123	3384.61
453.497	3408.12
453.871	3407.89
454.244	3457.83
454.618	3506.65
454.992	3563.59
455.365	3578.28
455.739	3655.34
456.112	3677.71
456.486	3711.16
456.859	3764.72
457.232	3840.87
457.606	3812.85
457.979	3878.84
458.352	3951.38
458.725	4043.13
459.099	4021.66
459.472	4107.99
459.845	4132.17
460.218	4207.42
460.591	4234.54
460.964	4282.44
461.337	4361.09
461.71	4456.45
462.083	4444.02
462.456	4472.5
462.829	4554.75
463.201	4618.71
463.574	4620.06
463.947	4713.39
464.32	4816.22
464.692	4880.62
465.065	4886.5
465.438	4958.81
465.81	5008.53
466.183	5060.28
466.555	5163.32
466.928	5236.09
467.3	5208.75
467.672	5312.93
468.045	5484.9
468.417	5458.68
468.789	5510.66
469.161	5553.37
469.534	5684.67
469.906	5800.82
470.278	5797.43
470.65	5944.77
471.022	6017.54
471.394	6107.93
471.766	6207.37
472.138	6250.08
472.51	6435.38
472.882	6471.76
473.253	6543.4
473.625	6660.69
473.997	6816.84
474.369	6770.97
474.74	6944.07
475.112	7095.48
475.484	7219.32
475.855	7325.75
476.227	7396.94
476.598	7657.95
476.97	7699.3
477.341	7876.02
477.713	7937.72
478.084	8085.51
478.455	8207.09
478.827	8374.09
479.198	8606.85
479.569	8569.11
479.94	8841.65
480.311	8922.77
480.682	9136.55
481.053	9337.45
481.424	9375.87
481.795	9556.88
482.166	9694.73
482.537	9933.37
482.908	10069.18
483.279	10132.23
483.65	10300.59
484.021	10566.12
484.391	10704.2
484.762	10752.78
485.133	10860.35
485.503	11049.5
485.874	11303.05
486.244	11371.97
486.615	11676.15
486.985	11759.31
487.356	11924.28
487.726	12088.57
488.097	12309.8
488.467	12407.2
488.837	12725.16
489.207	12876.79
489.578	13008.54
489.948	13083.79
490.318	13334.41
490.688	13380.96
491.058	13639.49
491.428	13777.11
491.798	13953.6
492.168	14255.06
492.538	14260.03
492.908	14445.79
493.278	14665.22
493.648	14723.98
494.017	14965.1
494.387	15120.8
494.757	15146.79
495.126	15383.17
495.496	15349.5
495.866	15538.19
496.235	15725.98
496.605	15864.06
496.974	15855.92
497.344	16120.78
497.713	16202.58
498.082	16300.21
498.452	16493.65
498.821	16638.96
499.19	16684.83
499.559	16837.14
499.928	16913.75
500.298	17045.27
500.667	17319.84
501.036	17244.14
501.405	17459.5
501.774	17510.12
502.143	17683
502.512	17837.57
502.88	17959.82
503.249	18031.91
503.618	18120.95
503.987	18234.85
504.356	18345.8
504.724	18546.02
505.093	18606.81
505.462	18652.24
505.83	18859.46
506.199	19111.66
506.567	19279.34
506.936	19321.6
507.304	19543.29
507.672	19583.06
508.041	19717.29
508.409	19828.25
508.777	20089.26
509.145	20275.02
509.514	20282.02
509.882	20380.33
510.25	20594.11
510.618	20692.41
510.986	20772.63
511.354	21040.2
511.722	21184.82
512.09	21400.64
512.458	21388.89
512.826	21656.45
513.193	21762.89
513.561	21829.78
513.929	22037.01
514.297	22182.31
514.664	22462.3
515.032	22554.51
515.4	22726.03
515.767	22985.45
516.135	23034.04
516.502	22993.82
516.869	23401.72
517.237	23576.17
517.604	23538.21
517.972	23822.04
518.339	23872.21
518.706	24021.36
519.073	24185.88
519.44	24359.43
519.808	24733.88
520.175	24770.49
520.542	25052.97
520.909	25286.64
521.276	25320.08
521.643	25585.39
522.009	25721.2
522.376	25925.04
522.743	26113.28
523.11	26442.99
523.477	26676.66
523.843	26755.98
524.21	27111
524.577	27212.91
524.943	27462.63
525.31	27613.36
525.676	27929.73
526.043	28071.42
526.409	28173.57
526.776	28475.93
527.142	28585.76
527.508	28837.05
527.874	29072.75
528.241	29130.6
528.607	29348
528.973	29596.35
529.339	29713.41
529.705	29907.76
530.071	30206.73
530.437	30367.18
530.803	30552.71
531.169	30854.17
531.535	30692.82
531.901	31002.87
532.267	31162.87
532.632	31387.27
532.998	31417.1
533.364	31651.22
533.73	31746.81
534.095	31981.38
534.461	32027.25
534.826	32225.66
535.192	32489.39
535.557	32708.59
535.923	32592.21
536.288	32697.52
536.653	32941.13
537.019	32952.42
537.384	33037.85
537.749	33285.07
538.114	33351.51
538.479	33627.21
538.845	33783.36
539.21	33743.82
539.575	33903.81
539.94	34046.41
540.305	34280.07
540.67	34148.33
541.034	34429
541.399	34557.81
541.764	34662.21
542.129	34796.44
542.494	34808.42
542.858	34980.85
543.223	35075.98
543.587	35419.7
543.952	35227.84
544.316	35334.73
544.681	35389.42
545.045	35474.62
545.41	35838.45
545.774	35940.14
546.138	35972.23
546.503	36099.69
546.867	36136.97
547.231	36380.81
547.595	36431.88
547.959	36684.08
548.324	36712.33
548.688	36860.8
549.052	36996.61
549.416	37119.09
549.779	36946.22
550.143	37104.41
550.507	37435.02
550.871	37544.17
551.235	37740.55
551.599	37875.23
551.962	37927.21
552.326	38089.01
552.689	38340.08
553.053	38112.74
553.417	38414.88
553.78	38881.76
554.143	38761.31
554.507	38983.68
554.87	39100.51
555.234	39522.42
555.597	39245.37
555.96	39559.71
556.323	39747.27
556.686	39810.32
557.05	40079.92
557.413	40169.18
557.776	40370.31
558.139	40709.06
558.502	40716.51
558.865	40997.18
559.228	41178.2
559.59	41388.13
559.953	41513.56
560.316	41794.9
560.679	41936.14
561.041	42145.4
561.404	42403.7
561.767	42615.45
562.129	42477.82
562.492	42949
562.854	43083.46
563.217	43059.96
563.579	43346.95
563.941	43649.32
564.304	43824
564.666	44028.52
565.028	44061.96
565.39	44320.26
565.753	44514.38
566.115	44639.57
566.477	44813.13
566.839	44974.48
567.201	45286.34
567.563	45368.14
567.925	45613.79
568.287	45763.84
568.648	45855.59
569.01	46061.91
569.372	46349.81
569.734	46358.85
570.095	46756.81
570.457	46770.37
570.819	46982.79
571.18	47017.82
571.542	47401.76
571.903	47231.15
572.265	47593.4
572.626	47641.08
572.987	47812.82
573.349	47854.41
573.71	48149.09
574.071	48203.77
574.432	48320.16
574.794	48572.58
575.155	48634.5
575.516	48586.14
575.877	48694.84
576.238	48825.45
576.599	48968.27
576.96	49013.92
577.32	49080.81
577.681	49161.26
578.042	49404.87
578.403	49443.29
578.763	49423.4
579.124	49611.87
579.485	49714.24
579.845	49874.01
580.206	49759.21
580.566	49783.17
580.927	49793.34
581.287	50055.7
581.648	49831.3
582.008	50116.94
582.368	50008.25
582.728	50149.49
583.089	50077.17
583.449	50085.99
583.809	50113.56
584.169	50237.85
584.529	50203.04
584.889	50503.38
585.249	50255.25
585.609	50101.13
585.969	50377.28
586.329	50247.11
586.688	50249.37
587.048	50247.11
587.408	50269.48
587.768	50132.76
588.127	50160.33
588.487	50235.59
588.846	50603.94
589.206	50329.37
589.565	50285.3
589.925	50591.51
590.284	50481.23
590.643	50390.84
591.003	50422.93
591.362	50623.6
591.721	50518.06
592.08	50590.38
592.44	50729.81
592.799	50612.53
593.158	50570.49
593.517	50596.25
593.876	50708.57
594.235	50678.29
594.593	50729.81
594.952	50707.21
595.311	50723.71
595.67	50795.8
596.029	51021.33
596.387	51020.88
596.746	51054.55
597.104	50930.48
597.463	50920.09
597.822	50982.68
598.18	50966.19
598.538	50950.14
598.897	51172.28
599.255	50873.08
599.613	51291.38
599.972	51124.6
600.33	51120.31
600.688	51111.27
601.046	51234.66
601.404	51309.91
601.762	51353.75
602.12	51577.92
602.478	51455.44
602.836	51390.58
603.194	51372.73
603.552	51387.42
603.91	51242.79
604.268	51497.93
604.625	51375.89
604.983	51529.34
605.341	51426.74
605.698	51607.53
606.056	51776.56
606.413	51624.93
606.771	51799.84
607.128	51824.92
607.485	51672.61
607.843	51704.47
608.2	51923
608.557	52036.67
608.914	51916.9
609.272	52049.32
609.629	52034.86
609.986	52175.87
610.343	52009.78
610.7	52195.31
611.057	52085.71
611.414	52151.92
611.771	52071.24
612.127	52221.75
612.484	52254.52
612.841	52305.36
613.198	52286.15
613.554	52281.63
613.911	52497.9
614.267	52570.89
614.624	52433.95
614.98	52466.26
615.337	52720.04
615.693	52613.15
616.05	52567.95
616.406	52654.51
616.762	52599.14
617.118	52564.56
617.475	52602.3
617.831	52686.37
618.187	52704.22
618.543	52708.97
618.899	52932.46
619.255	52784.22
619.611	52728.18
619.967	52872.58
620.323	52903.76
620.678	52764.11
621.034	52727.27
621.39	52730.21
621.746	52792.58
622.101	53025.8
622.457	52743.32
622.812	52812.02
623.168	52911.9
623.523	52905.35
623.879	53039.35
624.234	52742.41
624.589	52890.66
624.945	53037.77
625.3	52994.38
625.655	52898.34
626.01	52915.52
626.365	52953.03
626.72	52823.54
627.075	52861.73
627.43	52790.09
627.785	52831.68
628.14	52796.87
628.495	52821.73
628.85	52822.18
629.205	52694.05
629.559	52903.31
629.914	52684.79
630.269	52776.31
630.623	52667.84
630.978	52652.47
631.332	52837.1
631.687	52813.82
632.041	52726.59
632.396	52823.54
632.75	52649.99
633.104	52718.68
633.459	52586.03
633.813	52545.58
634.167	52616.99
634.521	52490.44
634.875	52534.96
635.229	52443.89
635.583	52244.35
635.937	52294.74
636.291	52271.92
636.645	52351.91
636.999	52270.79
637.352	52349.43
637.706	52058.14
638.06	52229.43
638.413	52125.48
638.767	52050.23
639.121	52206.61
639.474	51843
639.828	51862.44
640.181	51921.64
640.534	51849.1
640.888	51876.67
641.241	51635.32
641.594	51784.25
641.947	51819.5
642.301	51670.12
642.654	51649.33
643.007	51653.18
643.36	51590.58
643.713	51453.18
644.066	51582.9
644.419	51429.45
644.771	51230.59
645.124	50929.8
645.477	50793.09
645.83	50677.16
646.182	50430.38
646.535	50490.04
646.888	50560.55
647.24	50393.55
647.593	50628.8
647.945	50466.99
648.298	50210.28
648.65	50119.43
649.002	50112.65
649.355	50298.86
649.707	50175.93
650.059	50306.32
650.411	50581.34
650.763	50544.96
651.115	50966.19
651.467	50852.29
651.819	50790.6
652.171	50660.89
652.523	50717.38
652.875	50687.33
653.227	50516.48
653.578	50722.8
653.93	50602.36
654.282	50451.17
654.633	50394
654.985	50432.19
655.337	50398.52
655.688	50477.61
656.039	50521.23
656.391	50181.58
656.742	50167.57
657.094	50285.53
657.445	50415.24
657.796	50256.83
658.147	50280.56
658.498	50072.43
658.849	50275.13
659.2	50128.92
659.551	50039.43
659.902	50200.33
660.253	50135.7
660.604	50135.7
660.955	49899.78
661.306	50076.27
661.656	49950.62
662.007	50045.31
662.358	49899.32
662.708	49965.31
663.059	49906.1
663.409	49758.54
663.76	50063.61
664.11	50044.63
664.461	50083.5
664.811	50074.69
665.161	49881.92
665.511	49836.5
665.862	49830.4
666.212	49926.89
666.562	49906.55
666.912	49835.6
667.262	49840.79
667.612	49777.29
667.962	49740.91
668.312	49730.51
668.662	49876.5
669.011	49821.13
669.361	49652.1
669.711	49566
670.06	49537.75
670.41	49521.93
670.76	49435.83
671.109	49597.41
671.459	49455.49
671.808	49407.13
672.157	49448.49
672.507	49289.62
672.856	49365.78
673.205	49305.89
673.554	49444.19
673.904	49303.18
674.253	49471.09
674.602	49238.55
674.951	48706.13
675.3	48534.16
675.649	49056.41
675.998	48990.19
676.346	48978.67
676.695	49081.27
677.044	48743.65
677.393	48791.78
677.741	48869.52
678.09	48796.3
678.438	48676.53
678.787	48746.59
679.135	48742.07
679.484	48527.16
679.832	48560.6
680.181	48393.15
680.529	48479.25
680.877	48528.96
681.225	48359.25
681.573	48524.44
681.922	48259.14
682.27	48222.76
682.618	48307.73
682.966	48185.7
683.314	48135.08
683.661	48146.15
684.009	47858.7
684.357	47908.64
684.705	47750.68
685.053	47755.65
685.4	47692.83
685.748	47632.72
686.095	47466.17
686.443	47371.71
686.79	47368.99
687.138	47352.95
687.485	47459.16
687.832	47259.62
688.18	47279.96
688.527	47050.36
688.874	46990.7
689.221	46969.91
689.568	46931.04
689.915	46663.02
690.262	46609.92
690.609	46633.42
690.956	46461
691.303	46380.32
691.65	46291.28
691.997	46242.7
692.344	45943.04
692.69	45889.71
693.037	45867.79
693.383	45618.98
693.73	45883.16
694.077	45595.71
694.423	45461.02
694.769	45451.08
695.116	45305.55
695.462	45313
695.808	45027.14
696.155	45067.36
696.501	44921.15
696.847	44850.64
697.193	44584.44
697.539	44661.72
697.885	44435.96
698.231	44331.11
698.577	44174.95
698.923	44075.07
699.269	44056.09
699.614	43725.25
699.96	43889.54
700.306	43872.82
700.651	43602.54
700.997	43409.78
701.342	43372.94
701.688	43192.38
702.033	43211.14
702.379	43127.75
702.724	42970.47
703.069	43012.27
703.415	42664.94
703.76	42561.89
704.105	42584.94
704.45	42473.08
704.795	42212.29
705.14	42069.7
705.485	42255.23
705.83	41968.23
706.175	42133.43
706.52	41913.09
706.865	41708.8
707.209	41699.99
707.554	41479.21
707.899	41544.74
708.243	41412.77
708.588	41204.41
708.932	41135.49
709.277	41185.88
709.621	41043.06
709.966	40866.79
710.31	41029.27
710.654	40529.85
710.998	40755.38
711.342	40767.13
711.687	40694.14
712.031	40465
712.375	40289.63
712.719	40339.12
713.063	40303.87
713.407	40487.37
713.75	40156.98
714.094	40111.78
714.438	39904.78
714.782	39976.19
715.125	39796.76
715.469	39772.36
715.812	39561.06
716.156	39269.77
716.499	39354.97
716.843	39401.29
717.186	39086.73
717.53	39335.99
717.873	39305.25
718.216	39124.92
718.559	38909.78
718.902	38520.87
719.246	38725.83
719.589	38454.2
719.932	38324.49
720.275	38499.85
720.617	38309.12
720.96	38274.32
721.303	38338.72
721.646	38231.61
721.989	37985.29
722.331	38032.74
722.674	37949.58
723.016	37987.09
723.359	37908.23
723.701	37839.3
724.044	37599.99
724.386	37410.61
724.729	37622.36
725.071	37514.79
725.413	37524.96
725.755	37472.53
726.097	37337.17
726.439	37042.71
726.782	37163.16
727.124	37318.64
727.465	37103.73
727.807	37028.02
728.149	36972.88
728.491	36862.15
728.833	36932.88
729.175	36731.76
729.516	36746.22
729.858	36640.24
730.199	36699.9
730.541	36482.05
730.882	36514.36
731.224	36425.1
731.565	36282.51
731.906	36402.05
732.248	36355.05
732.589	36131.1
732.93	35888.17
733.271	35985.57
733.612	35957.32
733.953	35887.26
734.294	35762.29
734.635	35654.05
734.976	35838.45
735.317	35448.4
735.658	35593.49
735.999	35507.39
736.339	35493.83
736.68	35463.09
737.021	35380.84
737.361	35140.39
737.702	35240.27
738.042	35171.12
738.383	35186.94
738.723	35133.38
739.063	34882.77
739.404	35089.77
739.744	35055.19
740.084	34890.23
740.424	34756.44
740.764	34655.43
741.104	34856.1
741.444	34540.86
741.784	34419.73
742.124	34409.79
742.464	34382.22
742.804	34182.22
743.143	34181.09
743.483	34236.91
743.823	34042.57
744.162	34028.55
744.502	34152.62
744.841	33963.25
745.181	34153.07
745.52	33909.46
745.86	33990.36
746.199	33826.98
746.538	33835.34
746.877	33771.16
747.216	33900.42
747.556	33675.12
747.895	33699.07
748.234	33512.86
748.573	33549.92
748.911	33413.2
749.25	33343.83
749.589	33288.69
749.928	33247.78
750.267	33318.06
750.605	33112.65
750.944	32976.38
751.283	32900.22
751.621	32907.68
751.96	32751.3
752.298	32780.68
752.636	32806.44
752.975	32530.51
753.313	32634.01
753.651	32740
753.989	32318.54
754.327	32464.08
754.666	32274.48
755.004	32219.34
755.342	32243.29
755.679	32233.8
756.017	31896.86
756.355	32002.39
756.693	31834.04
757.031	31832.23
757.368	31589.52
757.706	31562.86
758.044	31499.81
758.381	31477.66
758.719	31281.96
759.056	31367.38
759.394	31055.75
759.731	30863.89
760.068	30844.23
760.405	30661.41
760.743	30697.12
761.08	30720.84
761.417	30455.99
761.754	30451.47
762.091	30307.3
762.428	30193.63
762.765	30089.22
763.102	30123.8
763.438	29956.35
763.775	29746.86
764.112	29857.82
764.449	29804.71
764.785	29693.75
765.122	29521.78
765.458	29403.14
765.795	29355.23
766.131	29352.07
766.467	29168.34
766.804	29030.27
767.14	28921.57
767.476	28886.54
767.812	28810.16
768.148	28759.77
768.485	28610.62
768.821	28364.52
769.157	28353.68
769.492	28285.2
769.828	28166.11
770.164	27870.52
770.5	27884.31
770.836	27891.09
771.171	27654.48
771.507	27623.3
771.842	27425.34
772.178	27402.29
772.513	27415.39
772.849	27107.61
773.184	27111.9
773.519	27110.32
773.855	26957.55
774.19	26864.67
774.525	26713.49
774.86	26730.67
775.195	26738.58
775.53	26587.62
775.865	26242.09
776.2	26099.95
776.535	25974.08
776.87	25877.13
777.205	25869.9
777.539	25757.36
777.874	25652.5
778.209	25451.6
778.543	25473.98
778.878	25320.08
779.212	25160.54
779.547	25062.24
779.881	25091.61
780.215	24961
780.55	25073.76
780.884	24801.9
781.218	24772.53
781.552	24730.49
781.886	24631.06
782.22	24434
782.554	24344.06
782.888	24080.34
783.222	24168.25
783.556	23968.48
783.889	24105.2
784.223	23874.7
784.557	23780.46
784.89	23775.72
785.224	23730.29
785.557	23602.61
785.891	23432.45
786.224	23395.61
786.558	23351.55
786.891	23134.15
787.224	23045.79
787.557	23104.1
787.891	23014.15
788.224	23060.93
788.557	22896.87
788.89	22818.45
789.223	22702.52
789.556	22599.93
789.888	22557.9
790.221	22467.73
790.554	22322.42
790.887	22380.73
791.219	22258.69
791.552	22131.47
791.884	22078.81
792.217	21912.94
792.549	21966.95
792.882	21758.14
793.214	21712.49
793.546	21719.27
793.879	21546.17
794.211	21331.26
794.543	21387.3
794.875	21446.29
795.207	21460.3
795.539	21222.56
795.871	21333.75
796.203	21121.1
796.535	21018.05
796.867	20866.64
797.198	20792.74
797.53	20844.72
797.862	20720.2
798.193	20695.35
798.525	20625.52
798.856	20567.67
799.188	20337.39
799.519	20408.8
799.85	20203.16
800.182	20355.69
800.513	20163.16
800.844	20010.17
801.175	20101.46
801.506	20013.1
801.837	19891.52
802.168	19829.83
802.499	19819.21
802.83	19726.11
803.161	19659.89
803.491	19532.21
803.822	19551.65
804.153	19449.95
804.483	19345.55
804.814	19272.33
805.145	19174.48
805.475	19270.98
805.805	19203.86
806.136	19157.98
806.466	19008.61
806.796	18979.91
807.126	18830.76
807.457	18804.1
807.787	18790.54
808.117	18735.17
808.447	18685.23
808.777	18595.06
809.107	18601.62
809.436	18505.12
809.766	18603.65
810.096	18355.97
810.426	18348.74
810.755	18303.54
811.085	18247.05
811.414	18206.6
811.744	18063.55
812.073	18085.7
812.403	18112.14
812.732	17995.3
813.061	17940.39
813.39	17886.61
813.719	17951.69
814.049	17950.33
814.378	17916.21
814.707	17701.75
815.036	17705.14
815.365	17627.18
815.693	17492.72
816.022	17536.78
816.351	17420.18
816.68	17308.99
817.008	17530.23
817.337	17332.5
817.665	17249.11
817.994	17324.13
818.322	17236
818.651	17165.27
818.979	17080.98
819.307	17192.16
819.636	17071.94
819.964	17038.49
820.292	17001.21
820.62	16954.43
820.948	16983.58
821.276	16986.06
821.604	16992.62
821.932	17023.58
822.259	17031.94
822.587	16923.47
822.915	16909.91
823.243	16965.05
823.57	16977.03
823.898	16922.56
824.225	16874.66
824.553	16869.91
824.88	16843.92
825.207	16952.62
825.535	16876.46
825.862	16885.05
826.189	16771.38
826.516	16889.34
826.843	16946.52
827.17	16891.15
827.497	16866.07
827.824	16927.31
828.151	16899.97
828.478	16823.13
828.805	16739.97
829.131	16795.11
829.458	16712.85
829.785	16714.43
830.111	16777.48
830.438	16835.56
830.764	16696.13
831.09	16814.77
831.417	16667.88
831.743	16865.84
832.069	16775
832.395	16643.25
832.722	16735.45
833.048	16656.58
833.374	16693.64
833.7	16586.3
834.026	16563.48
834.351	16618.16
834.677	16635.11
835.003	16602.12
835.329	16551.95
835.654	16649.8
835.98	16452.07
836.306	16544.49
836.631	16460.43
836.956	16543.82
837.282	16444.61
837.607	16368.91
837.932	16355.35
838.258	16406.42
838.583	16332.52
838.908	16285.29
839.233	16327.1
839.558	16365.29
839.883	16335.01
840.208	16247.1
840.533	16225.63
840.858	16203.71
841.182	16212.75
841.507	16126.43
841.832	16073.09
842.156	16057.05
842.481	16104.96
842.805	16060.67
843.13	15934.34
843.454	15925.98
843.778	15896.38
844.103	15809.6
844.427	15848.92
844.751	15798.07
845.075	15626.55
845.399	15695.48
845.723	15588.81
846.047	15577.74
846.371	15522.37
846.695	15469.04
847.019	15338.65
847.343	15391.98
847.666	15179.11
847.99	15219.56
848.313	15168.26
848.637	15134.14
848.96	15060.24
849.284	15036.96
849.607	14924.88
849.931	14888.72
850.254	14807.82
850.577	14687.37
850.9	14659.12
851.223	14550.87
851.546	14565.56
851.869	14467.03
852.192	14518.33
852.515	14475.62
852.838	14301.39
853.161	14386.81
853.483	14266.14
853.806	14170.32
854.129	14130.09
854.451	14133.94
854.774	14143.88
855.096	14049.42
855.419	13974.62
855.741	13933.72
856.063	13871.34
856.385	13885.81
856.708	13804.68
857.03	13777.34
857.352	13776.21
857.674	13649.43
857.996	13698.02
858.318	13611.46
858.64	13639.94
858.961	13514.52
859.283	13478.81
859.605	13499.15
859.926	13478.59
860.248	13393.39
860.57	13465.03
860.891	13393.84
861.212	13390.68
861.534	13305.03
861.855	13249.44
862.176	13240.85
862.498	13357.91
862.819	13252.83
863.14	13223.45
863.461	13221.42
863.782	13174.41
864.103	13116.79
864.424	13070.01
864.745	13135.09
865.065	13102.55
865.386	12982.33
865.707	12958.6
866.027	13011.48
866.348	12943.01
866.668	12915.44
866.989	12898.26
867.309	12836.12
867.63	12862.56
867.95	12935.32
868.27	12870.92
868.59	12843.8
868.91	12811.94
869.23	12749.57
869.55	12719.06
869.87	12684.93
870.19	12745.95
870.51	12723.58
870.83	12720.19
871.15	12653.52
871.469	12629.57
871.789	12646.74
872.109	12731.94
872.428	12597.03
872.748	12568.33
873.067	12580.53
873.386	12588.89
873.706	12557.03
874.025	12508.67
874.344	12439.07
874.663	12558.16
874.982	12408.11
875.301	12447.88
875.62	12443.13
875.939	12330.82
876.258	12380.31
876.577	12299.18
876.896	12356.58
877.214	12245.85
877.533	12315
877.852	12264.38
878.17	12285.85
878.489	12327.2
878.807	12314.78
879.125	12306.19
879.444	12260.77
879.762	12245.17
880.08	12244.04
880.398	12200.65
880.716	12196.13
881.034	12192.97
881.352	12146.64
881.67	12127.21
881.988	12078.4
882.306	12037.27
882.624	12013.77
882.941	12015.8
883.259	11953.65
883.577	11988
883.894	11951.17
884.212	11949.13
884.529	11915.92
884.846	11802.92
885.164	11888.12
885.481	11856.71
885.798	11834.79
886.115	11683.15
886.432	11786.2
886.75	11762.7
887.067	11834.79
887.383	11706.2
887.7	11770.16
888.017	11703.04
888.334	11718.18
888.651	11651.29
888.967	11658.52
889.284	11560.22
889.6	11563.38
889.917	11519.32
890.233	11534.46
890.55	11425.98
890.866	11462.59
891.182	11484.74
891.498	11328.13
891.815	11359.09
892.131	11290.85
892.447	11222.15
892.763	11234.58
893.079	11224.63
893.395	11141.7
893.71	11168.14
894.026	11095.82
894.342	11050.4
894.657	10981.48
894.973	10948.94
895.289	10905.09
895.604	10922.04
895.92	10855.38
896.235	10755.95
896.55	10828.71
896.865	10817.64
897.181	10736.74
897.496	10708.26
897.811	10682.73
898.126	10673.01
898.441	10635.72
898.756	10557.76
899.071	10533.8
899.386	10577.42
899.7	10499.23
900.015	10487.48
900.33	10386.92
900.644	10370.19
900.959	10373.36
901.273	10367.03
901.588	10249.07
901.902	10283.42
902.216	10238.9
902.531	10187.37
902.845	10189.41
903.159	10109.86
903.473	10055.4
903.787	10042.74
904.101	10010.65
904.415	10032.35
904.729	9905.35
905.042	9855.86
905.356	9982.63
905.67	9927.04
905.984	9860.38
906.297	9821.51
906.611	9770.66
906.924	9797.33
907.237	9687.95
907.551	9754.84
907.864	9616.99
908.177	9619.48
908.491	9647.95
908.804	9554.4
909.117	9541.06
909.43	9484.12
909.743	9430.11
910.056	9432.14
910.368	9388.52
910.681	9353.5
910.994	9296.55
911.307	9239.83
911.619	9154.86
911.932	9181.75
912.244	9131.36
912.557	9118.25
912.869	9022.88
913.181	8981.98
913.494	9022.43
913.806	8959.84
914.118	8906.05
914.43	8852.49
914.742	8884.58
915.054	8870.8
915.366	8796.68
915.678	8748.32
915.99	8723.91
916.302	8702.21
916.613	8651.37
916.925	8650.92
917.236	8676
917.548	8558.49
917.859	8529.34
918.171	8510.36
918.482	8471.71
918.794	8454.31
919.105	8444.37
919.416	8336.35
919.727	8362.34
920.038	8340.64
920.349	8292.51
920.66	8243.47
920.971	8255.45
921.282	8229.68
921.593	8173.87
921.903	8073.76
922.214	8123.25
922.525	8097.94
922.835	8019.97
923.146	7974.32
923.456	8000.76
923.767	7995.34
924.077	7899.75
924.387	7938.39
924.697	7849.58
925.008	7778.85
925.318	7743.82
925.628	7657.5
925.938	7695.01
926.248	7664.05
926.558	7637.38
926.867	7624.28
927.177	7571.17
927.487	7582.47
927.796	7543.38
928.106	7462.7
928.416	7467.67
928.725	7452.3
929.034	7380.67
929.344	7336.15
929.653	7369.59
929.962	7354
930.271	7269.71
930.581	7261.35
930.89	7162.59
931.199	7230.84
931.508	7167.34
931.817	7114.46
932.125	7120.79
932.434	7165.31
932.743	7055.7
933.051	7040.79
933.36	7040.34
933.669	6988.36
933.977	6950.85
934.286	6925.54
934.594	6929.83
934.902	6835.82
935.21	6787.01
935.519	6859.55
935.827	6819.33
936.135	6746.79
936.443	6717.41
936.751	6688.48
937.059	6655.04
937.367	6660.23
937.674	6620.01
937.982	6620.69
938.29	6578.65
938.597	6572.1
938.905	6552.21
939.213	6442.39
939.52	6442.61
939.827	6492.33
940.135	6394.03
940.442	6330.07
940.749	6334.14
941.056	6414.14
941.363	6343.41
941.67	6289.17
941.977	6218.66
942.284	6196.52
942.591	6164.43
942.898	6183.18
943.205	6140.02
943.511	6130.08
943.818	6119.01
944.125	6074.94
944.431	6066.8
944.738	6066.13
945.044	6052.34
945.35	5981.16
945.657	5958.33
945.963	5952
946.269	5930.31
946.575	5934.83
946.881	5794.95
947.187	5868.62
947.493	5787.26
947.799	5813.25
948.105	5818.22
948.41	5759.92
948.716	5754.95
949.022	5756.53
949.327	5738.45
949.633	5665.91
949.938	5591.11
950.244	5639.92
950.549	5622.3
950.854	5550.89
951.16	5567.16
951.465	5511.56
951.77	5506.59
952.075	5466.14
952.38	5477.89
952.685	5418.01
952.99	5349.99
953.294	5364.68
953.599	5326.03
953.904	5271.34
954.209	5278.12
954.513	5272.25
954.818	5288.52
955.122	5205.81
955.426	5192.93
955.731	5192.7
956.035	5199.03
956.339	5190.22
956.643	5135.53
956.948	5098.47
957.252	5046.72
957.556	5100.28
957.86	5058.69
958.163	5067.28
958.467	5065.93
958.771	4995.65
959.075	4960.39
959.378	4931.24
959.682	4923.11
959.985	4857.8
960.289	4892.15
960.592	4841.3
960.896	4872.26
961.199	4853.95
961.502	4764.92
961.805	4817.35
962.108	4766.05
962.411	4735.99
962.714	4726.05
963.017	4704.35
963.32	4713.62
963.623	4629.55
963.926	4654.86
964.228	4632.49
964.531	4590.01
964.833	4571.25
965.136	4561.08
965.438	4524.7
965.741	4515.21
966.043	4509.56
966.345	4464.59
966.648	4452.16
966.95	4437.47
967.252	4430.46
967.554	4433.17
967.856	4425.72
968.158	4383.46
968.46	4355.66
968.761	4320.41
969.063	4359.96
969.365	4320.18
969.666	4314.53
969.968	4229.11
970.269	4201.99
970.571	4271.14
970.872	4180.75
971.174	4167.19
971.475	4184.14
971.776	4146.63
972.077	4115.22
972.378	4074.31
972.679	4103.24
972.98	4066.63
973.281	4102.56
973.582	4035.67
973.883	4017.14
974.183	3994.77
974.484	3963.13
974.785	3992.96
975.085	3994.99
975.386	3950.48
975.686	3908.89
975.986	3918.61
976.287	3925.17
976.587	3871.61
976.887	3851.72
977.187	3865.96
977.487	3822.12
977.787	3817.15
978.087	3810.59
978.387	3799.74
978.687	3801.33
978.987	3696.47
979.286	3758.84
979.586	3727.43
979.885	3672.74
980.185	3660.09
980.484	3667.77
980.784	3667.77
981.083	3594.1
981.382	3634.33
981.682	3602.24
981.981	3595.68
982.28	3582.12
982.579	3481.79
982.878	3574.89
983.177	3502.35
983.475	3513.88
983.774	3498.51
984.073	3477.04
984.372	3440.43
984.67	3456.25
984.969	3437.72
985.267	3436.59
985.566	3416.48
985.864	3418.74
986.162	3390.72
986.461	3389.81
986.759	3359.08
987.057	3330.83
987.355	3310.49
987.653	3327.67
987.951	3290.15
988.249	3290.15
988.547	3293.54
988.844	3273.66
989.142	3230.72
989.44	3245.41
989.737	3197.27
990.035	3192.08
990.332	3180.33
990.63	3171.29
990.927	3105.53
991.224	3128.58
991.521	3066.43
991.819	3093.32
992.116	3081.8
992.413	3082.7
992.71	3076.6
993.006	3054.68
993.303	3010.39
993.6	2988.92
993.897	2976.26
994.193	2978.98
994.49	2984.62
994.787	2978.75
995.083	2918.41
995.379	2940.11
995.676	2929.26
995.972	2898.98
996.268	2895.14
996.565	2894.46
996.861	2887.45
997.157	2836.61
997.453	2829.83
997.749	2818.53
998.044	2804.74
998.34	2798.42
998.636	2766.55
998.932	2739.66
999.227	2753.22
999.523	2746.89
999.818	2722.03
1000.114	2694.46
1000.409	2686.55
1000.704	2652.2
1001	2658.53
1001.295	2631.41
1001.59	2643.84
1001.885	2652.2
1002.18	2644.97
1002.475	2590.96
1002.77	2571.75
1003.065	2596.84
1003.359	2551.87
1003.654	2542.38
1003.949	2503.73
1004.243	2532.43
1004.538	2487.69
1004.832	2476.39
1005.127	2464.41
1005.421	2448.59
1005.715	2430.97
1006.009	2442.94
1006.304	2408.82
1006.598	2396.17
1006.892	2376.96
1007.186	2379.22
1007.48	2379.67
1007.773	2357.75
1008.067	2340.8
1008.361	2319.78
1008.655	2308.48
1008.948	2281.82
1009.242	2277.75
1009.535	2243.18
1009.829	2251.31
1010.122	2233.01
1010.415	2230.29
1010.708	2215.38
1011.001	2197.75
1011.295	2195.27
1011.588	2150.97
1011.881	2193.46
1012.173	2148.71
1012.466	2142.39
1012.759	2147.58
1013.052	2112.33
1013.344	2086.12
1013.637	2085.44
1013.93	2079.11
1014.222	2050.64
1014.514	2054.48
1014.807	2035.72
1015.099	1985.33
1015.391	2009.51
1015.683	1993.46
1015.976	1992.33
1016.268	1973.35
1016.56	1985.33
1016.851	1925.44
1017.143	1936.29
1017.435	1912.56
1017.727	1927.7
1018.018	1871.21
1018.31	1873.92
1018.602	1875.95
1018.893	1863.3
1019.185	1849.97
1019.476	1838.67
1019.767	1871.21
1020.058	1802.51
1020.35	1847.71
1020.641	1808.84
1020.932	1763.64
1021.223	1767.93
1021.514	1771.78
1021.804	1731.1
1022.095	1750.99
1022.386	1723.87
1022.677	1755.73
1022.967	1684.32
1023.258	1694.26
1023.548	1690.65
1023.839	1671.21
1024.129	1631.44
1024.419	1649.97
1024.709	1619.92
1025	1628.05
1025.29	1612.68
1025.58	1568.16
1025.87	1581.95
1026.16	1578.79
1026.449	1564.1
1026.739	1552.35
1027.029	1548.28
1027.319	1519.35
1027.608	1502.4
1027.898	1507.6
1028.187	1517.54
1028.477	1487.04
1028.766	1504.89
1029.055	1487.94
1029.344	1415.63
1029.634	1450.43
1029.923	1438.45
1030.212	1412.69
1030.501	1423.99
1030.79	1408.17
1031.078	1397.1
1031.367	1389.86
1031.656	1408.85
1031.945	1379.92
1032.233	1337.21
1032.522	1365.23
1032.81	1317.78
1033.099	1341.05
1033.387	1327.04
1033.675	1333.59
1033.963	1291.34
1034.251	1322.3
1034.54	1303.31
1034.828	1278.91
1035.116	1286.59
1035.403	1268.29
1035.691	1244.11
1035.979	1220.83
1036.267	1234.84
1036.554	1223.99
1036.842	1235.74
1037.129	1219.7
1037.417	1195.07
1037.704	1179.25
1037.992	1189.64
1038.279	1193.03
1038.566	1192.36
1038.853	1192.36
1039.14	1192.36
