Data from aluminium_macbook_case_FLMS001491_043.txt Node
Date: Tue Feb 07 10:43:40 GMT 2017
User: dcchb
Spectrometer: FLMS00149
Trigger mode: 0
Integration Time (sec): 2.000000E-2
Scans to average: 10
Electric dark correction enabled: true
Nonlinearity correction enabled: false
Boxcar width: 0
XAxis mode: Wavelengths
Number of Pixels in Spectrum: 2048
>>>>>Begin Spectral Data<<<<<
341.393	-6.26
341.776	-6.26
342.16	-6.26
342.543	-49.65
342.927	-53.71
343.31	-64.11
343.693	-70.89
344.077	-64.79
344.46	-51.68
344.843	-24.11
345.226	-45.35
345.61	-30.66
345.993	-24.34
346.376	-4.68
346.759	0.75
347.142	16.34
347.525	54.76
347.908	66.28
348.291	73.74
348.674	71.71
349.057	97.02
349.44	146.28
349.823	143.12
350.206	162.33
350.588	259.27
350.971	257.69
351.354	275.09
351.737	289.1
352.119	292.04
352.502	314.86
352.884	327.52
353.267	332.04
353.65	344.47
354.032	373.17
354.414	367.29
354.797	363
355.179	372.72
355.562	383.79
355.944	367.74
356.326	418.14
356.709	395.99
357.091	402.55
357.473	379.72
357.855	392.15
358.238	390.57
358.62	398.93
359.002	419.04
359.384	417.01
359.766	421.53
360.148	406.84
360.53	404.58
360.912	397.8
361.294	437.12
361.676	417.91
362.057	426.05
362.439	417.69
362.821	410
363.203	405.48
363.584	437.57
363.966	409.33
364.348	408.87
364.729	399.83
365.111	422.66
365.493	413.17
365.874	408.65
366.256	429.21
366.637	432.38
367.019	406.61
367.4	425.14
367.781	435.54
368.163	439.83
368.544	438.03
368.925	430.57
369.306	439.16
369.688	452.49
370.069	435.99
370.45	455.43
370.831	429.44
371.212	445.48
371.593	439.16
371.974	438.93
372.355	456.33
372.736	451.81
373.117	456.33
373.498	437.35
373.879	444.58
374.26	434.18
374.641	459.49
375.021	447.29
375.402	489.32
375.783	479.15
376.163	517.12
376.544	525.93
376.925	507.4
377.305	509.44
377.686	503.79
378.066	504.01
378.447	529.32
378.827	513.96
379.208	507.63
379.588	532.03
379.968	500.85
380.349	533.39
380.729	574.07
381.109	563.67
381.489	534.07
381.87	551.47
382.25	571.36
382.63	585.37
383.01	581.75
383.39	588.53
383.77	597.57
384.15	621.75
384.53	613.16
384.91	608.42
385.29	628.98
385.67	617
386.049	649.09
386.429	627.62
386.809	635.53
387.189	653.84
387.568	660.84
387.948	671.24
388.328	682.54
388.707	659.04
389.087	682.99
389.466	705.14
389.846	701.3
390.225	721.86
390.605	721.86
390.984	728.41
391.363	737.23
391.743	734.51
392.122	752.14
392.501	765.02
392.881	757.79
393.26	795.98
393.639	800.05
394.018	786.26
394.397	793.72
394.776	824.91
395.155	846.15
395.534	861.74
395.913	808.86
396.292	848.41
396.671	857.22
397.05	885.47
397.429	884.12
397.808	873.27
398.186	891.57
398.565	929.31
398.944	930.67
399.323	927.96
399.701	925.7
400.08	965.47
400.458	967.05
400.837	975.64
401.215	976.09
401.594	998.46
401.972	982.87
402.351	1005.69
402.729	1002.53
403.107	1023.32
403.486	1064.68
403.864	1064.22
404.242	1087.73
404.62	1103.77
404.999	1100.61
405.377	1106.71
405.755	1116.88
406.133	1157.78
406.511	1160.49
406.889	1169.76
407.267	1198.23
407.645	1221.51
408.023	1212.24
408.401	1213.6
408.779	1278
409.156	1302.86
409.534	1313.26
409.912	1325.01
410.29	1334.72
410.667	1340.83
411.045	1412.91
411.422	1387.38
411.8	1397.32
412.178	1437.55
412.555	1443.42
412.933	1490.88
413.31	1489.52
413.687	1501.5
414.065	1540.37
414.442	1559.58
414.819	1569.29
415.197	1584.21
415.574	1615.17
415.951	1641.16
416.328	1674.15
416.705	1648.84
417.082	1670.54
417.46	1686.58
417.837	1715.51
418.214	1756.86
418.591	1759.8
418.967	1788.95
419.344	1802.74
419.721	1836.18
420.098	1848.16
420.475	1875.95
420.852	1887.48
421.228	1906.01
421.605	1881.6
421.982	1943.3
422.358	1983.52
422.735	1968.83
423.111	2005.44
423.488	2049.73
423.864	2046.57
424.241	2046.12
424.617	2092.22
424.994	2149.84
425.37	2147.36
425.746	2134.93
426.123	2198.2
426.499	2244.98
426.875	2235.04
427.251	2303.51
427.627	2358.65
428.003	2340.35
428.379	2388.26
428.756	2431.19
429.132	2463.51
429.507	2502.15
429.883	2495.15
430.259	2549.38
430.635	2626.67
431.011	2630.96
431.387	2693.56
431.763	2778.53
432.138	2804.97
432.514	2770.17
432.89	2833.44
433.265	2890.16
433.641	2929.71
434.016	2944.4
434.392	2984.4
434.767	3053.1
435.143	3054.23
435.518	3077.05
435.894	3121.12
436.269	3181.91
436.644	3226.88
437.02	3273.43
437.395	3305.97
437.77	3326.54
438.145	3343.49
438.52	3433.2
438.895	3434.78
439.271	3484.05
439.646	3573.31
440.021	3557.94
440.395	3625.74
440.77	3565.4
441.145	3625.06
441.52	3691.5
441.895	3686.75
442.27	3719.97
442.645	3769.24
443.019	3830.93
443.394	3857.6
443.769	3827.31
444.143	3860.53
444.518	3942.34
444.892	3932.85
445.267	3992.28
445.641	4018.27
446.016	4003.36
446.39	4112.5
446.764	4122.67
447.139	4115.44
447.513	4168.55
447.887	4195.67
448.262	4225.27
448.636	4216.68
449.01	4322.44
449.384	4361.76
449.758	4432.27
450.132	4464.36
450.506	4503.91
450.88	4534.64
451.254	4523.79
451.628	4587.75
452.002	4618.93
452.376	4644.24
452.75	4745.03
453.123	4800.17
453.497	4879.72
453.871	4872.26
454.244	4960.39
454.618	5053.05
454.992	5128.07
455.365	5128.98
455.739	5274.06
456.112	5316.32
456.486	5324.68
456.859	5368.29
457.232	5533.71
457.606	5518.57
457.979	5594.5
458.352	5727.38
458.725	5781.84
459.099	5819.8
459.472	5991.1
459.845	5950.87
460.218	6090.08
460.591	6183.18
460.964	6211.43
461.337	6358.77
461.71	6474.93
462.083	6525.77
462.456	6583.17
462.829	6568.26
463.201	6742.49
463.574	6728.03
463.947	6803.06
464.32	7025.2
464.692	7047.57
465.065	7109.71
465.438	7204.4
465.81	7261.8
466.183	7397.16
466.555	7638.51
466.928	7663.37
467.3	7675.58
467.672	7829.24
468.045	8007.09
468.417	8022.01
468.789	7991.72
469.161	8195.34
469.534	8319.63
469.906	8494.54
470.278	8627.87
470.65	8702.89
471.022	8870.57
471.394	9015.2
471.766	9127.74
472.138	9243.9
472.51	9466.26
472.882	9574.06
473.253	9693.15
473.625	9806.59
473.997	9959.13
474.369	10063.99
474.74	10183.53
475.112	10452.45
475.484	10550.3
475.855	10845.44
476.227	10897.19
476.598	11217.18
476.97	11275.93
477.341	11519.99
477.713	11813.32
478.084	11857.16
478.455	12175.12
478.827	12284.95
479.198	12682.22
479.569	12599.51
479.94	13060.97
480.311	13107.97
480.682	13446.5
481.053	13718.35
481.424	13987.5
481.795	14109.98
482.166	14385.68
482.537	14538.22
482.908	14866.12
483.279	15063.86
483.65	15253
484.021	15627
484.391	15727.57
484.762	15908.13
485.133	16050.95
485.503	16349.92
485.874	16756.24
486.244	16819.52
486.615	17227.41
486.985	17346.73
487.356	17722.77
487.726	17939.94
488.097	18291.57
488.467	18391
488.837	18757.09
489.207	18954.37
489.578	19344.65
489.948	19483.4
490.318	19692.43
490.688	19750.74
491.058	20127
491.428	20456.26
491.798	20573.31
492.168	21034.77
492.538	21048.78
492.908	21284.71
493.278	21535.32
493.648	21623
494.017	21937.35
494.387	22171.92
494.757	22212.14
495.126	22664.11
495.496	22643.77
495.866	22861.62
496.235	23178.44
496.605	23301.83
496.974	23517.19
497.344	23778.65
497.713	23984.07
498.082	24027.46
498.452	24377.28
498.821	24604.85
499.19	24609.59
499.559	24833.32
499.928	25084.61
500.298	25243.47
500.667	25468.33
501.036	25462
501.405	25755.55
501.774	25838.71
502.143	26125.94
502.512	26213.39
502.88	26475.98
503.249	26497.45
503.618	26703.1
503.987	26798.91
504.356	26995.97
504.724	27146.48
505.093	27230.77
505.462	27566.35
505.83	27706.69
506.199	27931.99
506.567	28347.12
506.936	28245.88
507.304	28670.96
507.672	28807.45
508.041	28851.52
508.409	29199.98
508.777	29470.03
509.145	29802.22
509.514	29749.34
509.882	30085.83
510.25	30097.81
510.618	30415.54
510.986	30557.01
511.354	30911.8
511.722	31143.43
512.09	31338.23
512.458	31514.72
512.826	31559.47
513.193	31956.52
513.561	32012.34
513.929	32251.2
514.297	32482.61
514.664	32624.07
515.032	32937.96
515.4	33262.02
515.767	33292.98
516.135	33550.37
516.502	33433.99
516.869	34162.79
517.237	34208.21
517.604	34200.98
517.972	34625.37
518.339	34868.76
518.706	34926.16
519.073	35312.81
519.44	35421.96
519.808	35772.92
520.175	35972.23
520.542	36372.45
520.909	36575.61
521.276	36672.1
521.643	37145.76
522.009	37377.84
522.376	37694.9
522.743	37985.29
523.11	38334.2
523.477	38684.93
523.843	38822.55
524.21	39263.67
524.577	39526.49
524.943	39673.38
525.31	39860.49
525.676	40280.14
526.043	40480.59
526.409	40732.78
526.776	41008.48
527.142	41039.9
527.508	41473.33
527.874	41749.26
528.241	41899.08
528.607	42119.19
528.973	42572.96
529.339	42515.34
529.705	42901.09
530.071	43368.87
530.437	43452.49
530.803	43615.87
531.169	43891.35
531.535	43934.06
531.901	44202.07
532.267	44438.9
532.632	44710.31
532.998	45015.16
533.364	45174.7
533.73	45216.73
534.095	45559.1
534.461	45691.98
534.826	46055.13
535.192	46270.72
535.557	46297.38
535.923	46573.76
536.288	46640.65
536.653	46807.43
537.019	46874.54
537.384	47076.12
537.749	47263.01
538.114	47253.97
538.479	47309.34
538.845	47721.98
539.21	47546.84
539.575	47682.66
539.94	47758.36
540.305	48092.14
540.67	48057.34
541.034	48250.55
541.399	48513.15
541.764	48450.55
542.129	48662.52
542.494	48871.78
542.858	48957.88
543.223	49039.46
543.587	49337.76
543.952	49218.44
544.316	49330.07
544.681	49431.77
545.045	49637.41
545.41	49855.26
545.774	49900.68
546.138	50100.67
546.503	50173.67
546.867	50165.76
547.231	50556.03
547.595	50607.55
547.959	50850.94
548.324	50747.44
548.688	50958.73
549.052	51010.71
549.416	51188.1
549.779	51252.96
550.143	51390.58
550.507	51601.65
550.871	51626.51
551.235	51659.28
551.599	51822.89
551.962	51909.44
552.326	51999.61
552.689	52220.62
553.053	52113.05
553.417	52286.61
553.78	52693.15
554.143	52468.3
554.507	52704
554.87	52760.94
555.234	53082.29
555.597	52978.11
555.96	53101.95
556.323	53203.87
556.686	53331.1
557.05	53548.27
557.413	53643.41
557.776	53603.63
558.139	53881.82
558.502	54050.17
558.865	54033.68
559.228	54272.32
559.59	54297.63
559.953	54468.69
560.316	54748.01
560.679	54782.81
561.041	54919.53
561.404	55157.04
561.767	55359.74
562.129	55181.44
562.492	55537.82
562.854	55534.88
563.217	55535.56
563.579	55686.97
563.941	55894.42
564.304	56003.57
564.666	56077.69
565.028	56116.79
565.39	56247.41
565.753	56333.05
566.115	56479.04
566.477	56563.1
566.839	56658.24
567.201	56847.39
567.563	56799.26
567.925	57016.2
568.287	57053.26
568.648	57095.74
569.01	57237.66
569.372	57323.31
569.734	57202.41
570.095	57427.94
570.457	57538.67
570.819	57600.14
571.18	57720.81
571.542	57788.83
571.903	57828.38
572.265	58013.69
572.626	58055.72
572.987	58116.96
573.349	58197.64
573.71	58247.13
574.071	58344.07
574.432	58408.7
574.794	58512.66
575.155	58527.8
575.516	58485.09
575.877	58584.29
576.238	58669.49
576.599	58785.42
576.96	58802.59
577.32	58823.16
577.681	58897.96
578.042	58922.82
578.403	58947.9
578.763	58977.95
579.124	59028.58
579.485	59106.09
579.845	59205.29
580.206	59107.67
580.566	59166.65
580.927	59159.42
581.287	59304.73
581.648	59163.94
582.008	59286.87
582.368	59161
582.728	59255.69
583.089	59182.47
583.449	59175.46
583.809	59199.19
584.169	59301.34
584.529	59140.44
584.889	59423.14
585.249	59195.8
585.609	59180.44
585.969	59335.01
586.329	59190.83
586.688	59238.29
587.048	59347.21
587.408	59188.12
587.768	59230.6
588.127	59290.72
588.487	59277.61
588.846	59409.81
589.206	59235.12
589.565	59264.5
589.925	59447.55
590.284	59340.88
590.643	59325.97
591.003	59457.49
591.362	59475.12
591.721	59469.24
592.08	59500.88
592.44	59572.97
592.799	59532.74
593.158	59497.49
593.517	59541.33
593.876	59587.66
594.235	59473.76
594.593	59562.35
594.952	59559.63
595.311	59461.56
595.67	59537.49
596.029	59707.88
596.387	59646.41
596.746	59689.57
597.104	59560.54
597.463	59521.22
597.822	59643.93
598.18	59604.83
598.538	59503.14
598.897	59667.2
599.255	59460.65
599.613	59798.72
599.972	59607.54
600.33	59719.4
600.688	59638.95
601.046	59680.99
601.404	59804.15
601.762	59718.05
602.12	59798.95
602.478	59798.5
602.836	59833.07
603.194	59725.96
603.552	59799.63
603.91	59686.18
604.268	59882.79
604.625	59807.54
604.983	59890.02
605.341	59889.12
605.698	60000.75
606.056	60015.22
606.413	59968.66
606.771	60038.04
607.128	60055.44
607.485	59989
607.843	60055.44
608.2	60204.36
608.557	60197.13
608.914	60223.8
609.272	60330.01
609.629	60351.03
609.986	60356
610.343	60261.76
610.7	60439.39
611.057	60353.96
611.414	60410.91
611.771	60387.18
612.127	60398.48
612.484	60467.41
612.841	60505.15
613.198	60413.85
613.554	60490.91
613.911	60602.77
614.267	60585.6
614.624	60552.38
614.98	60526.39
615.337	60657.01
615.693	60547.41
616.05	60560.51
616.406	60704.24
616.762	60607.97
617.118	60586.05
617.475	60606.16
617.831	60654.97
618.187	60649.32
618.543	60641.41
618.899	60786.95
619.255	60821.52
619.611	60696.55
619.967	60839.37
620.323	60877.11
620.678	60826.49
621.034	60758.25
621.39	60736.55
621.746	60793.05
622.101	60948.07
622.457	60815.19
622.812	60863.56
623.168	60910.11
623.523	60919.6
623.879	60971.35
624.234	60837.12
624.589	60888.87
624.945	60895.87
625.3	60882.54
625.655	60953.5
626.01	60963.44
626.365	60959.82
626.72	60927.73
627.075	60890.22
627.43	60853.16
627.785	60778.13
628.14	60820.62
628.495	60823.56
628.85	60832.14
629.205	60758.7
629.559	60899.71
629.914	60737.91
630.269	60758.7
630.623	60701.3
630.978	60641.19
631.332	60721.19
631.687	60725.93
632.041	60606.61
632.396	60572.94
632.75	60519.61
633.104	60550.57
633.459	60451.36
633.813	60458.37
634.167	60423.34
634.521	60369.56
634.875	60432.38
635.229	60386.73
635.583	60243.91
635.937	60244.81
636.291	60243.23
636.645	60216.57
636.999	60099.28
637.352	60185.83
637.706	60005.95
638.06	60159.39
638.413	60062.22
638.767	60003.46
639.121	60027.42
639.474	59887.54
639.828	59842.79
640.181	59907.65
640.534	59883.92
640.888	59773.87
641.241	59704.72
641.594	59823.81
641.947	59817.93
642.301	59799.18
642.654	59789.91
643.007	59709.24
643.36	59741.78
643.713	59693.42
644.066	59723.92
644.419	59580.2
644.771	59429.47
645.124	59195.8
645.477	59190.83
645.83	58973.44
646.182	58834.46
646.535	58777.96
646.888	58845.53
647.24	58709.26
647.593	58822.7
647.945	58801.69
648.298	58590.62
648.65	58564.18
649.002	58456.84
649.355	58585.65
649.707	58525.31
650.059	58558.53
650.411	58908.35
650.763	58927.56
651.115	59145.63
651.467	58982.7
651.819	58954.68
652.171	58855.7
652.523	58837.39
652.875	58895.02
653.227	58756.72
653.578	58862.25
653.93	58882.36
654.282	58735.02
654.633	58646.66
654.985	58630.85
655.337	58657.51
655.688	58629.94
656.039	58710.17
656.391	58506.1
656.742	58594.69
657.094	58475.82
657.445	58631.75
657.796	58609.6
658.147	58469.95
658.498	58496.61
658.849	58522.83
659.2	58391.53
659.551	58405.31
659.902	58507.23
660.253	58460.68
660.604	58520.11
660.955	58382.26
661.306	58387.69
661.656	58369.16
662.007	58309.05
662.358	58378.2
662.708	58384.75
663.059	58340.91
663.409	58127.81
663.76	58323.73
664.11	58287.35
664.461	58231.31
664.811	58239.22
665.161	58302.27
665.511	58138.2
665.862	58162.61
666.212	58260.23
666.562	58244.41
666.912	58150.18
667.262	58231.76
667.612	58134.36
667.962	58146.34
668.312	58058.21
668.662	58173.68
669.011	58057.08
669.361	57995.38
669.711	58011.2
670.06	57949.28
670.41	57937.3
670.76	57851.43
671.109	57982.27
671.459	57953.35
671.808	57833.35
672.157	57828.61
672.507	57685.33
672.856	57709.29
673.205	57737.76
673.554	57754.71
673.904	57597.2
674.253	57814.14
674.602	57688.27
674.951	57320.15
675.3	57201.96
675.649	57582.96
675.998	57574.6
676.346	57567.82
676.695	57563.53
677.044	57414.61
677.393	57475.85
677.741	57523.3
678.09	57455.06
678.438	57329.41
678.787	57382.06
679.135	57421.16
679.484	57188.17
679.832	57304.78
680.181	57184.1
680.529	57254.38
680.877	57187.72
681.225	57113.82
681.573	57280.37
681.922	57100.04
682.27	56965.8
682.618	57051.23
682.966	56904.56
683.314	57047.16
683.661	56891.68
684.009	56711.57
684.357	56666.6
684.705	56654.85
685.053	56657.79
685.4	56594.74
685.748	56507.29
686.095	56528.75
686.443	56388.42
686.79	56291.92
687.138	56373.5
687.485	56358.81
687.832	56217.12
688.18	56251.92
688.527	56010.8
688.874	55992.5
689.221	55920.18
689.568	55826.4
689.915	55801.32
690.262	55736.46
690.609	55752.5
690.956	55615.78
691.303	55639.29
691.65	55474.32
691.997	55458.5
692.344	55294.44
692.69	55174.67
693.037	55202.69
693.383	54993.65
693.73	55134.67
694.077	54896.03
694.423	54891.06
694.769	54798.4
695.116	54704.85
695.462	54712.98
695.808	54557.73
696.155	54621.01
696.501	54405.42
696.847	54460.11
697.193	54219.66
697.539	54252.66
697.885	53979.44
698.231	53917.97
698.577	54003.85
698.923	53864.42
699.269	53735.38
699.614	53589.62
699.96	53595.5
700.306	53568.38
700.651	53362.28
700.997	53386.46
701.342	53221.95
701.688	53228.28
702.033	53096.98
702.379	53129.97
702.724	52948.73
703.069	53032.35
703.415	52656.99
703.76	52619.48
704.105	52590.1
704.45	52552.36
704.795	52319.6
705.14	52302.42
705.485	52118.25
705.83	52028.76
706.175	52089.32
706.52	51923.9
706.865	51934.98
707.209	51848.42
707.554	51766.39
707.899	51772.04
708.243	51597.81
708.588	51560.52
708.932	51269.46
709.277	51249.57
709.621	51305.61
709.966	51073.3
710.31	51077.37
710.654	50770.71
710.998	51048.45
711.342	50959.86
711.687	50757.38
712.031	50633.99
712.375	50548.12
712.719	50617.27
713.063	50535.47
713.407	50590.6
713.75	50341.57
714.094	50412.3
714.438	50100.67
714.782	50125.31
715.125	49833.56
715.469	49985.42
715.812	49880.12
716.156	49770.74
716.499	49627.69
716.843	49604.87
717.186	49466.34
717.53	49565.32
717.873	49573.91
718.216	49567.81
718.559	49279.68
718.902	49130.08
719.246	49100.47
719.589	49074.03
719.932	48899.12
720.275	48846.24
720.617	48797.43
720.96	48742.74
721.303	48689.41
721.646	48636.31
721.989	48443.09
722.331	48505.69
722.674	48469.08
723.016	48446.71
723.359	48351.12
723.701	48236.99
724.044	48055.53
724.386	47785.48
724.729	48046.04
725.071	47792.71
725.413	47775.76
725.755	47750
726.097	47509.78
726.439	47378.26
726.782	47352.05
727.124	47606.5
727.465	47221.88
727.807	47101.88
728.149	47055.56
728.491	47043.81
728.833	46987.31
729.175	46836.58
729.516	46842.68
729.858	46766.52
730.199	46738.28
730.541	46660.99
730.882	46442.24
731.224	46589.35
731.565	46362.92
731.906	46260.32
732.248	46345.29
732.589	46001.35
732.93	45974.68
733.271	45896.26
733.612	45957.28
733.953	45919.09
734.294	45671.41
734.635	45690.62
734.976	45820.33
735.317	45624.41
735.658	45592.54
735.999	45475.49
736.339	45456.28
736.68	45475.26
737.021	45360.69
737.361	45148.04
737.702	45284.98
738.042	45017.64
738.383	45098.77
738.723	45138.54
739.063	44848.38
739.404	45033.69
739.744	44869.85
740.084	44643.42
740.424	44790.31
740.764	44743.53
741.104	44882.28
741.444	44489.3
741.784	44436.19
742.124	44547.15
742.464	44397.32
742.804	44365.91
743.143	44177.44
743.483	44177.44
743.823	43862.42
744.162	43915.98
744.502	43885.02
744.841	43712.82
745.181	43754.4
745.52	43686.15
745.86	43658.58
746.199	43649.09
746.538	43369.1
746.877	43433.05
747.216	43695.42
747.556	43233.06
747.895	43270.12
748.234	43059.5
748.573	43056.79
748.911	42987.41
749.25	42893.41
749.589	42716.46
749.928	42699.29
750.267	42699.74
750.605	42503.36
750.944	42579.97
751.283	42243.03
751.621	42352.18
751.96	42046.42
752.298	42021.56
752.636	41945.41
752.975	41842.59
753.313	41594.01
753.651	41845.3
753.989	41638.98
754.327	41582.71
754.666	41222.72
755.004	41295.71
755.342	41271.08
755.679	41163.28
756.017	40912.89
756.355	41088.03
756.693	40719.68
757.031	40852.33
757.368	40438.56
757.706	40424.54
758.044	40268.62
758.381	40252.12
758.719	40172.8
759.056	40186.81
759.394	39813.94
759.731	39590.44
760.068	39722.87
760.405	39519.94
760.743	39272.71
761.08	39450.11
761.417	39129.21
761.754	39187.29
762.091	39046.5
762.428	38989.1
762.765	38825.49
763.102	38870.24
763.438	38645.38
763.775	38578.04
764.112	38502.79
764.449	38474.09
764.785	38243.13
765.122	38037.04
765.458	37953.2
765.795	37932.86
766.131	37764.5
766.467	37566.99
766.804	37472.76
767.14	37261.69
767.476	37239.09
767.812	37039.77
768.148	37105.99
768.485	36843.62
768.821	36734.25
769.157	36679.78
769.492	36549.62
769.828	36556.4
770.164	36158.44
770.5	35948.96
770.836	36176.07
771.171	35825.8
771.507	35838.68
771.842	35562.98
772.178	35508.74
772.513	35264.91
772.849	35297.9
773.184	35118.02
773.519	34963.67
773.855	34865.37
774.19	34611.59
774.525	34464.93
774.86	34506.96
775.195	34362.56
775.53	34202.79
775.865	34048.44
776.2	33760.99
776.535	33571.62
776.87	33581.79
777.205	33399.19
777.539	33257.73
777.874	33201.91
778.209	33155.58
778.543	32918.08
778.878	32872.88
779.212	32655.26
779.547	32505.66
779.881	32611.87
780.215	32265.21
780.55	32284.65
780.884	32195.16
781.218	32039.45
781.552	32033.8
781.886	31782.96
782.22	31625
782.554	31437.44
782.888	31260.72
783.222	31174.17
783.556	30964.68
783.889	30875.42
784.223	30741.18
784.557	30658.47
784.89	30886.26
785.224	30507.07
785.557	30365.37
785.891	30413.51
786.224	30210.35
786.558	30094.19
786.891	29994.54
787.224	29841.32
787.557	29803.58
787.891	29662.12
788.224	29640.87
788.557	29499.63
788.89	29425.29
789.223	29367.89
789.556	29244.5
789.888	29172.86
790.221	29147.1
790.554	28839.76
790.887	28715.7
791.219	28738.98
791.552	28706.21
791.884	28517.06
792.217	28374.47
792.549	28303.51
792.882	28120.24
793.214	27999.79
793.546	28029.39
793.879	27919.79
794.211	27814.48
794.543	27887.02
794.875	27768.38
795.207	27753.69
795.539	27602.28
795.871	27552.57
796.203	27272.57
796.535	27124.33
796.867	27165.68
797.198	27109.64
797.53	27098.79
797.862	26771.57
798.193	26858.35
798.525	26708.52
798.856	26780.61
799.188	26567.73
799.519	26345.37
799.85	26299.04
800.182	26173.39
800.513	26274.63
800.844	25945.83
801.175	26105.37
801.506	26008.43
801.837	25855.66
802.168	25716.46
802.499	25742.9
802.83	25608.89
803.161	25486.18
803.491	25444.15
803.822	25431.49
804.153	25189.92
804.483	24979.07
804.814	24905.86
805.145	24851.39
805.475	24895.69
805.805	24742.24
806.136	24763.26
806.466	24680.55
806.796	24661.8
807.126	24397.4
807.457	24304.74
807.787	24344.97
808.117	24213.9
808.447	24120.79
808.777	24157.18
809.107	23952.66
809.436	23997.41
809.766	24021.81
810.096	23859.78
810.426	23742.5
810.755	23836.28
811.085	23657.98
811.414	23710.41
811.744	23465.67
812.073	23418.66
812.403	23453.01
812.732	23229.52
813.061	23208.05
813.39	23252.34
813.719	23090.08
814.049	23233.81
814.378	23070.88
814.707	22936.64
815.036	23059.35
815.365	22852.8
815.693	22647.61
816.022	22637.44
816.351	22623.2
816.68	22542.3
817.008	22560.61
817.337	22373.04
817.665	22400.39
817.994	22401.06
818.322	22339.6
818.651	22223.22
818.979	22162.65
819.307	22263.67
819.636	22163.33
819.964	22023.22
820.292	22138.25
820.62	22099.83
820.948	22001.07
821.276	22098.47
821.604	21919.72
821.932	21912.49
822.259	21942.54
822.587	21914.75
822.915	21883.11
823.243	21991.58
823.57	21895.99
823.898	21919.95
824.225	21882.89
824.553	22012.37
824.88	21920.85
825.207	22008.98
825.535	21846.73
825.862	22060.96
826.189	21879.95
826.516	22105.25
826.843	22091.02
827.17	21950.91
827.497	22112.26
827.824	22015.08
828.151	22088.53
828.478	22098.02
828.805	22069.77
829.131	21948.87
829.458	21908.65
829.785	21788.88
830.111	21935.77
830.438	21986.61
830.764	21892.15
831.09	21935.99
831.417	21886.73
831.743	21974.41
832.069	21878.37
832.395	21712.95
832.722	21775.54
833.048	21747.75
833.374	21690.57
833.7	21627.52
834.026	21601.54
834.351	21729.22
834.677	21632.27
835.003	21634.3
835.329	21569.9
835.654	21647.19
835.98	21464.82
836.306	21417.36
836.631	21369.9
836.956	21431.6
837.282	21407.42
837.607	21315.44
837.932	21154.99
838.258	21241.32
838.583	21171.94
838.908	20993.87
839.233	21196.58
839.558	21069.57
839.883	21024.15
840.208	20930.59
840.533	20957.94
840.858	20935.34
841.182	20902.8
841.507	20821.9
841.832	20758.17
842.156	20644.27
842.481	20819.18
842.805	20732.63
843.13	20586.65
843.454	20561.11
843.778	20430.04
844.103	20388.01
844.427	20426.65
844.751	20305.3
845.075	20372.42
845.399	20324.28
845.723	20087.9
846.047	20176.94
846.371	20070.96
846.695	20054.46
847.019	19756.84
847.343	19771.08
847.666	19703.51
847.99	19519.78
848.313	19662.15
848.637	19553.91
848.96	19505.55
849.284	19450.41
849.607	19300.81
849.931	19262.61
850.254	19172.22
850.577	18942.4
850.9	18860.37
851.223	18867.6
851.546	18683.65
851.869	18573.59
852.192	18762.29
852.515	18723.42
852.838	18485.91
853.161	18550.32
853.483	18431.9
853.806	18419.02
854.129	18437.78
854.451	18313.49
854.774	18319.81
855.096	18227.61
855.419	18159.59
855.741	18163.21
856.063	18090.67
856.385	17987.62
856.708	18012.25
857.03	17904.91
857.352	17912.14
857.674	17714.86
857.996	17801.64
858.318	17743.33
858.64	17738.59
858.961	17738.59
859.283	17601.42
859.605	17543.11
859.926	17580.63
860.248	17497.01
860.57	17456.79
860.891	17515.09
861.212	17441.87
861.534	17329.78
861.855	17277.13
862.176	17196.45
862.498	17311.03
862.819	17332.72
863.14	17235.32
863.461	17196.68
863.782	17134.08
864.103	17064.48
864.424	17015.22
864.745	17074.42
865.065	16938.61
865.386	16913.75
865.707	16827.42
866.027	16963.92
866.348	16771.61
866.668	16819.29
866.989	16766.41
867.309	16662.23
867.63	16818.16
867.95	16660.42
868.27	16528.45
868.59	16620.2
868.91	16536.36
869.23	16538.39
869.55	16462.24
869.87	16495
870.19	16482.8
870.51	16454.78
870.83	16413.42
871.15	16345.86
871.469	16322.13
871.789	16348.12
872.109	16201.45
872.428	16197.84
872.748	16247.55
873.067	16268.57
873.386	16341.56
873.706	16210.72
874.025	16065.64
874.344	16069.25
874.663	16011.18
874.982	16105.64
875.301	15995.58
875.62	15964.4
875.939	15896.83
876.258	15861.35
876.577	15886.43
876.896	15770.73
877.214	15827.45
877.533	15945.19
877.852	15856.6
878.17	15880.78
878.489	15782.48
878.807	15872.42
879.125	15802.82
879.444	15739.77
879.762	15649.15
880.08	15664.52
880.398	15566.21
880.716	15651.86
881.034	15636.72
881.352	15633.78
881.67	15509.49
881.988	15582.26
882.306	15535.93
882.624	15457.07
882.941	15331.64
883.259	15376.39
883.577	15370.74
883.894	15286.45
884.212	15180.24
884.529	15295.94
884.846	15290.06
885.164	15183.4
885.481	15204.19
885.798	15237.18
886.115	15138.43
886.432	15166
886.75	15021.14
887.067	15097.98
887.383	14986.34
887.7	15030.64
888.017	14932.33
888.334	15042.16
888.651	14860.7
888.967	14919.68
889.284	14808.49
889.6	14828.61
889.917	14732.11
890.233	14733.24
890.55	14651.89
890.866	14727.82
891.182	14562.85
891.498	14652.57
891.815	14553.36
892.131	14606.24
892.447	14464.32
892.763	14436.75
893.079	14377.32
893.395	14398.11
893.71	14328.73
894.026	14276.08
894.342	14201.51
894.657	14161.96
894.973	14113.37
895.289	14138.68
895.604	14138
895.92	14055.29
896.235	14002.87
896.55	13957.67
896.865	13961.74
897.181	13921.29
897.496	13860.05
897.811	13825.92
898.126	13732.59
898.441	13742.76
898.756	13677.9
899.071	13698.24
899.386	13731.46
899.7	13520.62
900.015	13476.55
900.33	13405.14
900.644	13323.11
900.959	13421.19
901.273	13384.13
901.588	13263.45
901.902	13173.51
902.216	13187.52
902.531	13146.84
902.845	13092.38
903.159	13015.1
903.473	12936.23
903.787	12864.37
904.101	12828.43
904.415	12812.39
904.729	12794.54
905.042	12724.03
905.356	12632.28
905.67	12610.59
905.984	12619.85
906.297	12524.49
906.611	12493.75
906.924	12367.43
907.237	12412.85
907.551	12325.62
907.864	12240.43
908.177	12320.88
908.491	12178.28
908.804	12209.92
909.117	12125.4
909.43	12010.15
909.743	11988.23
910.056	11943.94
910.368	11916.59
910.681	11779.87
910.994	11803.6
911.307	11825.3
911.619	11698.97
911.932	11703.27
912.244	11628.92
912.557	11599.77
912.869	11519.99
913.181	11460.79
913.494	11470.28
913.806	11428.7
914.118	11337.17
914.43	11253.11
914.742	11277.97
915.054	11209.95
915.366	11109.38
915.678	11063.96
915.99	11098.76
916.302	11011.76
916.613	10963.62
916.925	10937.41
917.236	10937.18
917.548	10807.47
917.859	10837.98
918.171	10769.05
918.482	10645.21
918.794	10654.25
919.105	10678.43
919.416	10578.1
919.727	10592.56
920.038	10556.18
920.349	10471.89
920.66	10443.64
920.971	10458.33
921.282	10395.96
921.593	10236.41
921.903	10189.86
922.214	10276.86
922.525	10194.83
922.835	10137.66
923.146	10067.6
923.456	9984.89
923.767	10024.67
924.077	10023.76
924.387	9978.34
924.697	9922.07
925.008	9887.72
925.318	9858.79
925.628	9869.42
925.938	9765.92
926.248	9679.14
926.558	9619.03
926.867	9642.98
927.177	9652.7
927.487	9623.55
927.796	9504.23
928.106	9573.15
928.416	9489.31
928.725	9418.13
929.034	9354.63
929.344	9381.07
929.653	9348.3
929.962	9255.42
930.271	9275.53
930.581	9213.39
930.89	9150.11
931.199	9097.01
931.508	9086.84
931.817	9075.54
932.125	9041.87
932.434	9050
932.743	8876
933.051	8992.15
933.36	8851.82
933.669	8824.7
933.977	8820.4
934.286	8727.52
934.594	8759.16
934.902	8712.16
935.21	8618.6
935.519	8642.78
935.827	8581.77
936.135	8565.5
936.443	8465.61
936.751	8470.58
937.059	8448.89
937.367	8377.48
937.674	8338.83
937.982	8327.54
938.29	8294.54
938.597	8286.86
938.905	8161.66
939.213	8143.81
939.52	8160.53
939.827	8131.38
940.135	8074.21
940.442	8077.82
940.749	8034.21
941.056	8022.46
941.363	7915.34
941.67	7936.36
941.977	7856.59
942.284	7797.61
942.591	7801.22
942.898	7773.2
943.205	7806.87
943.511	7729.13
943.818	7719.19
944.125	7629.7
944.431	7619.98
944.738	7537.27
945.044	7494.34
945.35	7459.31
945.657	7422.7
945.963	7361.46
946.269	7325.75
946.575	7332.31
946.881	7233.33
947.187	7287.56
947.493	7243.72
947.799	7240.33
948.105	7171.18
948.41	7140
948.716	7154.23
949.022	7111.07
949.327	7058.87
949.633	6971.86
949.938	6985.42
950.244	6923.96
950.549	6909.49
950.854	6840.57
951.16	6832.66
951.465	6779.78
951.77	6804.64
952.075	6799.67
952.38	6662.72
952.685	6699.1
952.99	6641.93
953.294	6620.01
953.599	6575.04
953.904	6535.27
954.209	6506.11
954.513	6552.44
954.818	6426.79
955.122	6427.25
955.426	6472.44
955.731	6372.33
956.035	6347.25
956.339	6378.89
956.643	6329.4
956.948	6332.33
957.252	6259.34
957.556	6261.37
957.86	6220.47
958.163	6194.26
958.467	6146.58
958.771	6171.21
959.075	6119.23
959.378	6095.96
959.682	6130.98
959.985	6018.67
960.289	5999.23
960.592	5973.7
960.896	5950.2
961.199	5930.31
961.502	5906.36
961.805	5889.86
962.108	5865.68
962.411	5868.62
962.714	5820.93
963.017	5776.64
963.32	5844.44
963.623	5740.94
963.926	5766.02
964.228	5676.98
964.531	5720.82
964.833	5663.2
965.136	5661.39
965.438	5605.35
965.741	5605.8
966.043	5574.61
966.345	5476.54
966.648	5519.7
966.95	5494.16
967.252	5503.65
967.554	5438.35
967.856	5388.63
968.158	5338.24
968.46	5389.99
968.761	5274.51
969.063	5309.54
969.365	5274.73
969.666	5277.22
969.968	5225.47
970.269	5207.62
970.571	5197.45
970.872	5198.8
971.174	5169.88
971.475	5183.44
971.776	5114.74
972.077	5140.05
972.378	5071.12
972.679	5049.43
972.98	5043.1
973.281	5038.81
973.582	4996.55
973.883	4959.94
974.183	5013.27
974.484	4942.54
974.785	4901.64
975.085	4942.31
975.386	4924.91
975.686	4859.38
975.986	4864.12
976.287	4812.15
976.587	4784.13
976.887	4724.69
977.187	4744.58
977.487	4724.01
977.787	4731.47
978.087	4719.95
978.387	4661.64
978.687	4625.03
978.987	4657.35
979.286	4609.89
979.586	4561.98
979.885	4574.64
980.185	4564.92
980.484	4498.03
980.784	4513.17
981.083	4484.25
981.382	4476.79
981.682	4435.66
981.981	4404.93
982.28	4411.48
982.579	4332.61
982.878	4371.71
983.177	4307.53
983.475	4327.41
983.774	4271.82
984.073	4257.13
984.372	4200.19
984.67	4245.16
984.969	4211.03
985.267	4168.77
985.566	4148.89
985.864	4142.56
986.162	4137.14
986.461	4056.01
986.759	4037.25
987.057	4061.21
987.355	4025.73
987.653	4008.78
987.951	4009.46
988.249	4004.71
988.547	3992.51
988.844	3960.87
989.142	3945.73
989.44	3925.17
989.737	3887.88
990.035	3850.59
990.332	3848.11
990.63	3889.46
990.927	3807.2
991.224	3743.7
991.521	3786.64
991.819	3734.44
992.116	3762.23
992.413	3756.13
992.71	3720.65
993.006	3709.13
993.303	3684.95
993.6	3649.24
993.897	3607.21
994.193	3617.6
994.49	3566.76
994.787	3593.87
995.083	3524.5
995.379	3545.51
995.676	3484.95
995.972	3501.45
996.268	3501.22
996.565	3466.87
996.861	3457.83
997.157	3439.3
997.453	3414.22
997.749	3415.57
998.044	3348.91
998.34	3366.31
998.636	3348.23
998.932	3335.35
999.227	3336.71
999.523	3286.09
999.818	3273.88
1000.114	3295.8
1000.409	3242.25
1000.704	3216.26
1001	3200.21
1001.295	3183.04
1001.59	3190.5
1001.885	3193.66
1002.18	3101.01
1002.475	3120.89
1002.77	3098.29
1003.065	3066.66
1003.359	3056.04
1003.654	3065.3
1003.949	3014.91
1004.243	3009.93
1004.538	2957.73
1004.832	2987.11
1005.127	2972.65
1005.421	2950.95
1005.715	2912.31
1006.009	2878.86
1006.304	2870.96
1006.598	2879.77
1006.892	2855.14
1007.186	2808.36
1007.48	2799.77
1007.773	2818.98
1008.067	2809.94
1008.361	2736.04
1008.655	2821.47
1008.948	2772.88
1009.242	2728.59
1009.535	2706.44
1009.829	2707.12
1010.122	2671.64
1010.415	2667.8
1010.708	2643.16
1011.001	2629.61
1011.295	2620.34
1011.588	2616.27
1011.881	2584.86
1012.173	2574.69
1012.466	2539.44
1012.759	2529.27
1013.052	2493.56
1013.344	2501.47
1013.637	2479.33
1013.93	2474.58
1014.222	2485.88
1014.514	2438.65
1014.807	2426.67
1015.099	2417.41
1015.391	2427.58
1015.683	2398.43
1015.976	2393.91
1016.268	2401.59
1016.56	2363.4
1016.851	2339.22
1017.143	2322.04
1017.435	2294.25
1017.727	2291.08
1018.018	2303.06
1018.31	2252.21
1018.602	2238.2
1018.893	2208.83
1019.185	2216.06
1019.476	2208.15
1019.767	2191.2
1020.058	2159.34
1020.35	2174.93
1020.641	2101.94
1020.932	2117.08
1021.223	2106.23
1021.514	2120.92
1021.804	2100.58
1022.095	2059.9
1022.386	2033.92
1022.677	2056.74
1022.967	2032.79
1023.258	2008.61
1023.548	1980.58
1023.839	1949.4
1024.129	1964.54
1024.419	1916.86
1024.709	1938.1
1025	1912.79
1025.29	1894.03
1025.58	1925.9
1025.87	1884.54
1026.16	1851.77
1026.449	1844.32
1026.739	1857.42
1027.029	1807.71
1027.319	1835.73
1027.608	1809.29
1027.898	1797.54
1028.187	1786.92
1028.477	1782.85
1028.766	1771.55
1029.055	1750.53
1029.344	1737.43
1029.634	1738.78
1029.923	1675.28
1030.212	1659.91
1030.501	1661.72
1030.79	1667.82
1031.078	1672.79
1031.367	1637.77
1031.656	1636.41
1031.945	1637.54
1032.233	1609.75
1032.522	1581.27
1032.81	1564.55
1033.099	1589.63
1033.387	1566.36
1033.675	1544.44
1033.963	1540.6
1034.251	1530.65
1034.54	1514.16
1034.828	1486.81
1035.116	1463.76
1035.403	1466.92
1035.691	1457.43
1035.979	1444.78
1036.267	1465.12
1036.554	1418.11
1036.842	1423.99
1037.129	1388.73
1037.417	1387.83
1037.704	1366.81
1037.992	1367.94
1038.279	1353.71
1038.566	1347.38
1038.853	1347.38
1039.14	1347.38
