Data from aluminium_macbook_case_FLMS001491_023.txt Node
Date: Tue Feb 07 10:43:25 GMT 2017
User: dcchb
Spectrometer: FLMS00149
Trigger mode: 0
Integration Time (sec): 2.000000E-2
Scans to average: 10
Electric dark correction enabled: true
Nonlinearity correction enabled: false
Boxcar width: 0
XAxis mode: Wavelengths
Number of Pixels in Spectrum: 2048
>>>>>Begin Spectral Data<<<<<
341.393	-22.16
341.776	-22.16
342.16	-22.16
342.543	-68.26
342.927	-77.3
343.31	-63.52
343.693	-64.19
344.077	-70.52
344.46	-64.42
344.843	-52.89
345.226	-58.09
345.61	-22.16
345.993	-18.77
346.376	9.03
346.759	9.48
347.142	26.2
347.525	43.6
347.908	57.39
348.291	79.98
348.674	99.87
349.057	89.02
349.44	122.69
349.823	131.51
350.206	180.55
350.588	230.94
350.971	269.58
351.354	259.41
351.737	278.17
352.119	300.32
352.502	298.06
352.884	312.07
353.267	336.93
353.65	337.15
354.032	352.52
354.414	332.18
354.797	346.64
355.179	373.08
355.562	388.22
355.944	373.76
356.326	399.3
356.709	383.93
357.091	397.72
357.473	396.13
357.855	398.17
358.238	402.91
358.62	407.21
359.002	389.13
359.384	404.95
359.766	397.72
360.148	401.33
360.53	417.83
360.912	395
361.294	382.57
361.676	399.3
362.057	403.59
362.439	415.79
362.821	423.48
363.203	413.76
363.584	425.74
363.966	400.65
364.348	372.18
364.729	388
365.111	402.24
365.493	409.69
365.874	418.73
366.256	428
366.637	379.18
367.019	414.44
367.4	409.24
367.781	413.99
368.163	420.54
368.544	416.92
368.925	429.35
369.306	443.14
369.688	443.36
370.069	414.21
370.45	421.9
370.831	429.35
371.212	445.17
371.593	416.25
371.974	430.03
372.355	446.98
372.736	432.29
373.117	461.89
373.498	463.7
373.879	449.47
374.26	463.93
374.641	452.18
375.021	423.93
375.402	470.48
375.783	477.26
376.163	501.89
376.544	517.03
376.925	490.14
377.305	499.18
377.686	491.5
378.066	499.86
378.447	517.03
378.827	505.06
379.208	519.52
379.588	512.97
379.968	524.72
380.349	523.36
380.729	521.78
381.109	538.28
381.489	539.18
381.87	562.46
382.25	547.99
382.63	568.56
383.01	580.76
383.39	591.16
383.77	573.08
384.15	581.21
384.53	600.2
384.91	593.19
385.29	617.37
385.67	616.69
386.049	637.26
386.429	630.03
386.809	651.72
387.189	597.26
387.568	655.79
387.948	654.66
388.328	661.21
388.707	687.88
389.087	687.88
389.466	688.1
389.846	675
390.225	704.83
390.605	707.31
390.984	721.1
391.363	724.94
391.743	746.18
392.122	732.85
392.501	767.2
392.881	770.36
393.26	796.35
393.639	807.42
394.018	769.68
394.397	804.48
394.776	817.37
395.155	817.59
395.534	825.27
395.913	836.8
396.292	856.91
396.671	846.52
397.05	854.88
397.429	875.9
397.808	884.03
398.186	903.01
398.565	915.22
398.944	909.79
399.323	910.92
399.701	929.23
400.08	933.52
400.458	946.18
400.837	971.26
401.215	963.12
401.594	971.71
401.972	1004.48
402.351	992.95
402.729	1018.04
403.107	1016.68
403.486	1023.01
403.864	1041.09
404.242	1057.36
404.62	1085.38
404.999	1086.74
405.377	1102.56
405.755	1112.95
406.133	1120.18
406.511	1115.89
406.889	1164.48
407.267	1161.76
407.645	1194.98
408.023	1209.22
408.401	1215.77
408.779	1248.09
409.156	1257.13
409.534	1285.38
409.912	1278.6
410.29	1331.48
410.667	1332.15
411.045	1346.39
411.422	1374.64
411.8	1378.48
412.178	1445.6
412.555	1441.98
412.933	1463.68
413.31	1479.95
413.687	1506.16
414.065	1532.83
414.442	1509.32
414.819	1553.39
415.197	1548.19
415.574	1614.63
415.951	1592.49
416.328	1625.93
416.705	1631.13
417.082	1655.08
417.46	1690.11
417.837	1689.21
418.214	1720.17
418.591	1770.79
418.967	1763.56
419.344	1797.68
419.721	1812.82
420.098	1796.1
420.475	1832.25
420.852	1838.36
421.228	1868.41
421.605	1912.03
421.982	1902.99
422.358	1958.13
422.735	1924.68
423.111	1971.01
423.488	2015.98
423.864	2043.55
424.241	2055.53
424.617	2107.73
424.994	2078.12
425.37	2116.54
425.746	2143.88
426.123	2161.74
426.499	2220.27
426.875	2222.75
427.251	2297.78
427.627	2331.68
428.003	2365.35
428.379	2370.32
428.756	2391.79
429.132	2437.44
429.507	2448.06
429.883	2508.85
430.259	2536.64
430.635	2588.84
431.011	2590.43
431.387	2659.8
431.763	2717.43
432.138	2716.07
432.514	2801.04
432.89	2766.69
433.265	2826.13
433.641	2881.49
434.016	2913.58
434.392	3005.33
434.767	3057.98
435.143	2996.07
435.518	3062.28
435.894	3082.39
436.269	3142.95
436.644	3200.81
437.02	3245.32
437.395	3228.83
437.77	3316.28
438.145	3366.45
438.52	3371.65
438.895	3415.04
439.271	3434.92
439.646	3502.72
440.021	3556.05
440.395	3551.3
440.77	3545.66
441.145	3570.74
441.52	3636.05
441.895	3642.15
442.27	3691.87
442.645	3712.88
443.019	3785.65
443.394	3760.79
443.769	3817.51
444.143	3843.73
444.518	3955.36
444.892	3914.91
445.267	3953.78
445.641	3960.33
446.016	4004.85
446.39	4085.98
446.764	4077.39
447.139	4085.75
447.513	4184.73
447.887	4130.27
448.262	4162.81
448.636	4213.66
449.01	4287.56
449.384	4335.24
449.758	4351.51
450.132	4440.1
450.506	4420.43
450.88	4452.52
451.254	4491.17
451.628	4561.67
452.002	4592.86
452.376	4654.33
452.75	4702.24
453.123	4704.49
453.497	4850.48
453.871	4884.6
454.244	5007.99
454.618	5012.28
454.992	5118.27
455.365	5100.64
455.739	5266.29
456.112	5293.63
456.486	5390.13
456.859	5390.35
457.232	5501.08
457.606	5470.12
457.979	5633.51
458.352	5703.34
458.725	5758.48
459.099	5771.59
459.472	5878.48
459.845	5938.81
460.218	6050.9
460.591	6064.23
460.964	6168.19
461.337	6291.57
461.71	6344
462.083	6516.88
462.456	6505.13
462.829	6553.71
463.201	6673.03
463.574	6757.55
463.947	6803.2
464.32	7025.11
464.692	7064.66
465.065	7163.64
465.438	7250.64
465.81	7360.47
466.183	7425.55
466.555	7574.48
466.928	7565.21
467.3	7644.98
467.672	7758.88
468.045	7942.6
468.417	7921.36
468.789	7976.5
469.161	8181.92
469.534	8222.59
469.906	8438.41
470.278	8472.08
470.65	8637.95
471.022	8771.51
471.394	8987.77
471.766	9023.93
472.138	9188.67
472.51	9395.67
472.882	9566.29
473.253	9658.04
473.625	9831.37
473.997	10058.93
474.369	10144.8
474.74	10272.71
475.112	10443.33
475.484	10651.46
475.855	10786.82
476.227	10912.47
476.598	11248.96
476.97	11230.43
477.341	11481.27
477.713	11654.37
478.084	11850.3
478.455	12107.92
478.827	12252.09
479.198	12624.51
479.569	12607.79
479.94	12919.65
480.311	13068.34
480.682	13374.55
481.053	13711.49
481.424	13959.39
481.795	14064.93
482.166	14380.85
482.537	14478.48
482.908	14892.7
483.279	15083.88
483.65	15325.91
484.021	15642.96
484.391	15866.01
484.762	15994.37
485.133	16220.12
485.503	16394.13
485.874	16855.36
486.244	16926.55
486.615	17268.23
486.985	17512.75
487.356	17772.85
487.726	17900.31
488.097	18239.28
488.467	18393.4
488.837	18694.18
489.207	18834.07
489.578	19125.81
489.948	19392.02
490.318	19638.57
490.688	19786.13
491.058	20120.59
491.428	20383.63
491.798	20608.48
492.168	20934.35
492.538	21079.21
492.908	21465.86
493.278	21652.07
493.648	21823.59
494.017	22118.5
494.387	22388.32
494.757	22501.77
495.126	22839.61
495.496	22902.89
495.866	23034.41
496.235	23278.47
496.605	23494.28
496.974	23644.11
497.344	23838.23
497.713	23981.73
498.082	24156.86
498.452	24437.99
498.821	24551.43
499.19	24690.18
499.559	24866.22
499.928	25032.1
500.298	25295.14
500.667	25425.98
501.036	25290.85
501.405	25698.52
501.774	25761.79
502.143	26035.23
502.512	26293.76
502.88	26438.16
503.249	26578.72
503.618	26755.89
503.987	26965.6
504.356	27234.75
504.724	27366.05
505.093	27485.59
505.462	27767.39
505.83	27897.11
506.199	28293.93
506.567	28515.62
506.936	28502.29
507.304	28892.11
507.672	29004.87
508.041	29167.13
508.409	29456.39
508.777	29559.89
509.145	29896.6
509.514	29855.47
509.882	30010.27
510.25	30183.82
510.618	30370.49
510.986	30422.24
511.354	30811.83
511.722	31090.24
512.09	31363.91
512.458	31465.37
512.826	31625.59
513.193	31716.67
513.561	31932.25
513.929	32322.07
514.297	32662.18
514.664	32837.09
515.032	33080.02
515.4	33393.46
515.767	33684.07
516.135	33927.46
516.502	33685.88
516.869	34384.84
517.237	34596.82
517.604	34509.13
517.972	35014.66
518.339	35119.97
518.706	35312.96
519.073	35691.7
519.44	35786.62
519.808	36222.76
520.175	36174.85
520.542	36688.51
520.909	36794.5
521.276	36764.22
521.643	37294.6
522.009	37520.13
522.376	37642.16
522.743	37883.96
523.11	38319.2
523.477	38692.98
523.843	39072.63
524.21	39249.8
524.577	39389.01
524.943	39598.49
525.31	39977.47
525.676	40380.85
526.043	40562.54
526.409	40798.91
526.776	41273.02
527.142	41382.63
527.508	41735.16
527.874	42181.7
528.241	42301.02
528.607	42440.9
528.973	43000.66
529.339	42943.72
529.705	43472.06
530.071	43696.01
530.437	43875.89
530.803	44181.65
531.169	44376.45
531.535	44369.67
531.901	44441.08
532.267	44709.54
532.632	45050.33
532.998	44995.41
533.364	45225.69
533.73	45490.32
534.095	45723.76
534.461	45781.83
534.826	46015.27
535.192	46149.28
535.557	46575.48
535.923	46506.33
536.288	46653.45
536.653	47001.24
537.019	46811.18
537.384	46963.5
537.749	47214.11
538.114	47294.56
538.479	47409.36
538.845	47647.32
539.21	47727.54
539.575	47913.75
539.94	48111.94
540.305	48379.5
540.67	48443.23
541.034	48549.67
541.399	48812.04
541.764	48902.2
542.129	49076.21
542.494	49199.6
542.858	49354.62
543.223	49495.18
543.587	49474.17
543.952	49576.54
544.316	49855.85
544.681	49701.5
545.045	50072.34
545.41	50132.23
545.774	50230.76
546.138	50147.82
546.503	50337.19
546.867	50317.76
547.231	50623.51
547.595	50655.6
547.959	50816.5
548.324	50828.93
548.688	50798.65
549.052	51117.29
549.416	51219.66
549.779	51205.87
550.143	51345.3
550.507	51458.07
550.871	51635.01
551.235	51625.97
551.599	51974.66
551.962	52025.51
552.326	52068.9
552.689	52340.98
553.053	52224.38
553.417	52390.02
553.78	52757.69
554.143	52767.19
554.507	52977.58
554.87	53009.67
555.234	53311.58
555.597	53284.01
555.96	53418.24
556.323	53566.49
556.686	53617.56
557.05	53795.63
557.413	53920.83
557.776	53905.69
558.139	54154.49
558.502	54177.09
558.865	54299.12
559.228	54376.18
559.59	54514.94
559.953	54570.53
560.316	54896.4
560.679	54805.32
561.041	54976.39
561.404	55167.8
561.767	55267.46
562.129	55187.46
562.492	55546.32
562.854	55553.78
563.217	55512.65
563.579	55612.76
563.941	55849.14
564.304	55949.48
564.666	56187.21
565.028	56203.03
565.39	56267.66
565.753	56492.06
566.115	56493.64
566.477	56627.42
566.839	56717.59
567.201	56924.59
567.563	56934.99
567.925	57099.5
568.287	57113.29
568.648	57248.65
569.01	57390.34
569.372	57467.85
569.734	57438.02
570.095	57695.87
570.457	57879.59
570.819	57871.01
571.18	57880.5
571.542	58068.74
571.903	58081.62
572.265	58123.66
572.626	58167.27
572.987	58212.92
573.349	58372.91
573.71	58327.04
574.071	58418.11
574.432	58510.31
574.794	58574.94
575.155	58575.17
575.516	58472.12
575.877	58600.25
576.238	58713.47
576.599	58760.7
576.96	58760.02
577.32	58776.29
577.681	58843.41
578.042	58900.36
578.403	58913.47
578.763	58965.89
579.124	59069.17
579.485	59021.26
579.845	59157.07
580.206	59178.32
580.566	59160.24
580.927	59242.72
581.287	59421.25
581.648	59218.77
582.008	59373.57
582.368	59312.1
582.728	59399.1
583.089	59358.88
583.449	59414.47
583.809	59506.9
584.169	59536.27
584.529	59482.26
584.889	59674.8
585.249	59476.16
585.609	59497.4
585.969	59569.49
586.329	59519.78
586.688	59557.97
587.048	59585.31
587.408	59508.03
587.768	59514.58
588.127	59511.19
588.487	59487.69
588.846	59590.28
589.206	59461.02
589.565	59494.01
589.925	59526.56
590.284	59385.09
590.643	59411.98
591.003	59445.65
591.362	59513.45
591.721	59411.31
592.08	59422.15
592.44	59454.02
592.799	59445.65
593.158	59483.85
593.517	59414.92
593.876	59509.16
594.235	59481.81
594.593	59470.74
594.952	59577.85
595.311	59570.62
595.67	59537.63
596.029	59682.26
596.387	59660.56
596.746	59788.7
597.104	59627.57
597.463	59628.47
597.822	59754.57
598.18	59675.93
598.538	59692.88
598.897	59840.9
599.255	59705.31
599.613	60090.16
599.972	59887.45
600.33	59988.01
600.688	59875.25
601.046	60028.69
601.404	60041.35
601.762	60010.61
602.12	60071.63
602.478	60076.6
602.836	60073.66
603.194	59983.49
603.552	60008.58
603.91	59957.05
604.268	60072.76
604.625	60007
604.983	60099.87
605.341	59954.34
605.698	60079.76
606.056	60075.47
606.413	59985.3
606.771	60126.99
607.128	60117.05
607.485	59970.16
607.843	59989.14
608.2	60155.24
608.557	60174.67
608.914	60071.17
609.272	60213.77
609.629	60260.1
609.986	60365.18
610.343	60203.83
610.7	60398.85
611.057	60371.05
611.414	60366.76
611.771	60436.14
612.127	60503.25
612.484	60504.61
612.841	60563.14
613.198	60488.11
613.554	60551.84
613.911	60712.29
614.267	60700.31
614.624	60629.35
614.98	60695.11
615.337	60877.03
615.693	60855.11
616.05	60834.09
616.406	60944.37
616.762	60842.23
617.118	60905.5
617.475	60918.84
617.831	60910.02
618.187	60962.68
618.543	60952.73
618.899	61113.18
619.255	60996.8
619.611	61040.64
619.967	61027.53
620.323	61112.28
620.678	60978.04
621.034	60949.34
621.39	60900.08
621.746	60943.69
622.101	61130.13
622.457	60890.59
622.812	60878.61
623.168	61002.9
623.523	60903.24
623.879	60980.53
624.234	60778.73
624.589	60896.92
624.945	60815.79
625.3	60830.02
625.655	60831.15
626.01	60784.83
626.365	60857.37
626.72	60811.49
627.075	60750.03
627.43	60711.61
627.785	60689.01
628.14	60800.2
628.495	60835
628.85	60707.77
629.205	60732.85
629.559	60866.86
629.914	60656.24
630.269	60744.38
630.623	60696.92
630.978	60631.16
631.332	60778.73
631.687	60789.35
632.041	60710.03
632.396	60798.16
632.75	60697.15
633.104	60735.11
633.459	60598.17
633.813	60644.27
634.167	60643.82
634.521	60632.97
634.875	60628.22
635.229	60613.08
635.583	60427.1
635.937	60499.86
636.291	60496.25
636.645	60510.94
636.999	60466.42
637.352	60500.54
637.706	60329.02
638.06	60406.08
638.413	60332.64
638.767	60211.74
639.121	60276.14
639.474	60100.55
639.828	60159.31
640.181	60117.5
640.534	60051.97
640.888	59997.05
641.241	59824.4
641.594	59874.8
641.947	59896.04
642.301	59795.7
642.654	59703.27
643.007	59766.32
643.36	59666.67
643.713	59643.84
644.066	59670.73
644.419	59529.27
644.771	59364.07
645.124	59103.06
645.477	59036.63
645.83	58931.77
646.182	58778.55
646.535	58696.3
646.888	58776.75
647.24	58587.82
647.593	58678.44
647.945	58669.4
648.298	58557.99
648.65	58497.66
649.002	58447.26
649.355	58547.37
649.707	58517.32
650.059	58670.99
650.411	58987.36
650.763	59013.35
651.115	59240.01
651.467	59182.16
651.819	59153.68
652.171	59139
652.523	59095.61
652.875	59168.37
653.227	59041.37
653.578	59156.85
653.93	59116.85
654.282	58990.3
654.633	58914.37
654.985	58938.32
655.337	58984.2
655.688	58981.94
656.039	59059.45
656.391	58766.58
656.742	58821.94
657.094	58900.58
657.445	58924.54
657.796	58806.35
658.147	58765.45
658.498	58711.21
658.849	58739.46
659.2	58642.29
659.551	58620.37
659.902	58644.32
660.253	58514.61
660.604	58541.27
660.955	58312.35
661.306	58464.44
661.656	58318.23
662.007	58340.82
662.358	58319.36
662.708	58293.82
663.059	58200.04
663.409	58041.4
663.76	58195.74
664.11	58167.95
664.461	58183.54
664.811	58149.42
665.161	58111
665.511	58010.21
665.862	58102.64
666.212	58155.52
666.562	58155.97
666.912	58137.67
667.262	58064.67
667.612	58084.33
667.962	58065.8
668.312	58146.03
668.662	58174.28
669.011	58088.63
669.361	58135.86
669.711	58118.91
670.06	58080.94
670.41	58128.4
670.76	58046.37
671.109	58197.1
671.459	58085.92
671.808	58103.54
672.157	58059.48
672.507	57962.3
672.856	57994.62
673.205	57951.46
673.554	58029.19
673.904	57997.56
674.253	58093.37
674.602	58014.73
674.951	57630.33
675.3	57433.05
675.649	57872.14
675.998	57910.55
676.346	57838.24
676.695	57967.28
677.044	57753.04
677.393	57793.27
677.741	57757.34
678.09	57728.64
678.438	57665.36
678.787	57701.29
679.135	57627.62
679.484	57449.77
679.832	57419.04
680.181	57287.52
680.529	57321.19
680.877	57219.05
681.225	57186.5
681.573	57331.36
681.922	57124.13
682.27	56986.74
682.618	57042.1
682.966	56857.47
683.314	56936.79
683.661	56740.41
684.009	56684.15
684.357	56603.7
684.705	56534.54
685.053	56590.14
685.4	56530.02
685.748	56429.91
686.095	56360.76
686.443	56305.62
686.79	56292.29
687.138	56301.1
687.485	56200.09
687.832	56264.27
688.18	56303.14
688.527	56095.69
688.874	56023.82
689.221	55997.61
689.568	55978.4
689.915	55918.74
690.262	55935.01
690.609	55807.56
690.956	55801.46
691.303	55774.34
691.65	55602.59
691.997	55598.3
692.344	55495.48
692.69	55409.38
693.037	55412.09
693.383	55232.88
693.73	55349.04
694.077	55206.67
694.423	55220.23
694.769	55086.67
695.116	55024.98
695.462	55014.81
695.808	54921.93
696.155	54967.81
696.501	54744.99
696.847	54789.28
697.193	54548.16
697.539	54690.07
697.885	54382.28
698.231	54366.24
698.577	54355.62
698.923	54218.22
699.269	54063.65
699.614	53888.29
699.96	53839.7
700.306	53755.86
700.651	53587.96
700.997	53627.73
701.342	53495.53
701.688	53464.34
702.033	53352.93
702.379	53292.14
702.724	53190.68
703.069	53266.38
703.415	52879.95
703.76	52868.2
704.105	52781.2
704.45	52728.54
704.795	52451.04
705.14	52289.23
705.485	52172.63
705.83	52155.9
706.175	52118.16
706.52	51952.29
706.865	51814.67
707.209	51896.7
707.554	51647.44
707.899	51694.22
708.243	51553.88
708.588	51490.38
708.932	51277.06
709.277	51292.2
709.621	51294.68
709.966	51032.99
710.31	51186.44
710.654	50901.7
710.998	50990.96
711.342	50945.54
711.687	50912.09
712.031	50672.78
712.375	50654.7
712.719	50745.32
713.063	50674.59
713.407	50751.87
713.75	50478.66
714.094	50518.88
714.438	50476.62
714.782	50388.94
715.125	50145.56
715.469	50228.72
715.812	50080.03
716.156	49989.18
716.499	50040.03
716.843	50210.87
717.186	49787.38
717.53	50006.58
717.873	49882.74
718.216	49792.57
718.559	49627.83
718.902	49461.51
719.246	49514.84
719.589	49434.84
719.932	49214.96
720.275	49202.08
720.617	49087.28
720.96	48984.69
721.303	49013.16
721.646	48970
721.989	48826.05
722.331	48881.41
722.674	48788.53
723.016	48574.08
723.359	48594.41
723.701	48635.32
724.044	48275.33
724.386	48054.77
724.729	48299.73
725.071	48141.77
725.413	47999.4
725.755	48041.21
726.097	47782.01
726.439	47607.1
726.782	47549.92
727.124	47711.95
727.465	47432.86
727.807	47481.9
728.149	47282.13
728.491	47157.16
728.833	47195.81
729.175	46994
729.516	46805.76
729.858	46787
730.199	46720.11
730.541	46668.59
730.882	46633.56
731.224	46629.04
731.565	46314.93
731.906	46414.81
732.248	46374.36
732.589	45968.95
732.93	45925.56
733.271	46024.76
733.612	46050.53
733.953	46046.46
734.294	45792
734.635	45811.44
734.976	45865.45
735.317	45609.63
735.658	45589.07
735.999	45551.56
736.339	45486.47
736.68	45750.2
737.021	45545.45
737.361	45238.12
737.702	45552.01
738.042	45356.08
738.383	45438.79
738.723	45378.68
739.063	45171.23
739.404	45172.81
739.744	45155.41
740.084	44986.37
740.424	45109.76
740.764	45067.73
741.104	44955.19
741.444	44699.83
741.784	44724.91
742.124	44755.19
742.464	44726.49
742.804	44553.84
743.143	44467.29
743.483	44636.1
743.823	44283.12
744.162	44225.72
744.502	44338.26
744.841	44115.89
745.181	44294.87
745.52	44024.82
745.86	43977.36
746.199	43872.73
746.538	43880.64
746.877	43777.37
747.216	43752.73
747.556	43647.43
747.895	43533.76
748.234	43188.23
748.573	43276.81
748.911	43340.09
749.25	43243.14
749.589	42989.59
749.928	42892.64
750.267	42984.17
750.605	42771.97
750.944	42790.95
751.283	42524.29
751.621	42530.39
751.96	42385.99
752.298	42334.01
752.636	42281.59
752.975	41925.21
753.313	41921.6
753.651	41924.99
753.989	41551.21
754.327	41550.53
754.666	41297.88
755.004	41423.76
755.342	41447.26
755.679	41340.14
756.017	41051.79
756.355	41055.18
756.693	40795.75
757.031	40907.84
757.368	40741.29
757.706	40539.71
758.044	40331.13
758.381	40454.29
758.719	40334.29
759.056	40317.12
759.394	40106.73
759.731	39762.33
760.068	39726.85
760.405	39601.2
760.743	39398.72
761.08	39400.31
761.417	39392.85
761.754	39337.48
762.091	39178.16
762.428	39128.22
762.765	39039.86
763.102	39010.49
763.438	38841.22
763.775	38741.57
764.112	38800.77
764.449	38697.73
764.785	38587.45
765.122	38280.56
765.458	38092.32
765.795	38127.12
766.131	38122.37
766.467	37790.4
766.804	37696.4
767.14	37562.84
767.476	37571.65
767.812	37452.11
768.148	37402.84
768.485	37152.91
768.821	37021.61
769.157	36973.93
769.492	36847.38
769.828	36737.55
770.164	36413.04
770.5	36307.96
770.836	36301.18
771.171	36057.57
771.507	36020.06
771.842	35791.59
772.178	35708.65
772.513	35464.59
772.849	35524.02
773.184	35279.96
773.519	35287.87
773.855	35040.65
774.19	34995.45
774.525	34836.81
774.86	34903.25
775.195	34677.49
775.53	34346.43
775.865	34331.29
776.2	34125.64
776.535	33839.32
776.87	33874.12
777.205	33658.76
777.539	33469.16
777.874	33588.26
778.209	33188.72
778.543	33240.69
778.878	32923.64
779.212	32879.57
779.547	32760.48
779.881	32864.43
780.215	32622.18
780.55	32656.75
780.884	32364.56
781.218	32202.08
781.552	32291.11
781.886	31984.46
782.22	31821.3
782.554	31676.44
782.888	31490.01
783.222	31445.94
783.556	31160.07
783.889	31220.18
784.223	30942
784.557	30841.89
784.89	30997.81
785.224	30790.14
785.557	30551.72
785.891	30500.88
786.224	30494.55
786.558	30360.09
786.891	30152.41
787.224	29887.34
787.557	29954
787.891	29801.69
788.224	29734.57
788.557	29700
788.89	29693.89
789.223	29532.99
789.556	29377.29
789.888	29330.97
790.221	29322.83
790.554	28997.19
790.887	29027.47
791.219	28965.33
791.552	28832.9
791.884	28689.18
792.217	28601.49
792.549	28418
792.882	28356.53
793.214	28237.44
793.546	28237.21
793.879	28191.56
794.211	27908.18
794.543	28070.21
794.875	27964
795.207	27988.63
795.539	27666.83
795.871	27656.89
796.203	27344.35
796.535	27397.91
796.867	27409.21
797.198	27287.63
797.53	27197.24
797.862	26945.49
798.193	27163.57
798.525	26791.37
798.856	26996.79
799.188	26548.89
799.519	26521.1
799.85	26401.78
800.182	26405.39
800.513	26320.2
800.844	26153.2
801.175	26292.85
801.506	26089.24
801.837	25981.22
802.168	25980.77
802.499	25798.4
802.83	25692.87
803.161	25584.85
803.491	25567.22
803.822	25568.35
804.153	25499.65
804.483	25254.92
804.814	25171.53
805.145	25098.31
805.475	25067.8
805.805	25007.92
806.136	24994.13
806.466	24840.69
806.796	24856.96
807.126	24622.16
807.457	24564.31
807.787	24557.98
808.117	24297.43
808.447	24274.38
808.777	24468.72
809.107	24245.68
809.436	24145.34
809.766	24237.09
810.096	24069.64
810.426	23936.31
810.755	23913.48
811.085	23874.61
811.414	23734.05
811.744	23560.72
812.073	23658.8
812.403	23594.62
812.732	23397.56
813.061	23489.76
813.39	23298.81
813.719	23263.1
814.049	23322.99
814.378	23289.09
814.707	23117.12
815.036	23165.48
815.365	23009.1
815.693	22817.01
816.022	22819.27
816.351	22718.94
816.68	22724.81
817.008	22782.66
817.337	22632.16
817.665	22523.69
817.994	22535.66
818.322	22471.26
818.651	22434.2
818.979	22377.7
819.307	22355.56
819.636	22297.25
819.964	22170.02
820.292	22255.9
820.62	22210.02
820.948	22176.13
821.276	22269.91
821.604	22144.04
821.932	22247.31
822.259	22271.49
822.587	22150.36
822.915	22164.15
823.243	22234.66
823.57	22103.59
823.898	22061.1
824.225	22044.83
824.553	22041.21
824.88	22144.26
825.207	22143.13
825.535	22083.25
825.862	22194.43
826.189	22038.28
826.516	22200.76
826.843	22214.77
827.17	22189.23
827.497	22204.6
827.824	22093.64
828.151	22243.47
828.478	22127.09
828.805	22222.45
829.131	22071.27
829.458	22049.12
829.785	21982.91
830.111	22071.04
830.438	22147.2
830.764	22016.13
831.09	22136.13
831.417	21920.99
831.743	21941.33
832.069	21969.35
832.395	21876.47
832.722	21956.24
833.048	21852.29
833.374	21925.06
833.7	21803.48
834.026	21863.59
834.351	21756.02
834.677	21801.9
835.003	21829.24
835.329	21897.49
835.654	21720.54
835.98	21639.42
836.306	21582.47
836.631	21522.58
836.956	21602.36
837.282	21593.09
837.607	21522.36
837.932	21424.06
838.258	21399.42
838.583	21288.47
838.908	21315.13
839.233	21286.88
839.558	21214.8
839.883	21105.65
840.208	21152.2
840.533	21129.83
840.858	21124.63
841.182	21123.72
841.507	21066.78
841.832	20902.94
842.156	20904.07
842.481	20880.11
842.805	20954.69
843.13	20734.58
843.454	20872.88
843.778	20754.92
844.103	20611.65
844.427	20610.52
844.751	20621.36
845.075	20554.02
845.399	20488.49
845.723	20441.48
846.047	20429.05
846.371	20224.31
846.695	20249.17
847.019	19988.16
847.343	20024.54
847.666	19915.62
847.99	19872.68
848.313	19878.56
848.637	19723.76
848.96	19758.11
849.284	19676.08
849.607	19443.77
849.931	19516.76
850.254	19386.37
850.577	19335.75
850.9	19131.46
851.223	19067.28
851.546	18910.22
851.869	18993.38
852.192	18980.28
852.515	18837.23
852.838	18814.18
853.161	18705.48
853.483	18683.79
853.806	18630.46
854.129	18536
854.451	18555.2
854.774	18529.89
855.096	18338.03
855.419	18310.24
855.741	18329.45
856.063	18262.56
856.385	18212.61
856.708	18117.48
857.03	18100.53
857.352	18019.17
857.674	17978.95
857.996	17921.32
858.318	17765.17
858.64	17787.99
858.961	17846.75
859.283	17714.32
859.605	17742.34
859.926	17733.3
860.248	17549.58
860.57	17593.65
860.891	17601.33
861.212	17498.06
861.534	17371.28
861.855	17365.4
862.176	17361.56
862.498	17442.92
862.819	17325.63
863.14	17169.03
863.461	17175.35
863.782	17174.45
864.103	17130.38
864.424	17013.1
864.745	17035.47
865.065	16969.94
865.386	16948.47
865.707	17010.61
866.027	16947.56
866.348	16926.09
866.668	16902.82
866.989	16803.39
867.309	16692.43
867.63	16795.25
867.95	16758.19
868.27	16666.89
868.59	16722.94
868.91	16661.47
869.23	16673.22
869.55	16525.2
869.87	16652.43
870.19	16528.59
870.51	16580.11
870.83	16485.88
871.15	16499.44
871.469	16451.3
871.789	16459.67
872.109	16383.06
872.428	16334.7
872.748	16420.12
873.067	16344.87
873.386	16329.5
873.706	16366.56
874.025	16251.54
874.344	16226.68
874.663	16161.59
874.982	16158.88
875.301	16275.26
875.62	16129.51
875.939	16092.9
876.258	16056.29
876.577	16053.35
876.896	16095.16
877.214	15997.98
877.533	15982.39
877.852	16012.67
878.17	16016.74
878.489	16098.32
878.807	15969.06
879.125	15936.74
879.444	15938.32
879.762	15867.59
880.08	15835.5
880.398	15778.55
880.716	15910.98
881.034	15808.38
881.352	15738.78
881.67	15832.34
881.988	15715.05
882.306	15691.32
882.624	15722.74
882.941	15614.72
883.259	15635.28
883.577	15554.83
883.894	15525.23
884.212	15517.54
884.529	15405.91
884.846	15581.95
885.164	15442.29
885.481	15425.57
885.798	15300.37
886.115	15312.8
886.432	15309.19
886.75	15290.43
887.067	15237.78
887.383	15221.73
887.7	15228.29
888.017	15142.86
888.334	15147.38
888.651	15144.22
888.967	15078.01
889.284	15074.62
889.6	14974.51
889.917	14855.87
890.233	14878.92
890.55	14769.32
890.866	14879.82
891.182	14779.26
891.498	14710.56
891.815	14678.47
892.131	14596.66
892.447	14574.97
892.763	14560.73
893.079	14512.15
893.395	14478.25
893.71	14440.51
894.026	14451.36
894.342	14400.06
894.657	14265.37
894.973	14213.62
895.289	14270.8
895.604	14153.06
895.92	14090.46
896.235	14002.1
896.55	14073.29
896.865	13974.76
897.181	13989
897.496	14009.79
897.811	13849.79
898.126	13898.38
898.441	13774.31
898.756	13744.26
899.071	13619.29
899.386	13613.41
899.7	13520.53
900.015	13509.01
900.33	13405.51
900.644	13351.27
900.959	13467.65
901.273	13425.85
901.588	13305.4
901.902	13236.93
902.216	13180.43
902.531	13168
902.845	13135.01
903.159	13049.13
903.473	12974.56
903.787	12949.48
904.101	12857.73
904.415	12895.47
904.729	12881
905.042	12697.51
905.356	12679.65
905.67	12709.26
905.984	12715.13
906.297	12644.85
906.611	12535.48
906.924	12592.88
907.237	12499.32
907.551	12444.4
907.864	12388.81
908.177	12304.97
908.491	12334.12
908.804	12250.96
909.117	12208.7
909.43	12097.97
909.743	12082.38
910.056	12161.02
910.368	11988.15
910.681	11954.47
910.994	11907.47
911.307	11837.19
911.619	11811.65
911.932	11787.25
912.244	11720.36
912.557	11632.9
912.869	11648.27
913.181	11535.73
913.494	11535.5
913.806	11502.96
914.118	11525.78
914.43	11420.7
914.742	11435.17
915.054	11355.39
915.366	11342.74
915.678	11207.15
915.99	11195.85
916.302	11105.23
916.613	11099.58
916.925	11126.92
917.236	10973.48
917.548	11010.54
917.859	11062.07
918.171	10907.04
918.482	10870.89
918.794	10791.34
919.105	10845.35
919.416	10692.13
919.727	10699.82
920.038	10694.39
920.349	10584.11
920.66	10619.37
920.971	10621.4
921.282	10557.22
921.593	10387.74
921.903	10400.39
922.214	10494.63
922.525	10333.27
922.835	10291.92
923.146	10179.15
923.456	10093.96
923.767	10169.66
924.077	10087.86
924.387	10093.96
924.697	10090.12
925.008	10058.25
925.318	10072.26
925.628	9991.36
925.938	9954.07
926.248	9825.72
926.558	9888.09
926.867	9807.41
927.177	9765.83
927.487	9741.42
927.796	9674.31
928.106	9656.23
928.416	9598.38
928.725	9503.69
929.034	9487.19
929.344	9505.72
929.653	9445.84
929.962	9369.01
930.271	9328.55
930.581	9264.83
930.89	9288.56
931.199	9130.37
931.508	9200.87
931.817	9164.04
932.125	9062.12
932.434	9077.26
932.743	9002.24
933.051	8988.68
933.36	8895.12
933.669	8854.89
933.977	8837.27
934.286	8865.74
934.594	8736.48
934.902	8766.31
935.21	8672.75
935.519	8654.22
935.827	8632.3
936.135	8597.05
936.443	8538.74
936.751	8467.56
937.059	8470.05
937.367	8386.66
937.674	8378.3
937.982	8332.42
938.29	8362.7
938.597	8331.07
938.905	8141.01
939.213	8209.04
939.52	8145.99
939.827	8202.26
940.135	8090.85
940.442	8013.11
940.749	8050.62
941.056	8069.15
941.363	7981.02
941.67	7948.93
941.977	7853.11
942.284	7863.96
942.591	7796.39
942.898	7800.01
943.205	7777.41
943.511	7738.09
943.818	7639.33
944.125	7651.31
944.431	7582.61
944.738	7587.58
945.044	7498.32
945.35	7471.88
945.657	7400.47
945.963	7461.26
946.269	7405.44
946.575	7398.21
946.881	7289.74
947.187	7340.58
947.493	7282.51
947.799	7287.25
948.105	7209.06
948.41	7123.64
948.716	7192.79
949.022	7098.33
949.327	7037.99
949.633	7035.73
949.938	7001.84
950.244	7051.33
950.549	6982.4
950.854	6932.46
951.16	6874.61
951.465	6835.51
951.77	6848.62
952.075	6827.6
952.38	6776.08
952.685	6762.97
952.99	6718.23
953.294	6697.44
953.599	6687.72
953.904	6661.96
954.209	6661.73
954.513	6602.75
954.818	6632.81
955.122	6542.19
955.426	6542.41
955.731	6480.04
956.035	6466.71
956.339	6462.19
956.643	6466.71
956.948	6414.73
957.252	6420.83
957.556	6332.47
957.86	6276.21
958.163	6271.69
958.467	6297.67
958.771	6253.61
959.075	6264.23
959.378	6174.74
959.682	6158.24
959.985	6132.48
960.289	6116.89
960.592	6076.66
960.896	6058.36
961.199	6056.1
961.502	6006.16
961.805	5993.05
962.108	5920.73
962.411	5921.86
962.714	5856.78
963.017	5894.97
963.32	5914.41
963.623	5827.4
963.926	5865.59
964.228	5851.36
964.531	5797.35
964.833	5768.2
965.136	5723.9
965.438	5763.68
965.741	5699.72
966.043	5644.81
966.345	5620.4
966.648	5577.24
966.95	5612.27
967.252	5570.01
967.554	5495.21
967.856	5484.14
968.158	5445.04
968.46	5461.54
968.761	5438.94
969.063	5443.01
969.365	5341.31
969.666	5349.22
969.968	5311.48
970.269	5230.36
970.571	5312.61
970.872	5250.47
971.174	5186.29
971.475	5216.57
971.776	5219.06
972.077	5188.55
972.378	5174.99
972.679	5100.19
972.98	5130.92
973.281	5068.1
973.582	5082.56
973.883	5017.71
974.183	5014.54
974.484	5003.7
974.785	4964.38
975.085	4919.63
975.386	4932.51
975.686	4900.2
975.986	4865.62
976.287	4809.35
976.587	4773.42
976.887	4765.51
977.187	4730.93
977.487	4745.85
977.787	4727.09
978.087	4721.22
978.387	4687.32
978.687	4654.55
978.987	4658.62
979.286	4627.89
979.586	4588.79
979.885	4576.59
980.185	4557.38
980.484	4544.5
980.784	4516.93
981.083	4497.95
981.382	4524.39
981.682	4458.85
981.981	4462.24
982.28	4403.26
982.579	4374.56
982.878	4398.06
983.177	4294.56
983.475	4290.95
983.774	4289.14
984.073	4233.32
984.372	4268.57
984.67	4230.38
984.969	4193.77
985.267	4237.16
985.566	4171.18
985.864	4136.37
986.162	4090.27
986.461	4120.56
986.759	4156.03
987.057	4064.29
987.355	4037.17
987.653	4048.69
987.951	4002.14
988.249	4010.73
988.547	3990.16
988.844	3950.84
989.142	3978.19
989.44	3913.78
989.737	3887.34
990.035	3910.17
990.332	3876.27
990.63	3867
990.927	3822.26
991.224	3868.13
991.521	3786.1
991.819	3790.62
992.116	3776.38
992.413	3765.08
992.71	3745.2
993.006	3699.1
993.303	3672.66
993.6	3712.43
993.897	3676.27
994.193	3645.99
994.49	3633.34
994.787	3598.54
995.083	3565.99
995.379	3553.34
995.676	3532.32
995.972	3511.53
996.268	3535.71
996.565	3559.21
996.861	3514.7
997.157	3465.88
997.453	3410.97
997.749	3378.65
998.044	3419.33
998.34	3370.07
998.636	3320.35
998.932	3358.99
999.227	3353.12
999.523	3305.44
999.818	3307.02
1000.114	3297.53
1000.409	3294.81
1000.704	3260.24
1001	3237.64
1001.295	3216.85
1001.59	3188.38
1001.885	3183.86
1002.18	3151.99
1002.475	3152.45
1002.77	3151.77
1003.065	3094.14
1003.359	3135.95
1003.654	3130.75
1003.949	3058.21
1004.243	3050.98
1004.538	3009.4
1004.832	3029.06
1005.127	3056.4
1005.421	3006.46
1005.715	2959
1006.009	2933.92
1006.304	2950.64
1006.598	2878.78
1006.892	2890.31
1007.186	2905.22
1007.48	2876.75
1007.773	2869.51
1008.067	2844.88
1008.361	2822.28
1008.655	2842.85
1008.948	2794.49
1009.242	2797.88
1009.535	2764.88
1009.829	2738.9
1010.122	2724.89
1010.415	2744.77
1010.708	2675.4
1011.001	2675.62
1011.295	2668.39
1011.588	2599.01
1011.881	2595.17
1012.173	2568.28
1012.466	2594.49
1012.759	2578.9
1013.052	2582.97
1013.344	2540.94
1013.637	2553.14
1013.93	2469.07
1014.222	2526.7
1014.514	2485.34
1014.807	2452.8
1015.099	2490.09
1015.391	2459.58
1015.683	2409.64
1015.976	2419.36
1016.268	2392.01
1016.56	2402.18
1016.851	2313.6
1017.143	2353.82
1017.435	2322.86
1017.727	2288.06
1018.018	2295.29
1018.31	2260.94
1018.602	2283.32
1018.893	2220.27
1019.185	2254.16
1019.476	2237.67
1019.767	2164.45
1020.058	2188.63
1020.35	2162.87
1020.641	2157.67
1020.932	2178.23
1021.223	2135.3
1021.514	2139.82
1021.804	2083.77
1022.095	2083.55
1022.386	2065.02
1022.677	2055.53
1022.967	2044.68
1023.258	2011.46
1023.548	2027.96
1023.839	2004.9
1024.129	1959.71
1024.419	1954.74
1024.709	1938.69
1025	1892.82
1025.29	1914.29
1025.58	1899.82
1025.87	1863.21
1026.16	1844.46
1026.449	1856.43
1026.739	1844.91
1027.029	1801.75
1027.319	1802.2
1027.608	1787.74
1027.898	1763.1
1028.187	1776.44
1028.477	1794.74
1028.766	1755.87
1029.055	1759.04
1029.344	1721.75
1029.634	1710.22
1029.923	1703.67
1030.212	1672.94
1030.501	1707.06
1030.79	1636.33
1031.078	1612.6
1031.367	1632.71
1031.656	1638.36
1031.945	1613.73
1032.233	1616.21
1032.522	1614.86
1032.81	1550.45
1033.099	1568.76
1033.387	1594.52
1033.675	1558.59
1033.963	1520.4
1034.251	1505.03
1034.54	1506.61
1034.828	1483.34
1035.116	1457.8
1035.403	1485.6
1035.691	1443.11
1035.979	1455.54
1036.267	1450.34
1036.554	1428.42
1036.842	1432.94
1037.129	1428.42
1037.417	1401.98
1037.704	1393.4
1037.992	1369.44
1038.279	1362.66
1038.566	1342.32
1038.853	1342.32
1039.14	1342.32
