Data from aluminium_surface_pro_back_FLMS001491_00047.txt Node
Date: Wed Feb 08 15:34:07 GMT 2017
User: dcchb
Spectrometer: FLMS00149
Trigger mode: 0
Integration Time (sec): 2.000000E-2
Scans to average: 10
Electric dark correction enabled: true
Nonlinearity correction enabled: false
Boxcar width: 0
XAxis mode: Wavelengths
Number of Pixels in Spectrum: 2048
>>>>>Begin Spectral Data<<<<<
341.393	-19.32
341.776	-19.32
342.16	-19.32
342.543	-76.95
342.927	-58.19
343.31	-64.29
343.693	-82.37
344.077	-73.11
344.46	-59.32
344.843	-41.69
345.226	-55.03
345.61	-12.09
345.993	-16.16
346.376	-28.81
346.759	12.32
347.142	16.61
347.525	36.27
347.908	63.84
348.291	92.77
348.674	101.35
349.057	109.71
349.44	128.47
349.823	130.05
350.206	158.98
350.588	220.9
350.971	252.31
351.354	239.88
351.737	272.65
352.119	281.01
352.502	279.65
352.884	272.87
353.267	315.36
353.65	314
354.032	334.12
354.414	328.24
354.797	320.78
355.179	328.92
355.562	341.35
355.944	350.61
356.326	354.23
356.709	355.81
357.091	361.01
357.473	372.08
357.855	374.11
358.238	368.92
358.62	364.62
359.002	351.74
359.384	372.98
359.766	373.66
360.148	385.64
360.53	355.36
360.912	364.17
361.294	358.52
361.676	356.04
362.057	374.57
362.439	355.36
362.821	359.88
363.203	342.02
363.584	351.74
363.966	363.27
364.348	354.23
364.729	370.5
365.111	364.62
365.493	369.14
365.874	370.27
366.256	361.23
366.637	353.55
367.019	355.36
367.4	358.52
367.781	377.28
368.163	357.39
368.544	371.4
368.925	355.58
369.306	359.65
369.688	391.74
370.069	354.91
370.45	382.25
370.831	357.39
371.212	382.02
371.593	392.65
371.974	397.62
372.355	370.27
372.736	381.35
373.117	361.69
373.498	386.32
373.879	365.98
374.26	360.33
374.641	377.96
375.021	368.46
375.402	388.13
375.783	397.16
376.163	438.52
376.544	398.75
376.925	391.52
377.305	408.01
377.686	408.92
378.066	402.59
378.447	421.34
378.827	432.42
379.208	412.98
379.588	412.98
379.968	394.45
380.349	413.89
380.729	421.57
381.109	430.61
381.489	416.37
381.87	449.82
382.25	448.24
382.63	436.49
383.01	458.86
383.39	448.01
383.77	430.84
384.15	475.13
384.53	450.95
384.91	485.98
385.29	463.38
385.67	480.55
386.049	471.06
386.429	503.6
386.809	509.03
387.189	495.24
387.568	509.7
387.948	506.31
388.328	488.91
388.707	520.1
389.087	530.95
389.466	538.63
389.846	547.9
390.225	544.73
390.605	525.07
390.984	537.5
391.363	560.32
391.743	576.82
392.122	565.52
392.501	573.88
392.881	579.53
393.26	554.9
393.639	616.82
394.018	587.22
394.397	601.45
394.776	589.25
395.155	596.03
395.534	631.51
395.913	617.5
396.292	659.3
396.671	635.8
397.05	643.49
397.429	644.62
397.808	659.3
398.186	668.12
398.565	674.9
398.944	673.77
399.323	686.42
399.701	713.31
400.08	683.94
400.458	718.96
400.837	716.7
401.215	732.52
401.594	716.93
401.972	705.86
402.351	719.87
402.729	749.25
403.107	769.13
403.486	739.98
403.864	777.49
404.242	765.29
404.62	777.72
404.999	804.16
405.377	820.43
405.755	816.36
406.133	799.87
406.511	813.2
406.889	849.13
407.267	869.92
407.645	886.42
408.023	882.58
408.401	905.4
408.779	913.31
409.156	928
409.534	909.47
409.912	956.02
410.29	956.7
410.667	964.38
411.045	1000.76
411.422	989.24
411.8	992.18
412.178	1002.57
412.555	1045.51
412.933	1041.44
413.31	1038.5
413.687	1062.46
414.065	1050.48
414.442	1075.34
414.819	1093.64
415.197	1112.85
415.574	1130.7
415.951	1168.22
416.328	1155.56
416.705	1182.91
417.082	1169.8
417.46	1226.3
417.837	1215.67
418.214	1208.67
418.591	1216.8
418.967	1247.54
419.344	1244.6
419.721	1285.28
420.098	1271.04
420.475	1311.49
420.852	1298.61
421.228	1315.11
421.605	1324.82
421.982	1318.04
422.358	1363.47
422.735	1375.9
423.111	1395.56
423.488	1403.24
423.864	1411.6
424.241	1438.04
424.617	1417.93
424.994	1439.62
425.37	1445.05
425.746	1464.48
426.123	1488.89
426.499	1527.53
426.875	1558.26
427.251	1586.51
427.627	1578.38
428.003	1611.82
428.379	1615.66
428.756	1639.17
429.132	1668.32
429.507	1704.02
429.883	1702.22
430.259	1717.36
430.635	1720.97
431.011	1735.89
431.387	1769.11
431.763	1838.93
432.138	1829.44
432.514	1878.26
432.89	1849.56
433.265	1933.85
433.641	1947.63
434.016	1964.58
434.392	1985.37
434.767	2005.48
435.143	2053.39
435.518	2076.22
435.894	2080.96
436.269	2095.88
436.644	2170.45
437.02	2165.03
437.395	2184.24
437.77	2185.37
438.145	2236.89
438.52	2240.05
438.895	2252.71
439.271	2301.07
439.646	2355.76
440.021	2325.7
440.395	2385.81
440.77	2344.46
441.145	2396.89
441.52	2425.13
441.895	2425.36
442.27	2450.22
442.645	2459.48
443.019	2520.5
443.394	2500.39
443.769	2530.89
444.143	2539.48
444.518	2570.67
444.892	2572.25
445.267	2580.61
445.641	2623.77
446.016	2634.39
446.39	2673.72
446.764	2684.79
447.139	2681.85
447.513	2708.97
447.887	2708.52
448.262	2745.35
448.636	2773.37
449.01	2805.24
449.384	2812.69
449.758	2872.58
450.132	2862.64
450.506	2899.25
450.88	2915.97
451.254	2909.42
451.628	2997.32
452.002	3022.18
452.376	3025.8
452.75	3074.38
453.123	3124.55
453.497	3143.76
453.871	3198.22
454.244	3231.21
454.618	3216.53
454.992	3292.46
455.365	3325
455.739	3397.31
456.112	3411.55
456.486	3406.58
456.859	3497.87
457.232	3551.88
457.606	3577.65
457.979	3590.53
458.352	3663.07
458.725	3744.65
459.099	3749.39
459.472	3805.66
459.845	3870.07
460.218	3867.81
460.591	3934.92
460.964	3962.49
461.337	4069.16
461.71	4138.99
462.083	4215.37
462.456	4195.03
462.829	4213.56
463.201	4301.47
463.574	4287.46
463.947	4350.51
464.32	4449.26
464.692	4473.67
465.065	4497.62
465.438	4594.34
465.81	4688.35
466.183	4705.3
466.555	4810.61
466.928	4810.83
467.3	4818.07
467.672	4962.69
468.045	5066.19
468.417	5077.27
468.789	5078.17
469.161	5148.9
469.534	5293.08
469.906	5374.89
470.278	5432.29
470.65	5476.13
471.022	5574.43
471.394	5663.69
471.766	5740.53
472.138	5775.1
472.51	5917.92
472.882	6055.32
473.253	6074.53
473.625	6171.02
473.997	6328.31
474.369	6369.21
474.74	6493.5
475.112	6556.55
475.484	6664.34
475.855	6827.05
476.227	6854.4
476.598	7039.93
476.97	7088.74
477.341	7234.05
477.713	7371.67
478.084	7443.99
478.455	7620.03
478.827	7705
479.198	8021.6
479.569	7949.96
479.94	8224.76
480.311	8226.56
480.682	8399.89
481.053	8592.43
481.424	8732.99
481.795	8835.36
482.166	8978.18
482.537	9075.35
482.908	9331.39
483.279	9401.22
483.65	9571.16
484.021	9666.53
484.391	9855.9
484.762	9939.06
485.133	10090.47
485.503	10205.72
485.874	10507.63
486.244	10579.04
486.615	10764.8
486.985	10870.79
487.356	11102.87
487.726	11157.11
488.097	11440.04
488.467	11441.62
488.837	11716.42
489.207	11758.9
489.578	12010.19
489.948	12092
490.318	12354.14
490.688	12349.17
491.058	12638.42
491.428	12772.43
491.798	12903.5
492.168	13213.78
492.538	13257.84
492.908	13402.02
493.278	13482.02
493.648	13595.91
494.017	13795.23
494.387	13906.87
494.757	13950.71
495.126	14245.16
495.496	14229.57
495.866	14343.46
496.235	14500.07
496.605	14672.72
496.974	14744.13
497.344	14891.92
497.713	14978.48
498.082	15076.1
498.452	15280.84
498.821	15354.51
499.19	15321.52
499.559	15594.73
499.928	15662.98
500.298	15807.83
500.667	15905.46
501.036	15929.86
501.405	16135.28
501.774	16124.66
502.143	16302.28
502.512	16460.92
502.88	16642.16
503.249	16623.86
503.618	16739.33
503.987	16845.55
504.356	16911.53
504.724	17065.43
505.093	17151.75
505.462	17269.94
505.83	17384.51
506.199	17562.59
506.567	17781.34
506.936	17790.15
507.304	18049.13
507.672	18068.79
508.041	18176.81
508.409	18334.77
508.777	18557.37
509.145	18589
509.514	18716.46
509.882	18849.11
510.25	18868.09
510.618	19076.67
510.986	19103.11
511.354	19341.53
511.722	19525.7
512.09	19743.1
512.458	19750.55
512.826	20000.94
513.193	20011.34
513.561	20107.38
513.929	20337.43
514.297	20483.42
514.664	20702.39
515.032	20728.16
515.4	21000.24
515.767	21066
516.135	21277.75
516.502	21102.61
516.869	21610.17
517.237	21723.16
517.604	21626.21
517.972	21999.08
518.339	22147.78
518.706	22163.82
519.073	22357.27
519.44	22493.98
519.808	22733.98
520.175	22797.48
520.542	23147.75
520.909	23223.01
521.276	23184.14
521.643	23544.35
522.009	23787.06
522.376	23947.05
522.743	24153.15
523.11	24298.68
523.477	24538.22
523.843	24755.62
524.21	25017.99
524.577	25254.14
524.943	25426.11
525.31	25592.21
525.676	25802.82
526.043	25900
526.409	26047.79
526.776	26428.34
527.142	26457.72
527.508	26565.52
527.874	26876.69
528.241	26992.62
528.607	27130.7
528.973	27244.37
529.339	27401.88
529.705	27696.11
530.071	27978.81
530.437	27962.09
530.803	28164.57
531.169	28369.76
531.535	28390.55
531.901	28621.51
532.267	28787.6
532.632	28918.45
532.998	29079.12
533.364	29326.35
533.73	29264.2
534.095	29597.07
534.461	29687.69
534.826	29819.67
535.192	30009.95
535.557	30314.8
535.923	30254.91
536.288	30343.72
536.653	30499.2
537.019	30505.53
537.384	30665.07
537.749	30860.09
538.114	30834.78
538.479	30966.53
538.845	31165.85
539.21	31144.83
539.575	31444.48
539.94	31393.41
540.305	31643.57
540.67	31667.3
541.034	31826.62
541.399	31908.2
541.764	31939.84
542.129	32143.22
542.494	32045.82
542.858	32192.03
543.223	32280.85
543.587	32479.26
543.952	32437.9
544.316	32655.98
544.681	32615.53
545.045	32788.86
545.41	33055.74
545.774	33013.93
546.138	33003.09
546.503	33241.05
546.867	33187.94
547.231	33572.79
547.595	33618.66
547.959	33781.37
548.324	33797.19
548.688	33954.25
549.052	34103.17
549.416	34042.16
549.779	34280.12
550.143	34359.44
550.507	34635.13
550.871	34820.21
551.235	34802.36
551.599	35054.33
551.962	35178.17
552.326	35357.15
552.689	35420.65
553.053	35415.68
553.417	35497.03
553.78	35995.55
554.143	35692.06
554.507	36124.13
554.87	36100.18
555.234	36480.51
555.597	36348.08
555.96	36476.67
556.323	36630.11
556.686	36772.03
557.05	36976.09
557.413	37134.73
557.776	37278
558.139	37526.58
558.502	37621.5
558.865	37687.03
559.228	37922.96
559.59	38161.37
559.953	38339.67
560.316	38658.98
560.679	38616.5
561.041	38906.21
561.404	39026.43
561.767	39219.19
562.129	39189.14
562.492	39507.32
562.854	39520.43
563.217	39628.45
563.579	39744.6
563.941	39923.36
564.304	40172.84
564.666	40515.43
565.028	40615.77
565.39	40794.52
565.753	40991.58
566.115	41164.91
566.477	41314.51
566.839	41418.46
567.201	41724.44
567.563	41790.2
567.925	42222.51
568.287	42220.92
568.648	42312.9
569.01	42385.89
569.372	42747.24
569.734	42796.73
570.095	43073.1
570.457	43309.48
570.819	43328.69
571.18	43442.36
571.542	43705.4
571.903	43849.36
572.265	43963.7
572.626	43997.15
572.987	44177.71
573.349	44276.46
573.71	44469.9
574.071	44646.85
574.432	44714.42
574.794	44960.29
575.155	44935.2
575.516	44897.46
575.877	45106.95
576.238	45228.3
576.599	45321.41
576.96	45638.69
577.32	45504.45
577.681	45855.18
578.042	45747.61
578.403	45837.33
578.763	46005.01
579.124	46084.55
579.485	46298.78
579.845	46423.53
580.206	46378.1
580.566	46351.44
580.927	46395.28
581.287	46739.45
581.648	46594.37
582.008	46860.12
582.368	46656.29
582.728	46811.31
583.089	46583.07
583.449	46803.18
583.809	46835.49
584.169	46938.54
584.529	46838.43
584.889	47138.76
585.249	46901.25
585.609	46909.84
585.969	47164.3
586.329	47023.51
586.688	47110.29
587.048	47016.28
587.408	47040.01
587.768	47077.52
588.127	46968.37
588.487	47112.09
588.846	47320
589.206	47107.57
589.565	47044.75
589.925	47442.03
590.284	47272.77
590.643	47326.55
591.003	47240.23
591.362	47374.46
591.721	47286.1
592.08	47337.17
592.44	47391.64
592.799	47377.62
593.158	47459.66
593.517	47383.5
593.876	47473.67
594.235	47349.38
594.593	47442.93
594.952	47588.92
595.311	47442.93
595.67	47522.03
596.029	47646.09
596.387	47776.03
596.746	47828.01
597.104	47556.6
597.463	47628.47
597.822	47928.12
598.18	47712.76
598.538	47692.87
598.897	47994.78
599.255	47717.05
599.613	48203.59
599.972	47988.91
600.33	48164.95
600.688	47897.16
601.046	47953.43
601.404	48090.37
601.762	48059.41
602.12	48291.5
602.478	48210.37
602.836	48376.02
603.194	48030.71
603.552	48193.42
603.91	48188.68
604.268	48228.68
604.625	48176.7
604.983	48307.32
605.341	48253.76
605.698	48467.99
606.056	48541.66
606.413	48446.75
606.771	48594.99
607.128	48629.34
607.485	48460.08
607.843	48493.53
608.2	48657.14
608.557	48759.28
608.914	48610.36
609.272	48812.61
609.629	48874.08
609.986	49020.52
610.343	48812.39
610.7	49150.46
611.057	48912.5
611.414	48923.57
611.771	49014.42
612.127	49145.26
612.484	49094.19
612.841	49264.35
613.198	49080.4
613.554	49263
613.911	49447.4
614.267	49348.19
614.624	49313.84
614.98	49335.54
615.337	49559.94
615.693	49502.09
616.05	49469.55
616.406	49681.29
616.762	49522.43
617.118	49539.83
617.475	49588.64
617.831	49815.75
618.187	49702.31
618.543	49709.09
618.899	49855.3
619.255	49767.17
619.611	49776.21
619.967	49867.05
620.323	50001.96
620.678	49854.4
621.034	49872.25
621.39	49875.86
621.746	49801.52
622.101	50196.31
622.457	49924.68
622.812	49932.36
623.168	50025.46
623.523	50026.37
623.879	50217.1
624.234	49973.49
624.589	50044.67
624.945	49987.95
625.3	50135.07
625.655	50042.86
626.01	50133.48
626.365	50029.08
626.72	50050.77
627.075	49977.1
627.43	50035.41
627.785	49962.87
628.14	49865.47
628.495	50000.83
628.85	49979.36
629.205	49852.14
629.559	49999.93
629.914	49786.6
630.269	49781.63
630.623	49806.26
630.978	49678.58
631.332	49858.92
631.687	49916.77
632.041	49668.64
632.396	49682.42
632.75	49692.14
633.104	49726.26
633.459	49515.42
633.813	49490.11
634.167	49513.39
634.521	49396.33
634.875	49557.45
635.229	49434.97
635.583	49305.48
635.937	49387.06
636.291	49282.43
636.645	49232.72
636.999	49070.91
637.352	49318.82
637.706	49056.45
638.06	49123.57
638.413	48956.11
638.767	48975.32
639.121	48968.54
639.474	48777.14
639.828	48658.04
640.181	48906.4
640.534	48794.99
640.888	48720.64
641.241	48482.45
641.594	48710.92
641.947	48747.08
642.301	48523.58
642.654	48702.34
643.007	48599.51
643.36	48528.78
643.713	48374.66
644.066	48583.69
644.419	48325.4
644.771	48045.86
645.124	47780.1
645.477	47742.36
645.83	47327.23
646.182	47123.85
646.535	47113
646.888	47044.53
647.24	46918.43
647.593	47226.22
647.945	47067.35
648.298	46933.12
648.65	46731.09
649.002	46630.07
649.355	46795.04
649.707	46692.67
650.059	46866.45
650.411	47322.03
650.763	47223.28
651.115	47638.18
651.467	47435.02
651.819	47480.22
652.171	47412.88
652.523	47390.05
652.875	47237.06
653.227	47169.27
653.578	47316.16
653.93	47230.74
654.282	46967.92
654.633	46928.14
654.985	46935.38
655.337	46874.81
655.688	46854.93
656.039	47117.07
656.391	46699.45
656.742	46792.1
657.094	46619.45
657.445	46898.54
657.796	46807.7
658.147	46691.54
658.498	46642.73
658.849	46726.57
659.2	46561.83
659.551	46494.71
659.902	46634.82
660.253	46537.19
660.604	46684.76
660.955	46441.15
661.306	46528.16
661.656	46370.65
662.007	46397.09
662.358	46447.25
662.708	46418.78
663.059	46381.04
663.409	46149.18
663.76	46315.51
664.11	46372.9
664.461	46321.38
664.811	46308.73
665.161	46229.41
665.511	46143.98
665.862	46121.84
666.212	46270.31
666.562	46117.32
666.912	46088.62
667.262	46032.8
667.612	46161.39
667.962	46098.34
668.312	45870.55
668.662	46249.29
669.011	45957.55
669.361	45919.13
669.711	45898.57
670.06	45789.87
670.41	45876.42
670.76	45764.33
671.109	45861.51
671.459	45776.99
671.808	45636.65
672.157	45787.61
672.507	45520.05
672.856	45581.74
673.205	45593.49
673.554	45691.11
673.904	45530.67
674.253	45837.33
674.602	45558.24
674.951	44925.49
675.3	44858.59
675.649	45405.47
675.998	45191.02
676.346	45316.89
676.695	45563.66
677.044	45113.5
677.393	45337.45
677.741	45272.37
678.09	45190.79
678.438	45125.93
678.787	45262.2
679.135	45343.78
679.484	44939.04
679.832	45067.85
680.181	44975.65
680.529	44972.04
680.877	44814.3
681.225	44819.73
681.573	45026.05
681.922	44694.53
682.27	44448.89
682.618	44588.55
682.966	44449.57
683.314	44539.28
683.661	44415.22
684.009	44163.25
684.357	44082.34
684.705	44119.63
685.053	44152.17
685.4	44083.02
685.748	43847.77
686.095	43930.48
686.443	43690.26
686.79	43668.12
687.138	43555.13
687.485	43663.37
687.832	43502.25
688.18	43447.78
688.527	43267
688.874	43270.16
689.221	43186.32
689.568	43121.47
689.915	42943.62
690.262	42824.98
690.609	42767.58
690.956	42601.25
691.303	42657.07
691.65	42526.9
691.997	42468.37
692.344	42218.89
692.69	42074.94
693.037	42091.66
693.383	41759.47
693.73	42051.44
694.077	41545.46
694.423	41651.45
694.769	41460.72
695.116	41368.97
695.462	41406.71
695.808	41211.68
696.155	41351.12
696.501	40945.93
696.847	40970.34
697.193	40681.3
697.539	40930.11
697.885	40713.62
698.231	40463.91
698.577	40431.14
698.923	40427.07
699.269	40199.73
699.614	40058.49
699.96	40005.84
700.306	39990.25
700.651	39593.65
700.997	39491.96
701.342	39563.14
701.688	39395.69
702.033	39354.78
702.379	39238.18
702.724	39194.56
703.069	39292.64
703.415	38795.25
703.76	38967.22
704.105	38874.57
704.45	38710.28
704.795	38534.47
705.14	38397.97
705.485	38375.38
705.83	38155.72
706.175	38320.24
706.52	38195.49
706.865	37962.05
707.209	37979.23
707.554	37727.71
707.899	37885.67
708.243	37667.37
708.588	37553.7
708.932	37389.64
709.277	37396.42
709.621	37267.38
709.966	37000.04
710.31	37141.06
710.654	36695.19
710.998	36764.12
711.342	36806.15
711.687	36881.18
712.031	36573.84
712.375	36450.23
712.719	36614.74
713.063	36376.78
713.407	36556.67
713.75	36319.38
714.094	36182.44
714.438	36184.47
714.782	36302.89
715.125	36007.98
715.469	35940.64
715.812	35665.39
716.156	35504.94
716.499	35660.19
716.843	35667.42
717.186	35430.14
717.53	35516.24
717.873	35412.74
718.216	35359.41
718.559	35232.86
718.902	35052.52
719.246	35104.27
719.589	35013.2
719.932	34895.92
720.275	34874.68
720.617	34680.11
720.96	34873.32
721.303	34770.27
721.646	34601.46
721.989	34344.52
722.331	34571.86
722.674	34277.4
723.016	34376.61
723.359	34221.59
723.701	34326.67
724.044	34081.48
724.386	33924.19
724.729	33955.38
725.071	33831.09
725.413	33902.5
725.755	33855.95
726.097	33730.53
726.439	33570.53
726.782	33729.4
727.124	33762.62
727.465	33556.29
727.807	33504.54
728.149	33460.25
728.491	33385.68
728.833	33405.11
729.175	33271.78
729.516	33277.2
729.858	33212.12
730.199	33154.72
730.541	33062.97
730.882	32947.72
731.224	33022.75
731.565	32801.28
731.906	32911.56
732.248	32764.45
732.589	32719.03
732.93	32449.2
733.271	32437.45
733.612	32620.27
733.953	32561.97
734.294	32418.92
734.635	32307.29
734.976	32362.2
735.317	32155.65
735.658	32225.48
735.999	32030.91
736.339	32097.12
736.68	31994.53
737.021	32044.24
737.361	31874.3
737.702	31863
738.042	31720.18
738.383	31701.65
738.723	31826.39
739.063	31553.41
739.404	31668.21
739.744	31576.23
740.084	31374.43
740.424	31506.86
740.764	31339.4
741.104	31338.95
741.444	31192.06
741.784	31139.86
742.124	31221.44
742.464	31258.27
742.804	31020.31
743.143	31084.72
743.483	30973.08
743.823	30873.43
744.162	30834.78
744.502	30853.09
744.841	30617.39
745.181	30733.99
745.52	30515.24
745.86	30517.5
746.199	30593.43
746.538	30428.01
746.877	30590.72
747.216	30484.28
747.556	30194.35
747.895	30395.92
748.234	30103.95
748.573	30127.23
748.911	30081.58
749.25	30031.41
749.589	29932.21
749.928	30091.98
750.267	30040.45
750.605	29870.51
750.944	29831.87
751.283	29826.45
751.621	29726.11
751.96	29570.86
752.298	29614.25
752.636	29572.89
752.975	29441.15
753.313	29325.67
753.651	29442.28
753.989	29200.02
754.327	29151.21
754.666	28982.4
755.004	29050.87
755.342	29111.44
755.679	29096.3
756.017	28840.48
756.355	28759.13
756.693	28732.01
757.031	28858.11
757.368	28604.78
757.706	28544.22
758.044	28512.81
758.381	28323.44
758.719	28306.71
759.056	28322.08
759.394	28088.87
759.731	27937.46
760.068	27924.12
760.405	27736.11
760.743	27580.4
761.08	27725.26
761.417	27547.86
761.754	27551.7
762.091	27468.77
762.428	27398.94
762.765	27176.12
763.102	27263.8
763.438	27122.56
763.775	26944.49
764.112	26987.65
764.449	27057.25
764.785	26791.27
765.122	26677.38
765.458	26656.81
765.795	26467.21
766.131	26611.39
766.467	26420.89
766.804	26120.33
767.14	26126.66
767.476	26086.21
767.812	25844.86
768.148	25953.55
768.485	25812.09
768.821	25577.75
769.157	25601.7
769.492	25526.67
769.828	25429.05
770.164	25269.28
770.5	25281.26
770.836	25129.4
771.171	25111.77
771.507	25036.06
771.842	24721.27
772.178	24825.45
772.513	24777.31
772.849	24726.02
773.184	24535.74
773.519	24524.44
773.855	24271.34
774.19	24368.29
774.525	24201.06
774.86	24109.76
775.195	24145.47
775.53	23973.04
775.865	23806.04
776.2	23639.94
776.535	23496.44
776.87	23488.76
777.205	23354.3
777.539	23227.07
777.874	23298.26
778.209	23041.09
778.543	23093.74
778.878	22765.16
779.212	22950.24
779.547	22718.61
779.881	22732.17
780.215	22612.4
780.55	22614.89
780.884	22456.47
781.218	22406.08
781.552	22393.2
781.886	22236.82
782.22	22154.56
782.554	22041.34
782.888	21872.53
783.222	21879.09
783.556	21706.21
783.889	21682.71
784.223	21572.65
784.557	21548.25
784.89	21634.57
785.224	21450.4
785.557	21371.98
785.891	21284.75
786.224	21216.28
786.558	21204.3
786.891	20883.86
787.224	20934.93
787.557	20813.58
787.891	20841.6
788.224	20765.44
788.557	20713.24
788.89	20637.76
789.223	20551.66
789.556	20458.78
789.888	20386.92
790.221	20313.03
790.554	20155.06
790.887	20062.41
791.219	20078
791.552	20030.55
791.884	19984.22
792.217	19899.25
792.549	19807.05
792.882	19631.01
793.214	19513.95
793.546	19700.61
793.879	19489.54
794.211	19342.66
794.543	19451.8
794.875	19226.73
795.207	19409.77
795.539	19181.3
795.871	19199.83
796.203	18966.62
796.535	19010.91
796.867	18865.83
797.198	18893.85
797.53	18805.72
797.862	18591.94
798.193	18756.91
798.525	18469.46
798.856	18539.29
799.188	18358.27
799.519	18454.77
799.85	18236.47
800.182	18180.88
800.513	18315.11
800.844	18061.11
801.175	18143.14
801.506	18082.58
801.837	17913.77
802.168	17957.61
802.499	17890.26
802.83	17818.85
803.161	17720.33
803.491	17778.18
803.822	17608.92
804.153	17542.48
804.483	17311.07
804.814	17369.37
805.145	17364.85
805.475	17363.5
805.805	17164.63
806.136	17246.67
806.466	17228.81
806.796	17070.85
807.126	16954.02
807.457	16947.01
807.787	16919.22
808.117	16795.38
808.447	16745.44
808.777	16878.31
809.107	16829.28
809.436	16710.18
809.766	16614.37
810.096	16615.95
810.426	16640.81
810.755	16560.81
811.085	16467.93
811.414	16421.38
811.744	16298.44
812.073	16319.91
812.403	16343.41
812.732	16121.05
813.061	16159.46
813.39	16078.33
813.719	16087.6
814.049	16044.89
814.378	16100.03
814.707	16007.83
815.036	15980.26
815.365	15836.31
815.693	15688.97
816.022	15775.97
816.351	15805.57
816.68	15527.61
817.008	15707.5
817.337	15575.52
817.665	15582.08
817.994	15530.1
818.322	15551.79
818.651	15388.63
818.979	15400.39
819.307	15511.12
819.636	15450.1
819.964	15274.74
820.292	15359.03
820.62	15324.46
820.948	15278.13
821.276	15312.7
821.604	15240.62
821.932	15318.58
822.259	15249.66
822.587	15277.9
822.915	15260.28
823.243	15265.93
823.57	15241.52
823.898	15269.09
824.225	15220.96
824.553	15231.58
824.88	15276.55
825.207	15273.84
825.535	15241.75
825.862	15243.33
826.189	15108.64
826.516	15224.8
826.843	15287.17
827.17	15221.63
827.497	15168.53
827.824	15222.09
828.151	15174.86
828.478	15171.69
828.805	15138.25
829.131	15061.86
829.458	15085.82
829.785	15029.77
830.111	15030
830.438	15054.86
830.764	15087.17
831.09	15093.95
831.417	15108.87
831.743	15163.33
832.069	14999.04
832.395	14981.64
832.722	15070.9
833.048	14967.4
833.374	15018.93
833.7	14889.21
834.026	15057.57
834.351	15005.59
834.677	14916.33
835.003	14885.82
835.329	14969.21
835.654	14883.11
835.98	14849.44
836.306	14847.86
836.631	14754.75
836.956	14875.43
837.282	14820.06
837.607	14755.43
837.932	14621.88
838.258	14701.65
838.583	14661.87
838.908	14677.24
839.233	14637.24
839.558	14643.8
839.883	14550.24
840.208	14449.22
840.533	14519.05
840.858	14600.18
841.182	14485.61
841.507	14500.07
841.832	14419.85
842.156	14437.47
842.481	14414.65
842.805	14433.18
843.13	14379.4
843.454	14387.08
843.778	14283.81
844.103	14246.07
844.427	14284.94
844.751	14295.78
845.075	14148.22
845.399	14159.97
845.723	14090.36
846.047	14049.46
846.371	13943.7
846.695	14006.3
847.019	13872.06
847.343	13760.43
847.666	13719.75
847.99	13733.99
848.313	13704.61
848.637	13667.78
848.96	13661
849.284	13528.34
849.607	13470.27
849.931	13381
850.254	13347.11
850.577	13253.32
850.9	13223.27
851.223	13277.73
851.546	13113.21
851.869	13037.51
852.192	13186.21
852.515	12981.47
852.838	13010.84
853.161	12980.56
853.483	12938.98
853.806	12894.46
854.129	12848.14
854.451	12738.76
854.774	12780.12
855.096	12679.1
855.419	12625.77
855.741	12528.37
856.063	12538.09
856.385	12520.24
856.708	12502.61
857.03	12462.61
857.352	12400.46
857.674	12423.06
857.996	12370.18
858.318	12279.56
858.64	12330.86
858.961	12209.74
859.283	12252.45
859.605	12087.93
859.926	12224.2
860.248	12171.77
860.57	12162.28
860.891	12179.23
861.212	12081.83
861.534	12068.72
861.855	12037.99
862.176	11988.72
862.498	12030.31
862.819	11980.14
863.14	12011.77
863.461	11994.37
863.782	11972.91
864.103	11994.15
864.424	11919.57
864.745	11901.49
865.065	11810.42
865.386	11757.09
865.707	11796.19
866.027	11699.47
866.348	11685
866.668	11678.9
866.989	11731.56
867.309	11619.24
867.63	11757.09
867.95	11560.49
868.27	11541.28
868.59	11564.33
868.91	11520.26
869.23	11530.88
869.55	11482.52
869.87	11547.15
870.19	11536.76
870.51	11548.74
870.83	11596.42
871.15	11426.48
871.469	11429.87
871.789	11514.16
872.109	11462.86
872.428	11426.71
872.748	11417.89
873.067	11382.86
873.386	11387.38
873.706	11460.6
874.025	11365.46
874.344	11368.85
874.663	11399.36
874.982	11395.52
875.301	11354.84
875.62	11266.26
875.939	11271.46
876.258	11278.23
876.577	11199.14
876.896	11195.75
877.214	11135.41
877.533	11196.2
877.852	11239.82
878.17	11169.31
878.489	11222.19
878.807	11154.85
879.125	11102.65
879.444	11083.89
879.762	11014.74
880.08	11080.27
880.398	10961.86
880.716	11043.44
881.034	10972.03
881.352	10974.06
881.67	10808.87
881.988	10943.55
882.306	10861.07
882.624	10841.86
882.941	10797.57
883.259	10742.88
883.577	10763.22
883.894	10764.12
884.212	10743.56
884.529	10732.03
884.846	10725.25
885.164	10753.5
885.481	10665.6
885.798	10701.98
886.115	10621.3
886.432	10628.76
886.75	10545.6
887.067	10552.15
887.383	10595.31
887.7	10560.29
888.017	10526.39
888.334	10534.75
888.651	10514.86
888.967	10496.79
889.284	10454.75
889.6	10490.91
889.917	10348.54
890.233	10276
890.55	10254.53
890.866	10344.02
891.182	10241.2
891.498	10231.03
891.815	10255.89
892.131	10286.17
892.447	10178.15
892.763	10208.21
893.079	10131.82
893.395	10200.07
893.71	10156.46
894.026	10053.41
894.342	10044.82
894.657	9935.22
894.973	9972.96
895.289	9991.49
895.604	9967.31
895.92	9928.44
896.235	9893.86
896.55	9923.24
896.865	9874.88
897.181	9807.31
897.496	9840.08
897.811	9720.31
898.126	9765.05
898.441	9699.07
898.756	9658.84
899.071	9650.03
899.386	9609.58
899.7	9509.02
900.015	9534.78
900.33	9463.37
900.644	9494.1
900.959	9467.43
901.273	9410.49
901.588	9328.23
901.902	9345.63
902.216	9294.56
902.531	9266.99
902.845	9211.17
903.159	9251.62
903.473	9143.83
903.787	9162.36
904.101	9164.62
904.415	9111.06
904.729	9043.27
905.042	8970.72
905.356	8997.62
905.67	8928.92
905.984	8927.34
906.297	8937.96
906.611	8831.97
906.924	8784.74
907.237	8786.77
907.551	8818.19
907.864	8760.33
908.177	8735.48
908.491	8683.95
908.804	8715.82
909.117	8632.2
909.43	8615.93
909.743	8568.02
910.056	8548.36
910.368	8469.95
910.681	8446.22
910.994	8407.12
911.307	8426.56
911.619	8328.93
911.932	8359.44
912.244	8322.38
912.557	8275.38
912.869	8255.49
913.181	8274.02
913.494	8203.29
913.806	8166.23
914.118	8226.79
914.43	8109.73
914.742	8132.55
915.054	8071.31
915.366	8042.61
915.678	8045.55
915.99	7977.76
916.302	7932.11
916.613	7890.75
916.925	7915.84
917.236	7885.33
917.548	7830.42
917.859	7790.64
918.171	7733.47
918.482	7772.11
918.794	7671.78
919.105	7688.5
919.416	7608.05
919.727	7583.42
920.038	7610.08
920.349	7530.76
920.66	7540.71
920.971	7507.26
921.282	7505.68
921.593	7460.71
921.903	7361.95
922.214	7358.56
922.525	7340.48
922.835	7364.21
923.146	7253.71
923.456	7226.14
923.767	7211
924.077	7202.64
924.387	7216.65
924.697	7178.46
925.008	7146.82
925.318	7055.52
925.628	7009.87
925.938	7035.86
926.248	7008.06
926.558	6941.4
926.867	6931.46
927.177	6885.13
927.487	6906.6
927.796	6788.64
928.106	6767.39
928.416	6759.03
928.725	6792.7
929.034	6718.58
929.344	6666.83
929.653	6609.88
929.962	6656.89
930.271	6620.28
930.581	6590.9
930.89	6566.49
931.199	6530.34
931.508	6519.49
931.817	6498.93
932.125	6488.53
932.434	6458.47
932.743	6380.96
933.051	6366.73
933.36	6347.97
933.669	6370.79
933.977	6290.34
934.286	6307.07
934.594	6233.85
934.902	6203.79
935.21	6154.53
935.519	6199.95
935.827	6207.63
936.135	6116.79
936.443	6104.36
936.751	6110.69
937.059	6020.97
937.367	5992.5
937.674	6001.09
937.982	5981.2
938.29	5997.92
938.597	5977.81
938.905	5920.41
939.213	5904.82
939.52	5879.05
939.827	5870.69
940.135	5847.64
940.442	5833.63
940.749	5840.19
941.056	5783.46
941.363	5753.86
941.67	5717.93
941.977	5704.37
942.284	5669.79
942.591	5665.5
942.898	5679.51
943.205	5614.88
943.511	5620.3
943.818	5597.48
944.125	5577.37
944.431	5524.49
944.738	5497.6
945.044	5458.27
945.35	5477.94
945.657	5490.14
945.963	5390.93
946.269	5407.43
946.575	5377.82
946.881	5294.44
947.187	5298.5
947.493	5279.52
947.799	5252.18
948.105	5265.96
948.41	5243.82
948.716	5197.04
949.022	5182.58
949.327	5148.23
949.633	5102.58
949.938	5134.44
950.244	5105.29
950.549	5065.74
950.854	5075.91
951.16	5053.31
951.465	5009.92
951.77	4958.17
952.075	5018.06
952.38	4932.41
952.685	4901.45
952.99	4882.02
953.294	4862.81
953.599	4808.12
953.904	4836.37
954.209	4819.42
954.513	4829.82
954.818	4787.11
955.122	4780.33
955.426	4785.75
955.731	4709.14
956.035	4668.92
956.339	4735.58
956.643	4722.25
956.948	4652.42
957.252	4625.53
957.556	4666.66
957.86	4609.94
958.163	4609.26
958.467	4548.24
958.771	4550.73
959.075	4565.42
959.378	4510.28
959.682	4484.74
959.985	4496.49
960.289	4429.83
960.592	4420.56
960.896	4370.85
961.199	4425.99
961.502	4370.39
961.805	4381.92
962.108	4338.53
962.411	4328.13
962.714	4284.29
963.017	4274.58
963.32	4284.97
963.623	4272.99
963.926	4278.42
964.228	4207.69
964.531	4196.39
964.833	4214.92
965.136	4169.72
965.438	4181.47
965.741	4102.83
966.043	4134.02
966.345	4084.75
966.648	4081.81
966.95	4083.4
967.252	4043.17
967.554	4040.46
967.856	4045.66
968.158	3943.74
968.46	3938.99
968.761	3983.74
969.063	3931.76
969.365	3927.47
969.666	3894.7
969.968	3918.2
970.269	3943.29
970.571	3844.08
970.872	3834.36
971.174	3852.22
971.475	3821.03
971.776	3804.53
972.077	3810.86
972.378	3821.26
972.679	3787.36
972.98	3721.37
973.281	3699.9
973.582	3725.44
973.883	3706.91
974.183	3666.01
974.484	3674.59
974.785	3655.84
975.085	3634.82
975.386	3635.95
975.686	3623.07
975.986	3608.61
976.287	3593.01
976.587	3611.09
976.887	3562.73
977.187	3519.34
977.487	3499.68
977.787	3499.68
978.087	3481.83
978.387	3494.48
978.687	3436.41
978.987	3403.41
979.286	3435.73
979.586	3428.95
979.885	3416.07
980.185	3368.84
980.484	3360.25
980.784	3347.14
981.083	3325.22
981.382	3365.67
981.682	3295.17
981.981	3257.88
982.28	3285.45
982.579	3244.1
982.878	3204.77
983.177	3217.2
983.475	3231.21
983.774	3196.19
984.073	3158
984.372	3195.96
984.67	3198.45
984.969	3143.08
985.267	3112.57
985.566	3102.86
985.864	3096.75
986.162	3095.17
986.461	3044.78
986.759	3064.21
987.057	3055.63
987.355	3020.15
987.653	3054.04
987.951	2990.54
988.249	3036.64
988.547	3002.29
988.844	2941.5
989.142	2976.08
989.44	2966.36
989.737	2951.67
990.035	2922.07
990.332	2914.61
990.63	2879.81
990.927	2872.58
991.224	2863.99
991.521	2863.99
991.819	2852.92
992.116	2848.85
992.413	2840.72
992.71	2825.35
993.006	2862.86
993.303	2786.25
993.6	2791
993.897	2764.33
994.193	2759.81
994.49	2735.63
994.787	2720.95
995.083	2714.17
995.379	2702.41
995.676	2713.04
995.972	2673.94
996.268	2631.46
996.565	2642.3
996.861	2663.55
997.157	2609.99
997.453	2596.2
997.749	2591.01
998.044	2568.86
998.34	2578.58
998.636	2545.13
998.932	2519.37
999.227	2525.02
999.523	2514.62
999.818	2505.81
1000.114	2479.82
1000.409	2499.26
1000.704	2498.58
1001	2459.71
1001.295	2449.09
1001.59	2433.72
1001.885	2415.87
1002.18	2405.93
1002.475	2386.26
1002.77	2393.95
1003.065	2351.24
1003.359	2366.38
1003.654	2354.4
1003.949	2332.03
1004.243	2314.63
1004.538	2268.75
1004.832	2299.04
1005.127	2272.6
1005.421	2232.82
1005.715	2264.01
1006.009	2236.44
1006.304	2210.9
1006.598	2228.53
1006.892	2175.65
1007.186	2187.85
1007.48	2186.72
1007.773	2170.68
1008.067	2176.33
1008.361	2146.27
1008.655	2118.93
1008.948	2107.85
1009.242	2095.88
1009.535	2107.4
1009.829	2082.54
1010.122	2076.89
1010.415	2071.47
1010.708	2048.87
1011.001	2032.6
1011.295	1990.34
1011.588	2005.71
1011.881	1979.27
1012.173	1973.39
1012.466	1955.99
1012.759	1945.82
1013.052	1962.55
1013.344	1962.1
1013.637	1915.32
1013.93	1909.22
1014.222	1889.1
1014.514	1900.18
1014.807	1893.4
1015.099	1860.4
1015.391	1889.33
1015.683	1840.06
1015.976	1831.93
1016.268	1866.96
1016.56	1820.4
1016.851	1802.1
1017.143	1790.8
1017.435	1777.02
1017.727	1797.58
1018.018	1779.95
1018.31	1726.85
1018.602	1746.51
1018.893	1743.12
1019.185	1745.83
1019.476	1709.22
1019.767	1668.77
1020.058	1673.74
1020.35	1663.12
1020.641	1648.88
1020.932	1657.92
1021.223	1638.71
1021.514	1619.51
1021.804	1628.77
1022.095	1592.16
1022.386	1589.45
1022.677	1590.58
1022.967	1541.32
1023.258	1567.3
1023.548	1557.13
1023.839	1548.77
1024.129	1521.2
1024.419	1513.52
1024.709	1525.72
1025	1491.83
1025.29	1485.27
1025.58	1462.9
1025.87	1471.26
1026.16	1439.62
1026.449	1439.62
1026.739	1417.25
1027.029	1419.96
1027.319	1434.88
1027.608	1401.43
1027.898	1442.11
1028.187	1403.47
1028.477	1367.99
1028.766	1387.2
1029.055	1378.61
1029.344	1389.91
1029.634	1366.63
1029.923	1351.26
1030.212	1327.54
1030.501	1339.96
1030.79	1325.73
1031.078	1314.65
1031.367	1305.16
1031.656	1328.89
1031.945	1300.19
1032.233	1264.26
1032.522	1245.96
1032.81	1283.24
1033.099	1252.06
1033.387	1228.56
1033.675	1246.18
1033.963	1214.77
1034.251	1251.38
1034.54	1214.54
1034.828	1204.38
1035.116	1162.12
1035.403	1179.97
1035.691	1164.38
1035.979	1172.96
1036.267	1166.18
1036.554	1160.08
1036.842	1153.3
1037.129	1136.35
1037.417	1137.26
1037.704	1100.42
1037.992	1108.11
1038.279	1121.67
1038.566	1083.47
1038.853	1083.47
1039.14	1083.47
