Data from aluminium_surface_pro_back_FLMS001491_00087.txt Node
Date: Wed Feb 08 15:34:40 GMT 2017
User: dcchb
Spectrometer: FLMS00149
Trigger mode: 0
Integration Time (sec): 2.000000E-2
Scans to average: 10
Electric dark correction enabled: true
Nonlinearity correction enabled: false
Boxcar width: 0
XAxis mode: Wavelengths
Number of Pixels in Spectrum: 2048
>>>>>Begin Spectral Data<<<<<
341.393	-5.61
341.776	-5.61
342.16	-5.61
342.543	-76.34
342.927	-53.52
343.31	-92.84
343.693	-82.44
344.077	-78.83
344.46	-42.44
344.843	-54.19
345.226	-28.66
345.61	-25.49
345.993	-6.96
346.376	-23.46
346.759	6.6
347.142	35.75
347.525	42.98
347.908	57.89
348.291	72.81
348.674	100.38
349.057	118.91
349.44	118.91
349.823	135.41
350.206	180.15
350.588	230.54
350.971	230.77
351.354	272.8
351.737	264.67
352.119	282.29
352.502	303.76
352.884	298.11
353.267	331.11
353.65	289.3
354.032	333.82
354.414	358.68
354.797	360.48
355.179	372.91
355.562	346.47
355.944	372.01
356.326	364.1
356.709	371.56
357.091	346.25
357.473	392.8
357.855	381.95
358.238	389.41
358.62	378.11
359.002	372.91
359.384	378.79
359.766	388.28
360.148	382.63
360.53	413.14
360.912	395.29
361.294	370.2
361.676	367.49
362.057	362.07
362.439	399.58
362.821	382.86
363.203	386.25
363.584	361.84
363.966	348.51
364.348	365
364.729	363.65
365.111	377.21
365.493	387.83
365.874	368.17
366.256	381.05
366.637	382.18
367.019	369.07
367.4	378.79
367.781	365
368.163	376.76
368.544	375.85
368.925	381.95
369.306	391.22
369.688	379.02
370.069	385.57
370.45	386.25
370.831	395.51
371.212	372.46
371.593	390.77
371.974	390.31
372.355	403.2
372.736	404.1
373.117	401.84
373.498	383.54
373.879	406.13
374.26	382.86
374.641	394.83
375.021	402.07
375.402	405.46
375.783	406.81
376.163	423.08
376.544	438.45
376.925	427.83
377.305	422.86
377.686	429.41
378.066	435.29
378.447	432.57
378.827	430.31
379.208	424.21
379.588	428.51
379.968	447.49
380.349	451.33
380.729	428.51
381.109	479.35
381.489	462.18
381.87	469.86
382.25	459.01
382.63	454.72
383.01	485
383.39	484.1
383.77	476.87
384.15	485.68
384.53	477.54
384.91	502.63
385.29	497.43
385.67	505.57
386.049	493.14
386.429	526.36
386.809	504.66
387.189	531.1
387.568	507.37
387.948	531.55
388.328	522.97
388.707	545.11
389.087	546.02
389.466	562.97
389.846	575.85
390.225	577.88
390.605	562.74
390.984	576.52
391.363	596.41
391.743	592.8
392.122	590.76
392.501	619.91
392.881	634.38
393.26	597.09
393.639	627.37
394.018	622.4
394.397	626.92
394.776	638.67
395.155	646.35
395.534	656.75
395.913	677.99
396.292	653.36
396.671	670.76
397.05	707.14
397.429	711.89
397.808	679.57
398.186	710.53
398.565	718.44
398.944	697.2
399.323	723.41
399.701	741.72
400.08	731.55
400.458	774.03
400.837	755.28
401.215	792.34
401.594	770.19
401.972	774.94
402.351	800.25
402.729	800.02
403.107	836.18
403.486	815.84
403.864	837.53
404.242	846.12
404.62	853.13
404.999	847.03
405.377	868.04
405.755	859.45
406.133	866.23
406.511	873.92
406.889	903.3
407.267	913.46
407.645	921.83
408.023	957.08
408.401	960.02
408.779	996.17
409.156	964.08
409.534	1007.25
409.912	1019.45
410.29	1030.75
410.667	1052.44
411.045	1060.35
411.422	1060.13
411.8	1088.15
412.178	1113.69
412.555	1115.95
412.933	1110.75
413.31	1159.79
413.687	1166.79
414.065	1160.24
414.442	1176.73
414.819	1209.95
415.197	1218.99
415.574	1227.35
415.951	1255.6
416.328	1244.3
416.705	1271.87
417.082	1293.79
417.46	1302.38
417.837	1297.86
418.214	1309.16
418.591	1321.82
418.967	1345.09
419.344	1377.86
419.721	1380.35
420.098	1385.32
420.475	1411.98
420.852	1429.38
421.228	1439.55
421.605	1452.21
421.982	1480
422.358	1483.17
422.735	1496.73
423.111	1528.36
423.488	1531.3
423.864	1532.66
424.241	1547.12
424.617	1560.23
424.994	1615.14
425.37	1598.42
425.746	1583.96
426.123	1638.64
426.499	1655.59
426.875	1671.86
427.251	1696.49
427.627	1722.03
428.003	1758.41
428.379	1745.99
428.756	1770.17
429.132	1856.04
429.507	1818.75
429.883	1863.95
430.259	1878.86
430.635	1905.75
431.011	1925.19
431.387	1969.26
431.763	2005.19
432.138	1994.79
432.514	2031.85
432.89	2065.52
433.265	2136.71
433.641	2138.07
434.016	2151.62
434.392	2188.01
434.767	2231.62
435.143	2209.93
435.518	2249.93
435.894	2262.58
436.269	2287.21
436.644	2339.64
437.02	2388
437.395	2368.79
437.77	2352.97
438.145	2462.12
438.52	2459.41
438.895	2523.14
439.271	2488.34
439.646	2559.52
440.021	2586.64
440.395	2578.51
440.77	2578.73
441.145	2647.43
441.52	2678.39
441.895	2680.2
442.27	2705.28
442.645	2684.49
443.019	2757.94
443.394	2745.73
443.769	2796.35
444.143	2765.39
444.518	2855.56
444.892	2848.1
445.267	2855.33
445.641	2895.11
446.016	2929.46
446.39	2931.04
446.764	2940.76
447.139	2941.66
447.513	3012.84
447.887	3046.52
448.262	3031.6
448.636	3030.25
449.01	3027.08
449.384	3069.11
449.758	3109.57
450.132	3201.09
450.506	3164.25
450.88	3209.22
451.254	3211.26
451.628	3252.16
452.002	3313.18
452.376	3321.31
452.75	3376.68
453.123	3401.31
453.497	3465.26
453.871	3491.7
454.244	3560.17
454.618	3569.44
454.992	3665.48
455.365	3650.12
455.739	3754.07
456.112	3756.78
456.486	3832.26
456.859	3842.43
457.232	3922.65
457.606	3916.78
457.979	3996.1
458.352	4038.81
458.725	4118.13
459.099	4145.7
459.472	4199.03
459.845	4257.33
460.218	4281.06
460.591	4332.36
460.964	4323.32
461.337	4497.1
461.71	4509.53
462.083	4591.33
462.456	4632.91
462.829	4638.34
463.201	4746.81
463.574	4685.57
463.947	4836.75
464.32	4906.13
464.692	4933.25
465.065	5008.95
465.438	5089.63
465.81	5157.87
466.183	5198.1
466.555	5335.95
466.928	5349.73
467.3	5317.42
467.672	5474.93
468.045	5598.54
468.417	5596.05
468.789	5655.03
469.161	5712.89
469.534	5842.6
469.906	5991.75
470.278	6002.6
470.65	6047.57
471.022	6204.17
471.394	6276.94
471.766	6411.85
472.138	6410.27
472.51	6596.25
472.882	6653.43
473.253	6732.52
473.625	6862.23
473.997	6964.83
474.369	7056.81
474.74	7149.23
475.112	7272.39
475.484	7464.25
475.855	7570.24
476.227	7643.46
476.598	7836.45
476.97	7915.99
477.341	8061.3
477.713	8225.59
478.084	8292.71
478.455	8551.68
478.827	8640.95
479.198	8850.88
479.569	8879.36
479.94	9147.82
480.311	9226.92
480.682	9384.88
481.053	9623.97
481.424	9791.88
481.795	9930.4
482.166	10062.6
482.537	10181.7
482.908	10428.24
483.279	10524.74
483.65	10668.91
484.021	10931.51
484.391	11004.95
484.762	11130.37
485.133	11246.75
485.503	11477.48
485.874	11731.26
486.244	11881.54
486.615	12059.39
486.985	12180.06
487.356	12365.82
487.726	12596.77
488.097	12906.14
488.467	12909.08
488.837	13133.03
489.207	13324.66
489.578	13488.5
489.948	13624.09
490.318	13842.16
490.688	13799.68
491.058	14159.44
491.428	14358.31
491.798	14490.51
492.168	14690.5
492.538	14793.1
492.908	15051.85
493.278	15256.36
493.648	15185.86
494.017	15388.34
494.387	15582.23
494.757	15739.97
495.126	15940.87
495.496	16005.27
495.866	16083.69
496.235	16302.66
496.605	16413.62
496.974	16473.96
497.344	16692.94
497.713	16777.45
498.082	16912.37
498.452	17081.63
498.821	17226.48
499.19	17260.38
499.559	17527.72
499.928	17585.79
500.298	17741.04
500.667	17900.59
501.036	17963.86
501.405	18103.52
501.774	18162.28
502.143	18333.35
502.512	18402.27
502.88	18702.83
503.249	18585.99
503.618	18764.29
503.987	18851.75
504.356	19039.32
504.724	19105.75
505.093	19281.57
505.462	19396.37
505.83	19591.39
506.199	19699.86
506.567	19917.71
506.936	19940.54
507.304	20250.36
507.672	20384.59
508.041	20446.51
508.409	20524.47
508.777	20795.88
509.145	20889.66
509.514	21009.21
509.882	21093.27
510.25	21222.76
510.618	21435.41
510.986	21565.13
511.354	21810.99
511.722	22013.02
512.09	22248.72
512.458	22179.35
512.826	22421.83
513.193	22550.41
513.561	22686
513.929	22771.2
514.297	23083.5
514.664	23296.38
515.032	23327.11
515.4	23676.71
515.767	23638.74
516.135	23910.6
516.502	23793.09
516.869	24206.86
517.237	24472.85
517.604	24297.93
517.972	24689.11
518.339	24973.4
518.706	24761.43
519.073	25072.38
519.44	25441.41
519.808	25627.84
520.175	25622.65
520.542	25938.8
520.909	26126.59
521.276	26221.95
521.643	26454.49
522.009	26772.67
522.376	26832.11
522.743	26999.33
523.11	27343.96
523.477	27637.06
523.843	27755.92
524.21	28119.08
524.577	28380.99
524.943	28474.77
525.31	28694.43
525.676	29065.94
526.043	29135.55
526.409	29307.52
526.776	29592.71
527.142	29624.57
527.508	29968.29
527.874	30158.8
528.241	30425.23
528.607	30463.65
528.973	30814.37
529.339	30868.84
529.705	31228.6
530.071	31459.78
530.437	31640.79
530.803	31820
531.169	32059.31
531.535	32002.36
531.901	32130.72
532.267	32286.2
532.632	32593.08
532.998	32577.49
533.364	33028.33
533.73	33096.8
534.095	33355.1
534.461	33469.67
534.826	33622.44
535.192	33688.2
535.557	33987.4
535.923	33928.42
536.288	34139.03
536.653	34358.91
537.019	34393.49
537.384	34486.59
537.749	34639.36
538.114	34825.79
538.479	34919.35
538.845	35098.55
539.21	34945.79
539.575	35296.29
539.94	35377.42
540.305	35575.6
540.67	35456.74
541.034	35699.22
541.399	35794.81
541.764	35887.23
542.129	36052.65
542.494	36244.29
542.858	36349.82
543.223	36333.1
543.587	36654.67
543.952	36554.56
544.316	36753.65
544.681	36742.58
545.045	36983.02
545.41	37110.48
545.774	37261.21
546.138	37296.01
546.503	37575.33
546.867	37563.8
547.231	37888.54
547.595	37982.77
547.959	38184.8
548.324	38175.08
548.688	38284.69
549.052	38502.98
549.416	38481.29
549.779	38591.34
550.143	38813.49
550.507	39106.58
550.871	39050.99
551.235	39050.99
551.599	39312.46
551.962	39476.97
552.326	39460.47
552.689	39562.62
553.053	39578.66
553.417	39739.34
553.78	40100
554.143	39999.22
554.507	40301.13
554.87	40291.19
555.234	40748.35
555.597	40547.45
555.96	40870.83
556.323	41129.36
556.686	41191.28
557.05	41509.01
557.413	41393.53
557.776	41475.34
558.139	41879.62
558.502	41933.18
558.865	42125.94
559.228	42465.59
559.59	42526.61
559.953	42533.84
560.316	43062.41
560.679	43111.45
561.041	43388.73
561.404	43529.29
561.767	43867.36
562.129	43761.38
562.492	44193.68
562.854	44176.96
563.217	44234.13
563.579	44446.33
563.941	44690.17
564.304	44942.14
564.666	45201.79
565.028	45410.83
565.39	45479.3
565.753	45731.04
566.115	45901.66
566.477	46035.89
566.839	46136.91
567.201	46459.16
567.563	46584.58
567.925	46804.91
568.287	46812.6
568.648	46919.49
569.01	47133.04
569.372	47641.73
569.734	47359.48
570.095	47624.33
570.457	47881.72
570.819	47878.56
571.18	47982.51
571.542	48232.45
571.903	48287.81
572.265	48469.05
572.626	48621.36
572.987	48686.45
573.349	48863.16
573.71	49001.69
574.071	49200.56
574.432	49220.67
574.794	49476.71
575.155	49403.72
575.516	49423.83
575.877	49643.48
576.238	49654.33
576.599	49926.41
576.96	49923.25
577.32	49956.92
577.681	50137.26
578.042	50311.94
578.403	50341.32
578.763	50219.51
579.124	50352.84
579.485	50485.49
579.845	50584.7
580.206	50653.85
580.566	50692.27
580.927	50633.29
581.287	50893.17
581.648	50739.27
582.008	50848.65
582.368	50828.54
582.728	50971.81
583.089	50821.98
583.449	50859.95
583.809	51032.37
584.169	51104.46
584.529	51039.6
584.889	51278.69
585.249	51209.32
585.609	51104.46
585.969	51318.02
586.329	51131.13
586.688	51191.92
587.048	51186.27
587.408	51209.54
587.768	51162.54
588.127	51185.14
588.487	51190.79
588.846	51423.55
589.206	51166.38
589.565	51163.44
589.925	51316.43
590.284	51202.31
590.643	51332.7
591.003	51353.72
591.362	51336.77
591.721	51333.83
592.08	51385.81
592.44	51489.99
592.799	51412.48
593.158	51407.05
593.517	51413.61
593.876	51539.03
594.235	51382.19
594.593	51457.9
594.952	51581.74
595.311	51438.92
595.67	51655.63
596.029	51715.07
596.387	51771.11
596.746	51786.93
597.104	51537.44
597.463	51633.26
597.822	51788.51
598.18	51579.93
598.538	51701.51
598.897	51742.18
599.255	51644.56
599.613	52069.86
599.972	51882.07
600.33	51901.05
600.688	51895.63
601.046	51897.43
601.404	52049.75
601.762	51929.52
602.12	52208.39
602.478	52043.87
602.836	52216.75
603.194	52072.12
603.552	52034.15
603.91	52011.33
604.268	52119.8
604.625	52066.24
604.983	52335.84
605.341	52122.51
605.698	52171.55
606.056	52273.47
606.413	52237.76
606.771	52345.11
607.128	52423.97
607.485	52254.04
607.843	52327.93
608.2	52541.26
608.557	52598.21
608.914	52433.92
609.272	52605.66
609.629	52625.55
609.986	52766.11
610.343	52510.75
610.7	52808.37
611.057	52760.01
611.414	52698.54
611.771	52818.31
612.127	52818.77
612.484	52901.25
612.841	53002.04
613.198	52902.15
613.554	52890.4
613.911	53119.55
614.267	53137.18
614.624	53038.65
614.98	53134.92
615.337	53289.04
615.693	53174.69
616.05	53161.36
616.406	53455.59
616.762	53238.19
617.118	53257.17
617.475	53287.91
617.831	53354.12
618.187	53306.66
618.543	53457.85
618.899	53539.2
619.255	53427.56
619.611	53530.84
619.967	53487
620.323	53549.14
620.678	53483.16
621.034	53463.72
621.39	53508.24
621.746	53392.54
622.101	53732.41
622.457	53491.07
622.812	53597.73
623.168	53755.01
623.523	53742.36
623.879	53795.01
624.234	53590.72
624.589	53738.06
624.945	53726.99
625.3	53783.49
625.655	53709.14
626.01	53842.47
626.365	53787.1
626.72	53717.73
627.075	53708.69
627.43	53658.07
627.785	53602.02
628.14	53728.35
628.495	53676.6
628.85	53574.45
629.205	53577.62
629.559	53765.18
629.914	53548.24
630.269	53694.9
630.623	53512.31
630.978	53482.93
631.332	53560.67
631.687	53532.87
632.041	53413.55
632.396	53508.92
632.75	53503.04
633.104	53423.5
633.459	53252.88
633.813	53295.59
634.167	53309.83
634.521	53308.47
634.875	53294.91
635.229	53251.3
635.583	53071.64
635.937	53014.02
636.291	52960.91
636.645	52983.06
636.999	52813.34
637.352	52929.27
637.706	52657.19
638.06	52720.24
638.413	52670.07
638.767	52555.27
639.121	52513.01
639.474	52438.21
639.828	52406.57
640.181	52363.64
640.534	52446.12
640.888	52313.24
641.241	52170.2
641.594	52293.81
641.947	52357.76
642.301	52193.02
642.654	52177.43
643.007	52286.35
643.36	52176.75
643.713	52017.88
644.066	52237.09
644.419	52088.62
644.771	51923.2
645.124	51580.16
645.477	51521.85
645.83	51349.65
646.182	51118.92
646.535	51138.81
646.888	51135.2
647.24	50894.98
647.593	51169.77
647.945	50989.21
648.298	50789.44
648.65	50825.15
649.002	50683
649.355	50739.95
649.707	50713.96
650.059	50857.69
650.411	51251.8
650.763	51342.87
651.115	51571.57
651.467	51435.98
651.819	51338.81
652.171	51294.96
652.523	51276.66
652.875	51259.49
653.227	51080.73
653.578	51374.51
653.93	51144.69
654.282	51083.67
654.633	51011.36
654.985	51080.96
655.337	51032.15
655.688	51095.2
656.039	51159.15
656.391	50854.52
656.742	50858.59
657.094	50877.12
657.445	50970
657.796	50859.95
658.147	50854.52
658.498	50811.59
658.849	50779.95
659.2	50786.73
659.551	50618.82
659.902	50778.82
660.253	50619.5
660.604	50676
660.955	50499.51
661.306	50617.24
661.656	50529.34
662.007	50575.21
662.358	50426.97
662.708	50512.61
663.059	50400.53
663.409	50292.73
663.76	50477.36
664.11	50484.14
664.461	50524.59
664.811	50492.27
665.161	50445.5
665.511	50289.34
665.862	50346.29
666.212	50393.97
666.562	50369.34
666.912	50212.06
667.262	50252.51
667.612	50101.55
667.962	50207.54
668.312	50300.87
668.662	50298.38
669.011	50241.89
669.361	50096.58
669.711	50083.02
670.06	50007.77
670.41	50042.57
670.76	49984.04
671.109	50051.16
671.459	49934.55
671.808	49911.5
672.157	50090.93
672.507	49733.42
672.856	49825.85
673.205	49956.47
673.554	49977.94
673.904	49925.06
674.253	50128.89
674.602	49881.22
674.951	49379.53
675.3	49255.47
675.649	49874.44
675.998	49737.49
676.346	49777.94
676.695	49828.34
677.044	49511.06
677.393	49694.78
677.741	49736.14
678.09	49543.37
678.438	49602.81
678.787	49628.12
679.135	49553.99
679.484	49242.36
679.832	49436.48
680.181	49180.22
680.529	49401.91
680.877	49173.21
681.225	49113.78
681.573	49360.33
681.922	49000.11
682.27	48927.57
682.618	48898.19
682.966	48914.69
683.314	48995.36
683.661	48707.91
684.009	48591.31
684.357	48552.89
684.705	48389.28
685.053	48521.7
685.4	48355.83
685.748	48193.8
686.095	48216.85
686.443	48057.54
686.79	48032
687.138	48002.17
687.485	48010.08
687.832	47829.29
688.18	47794.04
688.527	47528.06
688.874	47684.21
689.221	47606.02
689.568	47492.58
689.915	47391.34
690.262	47369.42
690.609	47190.21
690.956	47152.7
691.303	47147.28
691.65	46883.56
691.997	46800.62
692.344	46610.34
692.69	46562.43
693.037	46539.84
693.383	46197.92
693.73	46406.28
694.077	46130.35
694.423	46059.4
694.769	45997.03
695.116	45768.78
695.462	45776.24
695.808	45677.71
696.155	45808.78
696.501	45276.59
696.847	45405.4
697.193	45057.16
697.539	45293.77
697.885	45095.13
698.231	44915.92
698.577	44743.27
698.923	44677.96
699.269	44574.92
699.614	44477.06
699.96	44255.6
700.306	44243.62
700.651	44147.13
700.997	44008.15
701.342	43896.52
701.688	43885.89
702.033	43474.38
702.379	43532.23
702.724	43415.85
703.069	43648.39
703.415	43127.72
703.76	43078.91
704.105	43203.65
704.45	43047.27
704.795	42857.67
705.14	42659.26
705.485	42708.75
705.83	42546.95
706.175	42533.16
706.52	42379.49
706.865	42199.38
707.209	42270.57
707.554	42171.36
707.899	42202.32
708.243	42031.48
708.588	41797.14
708.932	41657.25
709.277	41540.65
709.621	41616.58
709.966	41338.16
710.31	41572.28
710.654	41081
710.998	41179.07
711.342	41145.85
711.687	40901.57
712.031	40764.17
712.375	40684.4
712.719	40847.56
713.063	40829.7
713.407	40731.4
713.75	40488.92
714.094	40519.88
714.438	40264.75
714.782	40315.37
715.125	40023.17
715.469	40276.72
715.812	39987.24
716.156	39815.94
716.499	39790.18
716.843	39689.85
717.186	39580.24
717.53	39714.7
717.873	39744.99
718.216	39518.1
718.559	39347.71
718.902	39247.15
719.246	39212.57
719.589	39141.16
719.932	39054.83
720.275	39011.67
720.617	38978.45
720.96	38916.08
721.303	38773.94
721.646	38847.61
721.989	38658.23
722.331	38668.86
722.674	38474.06
723.016	38624.34
723.359	38376.89
723.701	38556.99
724.044	38084.69
724.386	37972.38
724.729	38233.39
725.071	38029.32
725.413	37975.09
725.755	37868.2
726.097	37605.83
726.439	37616.91
726.782	37662.78
727.124	37859.39
727.465	37518.38
727.807	37530.58
728.149	37402
728.491	37366.74
728.833	37332.39
729.175	37169.46
729.516	37085.85
729.858	37145.51
730.199	37125.17
730.541	36858.73
730.882	36903.03
731.224	37107.99
731.565	36752.07
731.906	36622.36
732.248	36820.77
732.589	36393.44
732.93	36279.31
733.271	36308.24
733.612	36370.16
733.953	36318.41
734.294	36265.98
734.635	36137.4
734.976	36219.2
735.317	35894.47
735.658	35932.66
735.999	35894.01
736.339	35863.73
736.68	35873.68
737.021	35842.49
737.361	35703.28
737.702	35746.45
738.042	35582.61
738.383	35542.84
738.723	35602.72
739.063	35331.99
739.404	35501.03
739.744	35433.46
740.084	35211.55
740.424	35266.46
740.764	35135.84
741.104	35257.65
741.444	35018.56
741.784	34999.12
742.124	34951.44
742.464	34968.39
742.804	34888.16
743.143	34667.15
743.483	34716.19
743.823	34508.06
744.162	34464.45
744.502	34485.46
744.841	34366.14
745.181	34522.3
745.52	34281.17
745.86	34292.93
746.199	34221.06
746.538	34139.94
746.877	34095.64
747.216	34084.8
747.556	33885.93
747.895	33924.12
748.234	33796.89
748.573	33674.64
748.911	33678.93
749.25	33623.79
749.589	33397.81
749.928	33544.92
750.267	33489.11
750.605	33420.63
750.944	33092.51
751.283	33160.75
751.621	33217.93
751.96	32975.22
752.298	32956.01
752.636	32984.94
752.975	32910.82
753.313	32826.3
753.651	32864.04
753.989	32752.4
754.327	32704.95
754.666	32596.02
755.004	32666.3
755.342	32553.54
755.679	32419.08
756.017	32263.83
756.355	32373.65
756.693	32057.5
757.031	32280.1
757.368	31896.83
757.706	31955.81
758.044	31770.73
758.381	31860
758.719	31731.86
759.056	31643.28
759.394	31701.58
759.731	31480.34
760.068	31170.52
760.405	31203.06
760.743	31043.75
761.08	31031.32
761.417	30817.09
761.754	30760.14
762.091	30693.02
762.428	30499.81
762.765	30358.11
763.102	30474.04
763.438	30317.66
763.775	30121.28
764.112	30075.18
764.449	30184.56
764.785	30073.38
765.122	29820.28
765.458	29789.09
765.795	29775.76
766.131	29704.8
766.467	29614.63
766.804	29394.75
767.14	29317.01
767.476	29322.21
767.812	29190.69
768.148	29343.9
768.485	29155.43
768.821	28888.77
769.157	28793.64
769.492	28779.62
769.828	28809.23
770.164	28362.46
770.5	28452.4
770.836	28322.46
771.171	28121.34
771.507	28128.34
771.842	27816.03
772.178	27742.14
772.513	27711.86
772.849	27571.75
773.184	27540.34
773.519	27444.52
773.855	27342.15
774.19	27179.89
774.525	27219.21
774.86	27036.62
775.195	27035.94
775.53	26875.95
775.865	26640.25
776.2	26506.01
776.535	26345.79
776.87	26427.14
777.205	26214.95
777.539	26116.42
777.874	26195.06
778.209	25934.73
778.543	25849.53
778.878	25664.45
779.212	25716.65
779.547	25534.29
779.881	25553.04
780.215	25323.9
780.55	25453.61
780.884	25246.61
781.218	25101.76
781.552	25106.95
781.886	24913.96
782.22	24795.77
782.554	24700.64
782.888	24534.31
783.222	24442.34
783.556	24306.07
783.889	24312.62
784.223	24084.15
784.557	24091.61
784.89	24118.5
785.224	24024.5
785.557	23841.68
785.891	23850.04
786.224	23771.62
786.558	23683.71
786.891	23518.29
787.224	23467.22
787.557	23368.02
787.891	23382.7
788.224	23287.57
788.557	23285.98
788.89	23260.9
789.223	23152.88
789.556	22921.47
789.888	22957.63
790.221	22814.81
790.554	22694.13
790.887	22690.97
791.219	22575.95
791.552	22492.78
791.884	22470.19
792.217	22402.39
792.549	22234.49
792.882	22013.93
793.214	22091.21
793.546	22100.48
793.879	21928.73
794.211	21773.03
794.543	21825.23
794.875	21747.95
795.207	21722.41
795.539	21556.76
795.871	21564.9
796.203	21384.11
796.535	21197.68
796.867	21201.97
797.198	21130.79
797.53	21059.38
797.862	20924.69
798.193	20907.06
798.525	20858.03
798.856	20866.61
799.188	20605.83
799.519	20609.22
799.85	20484.7
800.182	20540.29
800.513	20546.17
800.844	20200.42
801.175	20386.17
801.506	20284.25
801.837	20246.29
802.168	20198.38
802.499	19966.52
802.83	19960.2
803.161	19861.67
803.491	19971.72
803.822	19912.51
804.153	19744.61
804.483	19670.71
804.814	19606.31
805.145	19490.38
805.475	19508.23
805.805	19413.54
806.136	19454.22
806.466	19449.25
806.796	19323.6
807.126	19173.78
807.457	19107.34
807.787	19057.39
808.117	19122.25
808.447	19023.72
808.777	18970.62
809.107	18916.83
809.436	18817.85
809.766	18815.82
810.096	18780.11
810.426	18649.95
810.755	18648.82
811.085	18672.32
811.414	18546.9
811.744	18396.85
812.073	18360.01
812.403	18384.42
812.732	18272.78
813.061	18277.75
813.39	18211.99
813.719	18081.6
814.049	18223.74
814.378	18054.93
814.707	18082.05
815.036	18025.33
815.365	17872.57
815.693	17703.53
816.022	17760.48
816.351	17744.89
816.68	17631.44
817.008	17603.42
817.337	17452.46
817.665	17540.15
817.994	17542.41
818.322	17449.75
818.651	17317.55
818.979	17324.56
819.307	17488.85
819.636	17255.41
819.964	17139.25
820.292	17156.2
820.62	17268.06
820.948	17133.15
821.276	17158.24
821.604	17163.66
821.932	17138.57
822.259	17112.81
822.587	17135.64
822.915	17104.9
823.243	17191
823.57	17154.17
823.898	17110.78
824.225	17022.19
824.553	16946.49
824.88	17014.28
825.207	16978.58
825.535	16978.58
825.862	17082.31
826.189	16970.9
826.516	17066.49
826.843	17057.45
827.17	17075.75
827.497	17136.31
827.824	17029.2
828.151	16971.12
828.478	16893.38
828.805	17092.02
829.131	16939.71
829.458	16990.56
829.785	16825.36
830.111	16934.06
830.438	17058.58
830.764	16923.89
831.09	16956.43
831.417	16759.6
831.743	16879.82
832.069	16939.03
832.395	16704.01
832.722	16758.47
833.048	16826.49
833.374	16823.1
833.7	16770
834.026	16855.64
834.351	16819.49
834.677	16771.8
835.003	16752.37
835.329	16711.24
835.654	16799.37
835.98	16745.82
836.306	16808.41
836.631	16541.53
836.956	16644.12
837.282	16630.34
837.607	16551.25
837.932	16382.44
838.258	16486.61
838.583	16434.64
838.908	16370.46
839.233	16388.09
839.558	16394.19
839.883	16290.46
840.208	16300.63
840.533	16255.66
840.858	16251.14
841.182	16235.77
841.507	16270.35
841.832	16132.95
842.156	16196.9
842.481	16193.74
842.805	16147.41
843.13	16061.31
843.454	16080.52
843.778	16034.2
844.103	16011.82
844.427	15945.84
844.751	15939.74
845.075	15934.99
845.399	15869.46
845.723	15709.46
846.047	15803.24
846.371	15610.48
846.695	15646.41
847.019	15497.04
847.343	15404.61
847.666	15349.47
847.99	15310.37
848.313	15305.18
848.637	15143.37
848.96	15174.11
849.284	15043.71
849.607	15026.31
849.931	14975.02
850.254	14902.25
850.577	14804.85
850.9	14628.58
851.223	14698.19
851.546	14626.55
851.869	14566.44
852.192	14613.44
852.515	14500.9
852.838	14432.43
853.161	14474.46
853.483	14335.03
853.806	14363.28
854.129	14297.75
854.451	14232.21
854.774	14167.81
855.096	14186.34
855.419	14024.08
855.741	14008.71
856.063	14004.87
856.385	13985.44
856.708	13936.85
857.03	13912.22
857.352	13869.06
857.674	13864.99
857.996	13806.46
858.318	13693.02
858.64	13758.55
858.961	13726.91
859.283	13626.58
859.605	13679.68
859.926	13612.57
860.248	13625.67
860.57	13542.74
860.891	13506.13
861.212	13500.7
861.534	13507.26
861.855	13476.98
862.176	13458.9
862.498	13396.07
862.819	13372.35
863.14	13317.88
863.461	13375.74
863.782	13314.04
864.103	13399.01
864.424	13306.13
864.745	13340.71
865.065	13222.29
865.386	13111.79
865.707	13136.19
866.027	13119.25
866.348	13121.05
866.668	13115.86
866.989	13135.52
867.309	13065.01
867.63	13060.49
867.95	13151.56
868.27	12921.51
868.59	12992.47
868.91	12972.13
869.23	12879.93
869.55	12955.18
869.87	12917.89
870.19	12825.02
870.51	12841.29
870.83	12910.89
871.15	12701.4
871.469	12806.94
871.789	12835.86
872.109	12738.69
872.428	12779.37
872.748	12781.4
873.067	12739.59
873.386	12879.48
873.706	12757.22
874.025	12738.24
874.344	12664.12
874.663	12675.64
874.982	12617.34
875.301	12611.01
875.62	12659.82
875.939	12569.66
876.258	12651.46
876.577	12544.57
876.896	12531.24
877.214	12381.86
877.533	12542.54
877.852	12597
878.17	12488.98
878.489	12517.68
878.807	12413.28
879.125	12413.5
879.444	12384.35
879.762	12346.61
880.08	12325.59
880.398	12346.16
880.716	12307.74
881.034	12345.03
881.352	12317.68
881.67	12274.75
881.988	12280.62
882.306	12291.47
882.624	12271.36
882.941	12156.33
883.259	12087.63
883.577	12078.37
883.894	12061.65
884.212	12125.15
884.529	12056
884.846	12080.4
885.164	11982.1
885.481	11925.15
885.798	12007.64
886.115	11895.32
886.432	11897.58
886.75	11929.9
887.067	11884.7
887.383	11906.4
887.7	11903.01
888.017	11839.73
888.334	11825.72
888.651	11828.43
888.967	11776.23
889.284	11688.77
889.6	11730.58
889.917	11581.21
890.233	11615.1
890.55	11568.55
890.866	11501.43
891.182	11524.71
891.498	11496.46
891.815	11389.8
892.131	11409.69
892.447	11441.78
892.763	11329.46
893.079	11420.76
893.395	11299.63
893.71	11271.16
894.026	11254.21
894.342	11230.71
894.657	11168.79
894.973	11120.88
895.289	11156.13
895.604	11137.83
895.92	11094.67
896.235	10922.69
896.55	11092.41
896.865	10964.05
897.181	10935.35
897.496	10921.56
897.811	10928.34
898.126	10867.1
898.441	10799.53
898.756	10824.62
899.071	10780.1
899.386	10778.52
899.7	10725.41
900.015	10607.9
900.33	10520.22
900.644	10557.96
900.959	10618.29
901.273	10517.05
901.588	10464.63
901.902	10341.47
902.216	10359.54
902.531	10362.03
902.845	10348.24
903.159	10275.7
903.473	10277.96
903.787	10207.68
904.101	10157.52
904.415	10173.33
904.729	10185.09
905.042	10090.62
905.356	10061.7
905.67	10081.81
905.984	10004.53
906.297	10030.29
906.611	9975.6
906.924	9947.8
907.237	9912.78
907.551	9836.39
907.864	9887.69
908.177	9876.84
908.491	9762.27
908.804	9724.76
909.117	9737.41
909.43	9678.88
909.743	9618.77
910.056	9563.41
910.368	9573.12
910.681	9493.13
910.994	9463.07
911.307	9450.87
911.619	9353.47
911.932	9348.95
912.244	9311.44
912.557	9340.14
912.869	9237.54
913.181	9202.74
913.494	9166.81
913.806	9087.49
914.118	9142.85
914.43	9050.2
914.742	9055.17
915.054	8977.66
915.366	8978.34
915.678	8982.63
915.99	8835.29
916.302	8790.55
916.613	8784.22
916.925	8853.14
917.236	8739.7
917.548	8695.86
917.859	8751.9
918.171	8655.41
918.482	8576.09
918.794	8541.96
919.105	8518.91
919.416	8489.08
919.727	8516.65
920.038	8404.57
920.349	8368.41
920.66	8304
920.971	8365.7
921.282	8315.76
921.593	8302.42
921.903	8275.76
922.214	8250.67
922.525	8210.67
922.835	8197.34
923.146	8121.64
923.456	8059.04
923.767	8023.11
924.077	8043.9
924.387	7979.27
924.697	7944.69
925.008	7917.8
925.318	7947.4
925.628	7920.06
925.938	7816.79
926.248	7781.76
926.558	7748.99
926.867	7689.33
927.177	7700.63
927.487	7642.55
927.796	7642.78
928.106	7628.99
928.416	7550.35
928.725	7530.24
929.034	7494.53
929.344	7477.81
929.653	7377.25
929.962	7403.01
930.271	7374.99
930.581	7351.94
930.89	7274.88
931.199	7262.9
931.508	7284.6
931.817	7254.99
932.125	7200.98
932.434	7216.35
932.743	7108.33
933.051	7077.14
933.36	7098.84
933.669	7058.84
933.977	6992.17
934.286	7013.42
934.594	7000.54
934.902	6958.28
935.21	6897.49
935.519	6879.86
935.827	6913.08
936.135	6837.6
936.443	6779.75
936.751	6744.95
937.059	6787.89
937.367	6714.44
937.674	6720.09
937.982	6720.32
938.29	6681.9
938.597	6702.69
938.905	6552.64
939.213	6517.39
939.52	6529.36
939.827	6518.29
940.135	6495.69
940.442	6478.29
940.749	6492.08
941.056	6420.21
941.363	6411.63
941.67	6374.11
941.977	6340.44
942.284	6323.04
942.591	6257.05
942.898	6224.29
943.205	6242.36
943.511	6243.49
943.818	6172.54
944.125	6211.63
944.431	6141.8
944.738	6120.33
945.044	6057.74
945.35	6043.95
945.657	5992.65
945.963	6047.34
946.269	6013.67
946.575	5959.66
946.881	5888.25
947.187	5926.67
947.493	5884.63
947.799	5843.5
948.105	5805.77
948.41	5809.61
948.716	5857.29
949.022	5765.77
949.327	5747.69
949.633	5669.05
949.938	5668.37
950.244	5688.03
950.549	5648.93
950.854	5611.65
951.16	5573.68
951.465	5601.48
951.77	5519.67
952.075	5495.72
952.38	5490.75
952.685	5513.57
952.99	5465.66
953.294	5401.93
953.599	5430.41
953.904	5365.1
954.209	5355.38
954.513	5348.6
954.818	5306.8
955.122	5268.15
955.426	5284.65
955.731	5252.11
956.035	5257.31
956.339	5198.32
956.643	5196.06
956.948	5135.73
957.252	5119.23
957.556	5128.27
957.86	5109.96
958.163	5083.75
958.467	5031.1
958.771	5037.42
959.075	5057.08
959.378	5003.53
959.682	4999.91
959.985	4945.22
960.289	4945.45
960.592	4889.18
960.896	4920.14
961.199	4880.82
961.502	4869.07
961.805	4832.01
962.108	4816.86
962.411	4820.25
962.714	4799.92
963.017	4794.49
963.32	4759.24
963.623	4745.23
963.926	4716.75
964.228	4672.46
964.531	4690.99
964.833	4623.42
965.136	4631.78
965.438	4632.01
965.741	4542.3
966.043	4547.72
966.345	4522.41
966.648	4536.19
966.95	4521.73
967.252	4466.82
967.554	4502.3
967.856	4479.47
968.158	4432.69
968.46	4414.39
968.761	4359.93
969.063	4406.71
969.365	4360.15
969.666	4327.39
969.968	4309.08
970.269	4309.99
970.571	4277.9
970.872	4229.08
971.174	4220.95
971.475	4210.78
971.776	4174.85
972.077	4213.04
972.378	4120.84
972.679	4163.1
972.98	4093.27
973.281	4142.98
973.582	4066.6
973.883	4084.91
974.183	4067.73
974.484	4041.29
974.785	4045.81
975.085	4044.46
975.386	4045.36
975.686	4014.17
975.986	3971.46
976.287	3996.77
976.587	3942.09
976.887	3918.58
977.187	3947.74
977.487	3881.52
977.787	3880.17
978.087	3874.06
978.387	3848.53
978.687	3821.64
978.987	3799.26
979.286	3746.38
979.586	3754.97
979.885	3732.37
980.185	3688.76
980.484	3723.11
980.784	3702.32
981.083	3675.43
981.382	3649.44
981.682	3647.18
981.981	3604.92
982.28	3583.68
982.579	3566.73
982.878	3598.82
983.177	3580.29
983.475	3616.67
983.774	3516.11
984.073	3485.15
984.372	3460.74
984.67	3511.36
984.969	3492.83
985.267	3480.4
985.566	3465.94
985.864	3413.74
986.162	3418.94
986.461	3434.53
986.759	3380.52
987.057	3386.85
987.355	3380.52
987.653	3332.61
987.951	3288.54
988.249	3346.85
988.547	3301.2
988.844	3269.33
989.142	3286.74
989.44	3270.69
989.737	3240.41
990.035	3213.74
990.332	3233.4
990.63	3196.12
990.927	3192.73
991.224	3181.65
991.521	3121.32
991.819	3104.82
992.116	3149.56
992.413	3144.37
992.71	3119.06
993.006	3077.7
993.303	3102.11
993.6	3063.92
993.897	3058.72
994.193	3037.25
994.49	3023.47
994.787	2989.57
995.083	3009.91
995.379	2969.23
995.676	2952.28
995.972	2953.41
996.268	2922.45
996.565	2929.91
996.861	2881.55
997.157	2898.5
997.453	2835.9
997.749	2864.83
998.044	2838.16
998.34	2824.6
998.636	2828.44
998.932	2801.78
999.227	2804.71
999.523	2814.88
999.818	2788.44
1000.114	2801.32
1000.409	2720.42
1000.704	2722
1001	2705.28
1001.295	2702.34
1001.59	2675.9
1001.885	2655.34
1002.18	2637.94
1002.475	2652.18
1002.77	2609.92
1003.065	2572.4
1003.359	2583.03
1003.654	2549.13
1003.949	2532.86
1004.243	2571.27
1004.538	2538.05
1004.832	2515.68
1005.127	2494.67
1005.421	2471.16
1005.715	2463.25
1006.009	2479.07
1006.304	2454.44
1006.598	2421
1006.892	2453.76
1007.186	2410.37
1007.48	2372.18
1007.773	2395.91
1008.067	2405.85
1008.361	2322.47
1008.655	2364.05
1008.948	2340.09
1009.242	2336.93
1009.535	2286.99
1009.829	2310.94
1010.122	2248.8
1010.415	2265.52
1010.708	2249.47
1011.001	2235.69
1011.295	2228.68
1011.588	2248.34
1011.881	2182.58
1012.173	2159.53
1012.466	2163.38
1012.759	2167.67
1013.052	2118.18
1013.344	2112.98
1013.637	2110.95
1013.93	2108.01
1014.222	2089.93
1014.514	2088.58
1014.807	2064.17
1015.099	2030.05
1015.391	2024.17
1015.683	2060.1
1015.976	2020.55
1016.268	1994.79
1016.56	2003.15
1016.851	1975.36
1017.143	1998.63
1017.435	1960.22
1017.727	1927.45
1018.018	1932.42
1018.31	1928.81
1018.602	1896.94
1018.893	1884.29
1019.185	1867.11
1019.476	1897.17
1019.767	1874.57
1020.058	1812.65
1020.35	1793.67
1020.641	1807
1020.932	1778.75
1021.223	1811.07
1021.514	1776.49
1021.804	1747.12
1022.095	1744.18
1022.386	1746.44
1022.677	1745.08
1022.967	1716.16
1023.258	1690.85
1023.548	1709.6
1023.839	1705.31
1024.129	1673.67
1024.419	1679.77
1024.709	1632.77
1025	1621.02
1025.29	1644.52
1025.58	1615.59
1025.87	1607.91
1026.16	1566.33
1026.449	1595.71
1026.739	1572.43
1027.029	1563.62
1027.319	1526.78
1027.608	1573.56
1027.898	1521.58
1028.187	1524.97
1028.477	1525.88
1028.766	1486.33
1029.055	1471.42
1029.344	1494.69
1029.634	1503.28
1029.923	1466.44
1030.212	1440
1030.501	1444.52
1030.79	1399.78
1031.078	1453.34
1031.367	1413.11
1031.656	1398.88
1031.945	1400.23
1032.233	1399.33
1032.522	1403.4
1032.81	1365.43
1033.099	1363.85
1033.387	1346.45
1033.675	1344.41
1033.963	1312.32
1034.251	1348.26
1034.54	1293.57
1034.828	1314.13
1035.116	1292.21
1035.403	1282.49
1035.691	1263.29
1035.979	1285.66
1036.267	1281.36
1036.554	1237.98
1036.842	1219.45
1037.129	1237.3
1037.417	1207.92
1037.704	1216.06
1037.992	1211.31
1038.279	1178.54
1038.566	1171.31
1038.853	1171.31
1039.14	1171.31
