Data from aluminium_surface_pro_back_FLMS001491_00064.txt Node
Date: Wed Feb 08 15:34:23 GMT 2017
User: dcchb
Spectrometer: FLMS00149
Trigger mode: 0
Integration Time (sec): 2.000000E-2
Scans to average: 10
Electric dark correction enabled: true
Nonlinearity correction enabled: false
Boxcar width: 0
XAxis mode: Wavelengths
Number of Pixels in Spectrum: 2048
>>>>>Begin Spectral Data<<<<<
341.393	-24.8
341.776	-24.8
342.16	-24.8
342.543	-58.93
342.927	-72.26
343.31	-62.77
343.693	-65.03
344.077	-72.26
344.46	-52.37
344.843	-65.25
345.226	-41.3
345.61	-31.36
345.993	-3.33
346.376	-5.37
346.759	5.25
347.142	26.95
347.525	45.93
347.908	65.37
348.291	67.85
348.674	82.77
349.057	104.91
349.44	121.64
349.823	141.07
350.206	156.21
350.588	215.64
350.971	226.49
351.354	254.74
351.737	255.42
352.119	287.05
352.502	288.64
352.884	308.52
353.267	285.25
353.65	321.4
354.032	321.86
354.414	316.66
354.797	344.91
355.179	341.06
355.562	345.13
355.944	347.62
356.326	358.69
356.709	347.17
357.091	353.95
357.473	399.59
357.855	391.68
358.238	363.66
358.62	377.9
359.002	372.7
359.384	362.76
359.766	389.88
360.148	366.83
360.53	392.59
360.912	369.54
361.294	362.08
361.676	385.36
362.057	373.83
362.439	381.52
362.821	358.01
363.203	363.66
363.584	345.81
363.966	363.21
364.348	362.76
364.729	377.67
365.111	371.57
365.493	375.87
365.874	370.67
366.256	362.98
366.637	354.4
367.019	357.34
367.4	358.24
367.781	379.93
368.163	350.33
368.544	348.75
368.925	384.45
369.306	390.78
369.688	367.5
370.069	373.15
370.45	340.39
370.831	368.63
371.212	377.9
371.593	362.53
371.974	381.29
372.355	373.38
372.736	377.67
373.117	398.69
373.498	402.76
373.879	396.2
374.26	389.2
374.641	394.85
375.021	366.6
375.402	390.55
375.783	390.1
376.163	424
376.544	426.71
376.925	415.19
377.305	421.06
377.686	419.03
378.066	424.45
378.447	454.96
378.827	415.86
379.208	432.14
379.588	437.56
379.968	421.97
380.349	436.88
380.729	443.66
381.109	443.43
381.489	445.69
381.87	440.5
382.25	449.54
382.63	451.8
383.01	449.76
383.39	456.99
383.77	477.56
384.15	448.41
384.53	479.82
384.91	471.68
385.29	483.66
385.67	518.01
386.049	501.06
386.429	510.33
386.809	493.38
387.189	513.26
387.568	520.49
387.948	513.04
388.328	534.28
388.707	525.69
389.087	514.39
389.466	522.98
389.846	536.99
390.225	557.1
390.605	562.75
390.984	557.33
391.363	597.55
391.743	578.12
392.122	586.03
392.501	603.66
392.881	587.16
393.26	610.89
393.639	608.18
394.018	619.25
394.397	619.02
394.776	622.19
395.155	644.11
395.534	629.87
395.913	637.78
396.292	645.46
396.671	677.1
397.05	672.13
397.429	659.25
397.808	678.23
398.186	713.03
398.565	669.42
398.944	707.61
399.323	719.36
399.701	725.46
400.08	714.39
400.458	728.17
400.837	725.46
401.215	761.39
401.594	729.3
401.972	774.5
402.351	756.87
402.729	777.66
403.107	809.3
403.486	802.52
403.864	804.78
404.242	811.33
404.62	826.02
404.999	837.55
405.377	847.27
405.755	850.2
406.133	862.41
406.511	878.68
406.889	890.88
407.267	906.02
407.645	914.61
408.023	923.2
408.401	920.03
408.779	952.8
409.156	979.24
409.534	970.2
409.912	987.6
410.29	998
410.667	1016.75
411.045	1047.03
411.422	1048.84
411.8	1052.91
412.178	1082.74
412.555	1079.35
412.933	1100.37
413.31	1132.68
413.687	1145.34
414.065	1153.02
414.442	1184.88
414.819	1159.8
415.197	1184.88
415.574	1208.61
415.951	1210.42
416.328	1194.6
416.705	1219.69
417.082	1232.11
417.46	1239.12
417.837	1259.91
418.214	1302.85
418.591	1293.13
418.967	1291.55
419.344	1350.08
419.721	1340.59
420.098	1333.58
420.475	1357.08
420.852	1362.73
421.228	1389.62
421.605	1402.51
421.982	1430.75
422.358	1441.37
422.735	1489.73
423.111	1466.46
423.488	1479.79
423.864	1479.34
424.241	1551.43
424.617	1549.85
424.994	1560.24
425.37	1512.56
425.746	1566.57
426.123	1605.66
426.499	1604.53
426.875	1665.1
427.251	1690.18
427.627	1697.64
428.003	1726.79
428.379	1715.49
428.756	1732.89
429.132	1769.28
429.507	1809.95
429.883	1799.78
430.259	1827.81
430.635	1879.33
431.011	1901.25
431.387	1951.42
431.763	1975.37
432.138	1977.18
432.514	1988.03
432.89	2032.77
433.265	2048.59
433.641	2090.62
434.016	2082.49
434.392	2125.65
434.767	2140.11
435.143	2170.62
435.518	2179.66
435.894	2217.63
436.269	2242.71
436.644	2284.97
437.02	2308.92
437.395	2312.99
437.77	2343.72
438.145	2384.85
438.52	2409.48
438.895	2460.56
439.271	2438.86
439.646	2499.88
440.021	2498.97
440.395	2512.31
440.77	2545.3
441.145	2529.03
441.52	2592.76
441.895	2601.34
442.27	2637.95
442.645	2648.12
443.019	2705.97
443.394	2679.99
443.769	2726.31
444.143	2718.63
444.518	2757.5
444.892	2728.8
445.267	2794.79
445.641	2796.82
446.016	2846.76
446.39	2891.05
446.764	2893.09
447.139	2894.9
447.513	2915.23
447.887	2912.75
448.262	2939.87
448.636	2960.88
449.01	3007.89
449.384	3029.58
449.758	3047.89
450.132	3079.07
450.506	3150.93
450.88	3123.14
451.254	3133.53
451.628	3221.89
452.002	3271.61
452.376	3249.01
452.75	3299.4
453.123	3326.07
453.497	3382.11
453.871	3368.78
454.244	3458.72
454.618	3511.6
454.992	3546.4
455.365	3551.6
455.739	3640.64
456.112	3660.98
456.486	3726.06
456.859	3781.88
457.232	3818.71
457.606	3819.62
457.979	3902.33
458.352	3968.31
458.725	4002.21
459.099	4050.57
459.472	4119.72
459.845	4150.68
460.218	4143.22
460.591	4273.84
460.964	4257.57
461.337	4334.86
461.71	4388.64
462.083	4483.55
462.456	4513.38
462.829	4533.27
463.201	4616.66
463.574	4589.77
463.947	4732.59
464.32	4753.83
464.692	4797.44
465.065	4866.82
465.438	4964.67
465.81	5003.09
466.183	5071.11
466.555	5187.49
466.928	5227.26
467.3	5198.34
467.672	5309.07
468.045	5415.96
468.417	5422.96
468.789	5529.18
469.161	5551.1
469.534	5662.96
469.906	5764.65
470.278	5776.85
470.65	5893.91
471.022	6034.02
471.394	6098.88
471.766	6145.21
472.138	6230.18
472.51	6356.05
472.882	6507.46
473.253	6582.26
473.625	6660.67
473.997	6862.47
474.369	6854.79
474.74	6925.3
475.112	7063.15
475.484	7152.41
475.855	7307.21
476.227	7312.86
476.598	7605.96
476.97	7638.05
477.341	7812.96
477.713	7946.29
478.084	7994.65
478.455	8270.12
478.827	8345.37
479.198	8541.98
479.569	8525.48
479.94	8915.75
480.311	8901.74
480.682	9141.74
481.053	9296.54
481.424	9480.26
481.795	9517.77
482.166	9717.77
482.537	9822.85
482.908	10029.62
483.279	10096.29
483.65	10292.67
484.021	10572.66
484.391	10687.23
484.762	10844.52
485.133	10867.79
485.503	11025.76
485.874	11256.03
486.244	11445.86
486.615	11599.75
486.985	11722.46
487.356	11989.12
487.726	12051.49
488.097	12419.84
488.467	12418.49
488.837	12645.6
489.207	12797.91
489.578	12956.78
489.948	13055.31
490.318	13372.13
490.688	13423.21
491.058	13574.39
491.428	13799.02
491.798	13953.14
492.168	14222.96
492.538	14273.13
492.908	14398.1
493.278	14674.25
493.648	14660.69
494.017	14930.74
494.387	15054.8
494.757	15182.71
495.126	15274.01
495.496	15377.51
495.866	15570.27
496.235	15708.8
496.605	15840.32
496.974	15911.5
497.344	16052.97
497.713	16172.51
498.082	16291.61
498.452	16530.24
498.821	16634.87
499.19	16639.62
499.559	16841.65
499.928	17028.31
500.298	17127.97
500.667	17299.71
501.036	17202.32
501.405	17458.58
501.774	17482.08
502.143	17705.35
502.512	17850.66
502.88	17959.13
503.249	18029.86
503.618	18091.11
503.987	18094.95
504.356	18387.6
504.724	18438.22
505.093	18492
505.462	18615.61
505.83	18784.87
506.199	19007.24
506.567	19198.42
506.936	19244.97
507.304	19515.7
507.672	19484.52
508.041	19643.38
508.409	19872.98
508.777	19993.66
509.145	20173.76
509.514	20239.98
509.882	20394.55
510.25	20411.05
510.618	20650.81
510.986	20764.26
511.354	21025.27
511.722	21231.81
512.09	21396.56
512.458	21416.89
512.826	21597.45
513.193	21788.86
513.561	21860.72
513.929	22034.51
514.297	22259.13
514.664	22508.84
515.032	22511.33
515.4	22732.34
515.767	22794.26
516.135	23050.75
516.502	22941.83
516.869	23459.33
517.237	23525.77
517.604	23451.42
517.972	23854.57
518.339	24048.01
518.706	23947.68
519.073	24163.26
519.44	24415.01
519.808	24722.57
520.175	24775.22
520.542	25128.44
520.909	25192.39
521.276	25324.81
521.643	25529.55
522.009	25684.13
522.376	25863.78
522.743	26104
523.11	26404.56
523.477	26644.1
523.843	26825.57
524.21	27150.53
524.577	27278.89
524.943	27477.3
525.31	27509.62
525.676	27860.11
526.043	27956.38
526.409	28063.05
526.776	28522.47
527.142	28708.23
527.508	28629.59
527.874	28992.74
528.241	29208.1
528.607	29278.38
528.973	29582.1
529.339	29604.02
529.705	29925.6
530.071	30172.6
530.437	30449.88
530.803	30445.58
531.169	30742.98
531.535	30810.55
531.901	31056.42
532.267	31130.09
532.632	31354.26
532.998	31332.34
533.364	31654.82
533.73	31795.6
534.095	31846.68
534.461	32027.24
534.826	32235.14
535.192	32387.45
535.557	32664.96
535.923	32640.1
536.288	32659.31
536.653	32953.77
537.019	33011.84
537.384	33169.13
537.749	33263.59
538.114	33308.56
538.479	33477.14
538.845	33629
539.21	33679.4
539.575	33872.84
539.94	34002.78
540.305	34293.39
540.67	34076.22
541.034	34386.05
541.399	34439.15
541.764	34664
542.129	34629.43
542.494	34853.6
542.858	34906.26
543.223	34993.49
543.587	35258.11
543.952	35281.61
544.316	35342.86
544.681	35369.3
545.045	35665.11
545.41	35882.28
545.774	35844.99
546.138	35870.3
546.503	36004.08
546.867	36094.02
547.231	36345.77
547.595	36628.25
547.959	36679.54
548.324	36673.44
548.688	36795.25
549.052	36947.56
549.416	36945.07
549.779	37030.95
550.143	37328.79
550.507	37457.83
550.871	37601.1
551.235	37581.89
551.599	37846.07
551.962	37835.9
552.326	38071.15
552.689	38307.07
553.053	38045.16
553.417	38432.49
553.78	38828.87
554.143	38734.63
554.507	38963.1
554.87	39032.93
555.234	39487.15
555.597	39321.73
555.96	39589.07
556.323	39711.33
556.686	39740.93
557.05	40170.53
557.413	40179.11
557.776	40434.7
558.139	40586.56
558.502	40898.87
558.865	40865.87
559.228	41229.93
559.59	41373.21
559.953	41351.74
560.316	41886.41
560.679	41834.21
561.041	42097.25
561.404	42347.42
561.767	42623.57
562.129	42508.77
562.492	42998.93
562.854	42961.64
563.217	43055.42
563.579	43359.37
563.941	43692.02
564.304	43729.3
564.666	43953.25
565.028	44126.35
565.39	44206.13
565.753	44588.49
566.115	44496.51
566.477	44757.75
566.839	44845.21
567.201	45263.05
567.563	45363.38
567.925	45595.92
568.287	45677.5
568.648	45794.78
569.01	46132.18
569.372	46279.29
569.734	46251.5
570.095	46550.24
570.457	46967.41
570.819	46940.07
571.18	47034.75
571.542	47230.45
571.903	47350
572.265	47422.76
572.626	47638.8
572.987	47675.87
573.349	47895.52
573.71	48103.65
574.071	48201.5
574.432	48187.26
574.794	48531.44
575.155	48530.53
575.516	48651.21
575.877	48662.51
576.238	48759.68
576.599	48998.54
576.96	49003.06
577.32	49111.08
577.681	49257.97
578.042	49304.3
578.403	49357.85
578.763	49464.97
579.124	49545.19
579.485	49628.81
579.845	49841.23
580.206	49768.69
580.566	49794.91
580.927	49844.85
581.287	49923.04
581.648	49921.46
582.008	50078.51
582.368	50022.24
582.728	50138.4
583.089	50148.12
583.449	50199.87
583.809	50136.82
584.169	50242.13
584.529	50087.33
584.889	50407.77
585.249	50172.3
585.609	50139.98
585.969	50289.36
586.329	50209.58
586.688	50271.05
587.048	50214.1
587.408	50131.62
587.768	50178.62
588.127	50118.96
588.487	50157.83
588.846	50483.47
589.206	50222.01
589.565	50311.73
589.925	50438.73
590.284	50493.19
590.643	50467.2
591.003	50507.88
591.362	50591.04
591.721	50561.44
592.08	50596.47
592.44	50674.2
592.799	50600.76
593.158	50675.33
593.517	50543.36
593.876	50684.6
594.235	50658.16
594.593	50760.53
594.952	50849.79
595.311	50742.23
595.67	50751.72
596.029	51016.57
596.387	51010.92
596.746	50952.39
597.104	50795.78
597.463	50937.02
597.822	51026.74
598.18	50921.88
598.538	50830.58
598.897	51131.14
599.255	50760.76
599.613	51346.5
599.972	51112.61
600.33	51182.21
600.688	51049.34
601.046	51216.79
601.404	51256.11
601.762	51228.54
602.12	51423.56
602.478	51397.58
602.836	51451.36
603.194	51278.03
603.552	51360.97
603.91	51287.97
604.268	51440.06
604.625	51344.47
604.983	51550.79
605.341	51400.29
605.698	51543.56
606.056	51617.91
606.413	51612.71
606.771	51756.21
607.128	51701.3
607.485	51650.68
607.843	51762.09
608.2	51826.49
608.557	51953.49
608.914	51778.13
609.272	51970.67
609.629	51951.68
609.986	52127.5
610.343	51896.32
610.7	52183.32
611.057	52142.19
611.414	52058.12
611.771	52028.97
612.127	52135.18
612.484	52194.84
612.841	52353.48
613.198	52265.12
613.554	52234.16
613.911	52528.84
614.267	52448.17
614.624	52431.22
614.98	52552.8
615.337	52563.87
615.693	52555.74
616.05	52466.25
616.406	52761.83
616.762	52558.67
617.118	52672.8
617.475	52532.69
617.831	52672.8
618.187	52694.72
618.543	52650.88
618.899	52917.99
619.255	52777.2
619.611	52723.64
619.967	52953.24
620.323	52968.16
620.678	52830.08
621.034	52661.72
621.39	52773.58
621.746	52733.81
622.101	53077.76
622.457	52792.11
622.812	52809.29
623.168	52929.51
623.523	52896.29
623.879	52979.91
624.234	52741.95
624.589	52912.11
624.945	52928.16
625.3	52935.84
625.655	52857.42
626.01	52828.05
626.365	52839.8
626.72	52873.24
627.075	52784.66
627.43	52818.78
627.785	52733.36
628.14	52706.47
628.495	52855.16
628.85	52779.46
629.205	52657.65
629.559	52892
629.914	52749.4
630.269	52762.74
630.623	52696.3
630.978	52614.04
631.332	52809.97
631.687	52855.62
632.041	52774.49
632.396	52832.34
632.75	52762.06
633.104	52681.84
633.459	52544.89
633.813	52467.83
634.167	52506.7
634.521	52507.83
634.875	52498.79
635.229	52491.33
635.583	52250.43
635.937	52209.98
636.291	52278.46
636.645	52251.56
636.999	52197.78
637.352	52314.16
637.706	52050.67
638.06	52272.58
638.413	52077.11
638.767	52080.5
639.121	52044.79
639.474	51859.03
639.828	51876.88
640.181	51931.8
640.534	51922.99
640.888	51758.47
641.241	51564.12
641.594	51689.77
641.947	51713.05
642.301	51554.18
642.654	51745.14
643.007	51597.57
643.36	51549.89
643.713	51464.69
644.066	51642.31
644.419	51463.11
644.771	51114.87
645.124	50898.83
645.477	50800.08
645.83	50640.08
646.182	50505.85
646.535	50490.25
646.888	50453.65
647.24	50279.86
647.593	50455.23
647.945	50368.22
648.298	50166.42
648.65	50159.87
649.002	50050.27
649.355	50238.96
649.707	50105.86
650.059	50171.17
650.411	50616.13
650.763	50627.43
651.115	50966.4
651.467	50802.79
651.819	50744.71
652.171	50664.71
652.523	50742
652.875	50676.01
653.227	50484.83
653.578	50775.22
653.93	50665.84
654.282	50464.72
654.633	50403.7
654.985	50434.66
655.337	50462.46
655.688	50390.37
656.039	50404.38
656.391	50220.2
656.742	50153.31
657.094	50245.52
657.445	50261.33
657.796	50188.57
658.147	50104.5
658.498	50151.73
658.849	50242.35
659.2	50078.51
659.551	49968.46
659.902	50149.7
660.253	50070.15
660.604	50100.21
660.955	49914.9
661.306	50043.94
661.656	49940.89
662.007	50004.17
662.358	50039.64
662.708	49997.84
663.059	49862.93
663.409	49687.34
663.76	49902.7
664.11	49930.27
664.461	49895.69
664.811	49960.32
665.161	49937.05
665.511	49905.41
665.862	49771.63
666.212	49895.24
666.562	49919.42
666.912	49806.2
667.262	49760.1
667.612	49785.64
667.962	49749.71
668.312	49593.78
668.662	49845.53
669.011	49743.61
669.361	49746.09
669.711	49572.09
670.06	49481.24
670.41	49513.1
670.76	49393.56
671.109	49615.02
671.459	49461.35
671.808	49504.07
672.157	49455.25
672.507	49142.72
672.856	49220.68
673.205	49331.19
673.554	49341.58
673.904	49253
674.253	49324.64
674.602	49209.16
674.951	48630.42
675.3	48481.72
675.649	49029.05
675.998	48968.49
676.346	48937.07
676.695	49065.43
677.044	48651.21
677.393	48851.43
677.741	48795.16
678.09	48723.75
678.438	48678.32
678.787	48664.77
679.135	48568.72
679.484	48478.78
679.832	48497.31
680.181	48361.5
680.529	48380.93
680.877	48359.46
681.225	48334.38
681.573	48552.45
681.922	48155.17
682.27	48153.14
682.618	48148.85
682.966	48088.51
683.314	48260.48
683.661	48025.23
684.009	47793.6
684.357	47760.16
684.705	47594.06
685.053	47870.89
685.4	47734.62
685.748	47477.68
686.095	47452.14
686.443	47499.82
686.79	47247.85
687.138	47292.82
687.485	47321.75
687.832	47206.5
688.18	47215.54
688.527	47088.31
688.874	46990.23
689.221	46931.25
689.568	46664.37
689.915	46647.64
690.262	46620.98
690.609	46523.13
690.956	46416.01
691.303	46544.37
691.65	46176.92
691.997	46238.61
692.344	45905.52
692.69	46035.23
693.037	46069.81
693.383	45544.17
693.73	45780.55
694.077	45467.79
694.423	45511.63
694.769	45371.07
695.116	45348.69
695.462	45250.84
695.808	45141.24
696.155	45085.42
696.501	44724.76
696.847	44824.87
697.193	44469.17
697.539	44692.44
697.885	44450.41
698.231	44252.45
698.577	44167.93
698.923	44098.78
699.269	43922.74
699.614	43821.73
699.96	43646.82
700.306	43774.27
700.651	43556.43
700.997	43394.17
701.342	43225.59
701.688	43237.56
702.033	43128.64
702.379	43015.2
702.724	43062.43
703.069	42898.14
703.415	42486.17
703.76	42697.24
704.105	42459.28
704.45	42387.87
704.795	42312.16
705.14	42174.31
705.485	42118.27
705.83	41925.73
706.175	41927.99
706.52	41878.05
706.865	41574.1
707.209	41501.11
707.554	41476.25
707.899	41490.49
708.243	41266.09
708.588	41316.71
708.932	41107
709.277	41052.08
709.621	41048.92
709.966	40816.61
710.31	40864.07
710.654	40496.39
710.998	40741.13
711.342	40716.95
711.687	40632.89
712.031	40525.09
712.375	40239.68
712.719	40326.23
713.063	40336.62
713.407	40307.02
713.75	40180.92
714.094	40152.67
714.438	39824.32
714.782	39901.83
715.125	39789.07
715.469	39692.8
715.812	39633.59
716.156	39323.99
716.499	39320.15
716.843	39443.54
717.186	39219.82
717.53	39311.57
717.873	39117.45
718.216	39023.21
718.559	38997.68
718.902	38663.45
719.246	38690.34
719.589	38631.13
719.932	38421.42
720.275	38470.01
720.617	38269.56
720.96	38263.23
721.303	38225.49
721.646	38216.23
721.989	38010.13
722.331	38122.9
722.674	37911.83
723.016	37977.59
723.359	37817.82
723.701	37828.89
724.044	37473.42
724.386	37438.62
724.729	37650.14
725.071	37433.87
725.413	37497.38
725.755	37457.83
726.097	37291.73
726.439	37178.29
726.782	37112.75
727.124	37292.86
727.465	37094.67
727.807	37010.16
728.149	36849.03
728.491	36742.82
728.833	36920.44
729.175	36800.67
729.516	36718.87
729.858	36530.4
730.199	36611.98
730.541	36444.07
730.882	36363.62
731.224	36438.87
731.565	36084.08
731.906	36206.79
732.248	36127.02
732.589	36195.71
732.93	35893.58
733.271	36073.23
733.612	35903.29
733.953	35895.84
734.294	35642.51
734.635	35710.76
734.976	35664.88
735.317	35591.66
735.658	35550.08
735.999	35617.2
736.339	35513.7
736.68	35603.41
737.021	35190.32
737.361	35125.23
737.702	35343.76
738.042	35189.87
738.383	35075.52
738.723	35071.45
739.063	35007.05
739.404	35106.25
739.744	34934.51
740.084	34731.57
740.424	34833.72
740.764	34689.54
741.104	34659.71
741.444	34565.7
741.784	34367.74
742.124	34652.93
742.464	34284.58
742.804	34345.82
743.143	34236.9
743.483	34353.05
743.823	33995.09
744.162	34008.88
744.502	34218.82
744.841	33947.19
745.181	33997.81
745.52	33814.08
745.86	33838.94
746.199	33802.56
746.538	33704.48
746.877	33773.41
747.216	33750.81
747.556	33516.92
747.895	33557.82
748.234	33508.1
748.573	33420.42
748.911	33392.4
749.25	33225.62
749.589	33111.73
749.928	33213.42
750.267	33290.03
750.605	33058.62
750.944	32983.6
751.283	32842.81
751.621	32983.14
751.96	32751.51
752.298	32752.42
752.636	32707.9
752.975	32642.36
753.313	32444.4
753.651	32625.41
753.989	32366.66
754.327	32261.58
754.666	32177.29
755.004	32246.21
755.342	32214.12
755.679	32068.59
756.017	31830.63
756.355	32031.98
756.693	31677.19
757.031	31838.09
757.368	31575.05
757.706	31462.28
758.044	31474.03
758.381	31559.9
758.719	31309.52
759.056	31244.21
759.394	31096.19
759.731	30967.6
760.068	30832.01
760.405	30734.62
760.743	30621.62
761.08	30679.48
761.417	30455.98
761.754	30487.39
762.091	30406.94
762.428	30124.46
762.765	30043.33
763.102	30071.13
763.438	29983.45
763.775	29805.6
764.112	29727.41
764.449	29801.76
764.785	29607.64
765.122	29431.15
765.458	29386.4
765.795	29352.96
766.131	29231.15
766.467	29092.62
766.804	28972.63
767.14	28975.57
767.476	28971.27
767.812	28743.03
768.148	28822.8
768.485	28507.33
768.821	28414.68
769.157	28468.69
769.492	28248.58
769.828	28225.3
770.164	27914.8
770.5	27751.87
770.836	27906.89
771.171	27561.14
771.507	27517.07
771.842	27388.94
772.178	27371.31
772.513	27335.83
772.849	27250.19
773.184	27080.47
773.519	27015.39
773.855	26836.19
774.19	26813.36
774.525	26781.27
774.86	26604.55
775.195	26614.72
775.53	26414.96
775.865	26286.37
776.2	26053.61
776.535	25901.3
776.87	25993.95
777.205	25814.29
777.539	25785.14
777.874	25699.04
778.209	25493.62
778.543	25462.89
778.878	25259.51
779.212	25192.84
779.547	25025.16
779.881	25011.15
780.215	24931.6
780.55	25013.64
780.884	24843.02
781.218	24833.98
781.552	24729.58
781.886	24630.14
782.22	24444.16
782.554	24367.78
782.888	24050.95
783.222	24113.09
783.556	23936.15
783.889	23911.29
784.223	23856.38
784.557	23794.69
784.89	23777.74
785.224	23630.17
785.557	23531.64
785.891	23422.94
786.224	23383.85
786.558	23232.44
786.891	23100.92
787.224	23088.26
787.557	22953.8
787.891	22994.71
788.224	23024.76
788.557	22892.34
788.89	22835.16
789.223	22777.54
789.556	22526.02
789.888	22568.5
790.221	22523.31
790.554	22301.39
790.887	22381.16
791.219	22288.51
791.552	22134.39
791.884	22022.3
792.217	22073.6
792.549	21896.88
792.882	21775.53
793.214	21640.84
793.546	21690.56
793.879	21522.88
794.211	21333.28
794.543	21511.13
794.875	21300.74
795.207	21391.36
795.539	21219.39
795.871	21250.35
796.203	21028.88
796.535	20906.4
796.867	20790.92
797.198	20893.74
797.53	20812.16
797.862	20718.38
798.193	20766.06
798.525	20560.42
798.856	20484.94
799.188	20357.26
799.519	20383.7
799.85	20230.94
800.182	20213.99
800.513	20159.53
800.844	19880.66
801.175	20121.79
801.506	20032.52
801.837	19896.26
802.168	19894.67
802.499	19765.86
802.83	19681.35
803.161	19677.28
803.491	19603.38
803.822	19472.54
804.153	19475.7
804.483	19378.3
804.814	19202.72
805.145	19263.28
805.475	19228.93
805.805	19103.51
806.136	19081.59
806.466	19012.44
806.796	19051.53
807.126	18781.71
807.457	18830.07
807.787	18758.21
808.117	18649.74
808.447	18643.86
808.777	18582.84
809.107	18548.72
809.436	18536.97
809.766	18507.37
810.096	18345.79
810.426	18363.19
810.755	18301.95
811.085	18299.91
811.414	18210.43
811.744	18043.2
812.073	18048.17
812.403	18115.51
812.732	17917.78
813.061	17980.6
813.39	17947.83
813.719	17797.78
814.049	17909.42
814.378	17713.49
814.707	17621.29
815.036	17730.44
815.365	17679.82
815.693	17403.21
816.022	17509.43
816.351	17443.21
816.68	17447.73
817.008	17411.35
817.337	17317.34
817.665	17342.88
817.994	17242.99
818.322	17287.29
818.651	17176.78
818.979	17039.61
819.307	17136.56
819.636	17132.49
819.964	16988.99
820.292	17087.52
820.62	17024.47
820.948	16956.9
821.276	16952.38
821.604	16871.48
821.932	17002.1
822.259	16978.82
822.587	16880.52
822.915	16920.74
823.243	16938.59
823.57	16897.24
823.898	16969.1
824.225	16824.7
824.553	16767.98
824.88	16848.2
825.207	16903.11
825.535	16803.23
825.862	16946.96
826.189	16802.55
826.516	16892.72
826.843	16913.74
827.17	16844.59
827.497	16882.78
827.824	16897.01
828.151	16757.81
828.478	16780.41
828.805	16893.17
829.131	16699.05
829.458	16773.4
829.785	16641.2
830.111	16771.82
830.438	16788.99
830.764	16774.98
831.09	16714.87
831.417	16643.91
831.743	16758.71
832.069	16676.23
832.395	16705.15
832.722	16695.44
833.048	16577.25
833.374	16564.59
833.7	16534.99
834.026	16601.2
834.351	16574.76
834.677	16578.38
835.003	16578.38
835.329	16482.56
835.654	16497.7
835.98	16557.36
836.306	16516.91
836.631	16425.84
836.956	16486.85
837.282	16496.57
837.607	16407.31
837.932	16347.42
838.258	16427.42
838.583	16298.61
838.908	16328.89
839.233	16296.58
839.558	16231.95
839.883	16281.89
840.208	16234.88
840.533	16276.92
840.858	16193.3
841.182	16146.75
841.507	16099.52
841.832	16040.09
842.156	16026.75
842.481	16091.16
842.805	15994.21
843.13	15972.52
843.454	15916.7
843.778	15817.27
844.103	15810.04
844.427	15692.98
844.751	15779.3
845.075	15731.62
845.399	15624.28
845.723	15648.01
846.047	15514
846.371	15478.52
846.695	15442.81
847.019	15347.68
847.343	15285.98
847.666	15224.06
847.99	15129.38
848.313	15145.65
848.637	15125.08
848.96	15023.62
849.284	15044.63
849.607	14965.09
849.931	14966.44
850.254	14791.31
850.577	14696.39
850.9	14660.01
851.223	14571.88
851.546	14571.65
851.869	14422.5
852.192	14434.48
852.515	14379.57
852.838	14333.69
853.161	14376.63
853.483	14269.51
853.806	14192.45
854.129	14163.07
854.451	14107.03
854.774	13968.28
855.096	13971.44
855.419	14036.3
855.741	13914.49
856.063	13926.7
856.385	13788.17
856.708	13842.63
857.03	13753.82
857.352	13750.66
857.674	13742.07
857.996	13661.84
858.318	13559.02
858.64	13599.02
858.961	13496.65
859.283	13535.75
859.605	13429.99
859.926	13463.66
860.248	13401.06
860.57	13334.85
860.891	13394.05
861.212	13286.49
861.534	13264.79
861.855	13241.06
862.176	13240.61
862.498	13197.45
862.819	13206.26
863.14	13185.47
863.461	13099.6
863.782	13154.29
864.103	13112.48
864.424	13141.18
864.745	13139.15
865.065	13099.83
865.386	13003.78
865.707	13000.39
866.027	12968.3
866.348	12912.26
866.668	12882.2
866.989	12890.79
867.309	12805.37
867.63	12929.89
867.95	12871.36
868.27	12734.64
868.59	12778.7
868.91	12717.01
869.23	12741.87
869.55	12678.82
869.87	12667.52
870.19	12631.81
870.51	12778.03
870.83	12743.45
871.15	12634.75
871.469	12631.36
871.789	12727.86
872.109	12604.24
872.428	12567.18
872.748	12554.08
873.067	12542.78
873.386	12573.29
873.706	12612.61
874.025	12458.03
874.344	12413.29
874.663	12496.45
874.982	12464.59
875.301	12432.72
875.62	12403.8
875.939	12444.48
876.258	12390.47
876.577	12364.25
876.896	12367.19
877.214	12249.23
877.533	12338.72
877.852	12244.48
878.17	12282.22
878.489	12322.44
878.807	12265.04
879.125	12235.22
879.444	12300.07
879.762	12290.81
880.08	12187.08
880.398	12136.69
880.716	12133.07
881.034	12074.32
881.352	12125.61
881.67	12122.9
881.988	12072.06
882.306	12000.87
882.624	12048.33
882.941	11913.42
883.259	11955.9
883.577	11976.24
883.894	11936.24
884.212	11970.82
884.529	11937.82
884.846	11809.01
885.164	11870.7
885.481	11804.27
885.798	11827.09
886.115	11703.48
886.432	11786.41
886.75	11694.44
887.067	11763.81
887.383	11648.56
887.7	11750.48
888.017	11617.38
888.334	11679.3
888.651	11612.41
888.967	11639.75
889.284	11510.04
889.6	11501.9
889.917	11435.46
890.233	11500.77
890.55	11476.82
890.866	11429.36
891.182	11381.23
891.498	11351.85
891.815	11275.24
892.131	11305.07
892.447	11262.59
892.763	11220.78
893.079	11271.85
893.395	11177.16
893.71	11115.24
894.026	11082.7
894.342	11055.36
894.657	11001.12
894.973	10993.89
895.289	10922.93
895.604	10993.67
895.92	10868.92
896.235	10862.14
896.55	10784.41
896.865	10786.44
897.181	10759.1
897.496	10736.05
897.811	10682.71
898.126	10633.45
898.441	10573.34
898.756	10573.11
899.071	10531.76
899.386	10481.14
899.7	10441.82
900.015	10392.55
900.33	10341.25
900.644	10390.29
900.959	10379.9
901.273	10305.32
901.588	10350.97
901.902	10242.05
902.216	10290.63
902.531	10183.29
902.845	10121.82
903.159	10068.04
903.473	10113.01
903.787	10022.84
904.101	10015.39
904.415	9991.88
904.729	10012.9
905.042	9929.96
905.356	9955.27
905.67	9814.49
905.984	9928.16
906.297	9819.69
906.611	9741.72
906.924	9744.21
907.237	9724.55
907.551	9688.16
907.864	9651.55
908.177	9604.78
908.491	9646.13
908.804	9525
909.117	9526.59
909.43	9473.93
909.743	9475.74
910.056	9423.99
910.368	9371.56
910.681	9295.86
910.994	9268.97
911.307	9213.6
911.619	9097.9
911.932	9169.31
912.244	9101.51
912.557	9050.89
912.869	9087.05
913.181	8997.56
913.494	9035.53
913.806	8944.23
914.118	8892.93
914.43	8840.95
914.742	8929.31
915.054	8876.89
915.366	8838.92
915.678	8777.45
915.99	8755.76
916.302	8650.45
916.613	8640.96
916.925	8627.4
917.236	8570.68
917.548	8550.57
917.859	8528.42
918.171	8459.95
918.482	8416.33
918.794	8395.77
919.105	8436.22
919.416	8344.47
919.727	8359.84
920.038	8322.32
920.349	8285.71
920.66	8245.94
920.971	8243
921.282	8191.03
921.593	8122.1
921.903	8082.1
922.214	8126.4
922.525	8049.79
922.835	8038.94
923.146	7946.74
923.456	7926.85
923.767	7950.81
924.077	7871.94
924.387	7799.4
924.697	7832.39
925.008	7818.83
925.318	7726.63
925.628	7809.57
925.938	7693.41
926.248	7653.41
926.558	7590.37
926.867	7555.34
927.177	7501.1
927.487	7511.05
927.796	7466.53
928.106	7505.4
928.416	7431.5
928.725	7449.58
929.034	7415.23
929.344	7407.09
929.653	7364.38
929.962	7302.92
930.271	7240.32
930.581	7229.02
930.89	7177.72
931.199	7180.66
931.508	7241.67
931.817	7157.83
932.125	7145.41
932.434	7094.56
932.743	7023.6
933.051	7060.89
933.36	6994.9
933.669	6941.34
933.977	6944.73
934.286	6912.87
934.594	6914.68
934.902	6795.36
935.21	6749.48
935.519	6841.46
935.827	6774.12
936.135	6729.15
936.443	6662.03
936.751	6614.57
937.059	6689.37
937.367	6631.75
937.674	6630.16
937.982	6581.35
938.29	6568.25
938.597	6588.58
938.905	6453.45
939.213	6460.9
939.52	6434.92
939.827	6448.02
940.135	6390.85
940.442	6392.43
940.749	6364.86
941.056	6307.24
941.363	6306.11
941.67	6282.38
941.977	6216.39
942.284	6187.69
942.591	6168.26
942.898	6133.91
943.205	6137.07
943.511	6161.48
943.818	6045.32
944.125	6053
944.431	6067.24
944.738	6054.81
945.044	6017.07
945.35	5998.77
945.657	5935.49
945.963	5951.99
946.269	5869.05
946.575	5885.33
946.881	5869.05
947.187	5809.85
947.493	5816.63
947.799	5770.07
948.105	5728.04
948.41	5691.21
948.716	5710.87
949.022	5684.2
949.327	5660.02
949.633	5624.77
949.938	5627.25
950.244	5621.83
950.549	5621.83
950.854	5547.71
951.16	5573.24
951.465	5517.43
951.77	5500.93
952.075	5473.36
952.38	5410.31
952.685	5425.22
952.99	5351.1
953.294	5348.84
953.599	5256.42
953.904	5328.05
954.209	5277.43
954.513	5277.43
954.818	5252.12
955.122	5257.77
955.426	5208.28
955.731	5212.35
956.035	5206.47
956.339	5083.31
956.643	5126.93
956.948	5110.88
957.252	5076.99
957.556	5065.01
957.86	5050.77
958.163	5026.59
958.467	5025.01
958.771	4962.86
959.075	4988.63
959.378	4898.91
959.682	4945.01
959.985	4876.54
960.289	4855.07
960.592	4845.8
960.896	4820.49
961.199	4812.13
961.502	4771.23
961.805	4789.54
962.108	4736.43
962.411	4743.21
962.714	4729.42
963.017	4709.99
963.32	4682.65
963.623	4623.66
963.926	4646.94
964.228	4608.52
964.531	4593.61
964.833	4596.55
965.136	4549.99
965.438	4528.3
965.741	4517.23
966.043	4500.05
966.345	4507.51
966.648	4455.31
966.95	4462.54
967.252	4423.89
967.554	4348.19
967.856	4382.09
968.158	4361.3
968.46	4331.69
968.761	4337.12
969.063	4312.49
969.365	4285.37
969.666	4260.74
969.968	4223.9
970.269	4229.78
970.571	4230.45
970.872	4180.51
971.174	4168.99
971.475	4187.07
971.776	4145.94
972.077	4116.56
972.378	4119.27
972.679	4130.12
972.98	4074.3
973.281	4041.31
973.582	4048.54
973.883	3988.43
974.183	3982.1
974.484	4019.16
974.785	3956.11
975.085	3956.56
975.386	3966.96
975.686	3907.07
975.986	3944.36
976.287	3892.16
976.587	3814.42
976.887	3872.27
977.187	3840.18
977.487	3802.22
977.787	3787.53
978.087	3782.78
978.387	3795.21
978.687	3780.07
978.987	3758.38
979.286	3723.57
979.586	3721.99
979.885	3675.44
980.185	3706.63
980.484	3630.92
980.784	3652.16
981.083	3628.66
981.382	3646.51
981.682	3605.39
981.981	3566.52
982.28	3562
982.579	3519.29
982.878	3541.21
983.177	3517.93
983.475	3538.49
983.774	3516.57
984.073	3480.87
984.372	3456.69
984.67	3475.45
984.969	3488.78
985.267	3486.97
985.566	3391.38
985.864	3379.85
986.162	3351.83
986.461	3377.59
986.759	3342.34
987.057	3337.37
987.355	3275.45
987.653	3271.38
987.951	3264.15
988.249	3290.82
988.547	3277.71
988.844	3259.41
989.142	3257.82
989.44	3179.86
989.737	3180.54
990.035	3176.02
990.332	3214.89
990.63	3139.18
990.927	3082.24
991.224	3116.58
991.521	3127.66
991.819	3053.31
992.116	3085.85
992.413	3082.69
992.71	3041.11
993.006	3002.92
993.303	3053.31
993.6	2982.35
993.897	3003.14
994.193	2956.59
994.49	2957.49
994.787	2945.74
995.083	2935.8
995.379	2945.06
995.676	2910.04
995.972	2934.22
996.268	2843.82
996.565	2880.21
996.861	2839.76
997.157	2844.28
997.453	2835.69
997.749	2804.05
998.044	2771.96
998.34	2805.63
998.636	2762.7
998.932	2763.37
999.227	2682.25
999.523	2719.53
999.818	2712.98
1000.114	2688.12
1000.409	2694.22
1000.704	2642.02
1001	2663.26
1001.295	2642.92
1001.59	2612.64
1001.885	2635.47
1002.18	2623.04
1002.475	2554.57
1002.77	2590.04
1003.065	2545.75
1003.359	2542.59
1003.654	2513.21
1003.949	2512.08
1004.243	2498.75
1004.538	2484.74
1004.832	2461.91
1005.127	2467.79
1005.421	2460.33
1005.715	2427.34
1006.009	2450.16
1006.304	2388.69
1006.598	2391.18
1006.892	2389.37
1007.186	2327.45
1007.48	2340.56
1007.773	2322.26
1008.067	2330.62
1008.361	2292.88
1008.655	2261.47
1008.948	2292.43
1009.242	2275.7
1009.535	2242.03
1009.829	2245.87
1010.122	2201.81
1010.415	2206.1
1010.708	2174.69
1011.001	2149.38
1011.295	2162.03
1011.588	2176.27
1011.881	2123.16
1012.173	2164.97
1012.466	2129.04
1012.759	2120.23
1013.052	2117.74
1013.344	2082.71
1013.637	2056.95
1013.93	2051.3
1014.222	2009.04
1014.514	2021.92
1014.807	2039.32
1015.099	2024.86
1015.391	1992.77
1015.683	1978.54
1015.976	1965.43
1016.268	1959.1
1016.56	1918.2
1016.851	1962.94
1017.143	1920.46
1017.435	1922.94
1017.727	1894.24
1018.018	1935.82
1018.31	1874.13
1018.602	1839.56
1018.893	1860.8
1019.185	1847.24
1019.476	1837.75
1019.767	1796.17
1020.058	1781.93
1020.35	1803.17
1020.641	1748.94
1020.932	1764.08
1021.223	1750.07
1021.514	1736.73
1021.804	1698.54
1022.095	1691.76
1022.386	1702.61
1022.677	1696.28
1022.967	1640.24
1023.258	1685.44
1023.548	1656.51
1023.839	1684.08
1024.129	1617.87
1024.419	1643.63
1024.709	1628.71
1025	1610.64
1025.29	1620.58
1025.58	1593.69
1025.87	1573.12
1026.16	1581.26
1026.449	1567.47
1026.739	1560.24
1027.029	1511.88
1027.319	1527.25
1027.608	1504.2
1027.898	1522.5
1028.187	1505.33
1028.477	1505.78
1028.766	1462.16
1029.055	1467.81
1029.344	1450.19
1029.634	1442.05
1029.923	1451.09
1030.212	1460.58
1030.501	1434.6
1030.79	1430.53
1031.078	1367.25
1031.367	1367.93
1031.656	1376.52
1031.945	1348.27
1032.233	1364.77
1032.522	1340.36
1032.81	1335.39
1033.099	1313.47
1033.387	1317.99
1033.675	1301.04
1033.963	1301.49
1034.251	1258.78
1034.54	1266.01
1034.828	1278.21
1035.116	1260.59
1035.403	1270.76
1035.691	1245.45
1035.979	1247.03
1036.267	1241.38
1036.554	1232.79
1036.842	1228.5
1037.129	1205
1037.417	1200.48
1037.704	1201.38
1037.992	1190.53
1038.279	1152.79
1038.566	1174.94
1038.853	1174.94
1039.14	1174.94
