Data from aluminium_macbook_case_FLMS001491_072.txt Node
Date: Tue Feb 07 10:44:11 GMT 2017
User: dcchb
Spectrometer: FLMS00149
Trigger mode: 0
Integration Time (sec): 2.000000E-2
Scans to average: 10
Electric dark correction enabled: true
Nonlinearity correction enabled: false
Boxcar width: 0
XAxis mode: Wavelengths
Number of Pixels in Spectrum: 2048
>>>>>Begin Spectral Data<<<<<
341.393	-25.48
341.776	-25.48
342.16	-25.48
342.543	-61.64
342.927	-55.54
343.31	-60.28
343.693	-86.95
344.077	-72.48
344.46	-72.48
344.843	-60.96
345.226	-50.34
345.61	-33.84
345.993	-15.31
346.376	-2.2
346.759	14.97
347.142	27.17
347.525	38.93
347.908	67.85
348.291	86.16
348.674	98.13
349.057	121.64
349.44	108.3
349.823	132.71
350.206	198.02
350.588	243.67
350.971	255.19
351.354	321.86
351.737	280.28
352.119	307.17
352.502	334.51
352.884	323.89
353.267	343.55
353.65	349.2
354.032	356.21
354.414	367.73
354.797	385.58
355.179	376.32
355.562	402.08
355.944	378.58
356.326	398.46
356.709	396.43
357.091	400.72
357.473	404.79
357.855	432.36
358.238	429.88
358.62	433.72
359.002	409.54
359.384	416.54
359.766	424.68
360.148	421.06
360.53	422.87
360.912	426.49
361.294	422.19
361.676	437.56
362.057	425.36
362.439	447.95
362.821	440.72
363.203	451.12
363.584	419.93
363.966	436.88
364.348	425.36
364.729	425.58
365.111	434.85
365.493	418.35
365.874	427.84
366.256	432.59
366.637	451.57
367.019	441.4
367.4	442.98
367.781	442.53
368.163	447.73
368.544	457.45
368.925	465.35
369.306	475.3
369.688	480.5
370.069	472.36
370.45	438.92
370.831	452.25
371.212	464.9
371.593	447.28
371.974	471.68
372.355	471.46
372.736	482.98
373.117	488.18
373.498	470.55
373.879	472.36
374.26	463.1
374.641	477.56
375.021	475.98
375.402	488.41
375.783	514.17
376.163	539.03
376.544	517.33
376.925	540.83
377.305	550.55
377.686	528.18
378.066	541.74
378.447	527.05
378.827	538.35
379.208	555.52
379.588	547.39
379.968	558.23
380.349	548.06
380.729	571.79
381.109	580.61
381.489	585.35
381.87	573.83
382.25	605.69
382.63	583.54
383.01	619.7
383.39	609.08
383.77	618.12
384.15	630.32
384.53	628.29
384.91	657.89
385.29	652.92
385.67	652.69
386.049	662.86
386.429	654.73
386.809	652.47
387.189	684.33
387.568	682.07
387.948	702.18
388.328	713.94
388.707	711.45
389.087	736.99
389.466	736.76
389.846	759.36
390.225	735.86
390.605	744.9
390.984	765.46
391.363	786.02
391.743	794.61
392.122	814.5
392.501	814.05
392.881	829.87
393.26	837.32
393.639	837.77
394.018	859.92
394.397	849.98
394.776	897.43
395.155	846.59
395.534	849.3
395.913	884.55
396.292	901.95
396.671	900.37
397.05	896.98
397.429	920.03
397.808	950.54
398.186	933.14
398.565	992.57
398.944	952.57
399.323	968.62
399.701	993.7
400.08	992.8
400.458	993.48
400.837	1019.46
401.215	1055.17
401.594	1071.21
401.972	1073.02
402.351	1069.86
402.729	1099.46
403.107	1097.2
403.486	1114.6
403.864	1121.38
404.242	1132.23
404.62	1148.05
404.999	1150.99
405.377	1159.35
405.755	1192.12
406.133	1219.69
406.511	1222.85
406.889	1253.36
407.267	1274.6
407.645	1262.4
408.023	1278.21
408.401	1331.77
408.779	1342.62
409.156	1348.04
409.534	1381.94
409.912	1399.57
410.29	1422.84
410.667	1436.85
411.045	1472.11
411.422	1489.28
411.8	1483.63
412.178	1510.53
412.555	1542.61
412.933	1547.81
413.31	1609.96
413.687	1631.43
414.065	1626.23
414.442	1658.54
414.819	1673.23
415.197	1692.67
415.574	1731.99
415.951	1740.12
416.328	1743.97
416.705	1781.7
417.082	1813.34
417.46	1800.24
417.837	1829.84
418.214	1870.52
418.591	1853.57
418.967	1854.47
419.344	1895.6
419.721	1948.25
420.098	1931.31
420.475	1972.21
420.852	1988.93
421.228	1992.55
421.605	2015.14
421.982	2048.82
422.358	2092.66
422.735	2099.89
423.111	2109.38
423.488	2167.91
423.864	2202.48
424.241	2218.08
424.617	2244.07
424.994	2277.28
425.37	2292.65
425.746	2301.46
426.123	2337.17
426.499	2332.2
426.875	2377.62
427.251	2381.91
427.627	2471.4
428.003	2498.52
428.379	2532.19
428.756	2575.81
429.132	2590.04
429.507	2641.79
429.883	2654.22
430.259	2729.93
430.635	2757.5
431.011	2765.63
431.387	2850.83
431.763	2895.8
432.138	2891.96
432.514	2966.76
432.89	2958.62
433.265	3075.23
433.641	3100.31
434.016	3155.45
434.392	3157.49
434.767	3212.63
435.143	3232.06
435.518	3281.1
435.894	3292.4
436.269	3327.43
436.644	3406.52
437.02	3458.72
437.395	3453.98
437.77	3554.77
438.145	3589.57
438.52	3616.23
438.895	3630.02
439.271	3643.8
439.646	3758.6
440.021	3807.19
440.395	3811.48
440.77	3774.87
441.145	3828.43
441.52	3930.35
441.895	3922.21
442.27	3987.3
442.645	3961.76
443.019	4061.87
443.394	4013.96
443.769	4071.36
444.143	4078.59
444.518	4161.08
444.892	4164.47
445.267	4126.73
445.641	4201.75
446.016	4220.28
446.39	4286.95
446.764	4336.44
447.139	4324.91
447.513	4373.05
447.887	4416.44
448.262	4497.34
448.636	4463.44
449.01	4546.6
449.384	4619.37
449.758	4603.1
450.132	4712.47
450.506	4733.49
450.88	4750.67
451.254	4797.44
451.628	4867.05
452.002	4941.4
452.376	4900.49
452.75	5003.77
453.123	5055.06
453.497	5125.35
453.871	5229.52
454.244	5244.66
454.618	5285.79
454.992	5385.9
455.365	5358.56
455.739	5555.16
456.112	5601.04
456.486	5645.56
456.859	5662.05
457.232	5855.5
457.606	5826.57
457.979	5916.96
458.352	6091.42
458.725	6150.86
459.099	6200.57
459.472	6328.25
459.845	6396.72
460.218	6485.08
460.591	6442.6
460.964	6524.63
461.337	6673.78
461.71	6740.67
462.083	6925.52
462.456	6882.59
462.829	6913.55
463.201	7029.7
463.574	7090.72
463.947	7224.95
464.32	7376.81
464.692	7439.63
465.065	7475.57
465.438	7630.36
465.81	7823.58
466.183	7822.45
466.555	7981.54
466.928	8042.33
467.3	8083.46
467.672	8225.6
468.045	8470.12
468.417	8457.69
468.789	8581.3
469.161	8655.87
469.534	8775.87
469.906	9028.07
470.278	9098.35
470.65	9146.71
471.022	9328.17
471.394	9567.26
471.766	9641.38
472.138	9730.2
472.51	9982.39
472.882	10066.91
473.253	10276.85
473.625	10362.04
473.997	10565.65
474.369	10660.12
474.74	10830.28
475.112	11011.52
475.484	11263.94
475.855	11373.09
476.227	11520.21
476.598	11857.15
476.97	11966.97
477.341	12363.8
477.713	12434.76
478.084	12577.8
478.455	12853.28
478.827	12989.09
479.198	13420.49
479.569	13363.32
479.94	13830.2
480.311	13957.2
480.682	14259.57
481.053	14529.84
481.424	14733.68
481.795	14903.39
482.166	15171.18
482.537	15377.51
482.908	15681.68
483.279	15937.72
483.65	16211.83
484.021	16472.62
484.391	16612.5
484.762	16832.16
485.133	17026.73
485.503	17247.06
485.874	17693.83
486.244	17835.07
486.615	18132.24
486.985	18501.72
487.356	18765.21
487.726	18912.1
488.097	19359.77
488.467	19382.6
488.837	19855.13
489.207	20119.98
489.578	20430.03
489.948	20629.12
490.318	20820.07
490.688	20933.74
491.058	21253.06
491.428	21559.04
491.798	21766.49
492.168	22253.26
492.538	22276.76
492.908	22516.07
493.278	22771.21
493.648	22801.04
494.017	23276.73
494.387	23376.62
494.757	23536.61
495.126	23879.2
495.496	23845.08
495.866	24102.47
496.235	24386.76
496.605	24677.15
496.974	24869.91
497.344	25112.84
497.713	25181.77
498.082	25461.08
498.452	25749.66
498.821	25979.94
499.19	26055.87
499.559	26423.99
499.928	26594.16
500.298	26701.95
500.667	27027.82
501.036	26908.73
501.405	27172
501.774	27300.36
502.143	27581.93
502.512	27671.65
502.88	28044.52
503.249	28056.95
503.618	28260.56
503.987	28269.37
504.356	28538.29
504.724	28735.8
505.093	28828.9
505.462	29065.05
505.83	29363.8
506.199	29438.15
506.567	29828.2
506.936	29778.03
507.304	30136.89
507.672	30352.93
508.041	30528.75
508.409	30798.34
508.777	31088.28
509.145	31216.18
509.514	31290.31
509.882	31642.84
510.25	31835.6
510.618	32052.55
510.986	32245.54
511.354	32532.76
511.722	32938.17
512.09	33170.26
512.458	33193.99
512.826	33468.1
513.193	33471.04
513.561	33774.54
513.929	34156.45
514.297	34438.7
514.664	34594.4
515.032	34773.38
515.4	35095.4
515.767	35184.89
516.135	35419.92
516.502	35265.12
516.869	35875.5
517.237	35991.65
517.604	35943.07
517.972	36502.37
518.339	36791.41
518.706	36796.83
519.073	37072.08
519.44	37315.69
519.808	37708.9
520.175	37862.34
520.542	38314.3
520.909	38565.37
521.276	38728.98
521.643	39051.69
522.009	39347.04
522.376	39725.34
522.743	40014.6
523.11	40411.42
523.477	40740.45
523.843	40995.59
524.21	41339.53
524.577	41655.01
524.943	41725.74
525.31	42023.58
525.676	42432.61
526.043	42574.08
526.409	42873.96
526.776	43206.83
527.142	43347.62
527.508	43660.15
527.874	43911.9
528.241	44271.89
528.607	44366.35
528.973	44775.15
529.339	44748.71
529.705	45189.38
530.071	45407.22
530.437	45591.17
530.803	45876.82
531.169	46103.93
531.535	45913.2
531.901	46345.5
532.267	46381.66
532.632	46817.36
532.998	46978.71
533.364	47030.68
533.73	47303.22
534.095	47769.87
534.461	47790.44
534.826	48103.42
535.192	48301.16
535.557	48434.04
535.923	48644.88
536.288	48800.81
536.653	48940.69
537.019	48918.32
537.384	49141.14
537.749	49333.67
538.114	49381.81
538.479	49524.4
538.845	49751.29
539.21	49631.75
539.575	49750.61
539.94	49962.81
540.305	50118.51
540.67	50013.66
541.034	50323.93
541.399	50396.25
541.764	50564.83
542.129	50698.84
542.494	50824.26
542.858	50848.44
543.223	50944.71
543.587	51104.48
543.952	51141.08
544.316	51247.52
544.681	51264.02
545.045	51503.11
545.41	51722.31
545.774	51832.37
546.138	51870.33
546.503	52042.3
546.867	52035.52
547.231	52406.59
547.595	52296.99
547.959	52426.93
548.324	52489.75
548.688	52610.88
549.052	52809.74
549.416	52933.81
549.779	52979.91
550.143	53082.5
550.507	53214.7
550.871	53325.21
551.235	53374.7
551.599	53670.74
551.962	53717.51
552.326	53746.21
552.689	53952.31
553.053	53784.18
553.417	53991.41
553.78	54305.97
554.143	54124.74
554.507	54366.76
554.87	54469.58
555.234	54791.38
555.597	54542.8
555.96	54679.97
556.323	54823.7
556.686	54943.24
557.05	55084.03
557.413	55120.42
557.776	55293.97
558.139	55436.79
558.502	55501.87
558.865	55608.76
559.228	55771.7
559.59	55855.99
559.953	55859.15
560.316	56175.53
560.679	56193.61
561.041	56406.71
561.404	56538.23
561.767	56691
562.129	56639.92
562.492	56972.57
562.854	56962.4
563.217	57059.12
563.579	57162.85
563.941	57293.92
564.304	57341.83
564.666	57500.24
565.028	57607.36
565.39	57651.42
565.753	57783.62
566.115	57962.83
566.477	57991.98
566.839	58052.77
567.201	58268.58
567.563	58234.91
567.925	58498.63
568.287	58439.65
568.648	58443.49
569.01	58668.8
569.372	58736.14
569.734	58652.07
570.095	58860.2
570.457	58994.89
570.819	59020.43
571.18	58916.47
571.542	59146.75
571.903	59155.56
572.265	59296.58
572.626	59295.22
572.987	59410.92
573.349	59505.16
573.71	59560.3
574.071	59637.36
574.432	59673.52
574.794	59832.16
575.155	59859.27
575.516	59791.48
575.877	59902.66
576.238	59957.35
576.599	60064.92
576.96	60040.96
577.32	60115.76
577.681	60327.06
578.042	60349.2
578.403	60284.12
578.763	60342.65
579.124	60369.54
579.485	60442.08
579.845	60476.88
580.206	60420.84
580.566	60482.08
580.927	60552.81
581.287	60585.13
581.648	60505.13
582.008	60662.64
582.368	60560.27
582.728	60655.18
583.089	60599.37
583.449	60562.76
583.809	60603.89
584.169	60631.46
584.529	60554.17
584.889	60795.97
585.249	60562.98
585.609	60545.58
585.969	60676.2
586.329	60604.56
586.688	60652.02
587.048	60612.93
587.408	60633.49
587.768	60641.4
588.127	60629.87
588.487	60563.89
588.846	60764.79
589.206	60614.96
589.565	60654.51
589.925	60799.14
590.284	60671.23
590.643	60733.15
591.003	60743.09
591.362	60859.93
591.721	60785.8
592.08	60834.39
592.44	60807.72
592.799	60873.26
593.158	60842.3
593.517	60859.7
593.876	60919.81
594.235	60808.18
594.593	60937.21
594.952	60899.47
595.311	60834.84
595.67	60845.91
596.029	61040.26
596.387	61019.24
596.746	60987.15
597.104	60901.28
597.463	60883.43
597.822	60983.09
598.18	60858.57
598.538	60874.16
598.897	61025.12
599.255	60844.56
599.613	61086.36
599.972	60961.39
600.33	61013.59
600.688	60964.33
601.046	61026.7
601.404	61109.18
601.762	61021.05
602.12	61179.01
602.478	61121.16
602.836	61164.78
603.194	61027.38
603.552	61111.44
603.91	61049.75
604.268	61205.9
604.625	61124.33
604.983	61297.88
605.341	61145.57
605.698	61300.82
606.056	61324.55
606.413	61318.67
606.771	61386.24
607.128	61444.99
607.485	61339.91
607.843	61421.04
608.2	61534.48
608.557	61585.1
608.914	61546.46
609.272	61607.93
609.629	61648.15
609.986	61750.98
610.343	61609.74
610.7	61836.4
611.057	61754.36
611.414	61726.34
611.771	61762.05
612.127	61799.79
612.484	61796.4
612.841	61803.4
613.198	61803.63
613.554	61796.85
613.911	61852.67
614.267	61905.55
614.624	61866.68
614.98	61839.79
615.337	61927.69
615.693	61930.41
616.05	61831.88
616.406	62021.93
616.762	61931.54
617.118	61968.14
617.475	61920.69
617.831	61960.01
618.187	61979.22
618.543	61990.29
618.899	62131.76
619.255	62011.76
619.611	62059.89
619.967	62101.47
620.323	62121.13
620.678	62091.53
621.034	62011.08
621.39	62100.8
621.746	62048.37
622.101	62292.66
622.457	62093.79
622.812	62135.37
623.168	62228.7
623.523	62169.5
623.879	62233.9
624.234	62058.09
624.589	62209.04
624.945	62228.93
625.3	62302.83
625.655	62260.79
626.01	62234.8
626.365	62256.72
626.72	62205.65
627.075	62229.61
627.43	62257.18
627.785	62132.89
628.14	62213.34
628.495	62220.57
628.85	62220.57
629.205	62122.04
629.559	62246.1
629.914	62094.02
630.269	62112.77
630.623	61995.26
630.978	61924.3
631.332	62030.06
631.687	62093.57
632.041	61956.85
632.396	61983.51
632.75	61892.89
633.104	61872.78
633.459	61727.7
633.813	61788.04
634.167	61736.06
634.521	61672.33
634.875	61664.88
635.229	61691.77
635.583	61544.88
635.937	61566.57
636.291	61508.27
636.645	61487.48
636.999	61422.4
637.352	61549.62
637.706	61357.77
638.06	61463.3
638.413	61358.22
638.767	61301.95
639.121	61403.87
639.474	61235.06
639.828	61233.93
640.181	61303.08
640.534	61282.74
640.888	61225.34
641.241	61034.61
641.594	61158.9
641.947	61216.53
642.301	61141.5
642.654	61128.84
643.007	61101.5
643.36	61111.44
643.713	61062.41
644.066	61110.54
644.419	60938.34
644.771	60850.66
645.124	60605.47
645.477	60615.64
645.83	60406.6
646.182	60329.32
646.535	60233.95
646.888	60272.37
647.24	60122.32
647.593	60256.55
647.945	60247.74
648.298	60048.65
648.65	60045.71
649.002	59942.66
649.355	59937.24
649.707	59922.1
650.059	60002.09
650.411	60327.06
650.763	60310.79
651.115	60528.18
651.467	60367.96
651.819	60405.47
652.171	60295.65
652.523	60248.87
652.875	60261.52
653.227	60162.32
653.578	60283.67
653.93	60181.3
654.282	60094.3
654.633	60038.48
654.985	59995.54
655.337	60036.67
655.688	60016.11
656.039	60094.07
656.391	59937.46
656.742	59930.46
657.094	59825.38
657.445	59955.54
657.796	59919.84
658.147	59808.65
658.498	59853.62
658.849	59901.08
659.2	59856.56
659.551	59855.21
659.902	59942.44
660.253	59883.68
660.604	59860.63
660.955	59755.1
661.306	59904.7
661.656	59782.89
662.007	59825.38
662.358	59794.64
662.708	59769.11
663.059	59819.5
663.409	59694.31
663.76	59849.1
664.11	59760.29
664.461	59778.37
664.811	59806.39
665.161	59786.73
665.511	59670.8
665.862	59721.65
666.212	59714.19
666.562	59751.71
666.912	59675.55
667.262	59574.99
667.612	59608.88
667.962	59541.32
668.312	59487.98
668.662	59626.96
669.011	59553.74
669.361	59496.12
669.711	59472.84
670.06	59457.02
670.41	59414.99
670.76	59323.92
671.109	59365.95
671.459	59360.08
671.808	59327.99
672.157	59337.03
672.507	59154.21
672.856	59175.45
673.205	59193.3
673.554	59279.4
673.904	59125.73
674.253	59227.65
674.602	59149.91
674.951	58741.34
675.3	58619.31
675.649	59012.52
675.998	58991.5
676.346	58941.11
676.695	59010.93
677.044	58809.58
677.393	58926.19
677.741	58937.49
678.09	58892.97
678.438	58793.09
678.787	58826.98
679.135	58855.01
679.484	58725.07
679.832	58791.05
680.181	58705.86
680.529	58783.6
680.877	58691.17
681.225	58675.8
681.573	58775.23
681.922	58578.18
682.27	58593.32
682.618	58574.34
682.966	58481.46
683.314	58587.67
683.661	58450.05
684.009	58399.65
684.357	58264.29
684.705	58303.61
685.053	58245.98
685.4	58211.41
685.748	58096.16
686.095	58117.85
686.443	58061.35
686.79	58042.15
687.138	58057.29
687.485	57989.49
687.832	57877.18
688.18	57949.27
688.527	57715.38
688.874	57766.67
689.221	57647.35
689.568	57523.29
689.915	57509.05
690.262	57445.78
690.609	57388.6
690.956	57316.52
691.303	57304.09
691.65	57123.3
691.997	57039.01
692.344	56924.44
692.69	56861.61
693.037	56763.99
693.383	56616.19
693.73	56725.34
694.077	56528.97
694.423	56404.45
694.769	56358.57
695.116	56353.15
695.462	56207.62
695.808	56180.05
696.155	56220.05
696.501	55994.06
696.847	55970.34
697.193	55767.86
697.539	55922.88
697.885	55663.9
698.231	55592.49
698.577	55645.82
698.923	55542.55
699.269	55347.53
699.614	55156.35
699.96	55147.31
700.306	55290.58
700.651	55046.74
700.997	55037.03
701.342	54977.59
701.688	54972.85
702.033	54928.33
702.379	54876.81
702.724	54740.99
703.069	54891.27
703.415	54585.06
703.76	54562.24
704.105	54629.13
704.45	54444.05
704.795	54391.85
705.14	54161.8
705.485	54267.78
705.83	54114.57
706.175	54195.47
706.52	54116.15
706.865	53959.09
707.209	53871.41
707.554	53809.26
707.899	53927
708.243	53740.56
708.588	53688.81
708.932	53489.27
709.277	53471.19
709.621	53435.04
709.966	53257.19
710.31	53319.11
710.654	52987.36
710.998	53068.94
711.342	52918.44
711.687	52849.06
712.031	52732.46
712.375	52619.01
712.719	52682.29
713.063	52656.53
713.407	52588.05
713.75	52412.69
714.094	52284.78
714.438	52204.11
714.782	52261.96
715.125	52057.67
715.469	51996.66
715.812	51830.11
716.156	51689.09
716.499	51676.89
716.843	51619.26
717.186	51489.78
717.53	51611.81
717.873	51554.86
718.216	51447.29
718.559	51321.19
718.902	50988.09
719.246	51221.53
719.589	50983.57
719.932	50808.66
720.275	50829.68
720.617	50730.25
720.96	50713.75
721.303	50725.95
721.646	50570.48
721.989	50450.26
722.331	50606.18
722.674	50382.91
723.016	50444.61
723.359	50277.6
723.701	50378.39
724.044	50087.78
724.386	50034
724.729	50153.54
725.071	50034.22
725.413	50048.91
725.755	50043.71
726.097	49954.68
726.439	49668.58
726.782	49723.04
727.124	49923.94
727.465	49756.26
727.807	49742.7
728.149	49601.92
728.491	49581.8
728.833	49681.91
729.175	49502.48
729.516	49457.51
729.858	49255.94
730.199	49332.32
730.541	49325.31
730.882	49182.27
731.224	49250.96
731.565	49139.1
731.906	49023.63
732.248	49087.13
732.589	48702.5
732.93	48726.23
733.271	48639
733.612	48694.14
733.953	48613.02
734.294	48384.32
734.635	48436.07
734.976	48296.41
735.317	48195.85
735.658	48255.51
735.999	48074.5
736.339	47968.96
736.68	47965.12
737.021	47690.78
737.361	47727.62
737.702	47858.23
738.042	47729.42
738.383	47381.18
738.723	47455.31
739.063	47362.2
739.404	47380.73
739.744	47149.1
740.084	46964.02
740.424	46970.8
740.764	46942.1
741.104	46919.95
741.444	46695.33
741.784	46704.37
742.124	46754.76
742.464	46552.05
742.804	46616.91
743.143	46447.2
743.483	46504.37
743.823	46132.85
744.162	46008.34
744.502	46142.8
744.841	45978.73
745.181	46136.24
745.52	45840.66
745.86	45882.24
746.199	45705.97
746.538	45696.03
746.877	45689.02
747.216	45545.53
747.556	45416.49
747.895	45519.54
748.234	45493.78
748.573	45372.87
748.911	45202.03
749.25	45161.58
749.589	44933.11
749.928	45094.24
750.267	45065.09
750.605	44994.13
750.944	44932.21
751.283	44765.21
751.621	44909.38
751.96	44680.69
752.298	44513.91
752.636	44644.98
752.975	44553.46
753.313	44211.32
753.651	44427.14
753.989	44247.71
754.327	44145.34
754.666	43844.1
755.004	43973.59
755.342	43992.35
755.679	43906.25
756.017	43652.69
756.355	43656.31
756.693	43392.14
757.031	43505.58
757.368	43334.51
757.706	43080.51
758.044	42966.84
758.381	43203.89
758.719	42770.91
759.056	42884.35
759.394	42676.9
759.731	42400.07
760.068	42305.61
760.405	42298.61
760.743	42131.83
761.08	42162.34
761.417	41872.4
761.754	41742.91
762.091	41682.35
762.428	41515.8
762.765	41191.29
763.102	41283.04
763.438	40952.88
763.775	40864.97
764.112	40703.17
764.449	40712.66
764.785	40458.88
765.122	40368.71
765.458	40151.09
765.795	39939.12
766.131	40008.27
766.467	39801.95
766.804	39515.18
767.14	39273.6
767.476	39331.45
767.812	39000.39
768.148	39101.85
768.485	38946.6
768.821	38603.56
769.157	38595.2
769.492	38588.65
769.828	38495.54
770.164	38105.27
770.5	37953.86
770.836	37882.45
771.171	37663.47
771.507	37615.56
771.842	37323.37
772.178	37295.8
772.513	37312.75
772.849	37172.86
773.184	37086.31
773.519	36942.81
773.855	36752.99
774.19	36654.69
774.525	36593.44
774.86	36594.12
775.195	36482.49
775.53	36179.67
775.865	36103.51
776.2	35900.81
776.535	35657.65
776.87	35770.64
777.205	35654.03
777.539	35573.58
777.874	35467.6
778.209	35314.38
778.543	35168.85
778.878	35039.59
779.212	34996.88
779.547	34790.1
779.881	34715.75
780.215	34576.55
780.55	34682.99
780.884	34394.63
781.218	34397.12
781.552	34378.59
781.886	34170.23
782.22	34025.38
782.554	33817.25
782.888	33530.93
783.222	33346.07
783.556	33430.36
783.889	33312.85
784.223	33000.32
784.557	33034.89
784.89	33024.05
785.224	32845.29
785.557	32537.05
785.891	32508.58
786.224	32296.83
786.558	32465.19
786.891	32155.37
787.224	31977.52
787.557	31990.85
787.891	31824.08
788.224	31853.23
788.557	31706.57
788.89	31572.11
789.223	31514.26
789.556	31147.26
789.888	31012.8
790.221	31053.25
790.554	30724.9
790.887	30752.02
791.219	30598.57
791.552	30526.94
791.884	30378.69
792.217	30231.35
792.549	29992.71
792.882	29921.08
793.214	29747.97
793.546	29728.54
793.879	29624.81
794.211	29324.48
794.543	29438.83
794.875	29398.15
795.207	29340.53
795.539	29049.46
795.871	29021.44
796.203	28785.29
796.535	28629.13
796.867	28568.34
797.198	28431.85
797.53	28485.86
797.862	28213.1
798.193	28327.22
798.525	28150.05
798.856	28121.58
799.188	27754.13
799.519	27751.64
799.85	27593.23
800.182	27635.49
800.513	27717.75
800.844	27353.91
801.175	27437.53
801.506	27379.9
801.837	27281.83
802.168	27155.05
802.499	27135.61
802.83	26979.23
803.161	26975.17
803.491	26855.85
803.822	26935.62
804.153	26698.11
804.483	26676.19
804.814	26595.74
805.145	26433.49
805.475	26482.07
805.805	26432.13
806.136	26413.37
806.466	26473.71
806.796	26410.21
807.126	26165.47
807.457	26258.8
807.787	26122.99
808.117	25907.62
808.447	26075.08
808.777	26108.3
809.107	25862.43
809.436	25760.51
809.766	25707.4
810.096	25653.62
810.426	25541.31
810.755	25533.62
811.085	25535.2
811.414	25437.81
811.744	25189
812.073	25240.3
812.403	25300.18
812.732	25123.92
813.061	25220.86
813.39	24960.76
813.719	24906.52
814.049	25017.25
814.378	24816.58
814.707	24816.13
815.036	24704.49
815.365	24633.53
815.693	24506.98
816.022	24461.33
816.351	24268.12
816.68	24219.31
817.008	24312.41
817.337	23952.65
817.665	23958.52
817.994	24060.89
818.322	23977.51
818.651	23865.87
818.979	23885.08
819.307	23931.18
819.636	23699.77
819.964	23564.41
820.292	23631.3
820.62	23552.66
820.948	23500.68
821.276	23490.51
821.604	23474.02
821.932	23530.06
822.259	23493
822.587	23286.45
822.915	23397.18
823.243	23401.7
823.57	23450.29
823.898	23434.47
824.225	23262.27
824.553	23182.05
824.88	23306.79
825.207	23315.15
825.535	23231.31
825.862	23314.92
826.189	23058.21
826.516	23210.75
826.843	23225.66
827.17	23059.79
827.497	23174.59
827.824	23119
828.151	23169.39
828.478	23104.99
828.805	23162.61
829.131	23070.86
829.458	22996.51
829.785	22857.08
830.111	22893.24
830.438	23015.27
830.764	23053.91
831.09	23051.2
831.417	22949.96
831.743	22986.57
832.069	22850.53
832.395	22939.79
832.722	23035.61
833.048	22848.04
833.374	23031.77
833.7	22789.51
834.026	22924.2
834.351	22979.79
834.677	22836.74
835.003	22814.6
835.329	22917.87
835.654	22785.22
835.98	22749.29
836.306	22955.16
836.631	22801.04
836.956	22902.28
837.282	22972.79
837.607	22761.49
837.932	22707.26
838.258	22696.86
838.583	22751.55
838.908	22582.74
839.233	22712.45
839.558	22675.62
839.883	22538.22
840.208	22462.29
840.533	22483.99
840.858	22509.3
841.182	22505.68
841.507	22613.02
841.832	22422.97
842.156	22281.05
842.481	22416.87
842.805	22219.81
843.13	22268.4
843.454	22274.73
843.778	22196.31
844.103	22102.53
844.427	22025.47
844.751	22103.88
845.075	22008.97
845.399	21993.6
845.723	21792.25
846.047	21762.65
846.371	21627.06
846.695	21652.59
847.019	21468.42
847.343	21345.48
847.666	21240.4
847.99	21168.09
848.313	21146.39
848.637	20970.8
848.96	21014.42
849.284	21019.84
849.607	20749.57
849.931	20702.79
850.254	20642.9
850.577	20623.7
850.9	20425.51
851.223	20361.33
851.546	20218.28
851.869	20113.88
852.192	20239.75
852.515	19946.65
852.838	19867.56
853.161	19875.92
853.483	19702.82
853.806	19698.3
854.129	19664.85
854.451	19610.61
854.774	19438.87
855.096	19388.02
855.419	19430.05
855.741	19344.18
856.063	19110.74
856.385	19187.12
856.708	19091.53
857.03	18953.23
857.352	19003.17
857.674	18897.19
857.996	18829.39
858.318	18711.2
858.64	18696.74
858.961	18660.36
859.283	18548.95
859.605	18496.97
859.926	18497.42
860.248	18402.96
860.57	18339.01
860.891	18275.28
861.212	18160.26
861.534	18232.12
861.855	18098.34
862.176	18085.91
862.498	18194.38
862.819	18040.71
863.14	18108.96
863.461	17960.26
863.782	17991.67
864.103	17881.17
864.424	17868.74
864.745	17960.04
865.065	17852.47
865.386	17825.8
865.707	17751.91
866.027	17842.07
866.348	17786.93
866.668	17850.21
866.989	17759.14
867.309	17614.28
867.63	17811.57
867.95	17677.33
868.27	17631.91
868.59	17571.57
868.91	17644.34
869.23	17658.8
869.55	17572.93
869.87	17604.57
870.19	17513.49
870.51	17600.72
870.83	17629.42
871.15	17559.59
871.469	17510.56
871.789	17582.65
872.109	17476.66
872.428	17460.16
872.748	17500.16
873.067	17380.62
873.386	17512.59
873.706	17449.99
874.025	17367.28
874.344	17359.37
874.663	17325.7
874.982	17458.35
875.301	17405.93
875.62	17205.71
875.939	17191.69
876.258	17252.48
876.577	17181.3
876.896	17173.16
877.214	17141.3
877.533	17222.65
877.852	17125.26
878.17	17266.27
878.489	17092.49
878.807	17145.37
879.125	17083.9
879.444	17095.2
879.762	17128.65
880.08	17088.87
880.398	16919.61
880.716	16998.71
881.034	16945.6
881.352	16881.65
881.67	16874.42
881.988	16897.69
882.306	16798.48
882.624	16745.38
882.941	16671.48
883.259	16557.36
883.577	16639.39
883.894	16530.02
884.212	16561.65
884.529	16477.82
884.846	16423.81
885.164	16396.01
885.481	16378.61
885.798	16412.28
886.115	16266.75
886.432	16340.19
886.75	16156.24
887.067	16160.76
887.383	16124.38
887.7	16057.04
888.017	16036.02
888.334	16049.58
888.651	15946.98
888.967	15929.81
889.284	15780.66
889.6	15776.82
889.917	15653.88
890.233	15663.83
890.55	15739.76
890.866	15689.81
891.182	15654.79
891.498	15670.15
891.815	15451.63
892.131	15448.24
892.447	15286.43
892.763	15331.63
893.079	15195.36
893.395	15085.54
893.71	15230.39
894.026	15105.2
894.342	15177.51
894.657	14946.56
894.973	14975.26
895.289	14874.69
895.604	14899.1
895.92	14742.04
896.235	14767.8
896.55	14751.31
896.865	14686.68
897.181	14658.2
897.496	14633.57
897.811	14537.98
898.126	14466.79
898.441	14451.43
898.756	14355.16
899.071	14320.81
899.386	14298.21
899.7	14248.72
900.015	14072
900.33	13997.43
900.644	14023.87
900.959	14055.28
901.273	14066.13
901.588	13981.84
901.902	13973.47
902.216	13922.18
902.531	13917.66
902.845	13847.6
903.159	13748.4
903.473	13678.11
903.787	13606.48
904.101	13587.04
904.415	13603.77
904.729	13584.11
905.042	13489.42
905.356	13468.4
905.67	13451
905.984	13433.6
906.297	13415.07
906.611	13339.37
906.924	13267.5
907.237	13264.34
907.551	13125.14
907.864	13225.25
908.177	13158.81
908.491	13083.33
908.804	12977.57
909.117	12899.15
909.43	12902.99
909.743	12872.49
910.056	12809.21
910.368	12819.38
910.681	12790.68
910.994	12698.71
911.307	12679.05
911.619	12595.88
911.932	12603.34
912.244	12525.38
912.557	12510.91
912.869	12419.16
913.181	12428.43
913.494	12407.64
913.806	12336.91
914.118	12307.53
914.43	12232.73
914.742	12182.79
915.054	12082
915.366	12041.77
915.678	12024.83
915.99	11990.25
916.302	11914.55
916.613	11900.31
916.925	11867.09
917.236	11794.32
917.548	11840.88
917.859	11816.69
918.171	11745.28
918.482	11617.6
918.794	11631.62
919.105	11515.46
919.416	11542.13
919.727	11399.53
920.038	11331.74
920.349	11319.08
920.66	11254.22
920.971	11226.43
921.282	11155.24
921.593	11139.88
921.903	11082.48
922.214	11041.57
922.525	11031.63
922.835	10957.28
923.146	10932.65
923.456	10844.07
923.767	10876.15
924.077	10832.09
924.387	10691.75
924.697	10649.27
925.008	10618.99
925.318	10588.03
925.628	10558.42
925.938	10480.68
926.248	10391.87
926.558	10358.65
926.867	10373.12
927.177	10283.18
927.487	10228.04
927.796	10103.97
928.106	10099.68
928.416	10084.09
928.725	10113.24
929.034	9941.49
929.344	10029.62
929.653	9983.3
929.962	9840.93
930.271	9844.54
930.581	9776.52
930.89	9696.52
931.199	9714.38
931.508	9613.14
931.817	9680.71
932.125	9583.53
932.434	9563.42
932.743	9448.17
933.051	9419.24
933.36	9403.43
933.669	9319.36
933.977	9275.74
934.286	9305.8
934.594	9235.97
934.902	9160.72
935.21	9137.44
935.519	9104
935.827	9074.39
936.135	9016.77
936.443	8870.78
936.751	8859.48
937.059	8898.35
937.367	8776.32
937.674	8858.13
937.982	8775.19
938.29	8659.26
938.597	8690.22
938.905	8606.84
939.213	8577.68
939.52	8543.56
939.827	8595.99
940.135	8543.79
940.442	8387.41
940.749	8440.96
941.056	8479.61
941.363	8366.84
941.67	8402.1
941.977	8356.45
942.284	8219.28
942.591	8261.31
942.898	8204.36
943.205	8187.19
943.511	8157.13
943.818	8162.78
944.125	8080.52
944.431	8052.5
944.738	8030.58
945.044	8060.18
945.35	7928.44
945.657	7915.33
945.963	7835.78
946.269	7895.44
946.575	7869.91
946.881	7808.44
947.187	7821.32
947.493	7786.29
947.799	7726.63
948.105	7644.15
948.41	7716.24
948.716	7711.04
949.022	7619.74
949.327	7594.43
949.633	7518.05
949.938	7486.19
950.244	7541.1
950.549	7424.27
950.854	7408
951.16	7429.01
951.465	7302.92
951.77	7348.79
952.075	7315.57
952.38	7270.15
952.685	7257.72
952.99	7236.7
953.294	7204.84
953.599	7147.44
953.904	7146.31
954.209	7078.97
954.513	7073.54
954.818	7048.23
955.122	6973.21
955.426	6996.48
955.731	6973.66
956.035	6933.66
956.339	6931.17
956.643	6838.75
956.948	6812.76
957.252	6797.17
957.556	6815.92
957.86	6750.84
958.163	6751.52
958.467	6642.82
958.771	6667.68
959.075	6634.01
959.378	6574.8
959.682	6561.69
959.985	6553.56
960.289	6504.07
960.592	6507.23
960.896	6440.11
961.199	6381.36
961.502	6431.75
961.805	6391.53
962.108	6318.53
962.411	6321.92
962.714	6253.45
963.017	6292.77
963.32	6225.88
963.623	6250.29
963.926	6155.37
964.228	6149.95
964.531	6106.34
964.833	6117.64
965.136	6017.75
965.438	6053
965.741	6004.64
966.043	5965.55
966.345	5930.3
966.648	5894.82
966.95	5837.64
967.252	5825.89
967.554	5842.39
967.856	5798.32
968.158	5787.7
968.46	5744.09
968.761	5704.99
969.063	5692.79
969.365	5630.64
969.666	5649.85
969.968	5592.23
970.269	5586.58
970.571	5529.18
970.872	5531.44
971.174	5508.16
971.475	5446.24
971.776	5437.65
972.077	5373.7
972.378	5426.58
972.679	5374.38
972.98	5387.03
973.281	5349.29
973.582	5294.61
973.883	5300.93
974.183	5262.52
974.484	5233.59
974.785	5220.71
975.085	5184.55
975.386	5205.34
975.686	5093.03
975.986	5093.03
976.287	5095.29
976.587	5028.62
976.887	5027.72
977.187	4994.5
977.487	4973.94
977.787	4973.03
978.087	4907.5
978.387	4878.57
978.687	4900.27
978.987	4863.21
979.286	4804.22
979.586	4825.69
979.885	4826.82
980.185	4756.54
980.484	4742.98
980.784	4764.45
981.083	4746.82
981.382	4717.22
981.682	4676.09
981.981	4616.43
982.28	4636.77
982.579	4604.23
982.878	4574.4
983.177	4582.08
983.475	4571.24
983.774	4518.13
984.073	4507.73
984.372	4456.21
984.67	4445.59
984.969	4446.72
985.267	4487.4
985.566	4439.04
985.864	4374.18
986.162	4348.19
986.461	4314.52
986.759	4331.24
987.057	4302.09
987.355	4253.73
987.653	4250.34
987.951	4266.38
988.249	4210.57
988.547	4197.46
988.844	4231.13
989.142	4213.05
989.44	4157.01
989.737	4131.7
990.035	4119.5
990.332	4102.55
990.63	4110.23
990.927	4045.15
991.224	4052.83
991.521	4028.2
991.819	4030.91
992.116	4014.41
992.413	3979.16
992.71	3983
993.006	3956.56
993.303	3910.69
993.6	3880.41
993.897	3886.51
994.193	3875.43
994.49	3875.89
994.787	3878.37
995.083	3846.51
995.379	3823.46
995.676	3789.34
995.972	3777.13
996.268	3723.57
996.565	3705.5
996.861	3726.51
997.157	3704.37
997.453	3680.86
997.749	3676.12
998.044	3627.98
998.34	3639.28
998.636	3608.78
998.932	3605.39
999.227	3598.83
999.523	3528.33
999.818	3505.5
1000.114	3549.12
1000.409	3508.89
1000.704	3441.55
1001	3439.29
1001.295	3468.67
1001.59	3439.29
1001.885	3418.95
1002.18	3388.67
1002.475	3348.22
1002.77	3330.82
1003.065	3345.05
1003.359	3343.02
1003.654	3291.72
1003.949	3242.46
1004.243	3248.78
1004.538	3237.71
1004.832	3226.86
1005.127	3210.59
1005.421	3145.06
1005.715	3177.83
1006.009	3159.52
1006.304	3121.56
1006.598	3067.77
1006.892	3096.25
1007.186	3071.16
1007.48	3035.68
1007.773	3033.42
1008.067	3010.37
1008.361	2984.16
1008.655	2955.23
1008.948	2941
1009.242	2960.2
1009.535	2902.13
1009.829	2869.59
1010.122	2880.43
1010.415	2858.96
1010.708	2845.63
1011.001	2840.21
1011.295	2830.72
1011.588	2820.32
1011.881	2791.62
1012.173	2724.96
1012.466	2767.67
1012.759	2696.71
1013.052	2721.34
1013.344	2693.54
1013.637	2652.64
1013.93	2590.04
1014.222	2632.08
1014.514	2612.42
1014.807	2569.71
1015.099	2571.97
1015.391	2560.89
1015.683	2545.75
1015.976	2547.33
1016.268	2508.24
1016.56	2470.95
1016.851	2449.26
1017.143	2447.22
1017.435	2429.6
1017.727	2429.82
1018.018	2416.49
1018.31	2387.34
1018.602	2358.64
1018.893	2345.31
1019.185	2348.24
1019.476	2324.74
1019.767	2308.92
1020.058	2305.08
1020.35	2295.59
1020.641	2258.3
1020.932	2214.91
1021.223	2190.96
1021.514	2182.37
1021.804	2185.99
1022.095	2141.7
1022.386	2154.12
1022.677	2119.77
1022.967	2116.61
1023.258	2097.4
1023.548	2093.79
1023.839	2065.09
1024.129	2099.21
1024.419	2057.63
1024.709	2033
1025	1972.43
1025.29	2018.08
1025.58	2022.6
1025.87	1966.78
1026.16	1932.66
1026.449	1932.21
1026.739	1941.7
1027.029	1928.82
1027.319	1886.56
1027.608	1916.39
1027.898	1884.98
1028.187	1821.25
1028.477	1900.8
1028.766	1816.96
1029.055	1808.82
1029.344	1824.19
1029.634	1818.31
1029.923	1754.59
1030.212	1780.57
1030.501	1745.32
1030.79	1720.01
1031.078	1739.45
1031.367	1700.8
1031.656	1686.79
1031.945	1704.64
1032.233	1670.97
1032.522	1684.31
1032.81	1621.93
1033.099	1653.35
1033.387	1647.47
1033.675	1579
1033.963	1601.6
1034.251	1609.28
1034.54	1599.11
1034.828	1577.87
1035.116	1577.87
1035.403	1576.06
1035.691	1574.25
1035.979	1529.28
1036.267	1502.62
1036.554	1523.18
1036.842	1475.27
1037.129	1464.88
1037.417	1480.92
1037.704	1488.83
1037.992	1499.23
1038.279	1433.01
1038.566	1457.87
1038.853	1457.87
1039.14	1457.87
