Data from aluminium_macbook_case_FLMS001491_084.txt Node
Date: Tue Feb 07 10:44:17 GMT 2017
User: dcchb
Spectrometer: FLMS00149
Trigger mode: 0
Integration Time (sec): 2.000000E-2
Scans to average: 10
Electric dark correction enabled: true
Nonlinearity correction enabled: false
Boxcar width: 0
XAxis mode: Wavelengths
Number of Pixels in Spectrum: 2048
>>>>>Begin Spectral Data<<<<<
341.393	-25.31
341.776	-25.31
342.16	-25.31
342.543	-55.37
342.927	-86.1
343.31	-65.76
343.693	-68.25
344.077	-72.09
344.46	-46.33
344.843	-65.31
345.226	-38.64
345.61	-36.38
345.993	-9.49
346.376	16.27
346.759	4.97
347.142	19.21
347.525	20.11
347.908	49.49
348.291	83.16
348.674	104.18
349.057	104.86
349.44	114.12
349.823	137.62
350.206	169.94
350.588	249.48
350.971	253.1
351.354	287.22
351.737	298.75
352.119	287.45
352.502	311.18
352.884	314.79
353.267	335.81
353.65	369.93
354.032	361.8
354.414	343.04
354.797	381.91
355.179	384.62
355.562	376.94
355.944	367
356.326	387.79
356.709	401.8
357.091	402.93
357.473	414.9
357.855	423.04
358.238	415.13
358.62	421.46
359.002	400.89
359.384	420.33
359.766	438.41
360.148	422.81
360.53	412.87
360.912	425.53
361.294	429.82
361.676	412.42
362.057	411.06
362.439	424.17
362.821	434.56
363.203	399.54
363.584	417.62
363.966	431.85
364.348	422.36
364.729	413.77
365.111	431.4
365.493	416.26
365.874	430.95
366.256	432.31
366.637	424.17
367.019	416.71
367.4	433.66
367.781	418.97
368.163	448.35
368.544	422.14
368.925	423.49
369.306	461
369.688	449.71
370.069	449.93
370.45	464.39
370.831	450.61
371.212	444.51
371.593	462.36
371.974	460.1
372.355	462.13
372.736	462.81
373.117	475.92
373.498	449.93
373.879	466.88
374.26	459.87
374.641	445.86
375.021	468.69
375.402	483.15
375.783	506.43
376.163	517.5
376.544	540.32
376.925	525.64
377.305	507.78
377.686	499.65
378.066	530.83
378.447	539.19
378.827	536.94
379.208	549.36
379.588	534.45
379.968	542.36
380.349	572.41
380.729	568.8
381.109	583.26
381.489	578.29
381.87	595.01
382.25	600.44
382.63	605.63
383.01	604.5
383.39	576.03
383.77	627.33
384.15	599.98
384.53	613.54
384.91	632.75
385.29	668.01
385.67	662.13
386.049	663.71
386.429	663.94
386.809	672.07
387.189	673.88
387.568	676.37
387.948	704.61
388.328	720.66
388.707	704.39
389.087	734.22
389.466	731.28
389.846	738.29
390.225	741
390.605	759.98
390.984	765.63
391.363	783.03
391.743	762.24
392.122	787.55
392.501	787.55
392.881	792.07
393.26	822.35
393.639	837.04
394.018	828.9
394.397	841.11
394.776	853.08
395.155	877.94
395.534	899.86
395.913	887.21
396.292	893.31
396.671	881.33
397.05	933.53
397.429	914.78
397.808	948.22
398.186	954.33
398.565	950.26
398.944	945.96
399.323	955.46
399.701	957.94
400.08	977.83
400.458	1002.91
400.837	1021.67
401.215	1056.92
401.594	1004.04
401.972	1061.22
402.351	1077.94
402.729	1092.4
403.107	1097.82
403.486	1105.51
403.864	1105.73
404.242	1115
404.62	1137.82
404.999	1145.05
405.377	1176.01
405.755	1159.74
406.133	1223.24
406.511	1218.27
406.889	1233.87
407.267	1271.15
407.645	1266.41
408.023	1301.89
408.401	1309.34
408.779	1324.48
409.156	1359.29
409.534	1374.65
409.912	1387.53
410.29	1441.77
410.667	1449.45
411.045	1440.87
411.422	1440.64
411.8	1501.2
412.178	1478.38
412.555	1537.81
412.933	1545.27
413.31	1562.22
413.687	1640.41
414.065	1617.58
414.442	1634.08
414.819	1684.02
415.197	1689.67
415.574	1745.26
415.951	1731.93
416.328	1751.82
416.705	1776.68
417.082	1756.34
417.46	1806.28
417.837	1822.32
418.214	1836.34
418.591	1856.22
418.967	1885.15
419.344	1886.28
419.721	1932.6
420.098	1905.94
420.475	1964.92
420.852	1955.88
421.228	1970.12
421.605	2010.34
421.982	2039.04
422.358	2076.1
422.735	2101.87
423.111	2114.29
423.488	2166.72
423.864	2188.64
424.241	2212.15
424.617	2200.17
424.994	2252.6
425.37	2321.07
425.746	2300.05
426.123	2346.83
426.499	2334.63
426.875	2370.11
427.251	2411.91
427.627	2461.86
428.003	2444
428.379	2491.91
428.756	2529.88
429.132	2586.15
429.507	2630.67
429.883	2657.56
430.259	2735.07
430.635	2716.76
431.011	2780.04
431.387	2850.09
431.763	2897.55
432.138	2905.01
432.514	2951.33
432.89	2942.97
433.265	3076.98
433.641	3092.57
434.016	3122.4
434.392	3163.31
434.767	3267.94
435.143	3249.41
435.518	3277.43
435.894	3316.52
436.269	3385.67
436.644	3405.33
437.02	3443.98
437.395	3443.53
437.77	3530.53
438.145	3594.48
438.52	3614.37
438.895	3668.6
439.271	3668.38
439.646	3761.26
440.021	3748.38
440.395	3768.94
440.77	3845.55
441.145	3841.71
441.52	3903.17
441.895	3913.12
442.27	3933.23
442.645	3956.73
443.019	4034.92
443.394	4039.89
443.769	4089.84
444.143	4111.98
444.518	4156.27
444.892	4104.07
445.267	4168.7
445.641	4227.46
446.016	4250.06
446.39	4279.44
446.764	4264.97
447.139	4295.93
447.513	4379.09
447.887	4486.44
448.262	4427.91
448.636	4469.04
449.01	4530.05
449.384	4607.79
449.758	4675.81
450.132	4696.83
450.506	4712.64
450.88	4761
451.254	4732.98
451.628	4853.88
452.002	4880.32
452.376	4924.16
452.75	5003.71
453.123	5052.07
453.497	5128
453.871	5151.5
454.244	5283.25
454.618	5362.34
454.992	5358.73
455.365	5384.72
455.739	5507.2
456.112	5575.67
456.486	5616.35
456.859	5732.96
457.232	5830.36
457.606	5790.36
457.979	5914.87
458.352	6068.77
458.725	6195.32
459.099	6166.62
459.472	6309.66
459.845	6382.21
460.218	6432.15
460.591	6488.64
460.964	6502.43
461.337	6651.35
461.71	6807.28
462.083	6868.29
462.456	6885.69
462.829	6866.71
463.201	7080.94
463.574	7039.36
463.947	7167.72
464.32	7380.37
464.692	7406.36
465.065	7571.78
465.438	7626.01
465.81	7756.41
466.183	7837.99
466.555	8047.25
466.928	8092.22
467.3	8109.84
467.672	8244.98
468.045	8396.62
468.417	8495.14
468.789	8589.83
469.161	8705.08
469.534	8851.97
469.906	8981.23
470.278	9099.42
470.65	9189.81
471.022	9350.26
471.394	9560.43
471.766	9645.62
472.138	9726.98
472.51	9936.46
472.882	10004.03
473.253	10191.14
473.625	10337.36
473.997	10533.51
474.369	10696.89
474.74	10834.29
475.112	11069.31
475.484	11220.95
475.855	11365.12
476.227	11544.56
476.598	11905.68
476.97	11905.45
477.341	12308.83
477.713	12437.64
478.084	12508.82
478.455	12839.89
478.827	13033.33
479.198	13412.53
479.569	13425.86
479.94	13905.62
480.311	13931.39
480.682	14237.14
481.053	14550.35
481.424	14751.02
481.795	14922.77
482.166	15208.19
482.537	15419.03
482.908	15733.82
483.279	15797.1
483.65	16104.44
484.021	16483.18
484.391	16584.42
484.762	16908.71
485.133	17054.92
485.503	17240
485.874	17695.13
486.244	17820.32
486.615	18126.3
486.985	18446.29
487.356	18756.12
487.726	18936
488.097	19357.91
488.467	19354.75
488.837	19898.91
489.207	19995.41
489.578	20467.71
489.948	20592.23
490.318	20926.91
490.688	20951.54
491.058	21302.04
491.428	21591.52
491.798	21802.82
492.168	22239.19
492.538	22348.11
492.908	22497.94
493.278	22875.1
493.648	22792.62
494.017	23239.84
494.387	23380.63
494.757	23605.93
495.126	23849.09
495.496	23918.02
495.866	24121.4
496.235	24437.1
496.605	24645.68
496.974	24898.33
497.344	25205.21
497.713	25157.76
498.082	25575.6
498.452	25792.09
498.821	25959.54
499.19	25983.5
499.559	26284.51
499.928	26602.69
500.298	26700.77
500.667	26951.83
501.036	26939.18
501.405	27337.81
501.774	27306.85
502.143	27671.14
502.512	27633.17
502.88	27904.8
503.249	28012.6
503.618	28049.21
503.987	28311.57
504.356	28567.61
504.724	28703.65
505.093	28932.8
505.462	29046.47
505.83	29249.17
506.199	29424.76
506.567	29840.57
506.936	29739.56
507.304	30201.69
507.672	30284.85
508.041	30542.7
508.409	30850.04
508.777	31072.63
509.145	31390.81
509.514	31417.93
509.882	31746.96
510.25	31868.99
510.618	32158.25
510.986	32282.77
511.354	32658.12
511.722	32800.95
512.09	33198
512.458	33241.39
512.826	33462.4
513.193	33647.02
513.561	33881.14
513.929	34124.07
514.297	34342.15
514.664	34649.71
515.032	34846.32
515.4	35030.27
515.767	35145.97
516.135	35458.73
516.502	35231.62
516.869	35870.02
517.237	35990.01
517.604	36091.25
517.972	36574.63
518.339	36741.41
518.706	36829.09
519.073	37097.78
519.44	37391.33
519.808	37689.63
520.175	37744.77
520.542	38341.14
520.909	38460.91
521.276	38597.86
521.643	39113.55
522.009	39451.39
522.376	39662.01
522.743	40056.35
523.11	40363.91
523.477	40649.78
523.843	40940.17
524.21	41336.54
524.577	41725
524.943	41835.06
525.31	42120.93
525.676	42343.52
526.043	42683.85
526.409	42818.76
526.776	43376.49
527.142	43415.36
527.508	43595.46
527.874	44008.56
528.241	44161.55
528.607	44290.36
528.973	44671.37
529.339	44757.69
529.705	45159.72
530.071	45434.74
530.437	45619.59
530.803	45878.34
531.169	46097.54
531.535	46027.26
531.901	46419.57
532.267	46517.87
532.632	46769.62
532.998	46933.68
533.364	47191.53
533.73	47383.61
534.095	47725.07
534.461	47824.51
534.826	48015.46
535.192	48257.71
535.557	48526.63
535.923	48503.58
536.288	48864.93
536.653	48984.93
537.019	48837.59
537.384	49149.22
537.749	49213.62
538.114	49403.22
538.479	49435.76
538.845	49633.27
539.21	49578.36
539.575	49787.84
539.94	49970.21
540.305	50272.8
540.67	50095.41
541.034	50304.67
541.399	50341.28
541.764	50545.11
542.129	50631.66
542.494	50755.73
542.858	50845.44
543.223	50950.07
543.587	51156.62
543.952	51120.24
544.316	51216.28
544.681	51226
545.045	51479.55
545.41	51733.1
545.774	51735.36
546.138	51775.36
546.503	51908.92
546.867	51975.58
547.231	52370.6
547.595	52414.22
547.959	52432.52
548.324	52598.84
548.688	52647.2
549.052	52852.62
549.416	52826.63
549.779	52945.27
550.143	53051.71
550.507	53245.38
550.871	53312.04
551.235	53472.49
551.599	53744.35
551.962	53747.97
552.326	53714.52
552.689	53908.64
553.053	53831.13
553.417	53953.38
553.78	54278.57
554.143	54273.83
554.507	54409.19
554.87	54435.18
555.234	54645.57
555.597	54537.55
555.96	54669.07
556.323	54810.08
556.686	54854.6
557.05	55081.94
557.413	55159.45
557.776	55300.24
558.139	55433.57
558.502	55491.42
558.865	55503.17
559.228	55757.86
559.59	55828.36
559.953	55883.28
560.316	56176.6
560.679	56210.05
561.041	56434.45
561.404	56580.21
561.767	56742.91
562.129	56603.26
562.492	56991.04
562.854	56900.2
563.217	57046.64
563.579	57147.65
563.941	57260.42
564.304	57415.21
564.666	57547.87
565.028	57631.93
565.39	57653.85
565.753	57783.11
566.115	57878.48
566.477	57961.41
566.839	58058.36
567.201	58230.33
567.563	58261.07
567.925	58396.43
568.287	58445.47
568.648	58511.46
569.01	58594.17
569.372	58787.38
569.734	58718.23
570.095	58825.57
570.457	58986.25
570.819	58969.07
571.18	58983.99
571.542	59181.27
571.903	59160.7
572.265	59291.55
572.626	59420.36
572.987	59443.18
573.349	59544.42
573.71	59592.11
574.071	59599.79
574.432	59741.71
574.794	59910.97
575.155	59870.52
575.516	59728.37
575.877	59937.18
576.238	59945.32
576.599	60108.02
576.96	60072.54
577.32	60112.77
577.681	60247.46
578.042	60311.86
578.403	60274.35
578.763	60352.54
579.124	60385.76
579.485	60467.11
579.845	60489.03
580.206	60487
580.566	60454.68
580.927	60543.27
581.287	60581.01
581.648	60559.99
582.008	60650.61
582.368	60536.26
582.728	60652.87
583.089	60592.98
583.449	60565.64
583.809	60624.17
584.169	60643.83
584.529	60555.47
584.889	60770.38
585.249	60498.75
585.609	60513.21
585.969	60649.7
586.329	60621.23
586.688	60592.31
587.048	60638.41
587.408	60517.28
587.768	60633.66
588.127	60552.31
588.487	60591.4
588.846	60738.97
589.206	60652.19
589.565	60667.56
589.925	60728.8
590.284	60729.48
590.643	60753.2
591.003	60798.4
591.362	60894.44
591.721	60830.04
592.08	60845.41
592.44	60847.21
592.799	60853.09
593.158	60812.64
593.517	60877.95
593.876	60899.42
594.235	60797.27
594.593	60851.96
594.952	60929.7
595.311	60861.45
595.67	60882.47
596.029	61043.37
596.387	60958.17
596.746	60996.59
597.104	60899.42
597.463	60880.66
597.822	60970.15
598.18	60874.56
598.538	60920.43
598.897	61040.88
599.255	60865.97
599.613	61166.08
599.972	60930.15
600.33	61002.69
600.688	60942.8
601.046	61031.16
601.404	61067.55
601.762	61027.1
602.12	61183.7
602.478	61172.18
602.836	61188.22
603.194	61015.57
603.552	61058.73
603.91	60981.45
604.268	61199.97
604.625	61119.75
604.983	61276.58
605.341	61147.32
605.698	61271.61
606.056	61328.78
606.413	61369.46
606.771	61403.13
607.128	61455.79
607.485	61434.77
607.843	61392.06
608.2	61512.96
608.557	61578.27
608.914	61551.83
609.272	61631.83
609.629	61659.4
609.986	61702.33
610.343	61589.34
610.7	61827.98
611.057	61694.87
611.414	61715.67
611.771	61750.69
612.127	61848.09
612.484	61787.08
612.841	61855.32
613.198	61728.55
613.554	61751.82
613.911	61844.7
614.267	61893.51
614.624	61837.24
614.98	61903.23
615.337	61996.11
615.693	61902.1
616.05	61862.33
616.406	62017.35
616.762	61933.29
617.118	61925.83
617.475	61949.56
617.831	62009.89
618.187	62006.28
618.543	61972.38
618.899	62104.13
619.255	62052.15
619.611	62080.85
619.967	62082.21
620.323	62144.13
620.678	62091.93
621.034	61998.37
621.39	62012.15
621.746	61961.31
622.101	62271.58
622.457	62027.07
622.812	62116.33
623.168	62149.55
623.523	62170.12
623.879	62236.56
624.234	62037.01
624.589	62206.5
624.945	62263.67
625.3	62255.76
625.655	62303.9
626.01	62250.34
626.365	62283.11
626.72	62208.99
627.075	62239.72
627.43	62229.1
627.785	62129.89
628.14	62264.58
628.495	62276.33
628.85	62193.17
629.205	62094.86
629.559	62290.57
629.914	62096.45
630.269	62004.92
630.623	62008.99
630.978	61971.03
631.332	62005.6
631.687	62092.15
632.041	61910.01
632.396	61950.91
632.75	61853.06
633.104	61836.79
633.459	61757.92
633.813	61727.19
634.167	61726.29
634.521	61651.49
634.875	61634.09
635.229	61653.52
635.583	61526.74
635.937	61559.74
636.291	61537.82
636.645	61492.39
636.999	61410.36
637.352	61461.43
637.706	61316.58
638.06	61384.83
638.413	61329.23
638.767	61358.39
639.121	61338.5
639.474	61125.85
639.828	61220.76
640.181	61210.82
640.534	61239.29
640.888	61147.54
641.241	61049.47
641.594	61061.45
641.947	61185.74
642.301	61054.21
642.654	61076.13
643.007	61078.39
643.36	61101.44
643.713	61053.76
644.066	61144.38
644.419	60964.95
644.771	60825.07
645.124	60600.67
645.477	60566.32
645.83	60448.13
646.182	60320.67
646.535	60194.58
646.888	60276.38
647.24	60085.43
647.593	60255.59
647.945	60155.25
648.298	60070.06
648.65	59990.06
649.002	59931.31
649.355	60029.16
649.707	59996.61
650.059	59973.11
650.411	60296.72
650.763	60285.87
651.115	60475.7
651.467	60377.17
651.819	60440.22
652.171	60267.57
652.523	60212.43
652.875	60262.6
653.227	60095.82
653.578	60254.91
653.93	60144.86
654.282	60111.41
654.633	60066.44
654.985	60114.58
655.337	60011.76
655.688	60003.17
656.039	60085.43
656.391	59862.83
656.742	59929.72
657.094	59879.56
657.445	59994.35
657.796	59867.8
658.147	59866.22
658.498	59875.26
658.849	59954.81
659.2	59890.63
659.551	59819.44
659.902	59847.92
660.253	59830.29
660.604	59867.13
660.955	59751.42
661.306	59874.36
661.656	59755.26
662.007	59807.24
662.358	59809.73
662.708	59787.13
663.059	59751.65
663.409	59709.84
663.76	59804.98
664.11	59780.12
664.461	59800.91
664.811	59762.04
665.161	59815.15
665.511	59708.94
665.862	59683.85
666.212	59742.16
666.562	59726.79
666.912	59646.12
667.262	59617.42
667.612	59656.28
667.962	59580.35
668.312	59510.3
668.662	59692.89
669.011	59571.31
669.361	59501.26
669.711	59487.25
670.06	59431.88
670.41	59336.74
670.76	59308.5
671.109	59391.66
671.459	59295.62
671.808	59307.14
672.157	59301.94
672.507	59081.16
672.856	59085
673.205	59173.13
673.554	59189.18
673.904	59137.43
674.253	59244.09
674.602	59104.43
674.951	58719.59
675.3	58551.91
675.649	58965.68
675.998	59001.16
676.346	58966.36
676.695	59005.68
677.044	58814.05
677.393	58928.85
677.741	58906.93
678.09	58899.92
678.438	58817.44
678.787	58875.97
679.135	58865.12
679.484	58620.61
679.832	58813.37
680.181	58606.37
680.529	58816.98
680.877	58688.85
681.225	58564.11
681.573	58746.7
681.922	58530.21
682.27	58532.25
682.618	58547.16
682.966	58519.14
683.314	58528.4
683.661	58442.53
684.009	58348.97
684.357	58279.15
684.705	58249.09
685.053	58288.41
685.4	58273.27
685.748	58104.01
686.095	58158.92
686.443	58034.18
686.79	58002.77
687.138	57931.58
687.485	57946.05
687.832	57921.64
688.18	57921.64
688.527	57727.3
688.874	57720.97
689.221	57570.01
689.568	57568.88
689.915	57456.12
690.262	57442.56
690.609	57378.83
690.956	57250.47
691.303	57228.33
691.65	57019.07
691.997	57070.59
692.344	56830.37
692.69	56838.05
693.037	56774.78
693.383	56637.83
693.73	56697.72
694.077	56550.6
694.423	56504.5
694.769	56405.97
695.116	56249.59
695.462	56275.13
695.808	56170.95
696.155	56112.2
696.501	55936.38
696.847	55993.33
697.193	55747.23
697.539	55872.2
697.885	55675.6
698.231	55535.26
698.577	55561.25
698.923	55553.12
699.269	55432.89
699.614	55173.46
699.96	55166.46
700.306	55297.98
700.651	55133.92
700.997	54975.05
701.342	55075.16
701.688	54951.1
702.033	54908.61
702.379	54771.89
702.724	54838.56
703.069	54893.02
703.415	54514.05
703.76	54591.78
704.105	54563.99
704.45	54467.49
704.795	54282.41
705.14	54226.6
705.485	54281.74
705.83	54072.48
706.175	54144.79
706.52	54070.22
706.865	53906.83
707.209	53889.88
707.554	53824.12
707.899	53892.82
708.243	53665.48
708.588	53665.03
708.932	53401.76
709.277	53460.29
709.621	53392.27
709.966	53221.88
710.31	53244.93
710.654	52904.82
710.998	53101.88
711.342	53026.63
711.687	52907.31
712.031	52749.57
712.375	52624.15
712.719	52615.57
713.063	52472.07
713.407	52545.51
713.75	52317.04
714.094	52269.59
714.438	52107.1
714.782	52129.48
715.125	52079.08
715.469	52027.78
715.812	51820.11
716.156	51696.49
716.499	51682.26
716.843	51572.66
717.186	51473.45
717.53	51551.41
717.873	51476.16
718.216	51405.2
718.559	51327.92
718.902	51061.93
719.246	51173.8
719.589	50942.39
719.932	50894.03
720.275	50862.39
720.617	50698.1
720.96	50749.17
721.303	50624.66
721.646	50640.25
721.989	50400.71
722.331	50571.1
722.674	50336.76
723.016	50452.91
723.359	50341.73
723.701	50332.69
724.044	50177.66
724.386	49991.91
724.729	50176.76
725.071	50151.45
725.413	50008.63
725.755	50147.16
726.097	49905.58
726.439	49725.7
726.782	49828.97
727.124	49919.37
727.465	49667.85
727.807	49807.73
728.149	49535.42
728.491	49536.78
728.833	49543.33
729.175	49372.49
729.516	49396.44
729.858	49346.05
730.199	49285.03
730.541	49210.01
730.882	49202.32
731.224	49284.81
731.565	49020.86
731.906	49047.07
732.248	48873.97
732.589	48804.37
732.93	48549.01
733.271	48712.84
733.612	48666.07
733.953	48769.11
734.294	48479.86
734.635	48359.86
734.976	48436.47
735.317	48161.67
735.658	48179.52
735.999	48050.49
736.339	48010.26
736.68	48004.61
737.021	47855.46
737.361	47605.98
737.702	47922.81
738.042	47588.81
738.383	47563.27
738.723	47493.89
739.063	47312.2
739.404	47364.18
739.744	47195.37
740.084	46930.97
740.424	46977.07
740.764	46898.2
741.104	47041.7
741.444	46741.14
741.784	46708.83
742.124	46664.99
742.464	46554.03
742.804	46416.63
743.143	46433.81
743.483	46380.48
743.823	46126.47
744.162	46121.05
744.502	46163.76
744.841	46077.88
745.181	46090.77
745.52	45830.43
745.86	45844.22
746.199	45742.75
746.538	45734.16
746.877	45762.41
747.216	45683.32
747.556	45529.2
747.895	45530.1
748.234	45357.9
748.573	45278.58
748.911	45358.58
749.25	45238.81
749.589	45023.9
749.928	45212.6
750.267	45116.1
750.605	44994.98
750.944	44829.33
751.283	44803.57
751.621	44986.16
751.96	44565.61
752.298	44658.71
752.636	44646.74
752.975	44481.99
753.313	44329
753.651	44437.93
753.989	44226.86
754.327	44289.68
754.666	44088.78
755.004	43969.47
755.342	43946.19
755.679	43910.03
756.017	43550.95
756.355	43710.94
756.693	43465.07
757.031	43469.14
757.368	43136.27
757.706	43235.47
758.044	43143.05
758.381	43088.36
758.719	42935.82
759.056	42910.96
759.394	42748.71
759.731	42318.44
760.068	42429.39
760.405	42207.48
760.743	42110.53
761.08	42249.51
761.417	41791.9
761.754	41824.21
762.091	41769.3
762.428	41475.97
762.765	41288.18
763.102	41312.36
763.438	41078.47
763.775	40798.93
764.112	40755.99
764.449	40730.91
764.785	40633.51
765.122	40335.44
765.458	40102
765.795	40024.03
766.131	40060.64
766.467	39823.59
766.804	39665.4
767.14	39212.75
767.476	39376.59
767.812	39177.27
768.148	39184.73
768.485	38885.53
768.821	38632.66
769.157	38768.25
769.492	38582.49
769.828	38348.14
770.164	38231.99
770.5	38105.44
770.836	38005.33
771.171	37728.27
771.507	37668.39
771.842	37403.08
772.178	37293.26
772.513	37260.49
772.849	37175.07
773.184	37030.44
773.519	36949.31
773.855	36909.99
774.19	36686.49
774.525	36571.02
774.86	36471.58
775.195	36468.87
775.53	36260.52
775.865	36240.4
776.2	35837.93
776.535	35590.93
776.87	35749.12
777.205	35579.63
777.539	35369.47
777.874	35439.07
778.209	35217.15
778.543	35195.91
778.878	35067.78
779.212	35101.9
779.547	34762.02
779.881	34806.77
780.215	34529.71
780.55	34823.04
780.884	34469.15
781.218	34267.12
781.552	34294.92
781.886	34131.76
782.22	33898.09
782.554	33858.09
782.888	33563.64
783.222	33473.02
783.556	33349.86
783.889	33275.96
784.223	33083.2
784.557	33016.53
784.89	33093.59
785.224	32780.83
785.557	32633.94
785.891	32475.76
786.224	32477.34
786.558	32425.14
786.891	32166.61
787.224	31965.26
787.557	31983.57
787.891	31811.37
788.224	31732.27
788.557	31669
788.89	31579.28
789.223	31468.1
789.556	31186.52
789.888	31125.51
790.221	31030.82
790.554	30820.88
790.887	30774.33
791.219	30611.62
791.552	30401.01
791.884	30245.08
792.217	30242.37
792.549	30029.27
792.882	29906.56
793.214	29799.67
793.546	29858.65
793.879	29572.78
794.211	29452.11
794.543	29441.71
794.875	29244.65
795.207	29315.61
795.539	29130.99
795.871	29048.5
796.203	28761.28
796.535	28708.4
796.867	28709.75
797.198	28610.1
797.53	28455.3
797.862	28392.7
798.193	28244
798.525	28116.77
798.856	28089.88
799.188	27709.33
799.519	27664.13
799.85	27460.97
800.182	27665.49
800.513	27647.18
800.844	27266.63
801.175	27458.26
801.506	27461.65
801.837	27273.86
802.168	27286.29
802.499	27062.11
802.83	27089.91
803.161	26888.11
803.491	26900.08
803.822	26905.28
804.153	26744.16
804.483	26587.32
804.814	26457.38
805.145	26532.18
805.475	26481.79
805.805	26232.3
806.136	26449.7
806.466	26307.33
806.796	26320.66
807.126	26157.5
807.457	26133.32
807.787	26157.05
808.117	25970.62
808.447	25855.59
808.777	25983.5
809.107	25720.68
809.436	25885.87
809.766	25753.67
810.096	25677.74
810.426	25558.42
810.755	25589.38
811.085	25412.67
811.414	25450.63
811.744	25226.23
812.073	25280.01
812.403	25215.38
812.732	25042.05
813.061	25158.89
813.39	25030.3
813.719	24859.23
814.049	24983.75
814.378	24889.29
814.707	24825.79
815.036	24791.44
815.365	24590.99
815.693	24286.82
816.022	24417.66
816.351	24350.32
816.68	24212.92
817.008	24320.72
817.337	24061.51
817.665	24021.97
817.994	24138.57
818.322	24012.93
818.651	23922.53
818.979	23854.29
819.307	23879.15
819.636	23763.89
819.964	23607.06
820.292	23694.07
820.62	23478.7
820.948	23452.04
821.276	23494.98
821.604	23417.01
821.932	23511.02
822.259	23436.67
822.587	23496.56
822.915	23270.35
823.243	23413.85
823.57	23358.03
823.898	23438.93
824.225	23266.28
824.553	23336.56
824.88	23219.28
825.207	23291.82
825.535	23261.76
825.862	23241.2
826.189	23096.12
826.516	23278.71
826.843	23316.22
827.17	23225.38
827.497	23190.35
827.824	23107.42
828.151	23157.13
828.478	23138.83
828.805	23198.03
829.131	23055.21
829.458	23033.74
829.785	22956.46
830.111	23016.34
830.438	23147.41
830.764	23071.94
831.09	23000.75
831.417	22936.8
831.743	23080.07
832.069	23071.71
832.395	23011.37
832.722	22986.97
833.048	22980.19
833.374	22966.4
833.7	22784.94
834.026	22941.09
834.351	22857.03
834.677	22919.62
835.003	22961.43
835.329	22905.84
835.654	22937.02
835.98	22845.5
836.306	22937.25
836.631	22789.91
836.956	22844.6
837.282	22809.12
837.607	22695.45
837.932	22746.07
838.258	22643.47
838.583	22694.32
838.908	22697.03
839.233	22687.09
839.558	22637.37
839.883	22583.59
840.208	22566.19
840.533	22567.99
840.858	22582.23
841.182	22603.7
841.507	22513.53
841.832	22476.02
842.156	22375.68
842.481	22356.7
842.805	22294.56
843.13	22318.51
843.454	22202.35
843.778	22245.29
844.103	22193.09
844.427	22010.27
844.751	22143.37
845.075	21992.87
845.399	21908.12
845.723	21793.33
846.047	21829.93
846.371	21647.34
846.695	21721.24
847.019	21509.72
847.343	21420.45
847.666	21229.27
847.99	21227.69
848.313	21104.3
848.637	21052.1
848.96	21012.1
849.284	20962.16
849.607	20832.67
849.931	20714.48
850.254	20652.56
850.577	20596.52
850.9	20322.4
851.223	20276.53
851.546	20174.16
851.869	20065.01
852.192	20152.01
852.515	19969.87
852.838	19903.66
853.161	19932.13
853.483	19767.39
853.806	19685.36
854.129	19693.04
854.451	19515.65
854.774	19613.04
855.096	19381.41
855.419	19384.35
855.741	19390
856.063	19175.77
856.385	19182.77
856.708	19072.94
857.03	19028.2
857.352	18974.64
857.674	18959.5
857.996	18784.14
858.318	18762.67
858.64	18605.16
858.961	18652.62
859.283	18541.43
859.605	18458.05
859.926	18495.11
860.248	18442.45
860.57	18332.85
860.891	18387.09
861.212	18278.62
861.534	18236.13
861.855	18211.72
862.176	18204.72
862.498	18220.54
862.819	18116.59
863.14	18055.8
863.461	18091.5
863.782	17959.75
864.103	17883.37
864.424	17939.87
864.745	18061.22
865.065	17875.91
865.386	17825.29
865.707	17804.05
866.027	17808.12
866.348	17716.14
866.668	17783.04
866.989	17802.92
867.309	17567.22
867.63	17742.58
867.95	17711.4
868.27	17678.18
868.59	17752.53
868.91	17620.1
869.23	17670.04
869.55	17633.43
869.87	17675.02
870.19	17606.77
870.51	17618.07
870.83	17558.63
871.15	17464.85
871.469	17444.51
871.789	17551.18
872.109	17522.25
872.428	17355.93
872.748	17436.15
873.067	17420.78
873.386	17476.6
873.706	17372.65
874.025	17307.57
874.344	17320.67
874.663	17439.54
874.982	17364.06
875.301	17399.77
875.62	17295.14
875.939	17255.82
876.258	17237.74
876.577	17265.08
876.896	17112.77
877.214	17140.11
877.533	17179.89
877.852	17186.44
878.17	17238.64
878.489	17132.88
878.807	17111.41
879.125	17004.52
879.444	17080.45
879.762	16935.6
880.08	17084.75
880.398	16978.76
880.716	16977.18
881.034	16861.03
881.352	16913.23
881.67	16779.45
881.988	16793.46
882.306	16772.67
882.624	16697.87
882.941	16711.42
883.259	16594.37
883.577	16564.54
883.894	16581.71
884.212	16613.12
884.529	16571.32
884.846	16451.32
885.164	16425.56
885.481	16402.51
885.798	16448.61
886.115	16329.29
886.432	16227.6
886.75	16218.56
887.067	16167.26
887.383	16038.67
887.7	16069.86
888.017	15993.48
888.334	16059.01
888.651	15934.5
888.967	15861.28
889.284	15809.98
889.6	15765.46
889.917	15784.9
890.233	15669.19
890.55	15568.18
890.866	15744.44
891.182	15672.36
891.498	15598.91
891.815	15469.42
892.131	15338.58
892.447	15291.35
892.763	15226.04
893.079	15172.26
893.395	15122.54
893.71	15148.75
894.026	15088.87
894.342	15087.74
894.657	15002.77
894.973	14892.72
895.289	14920.51
895.604	14856.56
895.92	14868.76
896.235	14781.76
896.55	14704.92
896.865	14704.92
897.181	14570.92
897.496	14647.3
897.811	14523.46
898.126	14488.43
898.441	14407.98
898.756	14391.03
899.071	14198.04
899.386	14310.13
899.7	14103.13
900.015	14217.25
900.33	14031.72
900.644	14091.15
900.959	14112.17
901.273	13937.94
901.588	13937.03
901.902	13905.4
902.216	13946.98
902.531	13848.22
902.845	13859.3
903.159	13800.09
903.473	13647.55
903.787	13693.65
904.101	13625.86
904.415	13668.79
904.729	13560.77
905.042	13437.39
905.356	13430.16
905.67	13382.47
905.984	13408.91
906.297	13321.23
906.611	13274.45
906.924	13260.67
907.237	13247.34
907.551	13160.78
907.864	13097.96
908.177	13090.73
908.491	13077.4
908.804	12980
909.117	12903.39
909.43	12891.86
909.743	12835.59
910.056	12843.73
910.368	12770.06
910.681	12713.79
910.994	12721.47
911.307	12714.92
911.619	12540.01
911.932	12596.96
912.244	12582.95
912.557	12587.69
912.869	12425.21
913.181	12427.92
913.494	12427.92
913.806	12339.34
914.118	12352.67
914.43	12193.58
914.742	12235.84
915.054	12117.2
915.366	12117.2
915.678	12021.15
915.99	11945.45
916.302	11906.13
916.613	11806.7
916.925	11818.22
917.236	11778.22
917.548	11750.2
917.859	11744.32
918.171	11633.82
918.482	11632.24
918.794	11586.14
919.105	11527.61
919.416	11435.18
919.727	11381.62
920.038	11396.08
920.349	11408.97
920.66	11189.08
920.971	11275.64
921.282	11205.13
921.593	11160.16
921.903	11039.94
922.214	11058.92
922.525	10985.7
922.835	10960.84
923.146	10835.2
923.456	10837.68
923.767	10754.97
924.077	10824.35
924.387	10664.8
924.697	10700.28
925.008	10658.7
925.318	10605.14
925.628	10569.44
925.938	10487.63
926.248	10346.62
926.558	10349.11
926.867	10328.54
927.177	10213.29
927.487	10171.71
927.796	10058.04
928.106	10156.34
928.416	10056.01
928.725	10054.42
929.034	9912.51
929.344	10018.04
929.653	9997.7
929.962	9843.13
930.271	9807.2
930.581	9673.42
930.89	9742.34
931.199	9600.65
931.508	9646.98
931.817	9633.65
932.125	9555.68
932.434	9523.37
932.743	9377.83
933.051	9363.6
933.36	9370.6
933.669	9293.54
933.977	9293.54
934.286	9231.4
934.594	9213.32
934.902	9166.09
935.21	9086.99
935.519	9116.82
935.827	9081.34
936.135	9066.2
936.443	8946.21
936.751	8894.23
937.059	8872.08
937.367	8856.72
937.674	8776.04
937.982	8792.31
938.29	8747.79
938.597	8731.07
938.905	8616.27
939.213	8614.91
939.52	8520.68
939.827	8595.25
940.135	8462.38
940.442	8453.56
940.749	8466.9
941.056	8448.82
941.363	8352.77
941.67	8368.37
941.977	8317.97
942.284	8229.84
942.591	8308.93
942.898	8243.63
943.205	8240.24
943.511	8173.12
943.818	8132.67
944.125	8045.66
944.431	8076.62
944.738	8065.32
945.044	7958.89
945.35	7946.91
945.657	7903.07
945.963	7928.15
946.269	7830.75
946.575	7829.85
946.881	7778.33
947.187	7787.82
947.493	7733.81
947.799	7719.35
948.105	7687.26
948.41	7688.16
948.716	7630.08
949.022	7614.94
949.327	7581.27
949.633	7488.62
949.938	7494.27
950.244	7499.46
950.549	7460.14
950.854	7419.92
951.16	7438.9
951.465	7367.26
951.77	7327.49
952.075	7263.76
952.38	7211.34
952.685	7234.84
952.99	7230.77
953.294	7189.19
953.599	7134.73
953.904	7094.28
954.209	7055.18
954.513	7103.54
954.818	7000.04
955.122	7035.97
955.426	6946.26
955.731	6899.93
956.035	6879.37
956.339	6938.35
956.643	6914.85
956.948	6793.27
957.252	6781.97
957.556	6816.09
957.86	6747.17
958.163	6767.28
958.467	6696.32
958.771	6660.16
959.075	6682.54
959.378	6617.91
959.682	6562.31
959.985	6542.43
960.289	6522.31
960.592	6447.97
960.896	6402.09
961.199	6439.83
961.502	6378.59
961.805	6334.75
962.108	6292.49
962.411	6321.64
962.714	6237.12
963.017	6234.41
963.32	6246.84
963.623	6196.45
963.926	6209.78
964.228	6119.61
964.531	6111.25
964.833	6115.55
965.136	6024.93
965.438	6005.72
965.741	5961.88
966.043	5905.38
966.345	5910.81
966.648	5899.28
966.95	5884.14
967.252	5851.37
967.554	5800.53
967.856	5774.31
968.158	5747.65
968.46	5706.74
968.761	5642.11
969.063	5621.32
969.365	5692.28
969.666	5649.57
969.968	5568.67
970.269	5597.37
970.571	5559.18
970.872	5550.59
971.174	5479.18
971.475	5475.11
971.776	5454.32
972.077	5337.71
972.378	5405.73
972.679	5367.99
972.98	5295
973.281	5362.57
973.582	5267.88
973.883	5240.54
974.183	5239.64
974.484	5231.73
974.785	5165.06
975.085	5121.67
975.386	5137.49
975.686	5146.53
975.986	5079.41
976.287	5087.78
976.587	5024.95
976.887	5023.37
977.187	5006.2
977.487	4987.21
977.787	4913.77
978.087	4938.85
978.387	4890.04
978.687	4909.02
978.987	4909.7
979.286	4871.96
979.586	4795.35
979.885	4758.29
980.185	4745.19
980.484	4745.19
980.784	4669.48
981.083	4698.86
981.382	4683.04
981.682	4720.1
981.981	4648.01
982.28	4636.49
982.579	4605.98
982.878	4565.98
983.177	4562.82
983.475	4553.33
983.774	4468.58
984.073	4461.8
984.372	4443.72
984.67	4435.36
984.969	4418.19
985.267	4403.95
985.566	4397.17
985.864	4339.55
986.162	4362.82
986.461	4325.54
986.759	4350.62
987.057	4278.08
987.355	4260.68
987.653	4227.23
987.951	4258.42
988.249	4230.17
988.547	4213.22
988.844	4200.79
989.142	4187.46
989.44	4168.93
989.737	4137.97
990.035	4124.64
990.332	4138.65
990.63	4075.37
990.927	4056.84
991.224	4057.75
991.521	4028.82
991.819	4003.28
992.116	4010.74
992.413	3958.54
992.71	3937.3
993.006	3923.51
993.303	3936.17
993.6	3882.38
993.897	3901.82
994.193	3880.35
994.49	3823.63
994.787	3833.57
995.083	3827.02
995.379	3801.03
995.676	3770.75
995.972	3743.86
996.268	3768.26
996.565	3701.37
996.861	3720.81
997.157	3685.78
997.453	3661.6
997.749	3622.28
998.044	3626.8
998.34	3622.5
998.636	3636.74
998.932	3581.37
999.227	3602.39
999.523	3566.69
999.818	3481.04
1000.114	3537.53
1000.409	3501.6
1000.704	3460.7
1001	3427.03
1001.295	3442.4
1001.59	3430.19
1001.885	3381.38
1002.18	3417.09
1002.475	3387.26
1002.77	3323.3
1003.065	3283.53
1003.359	3286.47
1003.654	3287.6
1003.949	3255.73
1004.243	3233.59
1004.538	3190.42
1004.832	3186.36
1005.127	3179.8
1005.421	3199.92
1005.715	3130.31
1006.009	3172.12
1006.304	3114.72
1006.598	3084.66
1006.892	3094.38
1007.186	3040.15
1007.48	3043.08
1007.773	3043.31
1008.067	3015.97
1008.361	2962.41
1008.655	2950.2
1008.948	2939.81
1009.242	2944.56
1009.535	2897.1
1009.829	2895.97
1010.122	2878.34
1010.415	2832.92
1010.708	2817.33
1011.001	2816.42
1011.295	2762.41
1011.588	2749.53
1011.881	2749.53
1012.173	2758.12
1012.466	2753.15
1012.759	2727.16
1013.052	2694.39
1013.344	2638.35
1013.637	2654.17
1013.93	2638.35
1014.222	2612.13
1014.514	2581.18
1014.807	2560.38
1015.099	2540.27
1015.391	2542.76
1015.683	2530.1
1015.976	2525.13
1016.268	2515.87
1016.56	2444.23
1016.851	2443.55
1017.143	2434.96
1017.435	2437.22
1017.727	2402.42
1018.018	2394.29
1018.31	2369.88
1018.602	2386.38
1018.893	2317
1019.185	2306.83
1019.476	2297.11
1019.767	2277.68
1020.058	2283.33
1020.35	2250.56
1020.641	2228.87
1020.932	2214.63
1021.223	2198.36
1021.514	2175.08
1021.804	2152.49
1022.095	2161.53
1022.386	2154.07
1022.677	2131.47
1022.967	2111.36
1023.258	2103.45
1023.548	2036.78
1023.839	2052.83
1024.129	2050.34
1024.419	2017.8
1024.709	2029.1
1025	1999.5
1025.29	1979.83
1025.58	2016.22
1025.87	1943
1026.16	1943.23
1026.449	1958.14
1026.739	1919.27
1027.029	1931.47
1027.319	1879.95
1027.608	1867.52
1027.898	1857.8
1028.187	1867.07
1028.477	1848.09
1028.766	1843.57
1029.055	1828.2
1029.344	1784.59
1029.634	1793.63
1029.923	1799.27
1030.212	1750.91
1030.501	1734.64
1030.79	1743.91
1031.078	1728.32
1031.367	1693.51
1031.656	1714.53
1031.945	1703.01
1032.233	1660.3
1032.522	1658.49
1032.81	1665.94
1033.099	1642.89
1033.387	1619.62
1033.675	1603.8
1033.963	1618.04
1034.251	1584.82
1034.54	1575.1
1034.828	1554.99
1035.116	1567.42
1035.403	1533.74
1035.691	1544.82
1035.979	1529.45
1036.267	1510.69
1036.554	1502.33
1036.842	1502.79
1037.129	1510.02
1037.417	1456.46
1037.704	1435.67
1037.992	1451.94
1038.279	1440.64
1038.566	1416.46
1038.853	1416.46
1039.14	1416.46
