Data from aluminium_macbook_case_FLMS001491_027.txt Node
Date: Tue Feb 07 10:43:26 GMT 2017
User: dcchb
Spectrometer: FLMS00149
Trigger mode: 0
Integration Time (sec): 2.000000E-2
Scans to average: 10
Electric dark correction enabled: true
Nonlinearity correction enabled: false
Boxcar width: 0
XAxis mode: Wavelengths
Number of Pixels in Spectrum: 2048
>>>>>Begin Spectral Data<<<<<
341.393	-38.94
341.776	-38.94
342.16	-38.94
342.543	-56.11
342.927	-75.77
343.31	-79.16
343.693	-80.29
344.077	-75.77
344.46	-61.09
344.843	-49.11
345.226	-35.32
345.61	-48.43
345.993	-15.89
346.376	-4.82
346.759	11.45
347.142	7.61
347.525	67.05
347.908	62.53
348.291	82.87
348.674	101.62
349.057	116.76
349.44	130.1
349.823	157.21
350.206	163.09
350.588	239.25
350.971	249.64
351.354	273.14
351.737	272.01
352.119	289.19
352.502	285.35
352.884	312.92
353.267	324.67
353.65	348.39
354.032	355.4
354.414	379.13
354.797	385.46
355.179	369.19
355.562	372.57
355.944	382.97
356.326	386.13
356.709	400.82
357.091	406.25
357.473	399.24
357.855	404.44
358.238	394.27
358.62	409.86
359.002	410.31
359.384	416.19
359.766	448.73
360.148	406.25
360.53	411.67
360.912	403.76
361.294	422.52
361.676	412.12
362.057	413.48
362.439	398.34
362.821	407.6
363.203	394.72
363.584	402.63
363.966	413.48
364.348	396.76
364.729	408.05
365.111	380.94
365.493	402.18
365.874	405.12
366.256	405.57
366.637	395.85
367.019	409.86
367.4	422.29
367.781	432.46
368.163	419.58
368.544	414.61
368.925	452.12
369.306	431.1
369.688	435.4
370.069	434.95
370.45	455.96
370.831	446.47
371.212	428.62
371.593	455.06
371.974	446.92
372.355	439.47
372.736	445.12
373.117	434.04
373.498	449.41
373.879	472.46
374.26	449.18
374.641	443.31
375.021	440.82
375.402	472.23
375.783	483.31
376.163	514.94
376.544	503.42
376.925	511.33
377.305	494.38
377.686	521.05
378.066	502.74
378.447	500.03
378.827	533.02
379.208	504.77
379.588	509.97
379.968	540.25
380.349	533.47
380.729	534.38
381.109	542.97
381.489	560.37
381.87	532.12
382.25	552.68
382.63	565.79
383.01	554.04
383.39	571.44
383.77	583.19
384.15	574.83
384.53	605.79
384.91	594.04
385.29	606.69
385.67	631.78
386.049	644.21
386.429	615.73
386.809	651.21
387.189	637.65
387.568	648.95
387.948	660.03
388.328	673.58
388.707	687.37
389.087	680.82
389.466	698.89
389.846	690.08
390.225	716.52
390.605	704.54
390.984	719.23
391.363	728.95
391.743	715.39
392.122	765.56
392.501	757.2
392.881	775.73
393.26	797.87
393.639	782.73
394.018	807.59
394.397	792
394.776	807.82
395.155	825.9
395.534	836.97
395.913	850.08
396.292	860.47
396.671	860.47
397.05	861.15
397.429	873.8
397.808	892.34
398.186	911.32
398.565	910.41
398.944	901.15
399.323	931.88
399.701	915.16
400.08	927.59
400.458	963.52
400.837	976.63
401.215	968.04
401.594	965.78
401.972	1018.66
402.351	1020.47
402.729	1029.73
403.107	1029.96
403.486	1021.82
403.864	1085.1
404.242	1079.68
404.62	1067.47
404.999	1075.38
405.377	1103.18
405.755	1103.63
406.133	1137.53
406.511	1128.26
406.889	1171.65
407.267	1194.47
407.645	1206.68
408.023	1221.14
408.401	1218.88
408.779	1215.94
409.156	1285.09
409.534	1260.46
409.912	1303.17
410.29	1341.14
410.667	1354.7
411.045	1370.74
411.422	1366.9
411.8	1412.55
412.178	1410.51
412.555	1466.33
412.933	1464.52
413.31	1484.64
413.687	1506.1
414.065	1517.86
414.442	1520.34
414.819	1571.41
415.197	1565.09
415.574	1609.15
415.951	1596.27
416.328	1628.81
416.705	1680.56
417.082	1675.37
417.46	1691.64
417.837	1687.34
418.214	1726.66
418.591	1741.58
418.967	1768.47
419.344	1791.97
419.721	1781.8
420.098	1798.98
420.475	1822.93
420.852	1885.76
421.228	1870.39
421.605	1924.62
421.982	1914.23
422.358	1942.25
422.735	2003.27
423.111	1989.48
423.488	2049.59
423.864	2028.8
424.241	2019.09
424.617	2082.81
424.994	2098.18
425.37	2129.36
425.746	2171.4
426.123	2170.95
426.499	2190.15
426.875	2215.92
427.251	2264.73
427.627	2319.42
428.003	2359.42
428.379	2402.58
428.756	2394.44
429.132	2433.09
429.507	2496.81
429.883	2480.99
430.259	2582.23
430.635	2584.95
431.011	2609.8
431.387	2684.15
431.763	2719.86
432.138	2709.46
432.514	2747.43
432.89	2795.34
433.265	2852.74
433.641	2908.1
434.016	2931.6
434.392	2970.47
434.767	3034.43
435.143	3012.28
435.518	3076.46
435.894	3111.49
436.269	3171.37
436.644	3188.77
437.02	3267.87
437.395	3261.09
437.77	3289.33
438.145	3367.52
438.52	3390.8
438.895	3444.13
439.271	3455.88
439.646	3537.92
440.021	3569.1
440.395	3599.83
440.77	3551.7
441.145	3610
441.52	3676.89
441.895	3676.67
442.27	3709.66
442.645	3705.59
443.019	3797.34
443.394	3807.74
443.769	3843.9
444.143	3768.87
444.518	3933.61
444.892	3886.38
445.267	3961.18
445.641	3981.75
446.016	4028.75
446.39	4081.18
446.764	4113.04
447.139	4112.36
447.513	4173.38
447.887	4143.55
448.262	4180.61
448.636	4167.96
449.01	4293.6
449.384	4292.7
449.758	4338.8
450.132	4436.42
450.506	4367.72
450.88	4476.2
451.254	4496.76
451.628	4630.54
452.002	4636.42
452.376	4642.29
452.75	4694.95
453.123	4774.72
453.497	4865.34
453.871	4934.94
454.244	4990.31
454.618	5000.48
454.992	5110.76
455.365	5110.08
455.739	5250.64
456.112	5320.02
456.486	5354.14
456.859	5375.83
457.232	5570.63
457.606	5476.17
457.979	5577.86
458.352	5704.41
458.725	5750.96
459.099	5801.58
459.472	5930.62
459.845	5956.38
460.218	6068.47
460.591	6068.7
460.964	6101.01
461.337	6289.71
461.71	6403.38
462.083	6498.97
462.456	6548.68
462.829	6511.62
463.201	6716.81
463.574	6752.07
463.947	6825.96
464.32	6973.53
464.692	7018.28
465.065	7104.6
465.438	7180.76
465.81	7323.35
466.183	7419.62
466.555	7578.26
466.928	7641.54
467.3	7613.06
467.672	7738.48
468.045	7955.88
468.417	7981.64
468.789	8011.47
469.161	8097.12
469.534	8317.45
469.906	8449.88
470.278	8554.73
470.65	8630.89
471.022	8831.79
471.394	8953.14
471.766	9079.24
472.138	9170.76
472.51	9382.96
472.882	9539.34
473.253	9676.51
473.625	9883.96
473.997	10072.21
474.369	10125.54
474.74	10260.9
475.112	10421.12
475.484	10643.94
475.855	10792.41
476.227	10930.72
476.598	11252.06
476.97	11311.5
477.341	11598.72
477.713	11749
478.084	11796
478.455	12156.9
478.827	12225.6
479.198	12586.49
479.569	12616.09
479.94	13001.4
480.311	13127.49
480.682	13423.98
481.053	13694.71
481.424	13976.29
481.795	14069.62
482.166	14301.25
482.537	14532.43
482.908	14907.79
483.279	15002.7
483.65	15424.83
484.021	15646.3
484.391	15909.57
484.762	16067.3
485.133	16162.22
485.503	16435.88
485.874	16804.01
486.244	16963.78
486.615	17213.71
486.985	17423.65
487.356	17770.54
487.726	17913.36
488.097	18329.39
488.467	18304.76
488.837	18775.03
489.207	18980.45
489.578	19248.46
489.948	19367.56
490.318	19679.19
490.688	19763.48
491.058	20088.89
491.428	20386.96
491.798	20612.72
492.168	20964.58
492.538	21133.39
492.908	21337.22
493.278	21776.98
493.648	21736.76
494.017	22076.86
494.387	22285.9
494.757	22545.1
495.126	22894.47
495.496	22791.42
495.866	23062.6
496.235	23343.72
496.605	23497.39
496.974	23629.59
497.344	23982.58
497.713	24046.98
498.082	24089.47
498.452	24433.41
498.821	24442.22
499.19	24640.41
499.559	24866.39
499.928	25065.71
500.298	25253.5
500.667	25374.63
501.036	25369.88
501.405	25672.47
501.774	25811.91
502.143	26078.79
502.512	26239.47
502.88	26483.75
503.249	26550.42
503.618	26847.59
503.987	26989.28
504.356	27287.57
504.724	27407.34
505.093	27526.89
505.462	27772.31
505.83	28027.89
506.199	28264.04
506.567	28492.29
506.936	28550.14
507.304	28996.46
507.672	28996
508.041	29153.97
508.409	29342.89
508.777	29647.06
509.145	29866.04
509.514	29843.89
509.882	30169.53
510.25	30175.86
510.618	30447.04
510.986	30651.78
511.354	30793.24
511.722	31135.38
512.09	31298.54
512.458	31388.71
512.826	31685.88
513.193	31782.14
513.561	32126.99
513.929	32410.15
514.297	32630.71
514.664	32955.67
515.032	33105.95
515.4	33477.47
515.767	33584.58
516.135	33924.24
516.502	33858.47
516.869	34418.91
517.237	34448.29
517.604	34663.42
517.972	35021.16
518.339	35233.81
518.706	35303.41
519.073	35539.11
519.44	35874.47
519.808	36220.67
520.175	36199.88
520.542	36527.78
520.909	36847.1
521.276	36786.98
521.643	37253.19
522.009	37571.37
522.376	37835.32
522.743	38047.74
523.11	38404.8
523.477	38693.15
523.843	38750.1
524.21	39328.16
524.577	39535.84
524.943	39707.59
525.31	40087.91
525.676	40355.25
526.043	40667.33
526.409	40844.73
526.776	41302.57
527.142	41391.16
527.508	41662.56
527.874	42080.63
528.241	42305.48
528.607	42486.5
528.973	42969.42
529.339	42933.26
529.705	43374.83
530.071	43780.47
530.437	43992.44
530.803	44140.92
531.169	44382.27
531.535	44223.17
531.901	44522.83
532.267	44672.43
532.632	45054.56
532.998	45134.11
533.364	45239.19
533.73	45483.25
534.095	45763.7
534.461	45869.91
534.826	45998.49
535.192	46174.53
535.557	46450.69
535.923	46537.01
536.288	46791.69
536.653	46893.84
537.019	46772.03
537.384	47111.68
537.749	47332.92
538.114	47354.16
538.479	47390.77
538.845	47852
539.21	47713.48
539.575	47926.35
539.94	48190.07
540.305	48440.01
540.67	48497.64
541.034	48603.85
541.399	48903.73
541.764	48827.57
542.129	49010.84
542.494	49250.16
542.858	49390.5
543.223	49481.79
543.587	49598.85
543.952	49651.96
544.316	49875.68
544.681	49709.81
545.045	49953.19
545.41	50173.3
545.774	50234.54
546.138	50161.55
546.503	50385.05
546.867	50369.23
547.231	50675.89
547.595	50712.95
547.959	50838.59
548.324	50808.08
548.688	50945.26
549.052	51100.05
549.416	51134.18
549.779	51244.01
550.143	51273.61
550.507	51594.5
550.871	51721.51
551.235	51738.91
551.599	51985
551.962	52015.28
552.326	52168.5
552.689	52396.29
553.053	52290.98
553.417	52359.68
553.78	52825.89
554.143	52676.74
554.507	52972.55
554.87	53021.59
555.234	53414.8
555.597	53197.63
555.96	53405.53
556.323	53551.52
556.686	53627.67
557.05	53810.94
557.413	53937.95
557.776	53986.53
558.139	54155.57
558.502	54170.71
558.865	54263.36
559.228	54437.82
559.59	54527.08
559.953	54493.64
560.316	54874.87
560.679	54832.16
561.041	55064.47
561.404	55131.81
561.767	55380.17
562.129	55218.36
562.492	55468.98
562.854	55520.96
563.217	55555.3
563.579	55689.54
563.941	55898.57
564.304	55936.99
564.666	56145.35
565.028	56188.51
565.39	56275.74
565.753	56412.68
566.115	56580.59
566.477	56657.65
566.839	56740.58
567.201	56943.52
567.563	56990.07
567.925	57098.54
568.287	57233.9
568.648	57251.53
569.01	57429.15
569.372	57611.07
569.734	57493.11
570.095	57692.88
570.457	57908.69
570.819	57837.05
571.18	57870.95
571.542	58069.14
571.903	58023.26
572.265	58104.62
572.626	58216.25
572.987	58287.66
573.349	58350.03
573.71	58307.1
574.071	58373.54
574.432	58446.98
574.794	58642.46
575.155	58645.39
575.516	58545.28
575.877	58598.39
576.238	58680.87
576.599	58768.1
576.96	58739.18
577.32	58789.8
577.681	58902.79
578.042	58994.08
578.403	58938.04
578.763	58956.35
579.124	59000.19
579.485	59123.57
579.845	59196.79
580.206	59177.36
580.566	59237.24
580.927	59257.35
581.287	59363.57
581.648	59295.32
582.008	59446.28
582.368	59351.14
582.728	59414.64
583.089	59414.41
583.449	59462.32
583.809	59453.28
584.169	59543.67
584.529	59454.86
584.889	59677.91
585.249	59475.65
585.609	59447.63
585.969	59629.32
586.329	59556.56
586.688	59604.24
587.048	59531.47
587.408	59550
587.768	59493.73
588.127	59450.8
588.487	59423
588.846	59556.1
589.206	59392.94
589.565	59436.11
589.925	59607.18
590.284	59423.45
590.643	59404.7
591.003	59460.96
591.362	59517.23
591.721	59505.71
592.08	59459.38
592.44	59512.49
592.799	59484.24
593.158	59492.15
593.517	59507.74
593.876	59465.03
594.235	59496.44
594.593	59516.1
594.952	59538.7
595.311	59465.48
595.67	59572.6
596.029	59652.6
596.387	59674.52
596.746	59748.19
597.104	59679.04
597.463	59632.49
597.822	59724.69
598.18	59776.44
598.538	59763.33
598.897	59869.54
599.255	59751.58
599.613	60077.9
599.972	59874.51
600.33	59945.92
600.688	59888.98
601.046	60011.91
601.404	60092.36
601.762	60000.16
602.12	60161.96
602.478	60076.54
602.836	60110.21
603.194	59958.13
603.552	60076.32
603.91	59945.25
604.268	60060.72
604.625	60011.01
604.983	60133.94
605.341	59965.13
605.698	60140.95
606.056	60032.7
606.413	60079.25
606.771	60140.27
607.128	60159.93
607.485	60041.06
607.843	60014.4
608.2	60120.61
608.557	60226.82
608.914	60118.8
609.272	60240.83
609.629	60182.98
609.986	60372.81
610.343	60229.98
610.7	60385.69
611.057	60380.94
611.414	60357.66
611.771	60449.64
612.127	60442.86
612.484	60479.7
612.841	60622.97
613.198	60474.72
613.554	60562.86
613.911	60705
614.267	60675.4
614.624	60652.8
614.98	60725.56
615.337	60955.16
615.693	60886.92
616.05	60881.72
616.406	60996.97
616.762	60901.15
617.118	60879.91
617.475	60957.65
617.831	60990.64
618.187	60940.47
618.543	60997.2
618.899	61083.3
619.255	61038.32
619.611	61008.95
619.967	61064.76
620.323	61161.49
620.678	61049.62
621.034	61008.04
621.39	60970.76
621.746	60872.91
622.101	61154.71
622.457	60923.3
622.812	60900.47
623.168	60952.23
623.523	60879.91
623.879	60969.63
624.234	60792.46
624.589	60862.96
624.945	60874.94
625.3	60914.26
625.655	60777.77
626.01	60788.16
626.365	60825.45
626.72	60788.16
627.075	60837.65
627.43	60767.37
627.785	60697.77
628.14	60771.21
628.495	60735.73
628.85	60767.15
629.205	60693.7
629.559	60894.37
629.914	60714.27
630.269	60752
630.623	60794.49
630.978	60724.89
631.332	60757.43
631.687	60826.13
632.041	60689.41
632.396	60829.52
632.75	60718.78
633.104	60748.16
633.459	60608.96
633.813	60647.15
634.167	60617.54
634.521	60703.64
634.875	60644.21
635.229	60604.89
635.583	60501.16
635.937	60550.88
636.291	60521.05
636.645	60533.03
636.999	60417.78
637.352	60483.99
637.706	60375.52
638.06	60445.57
638.413	60299.59
638.767	60256.88
639.121	60267.05
639.474	60071.34
639.828	60044.9
640.181	60175.52
640.534	60109.54
640.888	59950.67
641.241	59776.66
641.594	59934.17
641.947	59876.1
642.301	59727.17
642.654	59754.29
643.007	59728.75
643.36	59715.2
643.713	59553.17
644.066	59672.48
644.419	59454.64
644.771	59346.62
645.124	59133.97
645.477	59072.27
645.83	58878.38
646.182	58785.95
646.535	58695.79
646.888	58797.71
647.24	58606.52
647.593	58764.71
647.945	58618.05
648.298	58524.04
648.65	58566.53
649.002	58442.23
649.355	58650.82
649.707	58581.21
650.059	58658.73
650.411	58953.18
650.763	58983.92
651.115	59235.89
651.467	59204.47
651.819	59261.65
652.171	59173.06
652.523	59128.09
652.875	59121.99
653.227	59011.94
653.578	59171.48
653.93	59105.04
654.282	58975.33
654.633	58940.3
654.985	58938.27
655.337	58982.33
655.688	58988.66
656.039	59048.32
656.391	58830.92
656.742	58858.27
657.094	58790.7
657.445	58866.63
657.796	58805.84
658.147	58753.41
658.498	58748.89
658.849	58771.94
659.2	58670.7
659.551	58650.59
659.902	58624.15
660.253	58525.62
660.604	58552.29
660.955	58405.17
661.306	58464.15
661.656	58371.73
662.007	58333.08
662.358	58286.76
662.708	58350.71
663.059	58265.97
663.409	58100.32
663.76	58237.95
664.11	58215.57
664.461	58205.4
664.811	58064.62
665.161	58101.68
665.511	58096.71
665.862	58133.99
666.212	58142.58
666.562	58204.73
666.912	58046.54
667.262	58079.31
667.612	58088.12
667.962	58117.95
668.312	58050.38
668.662	58222.58
669.011	58134.67
669.361	58154.78
669.711	58172.86
670.06	58143.94
670.41	58134.9
670.76	58018.29
671.109	58203.6
671.459	58090.61
671.808	58024.17
672.157	58178.74
672.507	57991.17
672.856	57993.21
673.205	58004.73
673.554	58092.41
673.904	57971.29
674.253	58075.92
674.602	58012.87
674.951	57656.49
675.3	57490.17
675.649	57889.71
675.998	57933.55
676.346	57866.88
676.695	57918.18
677.044	57774
677.393	57739.2
677.741	57767.45
678.09	57696.27
678.438	57663.27
678.787	57682.25
679.135	57651.52
679.484	57400.68
679.832	57472.54
680.181	57336.95
680.529	57400.45
680.877	57251.53
681.225	57194.13
681.573	57359.78
681.922	57046.11
682.27	56980.35
682.618	57014.02
682.966	56968.15
683.314	56947.13
683.661	56785.1
684.009	56756.86
684.357	56659
684.705	56650.87
685.053	56581.04
685.4	56552.11
685.748	56411.33
686.095	56397.77
686.443	56278.22
686.79	56288.84
687.138	56277.09
687.485	56243.65
687.832	56174.95
688.18	56255.63
688.527	55990.55
688.874	56118.45
689.221	56008.17
689.568	55977.67
689.915	55911.91
690.262	55953.03
690.609	55840.72
690.956	55840.72
691.303	55795.07
691.65	55609.31
691.997	55662.65
692.344	55508.3
692.69	55441.41
693.037	55451.58
693.383	55228.53
693.73	55330.9
694.077	55233.05
694.423	55186.95
694.769	55150.34
695.116	55054.3
695.462	55002.55
695.808	54935.43
696.155	55031.93
696.501	54676.68
696.847	54703.12
697.193	54571.15
697.539	54653.63
697.885	54460.64
698.231	54349.01
698.577	54348.78
698.923	54307.65
699.269	54031.28
699.614	53875.35
699.96	53810.49
700.306	53842.13
700.651	53698.18
700.997	53572.08
701.342	53523.95
701.688	53452.08
702.033	53317.62
702.379	53246.89
702.724	53178.64
703.069	53150.85
703.415	52835.6
703.76	52807.58
704.105	52698.88
704.45	52638.32
704.795	52417.08
705.14	52396.07
705.485	52340.25
705.83	52071.78
706.175	52115.17
706.52	52041.5
706.865	51887.6
707.209	51865.23
707.554	51712.69
707.899	51685.8
708.243	51560.38
708.588	51437.67
708.932	51314.06
709.277	51331.01
709.621	51394.51
709.966	51092.6
710.31	51160.84
710.654	50823.23
710.998	51060.96
711.342	50987.74
711.687	50895.09
712.031	50757.92
712.375	50663.68
712.719	50823.23
713.063	50647.19
713.407	50685.38
713.75	50479.51
714.094	50491.94
714.438	50482.67
714.782	50419.62
715.125	50366.06
715.469	50417.59
715.812	50110.7
716.156	50006.75
716.499	50066.86
716.843	50179.85
717.186	49810.15
717.53	50118.61
717.873	49966.07
718.216	49764.72
718.559	49616.03
718.902	49449.7
719.246	49543.26
719.589	49280.89
719.932	49293.32
720.275	49252.65
720.617	49201.57
720.96	49126.1
721.303	49123.61
721.646	49066.21
721.989	48724.98
722.331	49028.24
722.674	48696.5
723.016	48747.8
723.359	48650.85
723.701	48652.44
724.044	48368.6
724.386	48062.62
724.729	48184.2
725.071	48055.61
725.413	47969.52
725.755	48052
726.097	47695.62
726.439	47614.5
726.782	47546.02
727.124	47649.75
727.465	47457.89
727.807	47323.66
728.149	47239.82
728.491	46994.63
728.833	47188.29
729.175	46784.69
729.516	46869.21
729.858	46730.23
730.199	46902.88
730.541	46785.14
730.882	46626.27
731.224	46702.43
731.565	46370.01
731.906	46312.84
732.248	46364.13
732.589	46095.44
732.93	46064.48
733.271	46117.59
733.612	46017.7
733.953	46134.31
734.294	45844.15
734.635	45897.03
734.976	45813.87
735.317	45577.71
735.658	45616.58
735.999	45634.66
736.339	45642.12
736.68	45725.51
737.021	45462.69
737.361	45380.43
737.702	45540.88
738.042	45361.22
738.383	45323.71
738.723	45504.72
739.063	45229.93
739.404	45388.57
739.744	45295.46
740.084	45103.38
740.424	45061.34
740.764	44919.88
741.104	45160.55
741.444	44810.05
741.784	44788.13
742.124	44780.9
742.464	44634.91
742.804	44645.99
743.143	44622.94
743.483	44608.02
743.823	44427.24
744.162	44344.3
744.502	44355.83
744.841	44200.58
745.181	44233.34
745.52	43932.33
745.86	43997.42
746.199	43863.86
746.538	43841.94
746.877	43841.04
747.216	43847.59
747.556	43612.57
747.895	43657.31
748.234	43449.41
748.573	43326.25
748.911	43305.23
749.25	43128.29
749.589	42888.07
749.928	42984.56
750.267	42985.47
750.605	42836.32
750.944	42611.69
751.283	42609.66
751.621	42500.05
751.96	42296.44
752.298	42394.75
752.636	42371.7
752.975	42116.56
753.313	41938.71
753.651	41998.37
753.989	41597.71
754.327	41601.32
754.666	41327.88
755.004	41364.72
755.342	41508.44
755.679	41135.34
756.017	41015.8
756.355	41198.62
756.693	40896.93
757.031	40900.1
757.368	40765.41
757.706	40771.06
758.044	40490.16
758.381	40574
758.719	40238.87
759.056	40309.6
759.394	39974.02
759.731	39814.02
760.068	39678.21
760.405	39785.32
760.743	39457.2
761.08	39570.64
761.417	39351.89
761.754	39277.54
762.091	39233.7
762.428	39184.89
762.765	38957.1
763.102	39195.96
763.438	38822.19
763.775	38783.54
764.112	38783.54
764.449	38819.93
764.785	38571.12
765.122	38338.36
765.458	38243.22
765.795	38168.87
766.131	37948.76
766.467	37856.56
766.804	37829.44
767.14	37663.35
767.476	37568.43
767.812	37258.61
768.148	37366.63
768.485	37082.57
768.821	37025.62
769.157	37003.25
769.492	36842.8
769.828	36673.77
770.164	36406.43
770.5	36392.64
770.836	36210.05
771.171	36118.53
771.507	36044.63
771.842	35832.43
772.178	35790.4
772.513	35570.29
772.849	35547.24
773.184	35282.39
773.519	35298.21
773.855	35048.05
774.19	35016.18
774.525	34779.13
774.86	34883.53
775.195	34749.52
775.53	34497.1
775.865	34392.02
776.2	34144.12
776.535	33932.37
776.87	33786.61
777.205	33685.37
777.539	33544.81
777.874	33467.75
778.209	33115.67
778.543	33223.24
778.878	32970.14
779.212	32979.85
779.547	32768.11
779.881	32850.59
780.215	32562.46
780.55	32717.94
780.884	32318.4
781.218	32286.54
781.552	32298.52
781.886	31946.21
782.22	31742.15
782.554	31771.98
782.888	31419.89
783.222	31427.8
783.556	31203.18
783.889	31170.64
784.223	31099.22
784.557	31015.39
784.89	31054.93
785.224	30722.74
785.557	30495.85
785.891	30475.06
786.224	30581.95
786.558	30369.75
786.891	30180.6
787.224	30075.07
787.557	30010.89
787.891	29841.63
788.224	29713.95
788.557	29757.34
788.89	29504.01
789.223	29649.77
789.556	29382.66
789.888	29198.48
790.221	29114.19
790.554	29006.62
790.887	29079.84
791.219	28987.64
791.552	28840.53
791.884	28753.52
792.217	28609.57
792.549	28438.73
792.882	28331.39
793.214	28149.02
793.546	28313.76
793.879	28053.2
794.211	27931.85
794.543	28080.1
794.875	27917.16
795.207	28079.42
795.539	27765.75
795.871	27727.79
796.203	27460.68
796.535	27317.86
796.867	27404.18
797.198	27248.7
797.53	27297.06
797.862	27050.74
798.193	26965.55
798.525	26954.47
798.856	26917.19
799.188	26629.06
799.519	26423.19
799.85	26391.78
800.182	26308.16
800.513	26322.18
800.844	26178.68
801.175	26163.76
801.506	26132.58
801.837	25979.59
802.168	25948.85
802.499	25758.8
802.83	25617.79
803.161	25604
803.491	25615.75
803.822	25576.88
804.153	25244.24
804.483	25212.6
804.814	25155.65
805.145	25172.37
805.475	25064.13
805.805	24972.61
806.136	24961.53
806.466	24835.43
806.796	24843.12
807.126	24718.83
807.457	24601.09
807.787	24476.12
808.117	24368.55
808.447	24308.89
808.777	24426.86
809.107	24245.17
809.436	24115
809.766	24135.11
810.096	24150.71
810.426	24011.73
810.755	24122.68
811.085	23858.74
811.414	23779.42
811.744	23685.41
812.073	23721.11
812.403	23538.97
812.732	23486.32
813.061	23416.94
813.39	23311.86
813.719	23359.99
814.049	23230.96
814.378	23162.48
814.707	23108.02
815.036	23123.62
815.365	23057.63
815.693	22741.93
816.022	22977.63
816.351	22860.12
816.68	22588.04
817.008	22785.77
817.337	22533.8
817.665	22588.71
817.994	22626.23
818.322	22461.49
818.651	22431.66
818.979	22383.07
819.307	22408.38
819.636	22346.69
819.964	22302.17
820.292	22359.34
820.62	22213.58
820.948	22122.29
821.276	22345.56
821.604	22190.08
821.932	22270.53
822.259	22231.21
822.587	22143.3
822.915	22072.34
823.243	22229.18
823.57	22006.81
823.898	22138.56
824.225	22041.84
824.553	21934.04
824.88	22132.68
825.207	22138.33
825.535	22103.08
825.862	22167.93
826.189	22045.68
826.516	22242.06
826.843	22196.63
827.17	22169.97
827.497	22042.29
827.824	22181.04
828.151	22228.72
828.478	21993.93
828.805	22165.9
829.131	22097.65
829.458	21992.8
829.785	21894.95
830.111	22045.45
830.438	22166.58
830.764	22000.03
831.09	22017.88
831.417	21902.63
831.743	21963.87
832.069	22029.41
832.395	21932.91
832.722	21933.59
833.048	21886.59
833.374	21893.82
833.7	21756.65
834.026	21749.41
834.351	21792.58
834.677	21778.57
835.003	21819.02
835.329	21784.89
835.654	21679.13
835.98	21559.59
836.306	21576.54
836.631	21546.48
836.956	21749.41
837.282	21613.82
837.607	21391.46
837.932	21381.97
838.258	21511.91
838.583	21328.41
838.908	21289.99
839.233	21258.13
839.558	21165.25
839.883	21134.97
840.208	21157.11
840.533	21104.01
840.858	21049.32
841.182	21071.47
841.507	21103.78
841.832	20956.21
842.156	20896.78
842.481	20866.95
842.805	20818.59
843.13	20811.36
843.454	20918.93
843.778	20738.37
844.103	20633.29
844.427	20597.35
844.751	20620.18
845.075	20525.27
845.399	20555.77
845.723	20392.61
846.047	20459.5
846.371	20240.75
846.695	20267.65
847.019	20099.97
847.343	19976.35
847.666	20036.92
847.99	19918.95
848.313	19825.4
848.637	19806.41
848.96	19757.83
849.284	19659.07
849.607	19533.2
849.931	19531.62
850.254	19394.45
850.577	19240.33
850.9	19084.17
851.223	19102.48
851.546	19027.68
851.869	18947.23
852.192	19171.18
852.515	18913.1
852.838	18775.03
853.161	18775.03
853.483	18749.04
853.806	18559.89
854.129	18568.03
854.451	18499.56
854.774	18474.92
855.096	18340.69
855.419	18263.63
855.741	18327.36
856.063	18286
856.385	18214.37
856.708	18110.19
857.03	17999.91
857.352	18080.81
857.674	17994.26
857.996	17896.18
858.318	17806.24
858.64	17851.66
858.961	17853.7
859.283	17738.45
859.605	17659.13
859.926	17649.41
860.248	17619.35
860.57	17565.34
860.891	17539.13
861.212	17418.45
861.534	17375.07
861.855	17373.26
862.176	17387.27
862.498	17365.57
862.819	17313.37
863.14	17251.68
863.461	17233.15
863.782	17214.39
864.103	17173.04
864.424	17048.52
864.745	17037.22
865.065	16994.74
865.386	16968.52
865.707	16955.87
866.027	16944.34
866.348	16808.75
866.668	16870.22
866.989	16784.8
867.309	16714.07
867.63	16725.37
867.95	16839.49
868.27	16525.14
868.59	16747.29
868.91	16618.93
869.23	16686.27
869.55	16554.75
869.87	16667.51
870.19	16550.23
870.51	16542.09
870.83	16526.27
871.15	16392.04
871.469	16442.89
871.789	16463
872.109	16409.89
872.428	16325.6
872.748	16407.86
873.067	16382.78
873.386	16357.01
873.706	16311.36
874.025	16268.65
874.344	16240.86
874.663	16280.63
874.982	16221.2
875.301	16174.19
875.62	16154.53
875.939	16151.6
876.258	16116.57
876.577	16085.61
876.896	15994.09
877.214	16022.78
877.533	16038.6
877.852	16005.84
878.17	16025.04
878.489	16009.9
878.807	15984.82
879.125	15900.98
879.444	15870.7
879.762	15856.46
880.08	15930.58
880.398	15805.62
880.716	15844.94
881.034	15847.65
881.352	15794.54
881.67	15774.2
881.988	15776.46
882.306	15714.32
882.624	15770.14
882.941	15663.02
883.259	15660.08
883.577	15640.2
883.894	15518.62
884.212	15525.85
884.529	15550.93
884.846	15483.14
885.164	15430.71
885.481	15388.9
885.798	15496.47
886.115	15315.23
886.432	15335.35
886.75	15196.14
887.067	15250.6
887.383	15217.38
887.7	15260.09
888.017	15162.02
888.334	15235.24
888.651	15078.4
888.967	15039.99
889.284	15018.29
889.6	14976.48
889.917	14916.37
890.233	14985.07
890.55	14874.11
890.866	14831.63
891.182	14777.17
891.498	14673.89
891.815	14664.4
892.131	14645.42
892.447	14603.39
892.763	14584.4
893.079	14444.3
893.395	14524.29
893.71	14454.24
894.026	14407.46
894.342	14448.14
894.657	14277.07
894.973	14255.15
895.289	14167.69
895.604	14148.48
895.92	14191.42
896.235	14115.04
896.55	14043.85
896.865	14089.05
897.181	13962.95
897.496	13961.6
897.811	13850.86
898.126	13857.42
898.441	13764.31
898.756	13676.63
899.071	13678.21
899.386	13593.92
899.7	13550.08
900.015	13485.9
900.33	13475.51
900.644	13372.91
900.959	13430.08
901.273	13388.96
901.588	13353.93
901.902	13220.6
902.216	13207.27
902.531	13244.33
902.845	13108.96
903.159	13026.03
903.473	13008.85
903.787	12974.96
904.101	12855.64
904.415	12874.39
904.729	12799.37
905.042	12724.11
905.356	12654.51
905.67	12706.04
905.984	12772.47
906.297	12660.16
906.611	12572.93
906.924	12551.46
907.237	12490.67
907.551	12447.74
907.864	12353.05
908.177	12389.21
908.491	12304.92
908.804	12268.99
909.117	12140.4
909.43	12117.12
909.743	12126.84
910.056	12097.46
910.368	12019.73
910.681	11960.29
910.994	11865.15
911.307	11873.52
911.619	11757.36
911.932	11844.82
912.244	11632.62
912.557	11734.31
912.869	11619.74
913.181	11624.48
913.494	11563.47
913.806	11521.66
914.118	11533.41
914.43	11380.65
914.742	11381.55
915.054	11364.15
915.366	11321.89
915.678	11140.2
915.99	11189.69
916.302	11123.7
916.613	11060.88
916.925	11109.47
917.236	11072.18
917.548	11027.44
917.859	11026.76
918.171	10890.04
918.482	10937.27
918.794	10875.35
919.105	10831.06
919.416	10749.7
919.727	10748.35
920.038	10682.81
920.349	10615.47
920.66	10569.37
920.971	10499.99
921.282	10538.86
921.593	10437.4
921.903	10447.56
922.214	10442.37
922.525	10412.99
922.835	10306.78
923.146	10233.78
923.456	10236.04
923.767	10206.21
924.077	10090.74
924.387	10051.42
924.697	10025.2
925.008	10082.6
925.318	10044.86
925.628	9918.09
925.938	9921.93
926.248	9814.13
926.558	9785.66
926.867	9744.98
927.177	9752.67
927.487	9700.69
927.796	9628.15
928.106	9574.82
928.416	9606.23
928.725	9522.16
929.034	9516.97
929.344	9479.68
929.653	9406.24
929.962	9325.79
930.271	9322.17
930.581	9333.02
930.89	9222.74
931.199	9152.23
931.508	9155.39
931.817	9217.99
932.125	9138.67
932.434	9041.27
932.743	9016.19
933.051	8937.1
933.36	8962.18
933.669	8814.16
933.977	8836.99
934.286	8831.11
934.594	8812.35
934.902	8761.73
935.21	8676.09
935.519	8655.07
935.827	8672.92
936.135	8588.86
936.443	8520.84
936.751	8464.57
937.059	8506.37
937.367	8378.69
937.674	8381.86
937.982	8380.05
938.29	8295.53
938.597	8324.23
938.905	8213.27
939.213	8208.53
939.52	8126.27
939.827	8145.93
940.135	8128.76
940.442	8075.42
940.749	8053.05
941.056	8109.32
941.363	7923.11
941.67	7876.33
941.977	7914.98
942.284	7893.28
942.591	7816.67
942.898	7803.34
943.205	7811.93
943.511	7697.58
943.818	7678.37
944.125	7630.01
944.431	7586.4
944.738	7605.61
945.044	7473.86
945.35	7495.33
945.657	7494.65
945.963	7427.53
946.269	7398.83
946.575	7373.07
946.881	7338.95
947.187	7301.43
947.493	7320.41
947.799	7207.65
948.105	7230.25
948.41	7240.64
948.716	7129.01
949.022	7081.55
949.327	7066.64
949.633	7005.62
949.938	7030.48
950.244	7035.68
950.549	7012.17
950.854	6929.46
951.16	6915.68
951.465	6860.54
951.77	6867.09
952.075	6852.18
952.38	6777.6
952.685	6760.88
952.99	6708
953.294	6776.93
953.599	6680.66
953.904	6622.58
954.209	6595.01
954.513	6653.31
954.818	6595.46
955.122	6549.36
955.426	6502.58
955.731	6511.17
956.035	6434.79
956.339	6422.59
956.643	6425.3
956.948	6370.38
957.252	6323.38
957.556	6307.56
957.86	6302.14
958.163	6242.48
958.467	6239.99
958.771	6257.84
959.075	6190.05
959.378	6146.43
959.682	6221.01
959.985	6141.24
960.289	6097.85
960.592	6122.03
960.896	6088.81
961.199	6105.53
961.502	6029.83
961.805	5983.73
962.108	5932.43
962.411	5935.14
962.714	5886.78
963.017	5900.11
963.32	5871.19
963.623	5869.15
963.926	5824.86
964.228	5807.23
964.531	5777.63
964.833	5778.53
965.136	5739.44
965.438	5709.84
965.741	5672.32
966.043	5675.94
966.345	5602.95
966.648	5578.77
966.95	5586.68
967.252	5536.73
967.554	5515.94
967.856	5478.43
968.158	5496.96
968.46	5490.41
968.761	5463.51
969.063	5402.27
969.365	5425.32
969.666	5355.72
969.968	5331.77
970.269	5285.44
970.571	5337.19
970.872	5318.21
971.174	5214.26
971.475	5230.98
971.776	5230.75
972.077	5186.01
972.378	5135.84
972.679	5134.71
972.98	5157.76
973.281	5097.42
973.582	5070.08
973.883	5022.62
974.183	4969.52
974.484	5058.78
974.785	4983.53
975.085	4999.57
975.386	4917.99
975.686	4865.34
975.986	4861.5
976.287	4831.44
976.587	4837.09
976.887	4804.32
977.187	4791.44
977.487	4792.8
977.787	4774.04
978.087	4674.38
978.387	4702.18
978.687	4687.26
978.987	4630.77
979.286	4575.18
979.586	4645.23
979.885	4601.62
980.185	4519.36
980.484	4526.59
980.784	4556.87
981.083	4532.01
981.382	4481.17
981.682	4471.22
981.981	4406.59
982.28	4386.71
982.579	4396.65
982.878	4400.27
983.177	4330.66
983.475	4351.45
983.774	4279.14
984.073	4287.05
984.372	4217.9
984.67	4266.71
984.969	4236.2
985.267	4179.03
985.566	4197.33
985.864	4155.53
986.162	4138.35
986.461	4165.24
986.759	4123.21
987.057	4033.27
987.355	4058.81
987.653	4073.27
987.951	4043.66
988.249	4020.16
988.547	3994.85
988.844	3972.03
989.142	3987.4
989.44	3920.5
989.737	3906.04
990.035	3870.79
990.332	3914.18
990.63	3838.92
990.927	3818.13
991.224	3851.13
991.521	3803.67
991.819	3787.17
992.116	3804.12
992.413	3759.38
992.71	3729.32
993.006	3745.59
993.303	3678.48
993.6	3665.37
993.897	3702.88
994.193	3637.35
994.49	3624.92
994.787	3568.65
995.083	3562.32
995.379	3575.88
995.676	3554.19
995.972	3570.91
996.268	3523.23
996.565	3495.66
996.861	3484.81
997.157	3462.89
997.453	3434.42
997.749	3417.69
998.044	3376.34
998.34	3396.9
998.636	3376.34
998.932	3345.6
999.227	3335.21
999.523	3363.46
999.818	3265.15
1000.114	3247.3
1000.409	3262.22
1000.704	3305.83
1001	3232.39
1001.295	3205.95
1001.59	3201.88
1001.885	3204.36
1002.18	3158.49
1002.475	3144.48
1002.77	3129.34
1003.065	3149.23
1003.359	3115.78
1003.654	3131.15
1003.949	3091.37
1004.243	3084.14
1004.538	2997.82
1004.832	3031.94
1005.127	3037.59
1005.421	2998.49
1005.715	2977.93
1006.009	2972.51
1006.304	2947.87
1006.598	2950.81
1006.892	2899.51
1007.186	2887.76
1007.48	2879.63
1007.773	2871.72
1008.067	2857.93
1008.361	2820.42
1008.655	2801.44
1008.948	2808.22
1009.242	2806.41
1009.535	2793.53
1009.829	2742.91
1010.122	2736.81
1010.415	2713.76
1010.708	2712.4
1011.001	2652.74
1011.295	2677.37
1011.588	2659.07
1011.881	2644.38
1012.173	2619.52
1012.466	2588.11
1012.759	2583.14
1013.052	2553.31
1013.344	2518.73
1013.637	2539.3
1013.93	2517.83
1014.222	2501.11
1014.514	2470.15
1014.807	2489.58
1015.099	2452.29
1015.391	2433.09
1015.683	2440.32
1015.976	2403.93
1016.268	2379.08
1016.56	2364.39
1016.851	2361
1017.143	2367.78
1017.435	2323.26
1017.727	2331.17
1018.018	2291.17
1018.31	2307.21
1018.602	2258.18
1018.893	2259.98
1019.185	2258.85
1019.476	2225.41
1019.767	2215.92
1020.058	2208.01
1020.35	2178.4
1020.641	2160.1
1020.932	2123.49
1021.223	2111.96
1021.514	2134.79
1021.804	2089.14
1022.095	2065.19
1022.386	2063.83
1022.677	2070.84
1022.967	2067.9
1023.258	2033.1
1023.548	2014.57
1023.839	1994.23
1024.129	1977.96
1024.419	1927.56
1024.709	1949.71
1025	1921.69
1025.29	1923.72
1025.58	1914.68
1025.87	1889.6
1026.16	1879.65
1026.449	1858.41
1026.739	1833.78
1027.029	1849.82
1027.319	1823.38
1027.608	1812.54
1027.898	1788.13
1028.187	1786.78
1028.477	1768.47
1028.766	1754.23
1029.055	1736.83
1029.344	1707.23
1029.634	1728.02
1029.923	1697.06
1030.212	1662.48
1030.501	1682.37
1030.79	1656.38
1031.078	1647.8
1031.367	1625.65
1031.656	1633.33
1031.945	1617.97
1032.233	1627.23
1032.522	1590.85
1032.81	1585.42
1033.099	1579.55
1033.387	1556.72
1033.675	1540.23
1033.963	1563.5
1034.251	1535.26
1034.54	1501.58
1034.828	1497.29
1035.116	1492.09
1035.403	1467.91
1035.691	1458.87
1035.979	1455.03
1036.267	1425.2
1036.554	1430.17
1036.842	1424.75
1037.129	1408.48
1037.417	1432.21
1037.704	1400.57
1037.992	1401.7
1038.279	1372.77
1038.566	1373.45
1038.853	1373.45
1039.14	1373.45
