Data from aluminium_surface_pro_back_FLMS001491_00061.txt Node
Date: Wed Feb 08 15:34:22 GMT 2017
User: dcchb
Spectrometer: FLMS00149
Trigger mode: 0
Integration Time (sec): 2.000000E-2
Scans to average: 10
Electric dark correction enabled: true
Nonlinearity correction enabled: false
Boxcar width: 0
XAxis mode: Wavelengths
Number of Pixels in Spectrum: 2048
>>>>>Begin Spectral Data<<<<<
341.393	-15.59
341.776	-15.59
342.16	-15.59
342.543	-72.99
342.927	-72.77
343.31	-64.18
343.693	-58.53
344.077	-61.92
344.46	-58.98
344.843	-39.1
345.226	-23.95
345.61	-39.1
345.993	-21.47
346.376	-24.18
346.759	11.3
347.142	43.39
347.525	54.24
347.908	35.25
348.291	77.06
348.674	77.74
349.057	92.43
349.44	143.27
349.823	166.78
350.206	179.66
350.588	237.51
350.971	246.1
351.354	257.17
351.737	263.95
352.119	295.36
352.502	293.55
352.884	293.33
353.267	318.86
353.65	339.65
354.032	337.39
354.414	314.79
354.797	362.93
355.179	353.89
355.562	362.02
355.944	355.7
356.326	371.29
356.709	356.15
357.091	384.4
357.473	388.24
357.855	387.33
358.238	380.33
358.62	370.84
359.002	376.49
359.384	370.61
359.766	377.39
360.148	380.55
360.53	364.51
360.912	369.71
361.294	383.49
361.676	355.47
362.057	384.4
362.439	367.9
362.821	381.68
363.203	347.11
363.584	366.54
363.966	364.28
364.348	369.03
364.729	369.26
365.111	368.13
365.493	351.18
365.874	339.88
366.256	372.65
366.637	360.89
367.019	354.34
367.4	362.25
367.781	379.65
368.163	380.1
368.544	364.51
368.925	352.99
369.306	387.56
369.688	354.79
370.069	391.63
370.45	376.04
370.831	380.55
371.212	361.8
371.593	387.79
371.974	391.63
372.355	373.78
372.736	394.11
373.117	375.36
373.498	383.72
373.879	377.39
374.26	398.86
374.641	375.81
375.021	375.58
375.402	389.37
375.783	409.25
376.163	413.1
376.544	395.7
376.925	408.8
377.305	430.5
377.686	426.2
378.066	429.37
378.447	418.07
378.827	445.19
379.208	422.36
379.588	440.44
379.968	455.36
380.349	440.21
380.729	435.69
381.109	449.03
381.489	459.87
381.87	458.97
382.25	463.49
382.63	479.31
383.01	458.75
383.39	475.69
383.77	487.9
384.15	478.41
384.53	453.55
384.91	504.17
385.29	479.76
385.67	512.08
386.049	504.39
386.429	505.75
386.809	520.66
387.189	501.46
387.568	507.11
387.948	518.4
388.328	532.87
388.707	526.99
389.087	550.95
389.466	545.75
389.846	546.88
390.225	561.34
390.605	562.47
390.984	581.45
391.363	576.71
391.743	565.63
392.122	623.03
392.501	602.92
392.881	605.86
393.26	606.76
393.639	619.42
394.018	614.67
394.397	607.44
394.776	625.07
395.155	633.43
395.534	645.41
395.913	646.08
396.292	635.69
396.671	691.51
397.05	693.54
397.429	665.97
397.808	682.02
398.186	691.73
398.565	708.46
398.944	700.77
399.323	709.13
399.701	729.7
400.08	717.95
400.458	732.41
400.837	733.31
401.215	736.93
401.594	779.41
401.972	761.56
402.351	798.62
402.729	810.37
403.107	786.87
403.486	800.88
403.864	794.78
404.242	822.13
404.62	855.34
404.999	833.65
405.377	839.98
405.755	867.1
406.133	904.61
406.511	884.72
406.889	894.21
407.267	935.57
407.645	930.15
408.023	931.73
408.401	962.01
408.779	965.4
409.156	986.41
409.534	981.9
409.912	989.58
410.29	998.39
410.667	1024.61
411.045	1029.13
411.422	1078.62
411.8	1073.19
412.178	1072.97
412.555	1108.9
412.933	1120.42
413.31	1122.46
413.687	1143.92
414.065	1147.77
414.442	1146.41
414.819	1189.8
415.197	1219.18
415.574	1183.7
415.951	1228.44
416.328	1214.21
416.705	1216.69
417.082	1233.19
417.46	1268.89
417.837	1279.74
418.214	1323.36
418.591	1312.51
418.967	1339.17
419.344	1325.16
419.721	1363.58
420.098	1373.07
420.475	1364.71
420.852	1404.93
421.228	1405.16
421.605	1407.42
421.982	1433.18
422.358	1442.22
422.735	1458.72
423.111	1489.68
423.488	1503.46
423.864	1486.97
424.241	1562.9
424.617	1557.25
424.994	1555.44
425.37	1535.33
425.746	1558.6
426.123	1581.88
426.499	1618.94
426.875	1660.07
427.251	1652.84
427.627	1687.87
428.003	1730.8
428.379	1718.15
428.756	1756.79
429.132	1767.19
429.507	1790.01
429.883	1809.22
430.259	1855.77
430.635	1881.31
431.011	1879.72
431.387	1939.61
431.763	1967.86
432.138	1996.78
432.514	2040.4
432.89	1997.01
433.265	2077.69
433.641	2081.08
434.016	2128.98
434.392	2137.34
434.767	2171.47
435.143	2165.37
435.518	2207.17
435.894	2237.68
436.269	2286.49
436.644	2276.1
437.02	2309.09
437.395	2325.81
437.77	2331.46
438.145	2395.64
438.52	2428.64
438.895	2444.46
439.271	2472.48
439.646	2496.66
440.021	2508.86
440.395	2546.6
440.77	2514.06
441.145	2562.19
441.52	2610.78
441.895	2592.25
442.27	2624.34
442.645	2670.89
443.019	2674.05
443.394	2676.09
443.769	2735.75
444.143	2723.09
444.518	2746.37
444.892	2753.83
445.267	2785.69
445.641	2811.9
446.016	2818
446.39	2862.3
446.764	2893.48
447.139	2879.25
447.513	2932.58
447.887	2921.51
448.262	2926.02
448.636	2976.42
449.01	3025.01
449.384	3035.17
449.758	3107.94
450.132	3116.53
450.506	3137.54
450.88	3150.88
451.254	3151.78
451.628	3216.19
452.002	3264.55
452.376	3245.56
452.75	3283.53
453.123	3314.49
453.497	3392.91
453.871	3422.51
454.244	3486.69
454.618	3476.97
454.992	3527.14
455.365	3583.63
455.739	3678.1
456.112	3691.43
456.486	3726
456.859	3734.82
457.232	3819.33
457.606	3811.43
457.979	3880.8
458.352	3953.79
458.725	4028.37
459.099	4035.37
459.472	4114.02
459.845	4157.86
460.218	4215.93
460.591	4189.27
460.964	4285.31
461.337	4362.37
461.71	4428.58
462.083	4468.58
462.456	4508.58
462.829	4524.4
463.201	4578.41
463.574	4633.1
463.947	4684.85
464.32	4787.67
464.692	4817.73
465.065	4859.53
465.438	4983.15
465.81	5042.81
466.183	5052.3
466.555	5140.66
466.928	5177.04
467.3	5203.25
467.672	5329.13
468.045	5448.44
468.417	5447.99
468.789	5538.39
469.161	5607.31
469.534	5685.5
469.906	5794.2
470.278	5791.03
470.65	5853.86
471.022	6007.75
471.394	6124.81
471.766	6156.22
472.138	6239.16
472.51	6397.35
472.882	6518.25
473.253	6559.38
473.625	6701.74
473.997	6807.73
474.369	6876.2
474.74	6981.51
475.112	7060.83
475.484	7179.25
475.855	7332.91
476.227	7418.56
476.598	7597.09
476.97	7663.3
477.341	7876.86
477.713	7963.18
478.084	8014.48
478.455	8261.03
478.827	8325.2
479.198	8591.86
479.569	8533.56
479.94	8870.5
480.311	8954.57
480.682	9125.41
481.053	9271.85
481.424	9460.09
481.795	9586.64
482.166	9709.12
482.537	9797.48
482.908	10058.72
483.279	10129.68
483.65	10323.8
484.021	10564.24
484.391	10689.89
484.762	10831.35
485.133	10823.9
485.503	11042.65
485.874	11329.65
486.244	11455.74
486.615	11633.82
486.985	11807.83
487.356	11938.22
487.726	12116.97
488.097	12345.44
488.467	12417.3
488.837	12675.37
489.207	12889.38
489.578	12948.81
489.948	13151.29
490.318	13375.92
490.688	13391.29
491.058	13630.38
491.428	13832.4
491.798	13991.95
492.168	14264.48
492.538	14260.42
492.908	14488.88
493.278	14712.83
493.648	14778.82
494.017	14959.15
494.387	15131.58
494.757	15240.96
495.126	15394.62
495.496	15483.43
495.866	15511.23
496.235	15705.35
496.605	15832.58
496.974	16005.91
497.344	16141.95
497.713	16100.59
498.082	16306.69
498.452	16502.62
498.821	16573.8
499.19	16759.11
499.559	16884.3
499.928	16942.61
500.298	17209.27
500.667	17284.74
501.036	17150.74
501.405	17502.59
501.774	17575.36
502.143	17761.34
502.512	17721.12
502.88	17998.62
503.249	17978.28
503.618	18166.3
503.987	18279.52
504.356	18355.22
504.724	18430.7
505.093	18538.72
505.462	18668.66
505.83	18839.05
506.199	19059.84
506.567	19333.05
506.936	19297.35
507.304	19537.79
507.672	19537.57
508.041	19710.89
508.409	19918.8
508.777	20037.67
509.145	20288.73
509.514	20227.49
509.882	20441.27
510.25	20509.07
510.618	20771.43
510.986	20797.19
511.354	21066.79
511.722	21265.66
512.09	21428.14
512.458	21412.54
512.826	21667.45
513.193	21740.9
513.561	21851.18
513.929	22037.84
514.297	22280.77
514.664	22333.65
515.032	22561.89
515.4	22712.62
515.767	22860.87
516.135	23044.14
516.502	23082.56
516.869	23352.61
517.237	23644.12
517.604	23522.77
517.972	23778.58
518.339	23970.44
518.706	24038.69
519.073	24200.04
519.44	24533.82
519.808	24739.69
520.175	24712.34
520.542	25205.89
520.909	25305.32
521.276	25276.85
521.643	25588.93
522.009	25762.94
522.376	25962.71
522.743	26087.45
523.11	26360.89
523.477	26672.29
523.843	26777.15
524.21	27082.45
524.577	27291.03
524.943	27553.85
525.31	27638.6
525.676	27919.49
526.043	28106.83
526.409	28213.72
526.776	28524.9
527.142	28623.88
527.508	28961.95
527.874	28979.35
528.241	29337.53
528.607	29350.41
528.973	29714.92
529.339	29649.16
529.705	30002.37
530.071	30196.72
530.437	30456.15
530.803	30541.8
531.169	30683.71
531.535	30780.89
531.901	30923.25
532.267	31104.27
532.632	31286.63
532.998	31405.73
533.364	31632.16
533.73	31760.97
534.095	32020.4
534.461	32048.42
534.826	32388.3
535.192	32531.35
535.557	32687.95
535.923	32626.49
536.288	32729.31
536.653	32995.74
537.019	32973.14
537.384	33136.3
537.749	33307.6
538.114	33345.79
538.479	33578.78
538.845	33694.48
539.21	33732.45
539.575	33914.14
539.94	34107.8
540.305	34209.27
540.67	34218.99
541.034	34419.43
541.399	34518.64
541.764	34696.04
542.129	34769.93
542.494	34829.14
542.858	34950.27
543.223	35138.06
543.587	35252.63
543.952	35218.28
544.316	35455.56
544.681	35417.6
545.045	35580.76
545.41	35910.92
545.774	35888.1
546.138	35936.68
546.503	36122.67
546.867	36010.13
547.231	36416.67
547.595	36420.51
547.959	36615.08
548.324	36787.06
548.688	36826.15
549.052	36964.45
549.416	37062.98
549.779	37149.76
550.143	37309.3
550.507	37534.15
550.871	37636.07
551.235	37641.95
551.599	38001.03
551.962	38041.71
552.326	38134.14
552.689	38348.6
553.053	38263.63
553.417	38396.28
553.78	38907.23
554.143	38747.91
554.507	38978.41
554.87	39035.13
555.234	39446.42
555.597	39388.57
555.96	39576.81
556.323	39770.71
556.686	39785.17
557.05	40198.94
557.413	40240.75
557.776	40381.99
558.139	40620.63
558.502	40851.81
558.865	40992.59
559.228	41175.64
559.59	41477.1
559.953	41447.5
560.316	41967.48
560.679	41939.46
561.041	42119.8
561.404	42394.59
561.767	42722.72
562.129	42515.94
562.492	42983.5
562.854	42982.15
563.217	43125.65
563.579	43264.85
563.941	43656.71
564.304	43819.41
564.666	43985.28
565.028	44105.51
565.39	44315.44
565.753	44474.76
566.115	44688.77
566.477	44882.21
566.839	44908.42
567.201	45295.76
567.563	45434.29
567.925	45604.68
568.287	45711.57
568.648	45901.39
569.01	46045.34
569.372	46333.47
569.734	46344.32
570.095	46569.17
570.457	46809.39
570.819	47001.93
571.18	47159.21
571.542	47266.1
571.903	47268.36
572.265	47590.84
572.626	47643.72
572.987	47809.14
573.349	47957.16
573.71	48129.13
574.071	48119.41
574.432	48341.1
574.794	48544.71
575.155	48650.7
575.516	48548.33
575.877	48807.76
576.238	48919.62
576.599	49006.17
576.96	49056.11
577.32	49067.86
577.681	49178.59
578.042	49265.82
578.403	49349.89
578.763	49513.5
579.124	49465.82
579.485	49692.25
579.845	49905.58
580.206	49694.74
580.566	49783.55
580.927	49878.01
581.287	49976.09
581.648	49881.85
582.008	50163.65
582.368	49924.11
582.728	50149.19
583.089	50136.08
583.449	50058.8
583.809	50089.3
584.169	50276.87
584.529	50063.99
584.889	50443.87
585.249	50194.61
585.609	50211.56
585.969	50237.1
586.329	50261.5
586.688	50338.79
587.048	50246.36
587.408	50215.63
587.768	50124.33
588.127	50232.8
588.487	50152.13
588.846	50469.86
589.206	50303.76
589.565	50352.57
589.925	50583.3
590.284	50481.61
590.643	50517.09
591.003	50564.32
591.362	50657.88
591.721	50514.83
592.08	50554.15
592.44	50748.95
592.799	50724.09
593.158	50599.12
593.517	50610.65
593.876	50785.56
594.235	50646.58
594.593	50857.87
594.952	50851.54
595.311	50724.99
595.67	50851.54
596.029	51064.65
596.387	50954.59
596.746	51035.95
597.104	50879.79
597.463	50922.95
597.822	51075.95
598.18	50888.15
598.538	50976.96
598.897	51182.61
599.255	50883.41
599.613	51359.78
599.972	51047.25
600.33	51280.91
600.688	51137.86
601.046	51184.64
601.404	51343.06
601.762	51261.7
602.12	51404.07
602.478	51428.48
602.836	51428.93
603.194	51268.26
603.552	51456.05
603.91	51185.09
604.268	51589.38
604.625	51456.95
604.983	51524.29
605.341	51428.03
605.698	51590.96
606.056	51716.15
606.413	51648.81
606.771	51802.71
607.128	51784.4
607.485	51598.42
607.843	51729.26
608.2	51872.53
608.557	52005.19
608.914	51824.4
609.272	52034.79
609.629	52096.48
609.986	52146.88
610.343	51992.98
610.7	52232.98
611.057	52145.52
611.414	52142.58
611.771	52104.84
612.127	52249.47
612.484	52185.52
612.841	52402.69
613.198	52244.73
613.554	52234.56
613.911	52551.39
614.267	52538.28
614.624	52570.82
614.98	52510.03
615.337	52698.73
615.693	52651.27
616.05	52577.83
616.406	52750.03
616.762	52594.32
617.118	52565.17
617.475	52628.45
617.831	52655.34
618.187	52735.79
618.543	52682.23
618.899	52783.92
619.255	52819.18
619.611	52751.61
619.967	52889.68
620.323	52918.16
620.678	52820.98
621.034	52726.75
621.39	52789.57
621.746	52741.89
622.101	53108.66
622.457	52830.93
622.812	52877.71
623.168	52897.82
623.523	52888.33
623.879	52932.62
624.234	52800.42
624.589	52976.01
624.945	52905.5
625.3	52952.96
625.655	52886.97
626.01	52904.82
626.365	52863.47
626.72	52826.63
627.075	52858.72
627.43	52808.1
627.785	52739.18
628.14	52759.52
628.495	52830.7
628.85	52790.02
629.205	52708.67
629.559	52906.41
629.914	52717.03
630.269	52835.22
630.623	52739.4
630.978	52660.31
631.332	52888.78
631.687	52911.6
632.041	52686.52
632.396	52781.66
632.75	52700.31
633.104	52685.62
633.459	52541.22
633.813	52637.71
634.167	52559.3
634.521	52496.7
634.875	52594.1
635.229	52464.61
635.583	52263.03
635.937	52256.25
636.291	52259.64
636.645	52253.54
636.999	52222.36
637.352	52385.06
637.706	52087.22
638.06	52285.86
638.413	52124.28
638.767	51953.44
639.121	52055.58
639.474	51889.94
639.828	51898.52
640.181	51986.66
640.534	51983.72
640.888	51842.48
641.241	51776.49
641.594	51599.1
641.947	51772.2
642.301	51590.51
642.654	51662.82
643.007	51643.84
643.36	51574.92
643.713	51489.27
644.066	51731.97
644.419	51423.51
644.771	51230.52
645.124	50937.42
645.477	50789.85
645.83	50717.76
646.182	50581.95
646.535	50423.31
646.888	50581.72
647.24	50386.92
647.593	50536.07
647.945	50314.16
648.298	50146.93
648.65	50148.51
649.002	50128.17
649.355	50185.12
649.707	50161.39
650.059	50286.14
650.411	50734.26
650.763	50577.43
651.115	50858.78
651.467	50813.81
651.819	50829.17
652.171	50671.44
652.523	50703.75
652.875	50591.89
653.227	50481.16
653.578	50753.47
653.93	50615.17
654.282	50422.85
654.633	50358.22
654.985	50441.61
655.337	50427.6
655.688	50354.16
656.039	50513.7
656.391	50245.46
656.742	50180.83
657.094	50337.21
657.445	50363.87
657.796	50217.89
658.147	50111.9
658.498	50212.47
658.849	50109.19
659.2	50176.99
659.551	50073.94
659.902	50191.67
660.253	49943.55
660.604	50097.44
660.955	49861.51
661.306	50056.76
661.656	50076.88
662.007	49969.53
662.358	49934.96
662.708	49916.65
663.059	49954.84
663.409	49723.66
663.76	50035.29
664.11	50035.52
664.461	49887.5
664.811	50028.52
665.161	49829.42
665.511	49764.34
665.862	49782.65
666.212	49930.66
666.562	49875.3
666.912	49870.1
667.262	49840.5
667.612	49798.46
667.962	49774.51
668.312	49616.55
668.662	49927.73
669.011	49814.74
669.361	49633.95
669.711	49617.45
670.06	49517.34
670.41	49516.44
670.76	49386.27
671.109	49568.41
671.459	49493.39
671.808	49414.75
672.157	49464.01
672.507	49252.72
672.856	49334.52
673.205	49360.06
673.554	49438.93
673.904	49296.1
674.253	49379.04
674.602	49187.41
674.951	48675.33
675.3	48469.46
675.649	49099.73
675.998	48982.21
676.346	49083.68
676.695	49116.22
677.044	48711.49
677.393	48860.18
677.741	48804.37
678.09	48706.74
678.438	48644.6
678.787	48751.49
679.135	48743.35
679.484	48473.98
679.832	48575.22
680.181	48408.67
680.529	48637.82
680.877	48339.75
681.225	48326.64
681.573	48443.25
681.922	48224.95
682.27	48186.3
682.618	48175
682.966	48065.18
683.314	48240.77
683.661	47967.78
684.009	47942.47
684.357	47864.96
684.705	47638.3
685.053	47817.95
685.4	47710.16
685.748	47532.31
686.095	47546.09
686.443	47272.2
686.79	47278.53
687.138	47434.23
687.485	47434.01
687.832	47260.68
688.18	47263.39
688.527	47062.94
688.874	47134.13
689.221	46962.83
689.568	46783.63
689.915	46792.44
690.262	46594.48
690.609	46570.98
690.956	46468.38
691.303	46408.27
691.65	46137.54
691.997	46173.25
692.344	46022.07
692.69	45989.75
693.037	45852.35
693.383	45699.14
693.73	45770.55
694.077	45648.29
694.423	45497.56
694.769	45468.18
695.116	45317.45
695.462	45442.87
695.808	45081.98
696.155	45164.24
696.501	44783.68
696.847	44738.48
697.193	44491.71
697.539	44689.67
697.885	44371.94
698.231	44319.29
698.577	44234.09
698.923	44095.34
699.269	43985.51
699.614	43870.26
699.96	43811.73
700.306	43757.72
700.651	43477.5
700.997	43475.47
701.342	43400.21
701.688	43283.38
702.033	43134.01
702.379	43166.1
702.724	43020.11
703.069	43033.22
703.415	42674.58
703.76	42688.37
704.105	42603.63
704.45	42509.84
704.795	42379.68
705.14	42131.1
705.485	42009.52
705.83	41896.75
706.175	41938.56
706.52	42005.9
706.865	41855.17
707.209	41627.61
707.554	41419.02
707.899	41623.09
708.243	41203.21
708.588	41307.16
708.932	41115.53
709.277	41008.64
709.621	41216.09
709.966	40917.57
710.31	41009.09
710.654	40593.06
710.998	40586.5
711.342	40721.42
711.687	40495.21
712.031	40203.69
712.375	40357.58
712.719	40402.1
713.063	40291.14
713.407	40392.16
713.75	40163.24
714.094	40202.11
714.438	40017.7
714.782	39972.96
715.125	39760.76
715.469	39793.3
715.812	39656.13
716.156	39328.23
716.499	39412.97
716.843	39392.86
717.186	39132.53
717.53	39410.72
717.873	39321.23
718.216	39112.64
718.559	38877.17
718.902	38721.69
719.246	38720.34
719.589	38504.98
719.932	38471.08
720.275	38494.58
720.617	38392.66
720.96	38330.74
721.303	38313.57
721.646	38202.61
721.989	37922.62
722.331	38023.18
722.674	37999
723.016	37943.86
723.359	37785.45
723.701	37956.74
724.044	37665.9
724.386	37294.39
724.729	37660.25
725.071	37427.49
725.413	37484.66
725.755	37407.6
726.097	37354.05
726.439	37186.82
726.782	37090.78
727.124	37312.92
727.465	37067.05
727.807	36992.47
728.149	36894.4
728.491	36824.79
728.833	36864.57
729.175	36835.64
729.516	36722.42
729.858	36676.1
730.199	36594.74
730.541	36532.15
730.882	36491.92
731.224	36614.63
731.565	36234.3
731.906	36169.44
732.248	36391.59
732.589	36094.87
732.93	35842
733.271	36009.22
733.612	35906.4
733.953	35933.29
734.294	35776.46
734.635	35590.7
734.976	35803.58
735.317	35568.33
735.658	35610.14
735.999	35580.31
736.339	35477.71
736.68	35580.76
737.021	35399.75
737.361	35131.51
737.702	35304.61
738.042	35180.77
738.383	35108.23
738.723	35117.49
739.063	34990.94
739.404	35037.27
739.744	34837.95
740.084	34799.08
740.424	34846.54
740.764	34635.25
741.104	34865.3
741.444	34567.45
741.784	34507.34
742.124	34556.83
742.464	34415.59
742.804	34328.59
743.143	34181.93
743.483	34331.53
743.823	34111.19
744.162	34099.22
744.502	34012.67
744.841	33927.02
745.181	34087.47
745.52	33863.06
745.86	34018.54
746.199	33978.09
746.538	33799.56
746.877	33926.11
747.216	33666.46
747.556	33548.5
747.895	33820.81
748.234	33477.99
748.573	33501.04
748.911	33396.18
749.25	33407.71
749.589	33235.28
749.928	33318.67
750.267	33223.08
750.605	33017.89
750.944	33142.41
751.283	32833.26
751.621	32998.23
751.96	32682.08
752.298	32803.66
752.636	32750.1
752.975	32724.79
753.313	32558.69
753.651	32718.46
753.989	32469.2
754.327	32242.32
754.666	32188.98
755.004	32301.98
755.342	32190.57
755.679	32072.15
756.017	31970.46
756.355	31947.63
756.693	31715.32
757.031	31787.41
757.368	31622.67
757.706	31572.5
758.044	31483.69
758.381	31449.34
758.719	31298.61
759.056	31283.7
759.394	31160.31
759.731	30903.14
760.068	30956.7
760.405	30806.42
760.743	30637.16
761.08	30661.11
761.417	30482.81
761.754	30405.75
762.091	30319.2
762.428	30243.5
762.765	29947.69
763.102	30076.5
763.438	29915.15
763.775	29809.39
764.112	29866.33
764.449	29931.64
764.785	29736.39
765.122	29467.47
765.458	29354.48
765.795	29400.81
766.131	29268.16
766.467	29164.88
766.804	28954.27
767.14	28872.24
767.476	29051.44
767.812	28825.23
768.148	28822.74
768.485	28622.75
768.821	28413.04
769.157	28369.65
769.492	28238.35
769.828	28212.14
770.164	27949.55
770.5	27839.49
770.836	27810.79
771.171	27652.83
771.507	27562.89
771.842	27371.94
772.178	27356.12
772.513	27432.5
772.849	27136.24
773.184	27192.51
773.519	27084.26
773.855	26956.13
774.19	26804.49
774.525	26719.98
774.86	26652.63
775.195	26563.37
775.53	26324.73
775.865	26268.69
776.2	26172.65
776.535	25910.28
776.87	25973.1
777.205	25836.61
777.539	25763.84
777.874	25757.97
778.209	25425.55
778.543	25291.99
778.878	25274.14
779.212	25195.95
779.547	25224.65
779.881	25224.65
780.215	24985.11
780.55	25024.65
780.884	24807.48
781.218	24794.83
781.552	24815.62
781.886	24604.78
782.22	24469.41
782.554	24422.86
782.888	24126.82
783.222	24078.01
783.556	24026.94
783.889	24103.1
784.223	23859.49
784.557	23715.53
784.89	23851.8
785.224	23694.52
785.557	23503.56
785.891	23477.12
786.224	23345.37
786.558	23325.71
786.891	23128.21
787.224	23045.27
787.557	22992.39
787.891	23064.7
788.224	23028.77
788.557	22880.98
788.89	22759.18
789.223	22731.15
789.556	22658.61
789.888	22519.86
790.221	22302.24
790.554	22390.15
790.887	22292.97
791.219	22210.49
791.552	22221.79
791.884	22004.62
792.217	21955.35
792.549	21907.45
792.882	21787.22
793.214	21742.93
793.546	21680.79
793.879	21507.68
794.211	21431.53
794.543	21455.93
794.875	21331.87
795.207	21382.94
795.539	21153.34
795.871	21072.89
796.203	20981.37
796.535	20886.68
796.867	20911.77
797.198	20876.74
797.53	20907.7
797.862	20728.72
798.193	20685.78
798.525	20640.14
798.856	20661.15
799.188	20273.14
799.519	20263.42
799.85	20201.5
800.182	20245.57
800.513	20327.38
800.844	20030.21
801.175	20082.18
801.506	20095.52
801.837	19950.66
802.168	19877.67
802.499	19858.01
802.83	19739.14
803.161	19707.28
803.491	19711.57
803.822	19513.84
804.153	19460.73
804.483	19350.9
804.814	19146.16
805.145	19272.49
805.475	19249.66
805.805	19119.72
806.136	19113.17
806.466	19054.64
806.796	18993.85
807.126	18895.1
807.457	18817.81
807.787	18825.27
808.117	18717.02
808.447	18697.81
808.777	18715.21
809.107	18517.25
809.436	18437.93
809.766	18593.86
810.096	18445.39
810.426	18269.12
810.755	18405.62
811.085	18288.78
811.414	18226.41
811.744	18061.67
812.073	18084.5
812.403	18085.85
812.732	17972.18
813.061	17998.62
813.39	17877.5
813.719	17907.78
814.049	17901
814.378	17857.16
814.707	17724.96
815.036	17729.03
815.365	17630.04
815.693	17533.55
816.022	17440.9
816.351	17495.36
816.68	17382.82
817.008	17472.99
817.337	17305.08
817.665	17281.35
817.994	17300.79
818.322	17302.14
818.651	17181.92
818.979	17054.69
819.307	17177.18
819.636	17101.25
819.964	16922.27
820.292	17004.07
820.62	16940.35
820.948	16931.98
821.276	16980.57
821.604	16936.73
821.932	17059.44
822.259	17032.77
822.587	16956.84
822.915	16933.79
823.243	16935.6
823.57	16910.97
823.898	16873.23
824.225	16829.61
824.553	16776.73
824.88	16834.81
825.207	16972.89
825.535	16818.54
825.862	16914.13
826.189	16927.46
826.516	16921.14
826.843	16954.58
827.17	16951.64
827.497	16906
827.824	16901.93
828.151	16850.63
828.478	16716.62
828.805	16920.91
829.131	16764.98
829.458	16767.92
829.785	16675.27
830.111	16693.57
830.438	16809.73
830.764	16695.61
831.09	16842.27
831.417	16611.09
831.743	16783.97
832.069	16774.47
832.395	16624.42
832.722	16680.24
833.048	16685.21
833.374	16629.17
833.7	16556.63
834.026	16572.67
834.351	16561.82
834.677	16548.72
835.003	16547.81
835.329	16538.32
835.654	16565.67
835.98	16521.37
836.306	16594.37
836.631	16434.37
836.956	16568.6
837.282	16486.12
837.607	16442.96
837.932	16424.65
838.258	16348.27
838.583	16325.45
838.908	16280.25
839.233	16325.22
839.558	16316.86
839.883	16237.77
840.208	16246.35
840.533	16279.35
840.858	16185.34
841.182	16132.23
841.507	16101.05
841.832	16075.96
842.156	16042.29
842.481	16066.7
842.805	16004.55
843.13	15965.68
843.454	15865.12
843.778	15892.46
844.103	15775.4
844.427	15818.34
844.751	15723.65
845.075	15680.04
845.399	15707.84
845.723	15602.08
846.047	15536.77
846.371	15491.34
846.695	15485.47
847.019	15301.97
847.343	15275.98
847.666	15267.62
847.99	15258.13
848.313	15133.16
848.637	15065.37
848.96	15107.17
849.284	15070.11
849.607	14887.07
849.931	14840.51
850.254	14767.97
850.577	14728.88
850.9	14678.26
851.223	14652.95
851.546	14610.24
851.869	14442.56
852.192	14536.79
852.515	14400.07
852.838	14353.29
853.161	14324.82
853.483	14244.82
853.806	14181.1
854.129	14160.98
854.451	14130.25
854.774	14060.87
855.096	13996.69
855.419	13985.85
855.741	13924.61
856.063	13907.2
856.385	13845.51
856.708	13778.17
857.03	13677.61
857.352	13738.85
857.674	13799.19
857.996	13731.39
858.318	13618.62
858.64	13645.29
858.961	13526.42
859.283	13540.21
859.605	13495.01
859.926	13496.59
860.248	13380.67
860.57	13349.25
860.891	13433.55
861.212	13308.58
861.534	13281.01
861.855	13302.02
862.176	13271.06
862.498	13273.32
862.819	13284.17
863.14	13181.8
863.461	13184.74
863.782	13158.75
864.103	13137.06
864.424	13086.89
864.745	13154.91
865.065	13070.62
865.386	12993.78
865.707	13012.54
866.027	13010.28
866.348	12905.88
866.668	12933.9
866.989	12911.98
867.309	12887.12
867.63	12943.39
867.95	12864.75
868.27	12807.8
868.59	12794.47
868.91	12717.63
869.23	12755.14
869.55	12632.66
869.87	12714.69
870.19	12742.72
870.51	12720.8
870.83	12754.01
871.15	12628.14
871.469	12674.92
871.789	12671.76
872.109	12584.75
872.428	12528.71
872.748	12601.93
873.067	12571.87
873.386	12568.26
873.706	12615.49
874.025	12523.51
874.344	12468.37
874.663	12513.8
874.982	12505.89
875.301	12399.22
875.62	12425.44
875.939	12408.71
876.258	12391.99
876.577	12353.8
876.896	12340.01
877.214	12256.85
877.533	12342.05
877.852	12287.81
878.17	12314.7
878.489	12324.65
878.807	12309.51
879.125	12349.28
879.444	12156.97
879.762	12227.02
880.08	12198.1
880.398	12131.66
880.716	12207.36
881.034	12060.02
881.352	12104.77
881.67	12060.93
881.988	12057.31
882.306	12022.51
882.624	12036.29
882.941	11961.95
883.259	11975.5
883.577	11939.12
883.894	11988.16
884.212	11954.71
884.529	11881.95
884.846	11916.97
885.164	11866.58
885.481	11844.21
885.798	11836.3
886.115	11792.68
886.432	11805.57
886.75	11798.56
887.067	11720.82
887.383	11753.14
887.7	11780.03
888.017	11707.71
888.334	11715.85
888.651	11664.55
888.967	11688.96
889.284	11587.72
889.6	11441.51
889.917	11471.56
890.233	11529.41
890.55	11477.44
890.866	11475.18
891.182	11406.93
891.498	11362.41
891.815	11304.56
892.131	11337.78
892.447	11272.47
892.763	11188.86
893.079	11202.42
893.395	11168.52
893.71	11121.97
894.026	11017.79
894.342	11046.26
894.657	11065.7
894.973	10997.45
895.289	10964.23
895.604	10859.38
895.92	10870.67
896.235	10820.05
896.55	10781.19
896.865	10814.86
897.181	10706.84
897.496	10707.97
897.811	10671.58
898.126	10609.21
898.441	10567.41
898.756	10505.94
899.071	10550.91
899.386	10550.46
899.7	10517.92
900.015	10467.52
900.33	10470.01
900.644	10360.63
900.959	10346.39
901.273	10324.25
901.588	10351.82
901.902	10230.92
902.216	10203.57
902.531	10144.82
902.845	10152.05
903.159	10121.09
903.473	10025.73
903.787	10113.18
904.101	10021.43
904.415	10001.32
904.729	9936.24
905.042	9986.86
905.356	9889.68
905.67	9936.01
905.984	9910.47
906.297	9805.84
906.611	9785.51
906.924	9763.36
907.237	9716.13
907.551	9666.41
907.864	9670.48
908.177	9656.24
908.491	9634.55
908.804	9624.15
909.117	9554.78
909.43	9438.62
909.743	9336.7
910.056	9448.79
910.368	9385.97
910.681	9343.71
910.994	9294.22
911.307	9219.42
911.619	9132.87
911.932	9211.06
912.244	9107.33
912.557	9089.48
912.869	9076.6
913.181	9060.55
913.494	9067.56
913.806	9030.27
914.118	8929.48
914.43	8876.6
914.742	8929.48
915.054	8810.62
915.366	8718.87
915.678	8792.09
915.99	8797.51
916.302	8733.33
916.613	8712.31
916.925	8643.84
917.236	8588.25
917.548	8581.02
917.859	8545.99
918.171	8470.74
918.482	8425.54
918.794	8449.72
919.105	8425.77
919.416	8301.48
919.727	8367.24
920.038	8338.31
920.349	8246.11
920.66	8242.5
920.971	8218.77
921.282	8241.14
921.593	8173.12
921.903	8117.98
922.214	8138.32
922.525	8085.89
922.835	8033.01
923.146	8019.45
923.456	7985.78
923.767	7967.02
924.077	7924.54
924.387	7866.91
924.697	7838.44
925.008	7781.26
925.318	7780.81
925.628	7693.13
925.938	7668.05
926.248	7670.76
926.558	7602.51
926.867	7636.86
927.177	7570.42
927.487	7560.25
927.796	7476.41
928.106	7520.48
928.416	7523.42
928.725	7498.33
929.034	7374.27
929.344	7388.51
929.653	7396.19
929.962	7320.26
930.271	7273.48
930.581	7288.17
930.89	7264.67
931.199	7204.56
931.508	7183.99
931.817	7113.26
932.125	7097.21
932.434	7085.01
932.743	7108.06
933.051	7075.97
933.36	7002.3
933.669	6903.55
933.977	6951
934.286	6920.95
934.594	6891.34
934.902	6853.61
935.21	6790.78
935.519	6785.81
935.827	6781.74
936.135	6781.29
936.443	6710.56
936.751	6667.85
937.059	6620.39
937.367	6612.93
937.674	6647.73
937.982	6603.67
938.29	6602.31
938.597	6616.55
938.905	6537.68
939.213	6493.16
939.52	6411.13
939.827	6475.08
940.135	6383.79
940.442	6385.82
940.749	6406.16
941.056	6378.36
941.363	6287.97
941.67	6246.62
941.977	6240.97
942.284	6203.68
942.591	6179.05
942.898	6134.3
943.205	6109.22
943.511	6106.28
943.818	6070.57
944.125	6061.99
944.431	6099.73
944.738	6037.58
945.044	6013.85
945.35	6015.44
945.657	6000.52
945.963	5923.01
946.269	5847.98
946.575	5920.3
946.881	5846.85
947.187	5799.85
947.493	5821.77
947.799	5811.6
948.105	5780.64
948.41	5718.04
948.716	5723.47
949.022	5688.44
949.327	5719.17
949.633	5640.76
949.938	5679.62
950.244	5614.09
950.549	5609.57
950.854	5504.49
951.16	5545.16
951.465	5511.95
951.77	5503.58
952.075	5525.73
952.38	5437.82
952.685	5419.74
952.99	5371.16
953.294	5381.1
953.599	5325.96
953.904	5293.87
954.209	5304.04
954.513	5247.55
954.818	5262.23
955.122	5255
955.426	5230.37
955.731	5241.22
956.035	5140.2
956.339	5172.52
956.643	5154.67
956.948	5124.84
957.252	5060.88
957.556	5052.97
957.86	5042.58
958.163	5016.14
958.467	4991.73
958.771	4994.44
959.075	4923.49
959.378	4930.04
959.682	4939.31
959.985	4889.36
960.289	4855.01
960.592	4879.65
960.896	4797.61
961.199	4852.3
961.502	4799.2
961.805	4793.55
962.108	4782.47
962.411	4749.71
962.714	4715.58
963.017	4696.6
963.32	4739.31
963.623	4677.62
963.926	4649.14
964.228	4604.85
964.531	4599.43
964.833	4599.88
965.136	4581.12
965.438	4517.85
965.741	4524.85
966.043	4549.48
966.345	4541.12
966.648	4450.05
966.95	4488.7
967.252	4418.64
967.554	4421.35
967.856	4414.57
968.158	4351.75
968.46	4368.47
968.761	4376.83
969.063	4282.83
969.365	4310.4
969.666	4262.71
969.968	4245.99
970.269	4258.65
970.571	4213
970.872	4239.89
971.174	4178.65
971.475	4158.31
971.776	4126.9
972.077	4111.98
972.378	4076.05
972.679	4064.3
972.98	4099.33
973.281	4086.22
973.582	4049.16
973.883	4034.92
974.183	3984.98
974.484	3979.33
974.785	3953.57
975.085	3962.16
975.386	3956.05
975.686	3912.21
975.986	3907.69
976.287	3862.05
976.587	3853.91
976.887	3870.63
977.187	3863.18
977.487	3787.02
977.787	3801.26
978.087	3821.14
978.387	3789.5
978.687	3761.71
978.987	3757.87
979.286	3727.81
979.586	3714.93
979.885	3691.2
980.185	3628.83
980.484	3674.48
980.784	3643.97
981.083	3594.03
981.382	3629.06
981.682	3611.2
981.981	3587.25
982.28	3564.65
982.579	3562.39
982.878	3554.48
983.177	3550.42
983.475	3527.82
983.774	3463.86
984.073	3501.6
984.372	3468.84
984.67	3478.1
984.969	3470.64
985.267	3403.3
985.566	3389.97
985.864	3375.73
986.162	3367.6
986.461	3405.11
986.759	3365.11
987.057	3326.92
987.355	3322.4
987.653	3301.83
987.951	3289.41
988.249	3297.09
988.547	3237.65
988.844	3236.53
989.142	3254.83
989.44	3190.42
989.737	3209.41
990.035	3185.9
990.332	3156.53
990.63	3128.73
990.927	3089.64
991.224	3156.53
991.521	3131.22
991.819	3109.3
992.116	3109.3
992.413	3092.12
992.71	3060.03
993.006	3029.52
993.303	3014.61
993.6	3024.33
993.897	3021.16
994.193	3000.83
994.49	2980.03
994.787	2942.97
995.083	2934.39
995.379	2890.55
995.676	2910.21
995.972	2933.71
996.268	2941.62
996.565	2869.08
996.861	2867.95
997.157	2870.88
997.453	2848.06
997.749	2837.21
998.044	2802.64
998.34	2777.33
998.636	2755.18
998.932	2775.52
999.227	2767.16
999.523	2747.5
999.818	2682.87
1000.114	2675.41
1000.409	2695.97
1000.704	2672.02
1001	2666.37
1001.295	2649.65
1001.59	2634.28
1001.885	2640.16
1002.18	2625.47
1002.475	2574.4
1002.77	2572.81
1003.065	2561.51
1003.359	2551.35
1003.654	2517.9
1003.949	2552.7
1004.243	2500.05
1004.538	2473.38
1004.832	2465.92
1005.127	2479.93
1005.421	2460.27
1005.715	2431.12
1006.009	2436.32
1006.304	2408.3
1006.598	2433.16
1006.892	2393.38
1007.186	2337.34
1007.48	2350.9
1007.773	2317.68
1008.067	2287.85
1008.361	2312.93
1008.655	2311.8
1008.948	2279.26
1009.242	2283.1
1009.535	2236.78
1009.829	2240.17
1010.122	2228.19
1010.415	2219.6
1010.708	2202.88
1011.001	2201.07
1011.295	2178.25
1011.588	2182.54
1011.881	2155.2
1012.173	2144.8
1012.466	2152.71
1012.759	2111.36
1013.052	2121.07
1013.344	2082.43
1013.637	2068.87
1013.93	2058.02
1014.222	2080.4
1014.514	2060.06
1014.807	2055.77
1015.099	2023.22
1015.391	1984.81
1015.683	1977.12
1015.976	1983.45
1016.268	1973.73
1016.56	1932.6
1016.851	1945.03
1017.143	1928.08
1017.435	1902.1
1017.727	1928.99
1018.018	1923.79
1018.31	1871.59
1018.602	1873.17
1018.893	1855.54
1019.185	1848.31
1019.476	1806.96
1019.767	1828.65
1020.058	1785.04
1020.35	1794.76
1020.641	1800.18
1020.932	1787.98
1021.223	1757.92
1021.514	1764.93
1021.804	1752.72
1022.095	1732.16
1022.386	1742.1
1022.677	1696.23
1022.967	1675.89
1023.258	1673.85
1023.548	1655.78
1023.839	1686.28
1024.129	1632.95
1024.419	1656.45
1024.709	1614.42
1025	1593.63
1025.29	1585.72
1025.58	1597.25
1025.87	1593.18
1026.16	1536.23
1026.449	1584.37
1026.739	1574.42
1027.029	1544.14
1027.319	1544.82
1027.608	1554.31
1027.898	1497.14
1028.187	1524.71
1028.477	1495.78
1028.766	1467.08
1029.055	1480.41
1029.344	1458.94
1029.634	1457.36
1029.923	1419.17
1030.212	1430.24
1030.501	1435.44
1030.79	1413.75
1031.078	1396.35
1031.367	1379.17
1031.656	1345.5
1031.945	1364.71
1032.233	1351.15
1032.522	1322
1032.81	1344.6
1033.099	1336.91
1033.387	1327.42
1033.675	1313.86
1033.963	1334.2
1034.251	1296.01
1034.54	1295.79
1034.828	1319.74
1035.116	1299.85
1035.403	1258.95
1035.691	1238.84
1035.979	1253.75
1036.267	1234.77
1036.554	1238.39
1036.842	1218.5
1037.129	1223.24
1037.417	1234.09
1037.704	1214.43
1037.992	1205.17
1038.279	1181.66
1038.566	1193.41
1038.853	1193.41
1039.14	1193.41
