Data from aluminium_surface_pro_back_FLMS001491_00001.txt Node
Date: Wed Feb 08 15:33:28 GMT 2017
User: dcchb
Spectrometer: FLMS00149
Trigger mode: 0
Integration Time (sec): 2.000000E-2
Scans to average: 10
Electric dark correction enabled: true
Nonlinearity correction enabled: false
Boxcar width: 0
XAxis mode: Wavelengths
Number of Pixels in Spectrum: 2048
>>>>>Begin Spectral Data<<<<<
341.393	12.02
341.776	12.02
342.16	12.02
342.543	-49.67
342.927	-62.78
343.31	-63.46
343.693	-56.23
344.077	-67.3
344.46	-73.85
344.843	-47.41
345.226	-47.19
345.61	-42.67
345.993	-28.88
346.376	-0.86
346.759	22.19
347.142	35.52
347.525	37.1
347.908	52.47
348.291	78.46
348.674	97.21
349.057	104.9
349.44	136.54
349.823	135.63
350.206	173.6
350.588	214.27
350.971	242.3
351.354	245.91
351.737	264.89
352.119	308.73
352.502	296.31
352.884	312.12
353.267	306.47
353.65	336.76
354.032	346.93
354.414	341.95
354.797	340.37
355.179	348.51
355.562	370.65
355.944	383.08
356.326	353.71
356.709	379.47
357.091	362.74
357.473	378.56
357.855	361.16
358.238	391.67
358.62	360.94
359.002	367.26
359.384	374.04
359.766	350.09
360.148	387.6
360.53	380.82
360.912	367.49
361.294	370.2
361.676	399.35
362.057	387.38
362.439	373.59
362.821	378.34
363.203	363.2
363.584	384.67
363.966	384.21
364.348	353.93
364.729	380.6
365.111	384.21
365.493	374.5
365.874	368.17
366.256	337.21
366.637	376.76
367.019	363.65
367.4	384.21
367.781	379.02
368.163	374.95
368.544	375.85
368.925	373.59
369.306	405
369.688	394.16
370.069	391.67
370.45	385.34
370.831	377.43
371.212	393.25
371.593	389.18
371.974	350.77
372.355	402.52
372.736	398.68
373.117	391.67
373.498	382.63
373.879	398.68
374.26	391.44
374.641	377.21
375.021	387.6
375.402	399.35
375.783	420.6
376.163	419.69
376.544	429.18
376.925	437.54
377.305	412.46
377.686	435.29
378.066	423.99
378.447	434.61
378.827	423.53
379.208	436.42
379.588	433.03
379.968	442.06
380.349	452.23
380.729	444.32
381.109	452.69
381.489	464.21
381.87	454.04
382.25	430.09
382.63	441.16
383.01	474.38
383.39	478.67
383.77	475.06
384.15	485.23
384.53	468.05
384.91	498.79
385.29	521.61
385.67	478.9
386.049	523.42
386.429	506.47
386.809	510.99
387.189	501.5
387.568	506.7
387.948	505.79
388.328	550.76
388.707	545.79
389.087	540.82
389.466	550.08
389.846	570.42
390.225	566.81
390.605	575.17
390.984	576.52
391.363	562.97
391.743	579.91
392.122	576.98
392.501	583.76
392.881	594.83
393.26	606.13
393.639	619.69
394.018	610.42
394.397	618.78
394.776	640.93
395.155	656.97
395.534	659.01
395.913	636.41
396.292	639.12
396.671	675.05
397.05	670.76
397.429	668.95
397.808	688.39
398.186	707.82
398.565	710.98
398.944	687.03
399.323	720.93
399.701	712.79
400.08	703.75
400.458	723.87
400.837	748.72
401.215	763.19
401.594	746.24
401.972	786.01
402.351	775.62
402.729	760.93
403.107	809.29
403.486	788.5
403.864	836.4
404.242	807.93
404.62	828.04
404.999	826.24
405.377	854.48
405.755	855.39
406.133	894.48
406.511	861.71
406.889	892.9
407.267	907.36
407.645	905.56
408.023	933.13
408.401	917.31
408.779	931.09
409.156	989.39
409.534	979.45
409.912	986.23
410.29	1007.02
410.667	1018.77
411.045	1045.89
411.422	1044.08
411.8	1040.47
412.178	1072.78
412.555	1104.87
412.933	1099.67
413.31	1115.04
413.687	1103.52
414.065	1146.23
414.442	1144.19
414.819	1155.94
415.197	1160.92
415.574	1174.25
415.951	1201.14
416.328	1234.13
416.705	1211.54
417.082	1236.17
417.46	1226.22
417.837	1251.99
418.214	1261.7
418.591	1315.49
418.967	1307.35
419.344	1316.39
419.721	1348.48
420.098	1333.57
420.475	1364.07
420.852	1369.05
421.228	1366.11
421.605	1412.89
421.982	1404.07
422.358	1436.16
422.735	1436.84
423.111	1444.75
423.488	1464.41
423.864	1505.54
424.241	1547.35
424.617	1535.14
424.994	1531.3
425.37	1545.31
425.746	1606.78
426.123	1597.29
426.499	1590.51
426.875	1626.21
427.251	1647.46
427.627	1683.39
428.003	1690.62
428.379	1729.49
428.756	1720.68
429.132	1765.42
429.507	1806.32
429.883	1814.91
430.259	1829.15
430.635	1861.01
431.011	1875.02
431.387	1908.01
431.763	1953.89
432.138	1974.91
432.514	1993.89
432.89	1983.72
433.265	2044.96
433.641	2043.38
434.016	2067.78
434.392	2105.07
434.767	2190.04
435.143	2160.66
435.518	2158.4
435.894	2214.67
436.269	2206.54
436.644	2291.51
437.02	2278.4
437.395	2327.66
437.77	2376.25
438.145	2368.79
438.52	2396.14
438.895	2435.46
439.271	2416.48
439.646	2481.33
440.021	2544.61
440.395	2498.73
440.77	2496.93
441.145	2506.42
441.52	2573.31
441.895	2587.09
442.27	2585.51
442.645	2599.07
443.019	2660.76
443.394	2677.03
443.769	2725.62
444.143	2665.28
444.518	2743.47
444.892	2725.39
445.267	2752.74
445.641	2803.81
446.016	2830.7
446.39	2880.19
446.764	2831.15
447.139	2865.73
447.513	2895.33
447.887	2921.55
448.262	2953.64
448.636	2952.06
449.01	2968.55
449.384	3002
449.758	3036.12
450.132	3085.61
450.506	3105.72
450.88	3141.88
451.254	3134.65
451.628	3178.72
452.002	3226.4
452.376	3267.53
452.75	3274.76
453.123	3307.53
453.497	3414.64
453.871	3378.48
454.244	3467.3
454.618	3498.03
454.992	3538.48
455.365	3516.79
455.739	3608.54
456.112	3663.45
456.486	3670.45
456.859	3724.69
457.232	3828.42
457.606	3808.53
457.979	3821.64
458.352	3937.79
458.725	3967.85
459.099	3979.82
459.472	4075.42
459.845	4143.66
460.218	4169.65
460.591	4216.65
460.964	4271.12
461.337	4345.24
461.71	4402.19
462.083	4435.63
462.456	4424.33
462.829	4520.15
463.201	4581.84
463.574	4590.2
463.947	4659.35
464.32	4759.69
464.692	4820.03
465.065	4889.63
465.438	4937.09
465.81	4991.55
466.183	5122.62
466.555	5167.14
466.928	5225.67
467.3	5188.83
467.672	5319.68
468.045	5403.06
468.417	5424.76
468.789	5502.27
469.161	5565.32
469.534	5627.01
469.906	5737.74
470.278	5833.79
470.65	5863.17
471.022	5981.58
471.394	6089.37
471.766	6195.81
472.138	6258.63
472.51	6394
472.882	6510.61
473.253	6547.67
473.625	6598.74
473.997	6747.89
474.369	6806.64
474.74	6893.19
475.112	7036.47
475.484	7207.54
475.855	7279.4
476.227	7373.41
476.598	7574.31
476.97	7640.29
477.341	7769.56
477.713	7893.62
478.084	8000.96
478.455	8198.02
478.827	8289.09
479.198	8559.37
479.569	8511.01
479.94	8863.76
480.311	8894.95
480.682	9066.24
481.053	9304.2
481.424	9343.53
481.795	9548.04
482.166	9587.81
482.537	9764.53
482.908	10022.38
483.279	10108.7
483.65	10279.32
484.021	10445.87
484.391	10512.76
484.762	10694.45
485.133	10853.99
485.503	11001.79
485.874	11202.91
486.244	11338.28
486.615	11601.77
486.985	11660.07
487.356	11885.83
487.726	12039.5
488.097	12293.5
488.467	12247.86
488.837	12604.46
489.207	12702.99
489.578	12889.65
489.948	13030.89
490.318	13201.96
490.688	13275.63
491.058	13493.47
491.428	13662.96
491.798	13764.43
492.168	14111.99
492.538	14113.8
492.908	14198.54
493.278	14557.17
493.648	14515.14
494.017	14815.7
494.387	14823.16
494.757	15080.78
495.126	15159.42
495.496	15264.27
495.866	15355.57
496.235	15552.18
496.605	15674.88
496.974	15783.81
497.344	15950.13
497.713	16086.17
498.082	16166.85
498.452	16365.04
498.821	16486.61
499.19	16609.78
499.559	16742.88
499.928	16902.65
500.298	17020.16
500.667	17230.78
501.036	17125.02
501.405	17248.63
501.774	17403.2
502.143	17599.58
502.512	17591.9
502.88	17873.02
503.249	17838.22
503.618	17922.06
503.987	18073.47
504.356	18253.35
504.724	18334.48
505.093	18343.97
505.462	18377.41
505.83	18657.4
506.199	18876.83
506.567	19159.09
506.936	19046.55
507.304	19339.42
507.672	19380.55
508.041	19420.1
508.409	19630.03
508.777	19817.83
509.145	19933.76
509.514	20039.29
509.882	20279.28
510.25	20392.5
510.618	20511.14
510.986	20578.48
511.354	20815.54
511.722	21035.87
512.09	21395.19
512.458	21288.07
512.826	21524
513.193	21579.14
513.561	21660.49
513.929	21960.14
514.297	22123.53
514.664	22216.86
515.032	22299.8
515.4	22540.47
515.767	22514.48
516.135	22786.79
516.502	22762.16
516.869	23191.75
517.237	23351.29
517.604	23259.09
517.972	23523.27
518.339	23771.85
518.706	23797.16
519.073	23961.22
519.44	24118.96
519.808	24379.29
520.175	24413.19
520.542	24790.35
520.909	24886.39
521.276	24892.27
521.643	25292.26
522.009	25435.53
522.376	25561.86
522.743	25790.78
523.11	26036.87
523.477	26353.7
523.843	26323.87
524.21	26763.18
524.577	26967.02
524.943	27085.88
525.31	27374.92
525.676	27535.14
526.043	27785.07
526.409	27822.14
526.776	28278.17
527.142	28353.42
527.508	28619.18
527.874	28767.87
528.241	28926.06
528.607	28979.17
528.973	29318.82
529.339	29437.69
529.705	29644.91
530.071	29901.86
530.437	30123.54
530.803	30411.22
531.169	30462.52
531.535	30347.49
531.901	30638.78
532.267	30615.51
532.632	30872.22
532.998	31114.93
533.364	31207.36
533.73	31375.71
534.095	31655.48
534.461	31729.38
534.826	31918.07
535.192	32052.98
535.557	32312.87
535.923	32233.77
536.288	32494.78
536.653	32655
537.019	32487.55
537.384	32761.44
537.749	32985.62
538.114	32996.01
538.479	33073.52
538.845	33506.96
539.21	33445.04
539.575	33519.16
539.94	33586.96
540.305	33818.81
540.67	33735.88
541.034	33931.35
541.399	34057
541.764	34195.53
542.129	34326.6
542.494	34412.02
542.858	34427.39
543.223	34662.18
543.587	34866.7
543.952	34932.46
544.316	35025.56
544.681	35021.27
545.045	35307.59
545.41	35346.23
545.774	35413.35
546.138	35566.34
546.503	35723.4
546.867	35770.85
547.231	36028.47
547.595	36058.98
547.959	36226.21
548.324	36396.6
548.688	36368.35
549.052	36539.87
549.416	36620.77
549.779	36769.47
550.143	36866.87
550.507	37055.79
550.871	37138.73
551.235	37098.73
551.599	37482.22
551.962	37471.6
552.326	37557.25
552.689	37745.26
553.053	37647.64
553.417	37844.02
553.78	38242.2
554.143	38157.23
554.507	38318.13
554.87	38429.54
555.234	38879.02
555.597	38648.52
555.96	39034.5
556.323	39034.95
556.686	39154.72
557.05	39399.01
557.413	39455.95
557.776	39825.44
558.139	39981.36
558.502	40089.38
558.865	40311.98
559.228	40510.84
559.59	40706.77
559.953	40616.83
560.316	41090.94
560.679	41177.49
561.041	41483.25
561.404	41608.44
561.767	41841.2
562.129	41765.72
562.492	42170.46
562.854	42176.11
563.217	42306.05
563.579	42470.56
563.941	42819.26
564.304	43106.93
564.666	43376.75
565.028	43299.69
565.39	43581.27
565.753	43915.5
566.115	43933.35
566.477	44157.53
566.839	44297.18
567.201	44502.83
567.563	44534.24
567.925	44879.31
568.287	44854
568.648	44918.64
569.01	45264.16
569.372	45603.59
569.734	45512.52
570.095	45692.63
570.457	45987.99
570.819	46100.75
571.18	46057.14
571.542	46288.32
571.903	46333.51
572.265	46497.58
572.626	46691.92
572.987	46805.37
573.349	46964.68
573.71	47236.09
574.071	47288.06
574.432	47475.63
574.794	47762.4
575.155	47782.06
575.516	47606.47
575.877	47882.4
576.238	47967.37
576.599	48022.28
576.96	48129.4
577.32	48167.82
577.681	48255.72
578.042	48507.47
578.403	48412.78
578.763	48534.36
579.124	48619.78
579.485	48788.82
579.845	48915.14
580.206	48796.5
580.566	48933.67
580.927	48980.68
581.287	49160.33
581.648	49224.74
582.008	49140.22
582.368	49176.6
582.728	49276.49
583.089	49265.41
583.449	49377.28
583.809	49412.53
584.169	49332.3
584.529	49349.03
584.889	49575.24
585.249	49391.29
585.609	49292.76
585.969	49582.47
586.329	49354.45
586.688	49589.7
587.048	49381.34
587.408	49353.09
587.768	49435.58
588.127	49411.4
588.487	49474
588.846	49782.46
589.206	49561.45
589.565	49550.6
589.925	49703.37
590.284	49717.83
590.643	49731.62
591.003	49823.59
591.362	49931.61
591.721	49830.82
592.08	49901.33
592.44	49955.79
592.799	49891.84
593.158	49777.72
593.517	49953.08
593.876	49877.83
594.235	49846.87
594.593	49788.79
594.952	49980.88
595.311	49905.85
595.67	49964.15
596.029	50180.42
596.387	50123.47
596.746	50156.01
597.104	50093.87
597.463	50026.75
597.822	50266.97
598.18	50018.39
598.538	50159.18
598.897	50302.22
599.255	50004.38
599.613	50556.45
599.972	50386.74
600.33	50422.22
600.688	50321.66
601.046	50394.2
601.404	50501.99
601.762	50465.83
602.12	50618.6
602.478	50636
602.836	50635.32
603.194	50512.16
603.552	50596.45
603.91	50424.03
604.268	50820.4
604.625	50704.25
604.983	50777.01
605.341	50630.8
605.698	50718.71
606.056	50771.36
606.413	50818.82
606.771	50928.19
607.128	50921.42
607.485	50872.15
607.843	50893.85
608.2	50989.89
608.557	51105.14
608.914	51021.07
609.272	51119.15
609.629	51256.77
609.986	51280.05
610.343	51134.07
610.7	51376.09
611.057	51256.55
611.414	51282.31
611.771	51301.29
612.127	51412.7
612.484	51309.43
612.841	51513.04
613.198	51346.04
613.554	51395.98
613.911	51587.84
614.267	51588.06
614.624	51513.72
614.98	51566.37
615.337	51838.45
615.693	51703.32
616.05	51632.58
616.406	51928.62
616.762	51789.87
617.118	51864.67
617.475	51856.76
617.831	51852.92
618.187	51927.94
618.543	51888.62
618.899	52116.41
619.255	52009.75
619.611	52103.98
619.967	52135.62
620.323	52187.82
620.678	52072.8
621.034	51927.72
621.39	52013.14
621.746	51847.72
622.101	52245.9
622.457	51983.76
622.812	52151.89
623.168	52108.73
623.523	52112.57
623.879	52173.59
624.234	52002.29
624.589	52160.93
624.945	52095.85
625.3	52145.34
625.655	52116.19
626.01	52035.51
626.365	52134.72
626.72	51894.05
627.075	51998.9
627.43	52018.11
627.785	51910.09
628.14	51972.24
628.495	52082.97
628.85	51963.65
629.205	51854.5
629.559	52039.13
629.914	51882.29
630.269	51840.71
630.623	51876.42
630.978	51875.74
631.332	51980.37
631.687	51959.58
632.041	51754.16
632.396	51930.65
632.75	51783.77
633.104	51855.4
633.459	51672.58
633.813	51625.8
634.167	51573.83
634.521	51580.16
634.875	51593.04
635.229	51527.05
635.583	51426.94
635.937	51312.82
636.291	51357.34
636.645	51359.14
636.999	51324.34
637.352	51374.28
637.706	51166.38
638.06	51241.63
638.413	51095.42
638.767	51098.81
639.121	51131.13
639.474	50960.74
639.828	50922.77
640.181	51011.81
640.534	50975.2
640.888	50868.54
641.241	50591.03
641.594	50758.48
641.947	50964.35
642.301	50711.03
642.654	50621.08
643.007	50687.98
643.36	50558.49
643.713	50565.72
644.066	50652.72
644.419	50355.55
644.771	50177.25
645.124	49844.61
645.477	49826.53
645.83	49584.05
646.182	49464.28
646.535	49381.34
646.888	49513.77
647.24	49234.68
647.593	49432.41
647.945	49264.96
648.298	49158.3
648.65	49111.75
649.002	49026.32
649.355	49229.03
649.707	48988.81
650.059	49225.87
650.411	49662.24
650.763	49708.57
651.115	50137.48
651.467	49982.46
651.819	49906.75
652.171	49780.2
652.523	49733.88
652.875	49965.51
653.227	49525.52
653.578	49914.21
653.93	49656.59
654.282	49517.61
654.633	49419.76
654.985	49386.54
655.337	49368.46
655.688	49445.52
656.039	49484.16
656.391	49116.04
656.742	49336.37
657.094	49314
657.445	49356.26
657.796	49121.01
658.147	49170.27
658.498	49158.98
658.849	49131.63
659.2	49174.34
659.551	48984.52
659.902	49107.45
660.253	48997.85
660.604	49090.5
660.955	48886.44
661.306	49153.78
661.656	48908.59
662.007	48963.73
662.358	48963.05
662.708	48943.39
663.059	48804.41
663.409	48600.57
663.76	49059.77
664.11	48795.6
664.461	48732.32
664.811	48701.59
665.161	48648.25
665.511	48574.13
665.862	48647.58
666.212	48613
666.562	48703.85
666.912	48466.34
667.262	48443.29
667.612	48328.26
667.962	48558.77
668.312	48455.72
668.662	48684.64
669.011	48473.57
669.361	48454.36
669.711	48440.58
670.06	48316.74
670.41	48238.55
670.76	48222.05
671.109	48393.12
671.459	48270.86
671.808	48137.53
672.157	48255.04
672.507	48081.49
672.856	48147.25
673.205	48205.1
673.554	48209.4
673.904	48138.66
674.253	48368.71
674.602	48125.1
674.951	47595.18
675.3	47343.2
675.649	48113.13
675.998	47963.08
676.346	47947.71
676.695	48018.67
677.044	47699.35
677.393	47688.51
677.741	47762.18
678.09	47626.81
678.438	47464.11
678.787	47655.96
679.135	47663.42
679.484	47319.7
679.832	47427.04
680.181	47245.13
680.529	47411.68
680.877	47383.66
681.225	47120.39
681.573	47287.61
681.922	47182.3
682.27	47014.85
682.618	47258.46
682.966	46933.27
683.314	47099.37
683.661	46867.28
684.009	46763.56
684.357	46641.3
684.705	46604.47
685.053	46604.47
685.4	46573.28
685.748	46419.16
686.095	46280.86
686.443	46204.7
686.79	46126.97
687.138	46181.43
687.485	46228.88
687.832	45984.37
688.18	46040.87
688.527	45731.95
688.874	45761.78
689.221	45666.64
689.568	45474.1
689.915	45445.18
690.262	45403.59
690.609	45208.12
690.956	45142.58
691.303	45197.5
691.65	44815.59
691.997	44938.07
692.344	44728.81
692.69	44715.48
693.037	44731.52
693.383	44387.8
693.73	44529.27
694.077	44336.05
694.423	44301.7
694.769	44160.46
695.116	44125.44
695.462	43881.37
695.808	43765.45
696.155	43856.06
696.501	43467.37
696.847	43490.65
697.193	43262.18
697.539	43293.37
697.885	43094.28
698.231	43186.25
698.577	43090.43
698.923	42947.39
699.269	42780.39
699.614	42422.88
699.96	42462.88
700.306	42468.53
700.651	42209.78
700.997	42173.85
701.342	42034.42
701.688	41936.34
702.033	41739.06
702.379	41877.13
702.724	41646.63
703.069	41815.67
703.415	41258.84
703.76	41257.04
704.105	41300.88
704.45	41206.42
704.795	40868.35
705.14	40788.35
705.485	40716.49
705.83	40633.78
706.175	40625.19
706.52	40510.84
706.865	40329.15
707.209	40242.37
707.554	40269.04
707.899	40212.54
708.243	40024.3
708.588	39936.17
708.932	39710.64
709.277	39650.75
709.621	39643.07
709.966	39314.49
710.31	39491.66
710.654	39163.76
710.998	39169.41
711.342	39227.71
711.687	38941.62
712.031	38868.85
712.375	38764.9
712.719	38955.18
713.063	38626.6
713.407	38791.11
713.75	38477
714.094	38480.16
714.438	38294.85
714.782	38430.44
715.125	38064.35
715.469	38200.85
715.812	37984.58
716.156	37863.91
716.499	37932.15
716.843	38011.7
717.186	37706.17
717.53	37995.43
717.873	37776.45
718.216	37754.08
718.559	37553.18
718.902	37188.44
719.246	37429.11
719.589	37206.07
719.932	37015.34
720.275	37174.43
720.617	37099.41
720.96	37068.67
721.303	36920.43
721.646	36819.19
721.989	36637.05
722.331	36762.69
722.674	36528.57
723.016	36595.01
723.359	36485.41
723.701	36546.43
724.044	36346.21
724.386	36172.88
724.729	36256.94
725.071	36264.63
725.413	36204.29
725.755	36093.78
726.097	35952.09
726.439	35748.93
726.782	35932.88
727.124	35930.62
727.465	35648.6
727.807	35669.61
728.149	35605.21
728.491	35361.6
728.833	35505.32
729.175	35339.9
729.516	35296.52
729.858	35315.5
730.199	35214.26
730.541	35231.88
730.882	35132.68
731.224	35256.97
731.565	34922.06
731.906	35014.26
732.248	34908.95
732.589	34682.97
732.93	34643.65
733.271	34630.32
733.612	34653.59
733.953	34598.91
734.294	34346.48
734.635	34263.55
734.976	34435.07
735.317	34198.47
735.658	34249.31
735.999	34261.51
736.339	34137.45
736.68	34158.92
737.021	34076.21
737.361	33699.27
737.702	34185.58
738.042	33913.5
738.383	33806.16
738.723	33881.64
739.063	33733.84
739.404	33805.93
739.744	33720.96
740.084	33511.7
740.424	33547.86
740.764	33497.01
741.104	33642.77
741.444	33347.19
741.784	33208.43
742.124	33436.68
742.464	33195.55
742.804	33166.18
743.143	33092.96
743.483	33091.83
743.823	32845.05
744.162	32859.07
744.502	32820.2
744.841	32707.88
745.181	32775.9
745.52	32560.32
745.86	32732.29
746.199	32611.61
746.538	32537.04
746.877	32550.6
747.216	32544.27
747.556	32349.93
747.895	32290.94
748.234	32200.33
748.573	32156.26
748.911	32030.61
749.25	32058.41
749.589	31890.5
749.928	31845.08
750.267	31874.91
750.605	31779.55
750.944	31549.04
751.283	31535.03
751.621	31535.03
751.96	31347.69
752.298	31302.27
752.636	31291.65
752.975	31172.33
753.313	31041.26
753.651	31216.85
753.989	30961.04
754.327	30918.33
754.666	30709.97
755.004	30796.75
755.342	30730.99
755.679	30685.56
756.017	30571.89
756.355	30540.93
756.693	30321.28
757.031	30470.88
757.368	30226.59
757.706	30179.81
758.044	30143.88
758.381	30172.58
758.719	30006.71
759.056	30101.62
759.394	29890.33
759.731	29694.4
760.068	29600.17
760.405	29542.54
760.743	29337.12
761.08	29467.29
761.417	29328.99
761.754	29180.07
762.091	29244.02
762.428	28962.44
762.765	28838.61
763.102	28883.58
763.438	28739.63
763.775	28453.98
764.112	28602
764.449	28598.16
764.785	28439.52
765.122	28280.65
765.458	28175.12
765.795	28214.89
766.131	28099.87
766.467	27940.1
766.804	27801.8
767.14	27617.17
767.476	27749.37
767.812	27493.56
768.148	27517.06
768.485	27378.53
768.821	27213.34
769.157	27283.39
769.492	27050.4
769.828	27072.1
770.164	26749.62
770.5	26747.36
770.836	26707.81
771.171	26508.95
771.507	26525.22
771.842	26291.55
772.178	26205.23
772.513	26340.37
772.849	26270.76
773.184	26021.73
773.519	26002.3
773.855	25888.4
774.19	25747.84
774.525	25668.29
774.86	25553.95
775.195	25501.97
775.53	25514.85
775.865	25371.13
776.2	25130.46
776.535	25074.86
776.87	24931.59
777.205	24902.89
777.539	24808.66
777.874	24759.62
778.209	24560.07
778.543	24531.37
778.878	24426.97
779.212	24410.93
779.547	24173.19
779.881	24311.95
780.215	24084.15
780.55	24058.39
780.884	24009.58
781.218	23918.74
781.552	23928.68
781.886	23756.03
782.22	23620.44
782.554	23503.83
782.888	23415.02
783.222	23212.09
783.556	23143.16
783.889	23079.21
784.223	22986.1
784.557	22965.77
784.89	22958.76
785.224	22743.4
785.557	22748.82
785.891	22673.8
786.224	22670.41
786.558	22552.44
786.891	22395.84
787.224	22341.15
787.557	22244.2
787.891	22100.93
788.224	22112.68
788.557	22077.43
788.89	21961.72
789.223	21928.73
789.556	21869.98
789.888	21767.38
790.221	21599.02
790.554	21410.55
790.887	21537.33
791.219	21289.65
791.552	21304.57
791.884	21306.15
792.217	21147.96
792.549	21131.92
792.882	20947.06
793.214	20868.19
793.546	20847.4
793.879	20816.67
794.211	20646.96
794.543	20677.92
794.875	20522.21
795.207	20506.62
795.539	20469.56
795.871	20368.09
796.203	20212.62
796.535	20200.87
796.867	20161.09
797.198	20070.7
797.53	20001.78
797.862	19905.06
798.193	19913.87
798.525	19681.33
798.856	19784.83
799.188	19634.33
799.519	19580.09
799.85	19427.1
800.182	19385.3
800.513	19353.43
800.844	19317.95
801.175	19206.32
801.506	19206.77
801.837	19272.98
802.168	19101.01
802.499	19113.66
802.83	18992.31
803.161	18883.84
803.491	18865.54
803.822	18831.19
804.153	18720.68
804.483	18674.13
804.814	18499.44
805.145	18466.45
805.475	18505.54
805.805	18446.79
806.136	18421.03
806.466	18413.57
806.796	18329.28
807.126	18216.06
807.457	18207.7
807.787	18044.31
808.117	18105.33
808.447	17975.84
808.777	18096.74
809.107	18017.2
809.436	17960.02
809.766	17973.13
810.096	17892.68
810.426	17776.3
810.755	17777.43
811.085	17764.1
811.414	17651.33
811.744	17546.25
812.073	17531.11
812.403	17573.82
812.732	17387.38
813.061	17426.48
813.39	17238.46
813.719	17290.89
814.049	17325.01
814.378	17222.64
814.707	17221.74
815.036	17107.39
815.365	16947.17
815.693	16910.11
816.022	16876.21
816.351	16878.47
816.68	16708.08
817.008	16694.29
817.337	16720.96
817.665	16586.72
817.994	16726.16
818.322	16614.29
818.651	16419.05
818.979	16389.67
819.307	16588.08
819.636	16430.34
819.964	16344.92
820.292	16398.71
820.62	16375.88
820.948	16330.01
821.276	16338.14
821.604	16271.93
821.932	16299.05
822.259	16306.51
822.587	16193.06
822.915	16168.66
823.243	16307.86
823.57	16224.47
823.898	16371.82
824.225	16155.55
824.553	16203.46
824.88	16264.93
825.207	16272.16
825.535	16221.76
825.862	16358.26
826.189	16200.29
826.516	16342.44
826.843	16379.05
827.17	16283.23
827.497	16345.15
827.824	16313.74
828.151	16381.76
828.478	16282.78
828.805	16342.89
829.131	16276.22
829.458	16182.89
829.785	16128.43
830.111	16271.7
830.438	16236.68
830.764	16231.48
831.09	16267.19
831.417	16132.27
831.743	16218.37
832.069	16207.98
832.395	16106.96
832.722	16117.58
833.048	16173.18
833.374	16092.5
833.7	16006.18
834.026	16143.12
834.351	16125.27
834.677	16083.01
835.003	16019.06
835.329	15944.71
835.654	15937.02
835.98	15877.14
836.306	15897.93
836.631	15898.61
836.956	15934.09
837.282	15920.3
837.607	15867.87
837.932	15664.94
838.258	15775.67
838.583	15632.4
838.908	15619.74
839.233	15687.09
839.558	15603.47
839.883	15509.01
840.208	15498.62
840.533	15522.57
840.858	15545.4
841.182	15483.48
841.507	15449.58
841.832	15326.87
842.156	15402.58
842.481	15345.18
842.805	15280.32
843.13	15272.18
843.454	15319.41
843.778	15235.12
844.103	15231.05
844.427	15136.82
844.751	15080.1
845.075	15115.13
845.399	15088.23
845.723	14934.11
846.047	15070.61
846.371	14923.27
846.695	14971.63
847.019	14754.23
847.343	14777.28
847.666	14737.06
847.99	14685.76
848.313	14552.43
848.637	14595.36
848.96	14533.45
849.284	14489.38
849.607	14425.2
849.931	14373.68
850.254	14301.59
850.577	14163.06
850.9	14072.21
851.223	14078.09
851.546	14027.92
851.869	13956.06
852.192	14005.55
852.515	13852.33
852.838	13798.32
853.161	13796.29
853.483	13776.18
853.806	13667.71
854.129	13681.72
854.451	13613.47
854.774	13541.61
855.096	13520.59
855.419	13443.76
855.741	13474.49
856.063	13437.66
856.385	13324.89
856.708	13345.68
857.03	13333.03
857.352	13241.28
857.674	13167.38
857.996	13171
858.318	13147.27
858.64	13147.95
858.961	13068.4
859.283	13042.86
859.605	12936.2
859.926	12961.28
860.248	12941.85
860.57	12905.47
860.891	12938.23
861.212	12882.87
861.534	12749.76
861.855	12833.83
862.176	12782.08
862.498	12751.8
862.819	12780.27
863.14	12745.02
863.461	12808.52
863.782	12652.14
864.103	12740.05
864.424	12676.55
864.745	12677.68
865.065	12559.26
865.386	12501.63
865.707	12486.27
866.027	12506.15
866.348	12493.05
866.668	12497.79
866.989	12451.01
867.309	12427.29
867.63	12454.18
867.95	12385.03
868.27	12359.94
868.59	12413.28
868.91	12316.33
869.23	12340.28
869.55	12260.06
869.87	12431.81
870.19	12307.29
870.51	12339.6
870.83	12373.95
871.15	12281.98
871.469	12173.06
871.789	12266.39
872.109	12206.95
872.428	12095.32
872.748	12122.66
873.067	12183.22
873.386	12191.59
873.706	12110.46
874.025	12112.94
874.344	12152.49
874.663	12044.92
874.982	12048.31
875.301	12052.83
875.62	11989.78
875.939	11967.41
876.258	11953.63
876.577	11931.25
876.896	11946.39
877.214	11952.5
877.533	11933.06
877.852	11953.85
878.17	11952.04
878.489	12008.77
878.807	11877.92
879.125	11912.27
879.444	11871.14
879.762	11864.36
880.08	11928.77
880.398	11827.3
880.716	11831.37
881.034	11847.87
881.352	11750.69
881.67	11825.04
881.988	11739.17
882.306	11697.36
882.624	11638.38
882.941	11649.23
883.259	11630.92
883.577	11503.02
883.894	11568.55
884.212	11566.74
884.529	11558.83
884.846	11560.87
885.164	11507.31
885.481	11443.36
885.798	11402.91
886.115	11406.52
886.432	11352.51
886.75	11392.96
887.067	11339.86
887.383	11270.03
887.7	11280.42
888.017	11259.18
888.334	11267.99
888.651	11200.43
888.967	11178.51
889.284	11168.34
889.6	11097.38
889.917	11051.28
890.233	11053.09
890.55	11037.04
890.866	11034.33
891.182	10959.53
891.498	10969.25
891.815	10890.83
892.131	10914.56
892.447	10829.59
892.763	10793.88
893.079	10832.98
893.395	10705.52
893.71	10792.3
894.026	10757.27
894.342	10711.63
894.657	10633.21
894.973	10697.16
895.289	10641.12
895.604	10591.63
895.92	10482.93
896.235	10561.12
896.55	10489.48
896.865	10463.5
897.181	10452.42
897.496	10460.78
897.811	10357.74
898.126	10302.82
898.441	10318.19
898.756	10332.43
899.071	10314.35
899.386	10269.83
899.7	10205.88
900.015	10215.82
900.33	10120.91
900.644	10131.75
900.959	10109.16
901.273	10090.62
901.588	10070.96
901.902	9995.03
902.216	10078.2
902.531	9996.39
902.845	9938.09
903.159	9945.77
903.473	9891.53
903.787	9838.2
904.101	9806.34
904.415	9823.96
904.729	9797.07
905.042	9724.76
905.356	9703.29
905.67	9718.43
905.984	9658.55
906.297	9659.22
906.611	9548.49
906.924	9571.54
907.237	9460.58
907.551	9433.24
907.864	9439.12
908.177	9410.19
908.491	9389.17
908.804	9376.52
909.117	9239.57
909.43	9225.34
909.743	9215.39
910.056	9178.33
910.368	9209.07
910.681	9122.29
910.994	9063.31
911.307	9005.46
911.619	8967.26
911.932	9037.54
912.244	8923.42
912.557	8931.11
912.869	8919.13
913.181	8849.08
913.494	8801.84
913.806	8699.02
914.118	8780.38
914.43	8683.43
914.742	8667.16
915.054	8654.28
915.366	8630.32
915.678	8608.63
915.99	8538.57
916.302	8547.61
916.613	8507.39
916.925	8425.58
917.236	8444.34
917.548	8428.97
917.859	8323.44
918.171	8322.08
918.482	8343.1
918.794	8231.46
919.105	8245.7
919.416	8151.47
919.727	8143.78
920.038	8106.95
920.349	8055.2
920.66	7955.31
920.971	8042.09
921.282	7994.18
921.593	8001.19
921.903	7959.38
922.214	7904.02
922.525	7896.78
922.835	7793.51
923.146	7795.32
923.456	7747.41
923.767	7754.64
924.077	7740.86
924.387	7682.1
924.697	7628.99
925.008	7654.08
925.318	7592.84
925.628	7551.03
925.938	7539.05
926.248	7509.22
926.558	7466.74
926.867	7424.25
927.177	7411.6
927.487	7399.85
927.796	7368.89
928.106	7318.95
928.416	7285.27
928.725	7208.21
929.034	7195.33
929.344	7293.18
929.653	7228.55
929.962	7139.74
930.271	7065.62
930.581	7076.24
930.89	7064.26
931.199	7082.34
931.508	7008.9
931.817	6963.25
932.125	7024.49
932.434	6936.36
932.743	6811.16
933.051	6866.98
933.36	6793.99
933.669	6786.98
933.977	6752.18
934.286	6728.23
934.594	6702.24
934.902	6658.62
935.21	6608.68
935.519	6629.47
935.827	6613.65
936.135	6610.94
936.443	6473.77
936.751	6493.66
937.059	6506.99
937.367	6486.88
937.674	6481.45
937.982	6469.7
938.29	6391.06
938.597	6378.18
938.905	6357.16
939.213	6308.13
939.52	6257.96
939.827	6310.38
940.135	6298.86
940.442	6210.05
940.749	6232.87
941.056	6193.78
941.363	6131.41
941.67	6081.92
941.977	6111.07
942.284	6044.4
942.591	6032.43
942.898	5948.13
943.205	5984.97
943.511	5961.92
943.818	5939.1
944.125	5901.13
944.431	5885.76
944.738	5882.83
945.044	5884.86
945.35	5841.7
945.657	5816.61
945.963	5775.26
946.269	5740.23
946.575	5706.11
946.881	5639.22
947.187	5719.44
947.493	5609.84
947.799	5605.77
948.105	5592.44
948.41	5567.58
948.716	5497.52
949.022	5552.44
949.327	5486.9
949.633	5391.09
949.938	5442.61
950.244	5458.2
950.549	5405.32
950.854	5411.88
951.16	5351.31
951.465	5338.21
951.77	5295.5
952.075	5338.21
952.38	5279
952.685	5291.2
952.99	5208.04
953.294	5255.5
953.599	5169.4
953.904	5172.56
954.209	5153.13
954.513	5145.9
954.818	5091.21
955.122	5067.93
955.426	5068.84
955.731	5046.69
956.035	5031.77
956.339	5009.18
956.643	4956.07
956.948	4981.61
957.252	4929.63
957.556	4943.42
957.86	4907.48
958.163	4883.98
958.467	4869.97
958.771	4822.29
959.075	4858.45
959.378	4827.49
959.682	4762.18
959.985	4763.08
960.289	4760.14
960.592	4671.56
960.896	4704.1
961.199	4643.31
961.502	4610.77
961.805	4618.23
962.108	4638.56
962.411	4603.76
962.714	4589.98
963.017	4564.22
963.32	4554.05
963.623	4514.5
963.926	4508.17
964.228	4491
964.531	4489.19
964.833	4451.68
965.136	4447.84
965.438	4417.55
965.741	4426.14
966.043	4392.02
966.345	4365.8
966.648	4316.09
966.95	4347.27
967.252	4289.65
967.554	4295.97
967.856	4266.6
968.158	4261.63
968.46	4217.11
968.761	4206.03
969.063	4199.25
969.365	4161.74
969.666	4117.9
969.968	4153.38
970.269	4125.36
970.571	4122.19
970.872	4056.43
971.174	4081.52
971.475	4066.6
971.776	4024.34
972.077	4061.4
972.378	4033.38
972.679	3993.61
972.98	3956.1
973.281	3967.85
973.582	3981.18
973.883	3934.4
974.183	3872.03
974.484	3875.19
974.785	3846.49
975.085	3885.59
975.386	3857.34
975.686	3863.67
975.986	3811.47
976.287	3803.11
976.587	3777.57
976.887	3768.98
977.187	3808.3
977.487	3766.72
977.787	3711.36
978.087	3722.66
978.387	3697.8
978.687	3668.19
978.987	3637.01
979.286	3669.78
979.586	3662.09
979.885	3645.82
980.185	3608.99
980.484	3570.34
980.784	3617.8
981.083	3564.24
981.382	3555.2
981.682	3470.01
981.981	3510.46
982.28	3476.79
982.579	3483.57
982.878	3481.31
983.177	3440.4
983.475	3467.75
983.774	3421.87
984.073	3384.13
984.372	3401.08
984.67	3415.55
984.969	3401.99
985.267	3390.24
985.566	3319.73
985.864	3338.49
986.162	3339.62
986.461	3266.4
986.759	3296.23
987.057	3238.15
987.355	3236.34
987.653	3221.88
987.951	3227.08
988.249	3203.8
988.547	3236.34
988.844	3159.73
989.142	3183.01
989.44	3155.67
989.737	3101.43
990.035	3090.36
990.332	3088.32
990.63	3114.99
990.927	3047.19
991.224	3025.27
991.521	3044.93
991.819	3028.44
992.116	2979.17
992.413	2990.7
992.71	2976.91
993.006	2947.99
993.303	2964.94
993.6	2903.92
993.897	2894.43
994.193	2917.93
994.49	2893.07
994.787	2885.16
995.083	2882.45
995.379	2816.47
995.676	2831.83
995.972	2810.36
996.268	2816.47
996.565	2778.05
996.861	2740.08
997.157	2794.32
997.453	2770.59
997.749	2776.47
998.044	2718.84
998.34	2716.36
998.636	2717.94
998.932	2698.95
999.227	2670.48
999.523	2645.62
999.818	2637.94
1000.114	2625.96
1000.409	2628.67
1000.704	2594.1
1001	2602.69
1001.295	2590.26
1001.59	2580.77
1001.885	2595.23
1002.18	2548
1002.475	2549.13
1002.77	2511.84
1003.065	2499.64
1003.359	2495.8
1003.654	2510.94
1003.949	2488.11
1004.243	2462.35
1004.538	2427.32
1004.832	2429.13
1005.127	2419.41
1005.421	2415.12
1005.715	2394.56
1006.009	2360.43
1006.304	2364.05
1006.598	2347.1
1006.892	2347.1
1007.186	2289.47
1007.48	2301.9
1007.773	2324.73
1008.067	2294.67
1008.361	2255.8
1008.655	2235.01
1008.948	2230.27
1009.242	2235.01
1009.535	2187.33
1009.829	2224.84
1010.122	2189.14
1010.415	2159.99
1010.708	2157.5
1011.001	2143.04
1011.295	2141.45
1011.588	2127.67
1011.881	2111.85
1012.173	2110.27
1012.466	2094
1012.759	2082.93
1013.052	2079.76
1013.344	2045.19
1013.637	2052.19
1013.93	2030.95
1014.222	2015.36
1014.514	1994.11
1014.807	2002.02
1015.099	1974.23
1015.391	1970.16
1015.683	1981.23
1015.976	1950.73
1016.268	1947.34
1016.56	1935.36
1016.851	1948.47
1017.143	1909.37
1017.435	1870.05
1017.727	1879.99
1018.018	1853.78
1018.31	1862.37
1018.602	1841.58
1018.893	1829.6
1019.185	1816.72
1019.476	1795.7
1019.767	1766.1
1020.058	1768.36
1020.35	1763.39
1020.641	1751.18
1020.932	1768.58
1021.223	1745.76
1021.514	1717.29
1021.804	1678.42
1022.095	1699.66
1022.386	1710.96
1022.677	1654.24
1022.967	1656.5
1023.258	1662.6
1023.548	1642.26
1023.839	1631.64
1024.129	1629.83
1024.419	1641.81
1024.709	1598.87
1025	1582.6
1025.29	1602.71
1025.58	1568.14
1025.87	1544.86
1026.16	1540.34
1026.449	1563.17
1026.739	1525.88
1027.029	1518.87
1027.319	1501.02
1027.608	1491.3
1027.898	1487.69
1028.187	1489.72
1028.477	1477.29
1028.766	1462.83
1029.055	1417.86
1029.344	1420.12
1029.634	1441.13
1029.923	1435.48
1030.212	1421.7
1030.501	1414.24
1030.79	1397.29
1031.078	1358.2
1031.367	1363.62
1031.656	1380.8
1031.945	1367.46
1032.233	1346.45
1032.522	1367.46
1032.81	1315.49
1033.099	1327.69
1033.387	1324.3
1033.675	1304.41
1033.963	1311.19
1034.251	1288.37
1034.54	1287.01
1034.828	1273.91
1035.116	1263.06
1035.403	1197.53
1035.691	1243.4
1035.979	1230.07
1036.267	1207.47
1036.554	1200.91
1036.842	1204.98
1037.129	1190.07
1037.417	1170.18
1037.704	1187.13
1037.992	1173.8
1038.279	1173.8
1038.566	1145.55
1038.853	1145.55
1039.14	1145.55
