Data from aluminium_surface_pro_back_FLMS001491_00078.txt Node
Date: Wed Feb 08 15:34:32 GMT 2017
User: dcchb
Spectrometer: FLMS00149
Trigger mode: 0
Integration Time (sec): 2.000000E-2
Scans to average: 10
Electric dark correction enabled: true
Nonlinearity correction enabled: false
Boxcar width: 0
XAxis mode: Wavelengths
Number of Pixels in Spectrum: 2048
>>>>>Begin Spectral Data<<<<<
341.393	-14.89
341.776	-14.89
342.16	-14.89
342.543	-51.04
342.927	-72.29
343.31	-80.87
343.693	-76.35
344.077	-56.24
344.46	-61.67
344.843	-45.17
345.226	-35.68
345.61	-43.36
345.993	-11.27
346.376	-3.14
346.759	5.68
347.142	31.89
347.525	50.65
347.908	64.66
348.291	70.08
348.674	87.71
349.057	103.08
349.44	134.49
349.823	145.79
350.206	161.61
350.588	215.16
350.971	254.26
351.354	251.55
351.737	278.89
352.119	274.15
352.502	290.64
352.884	299.23
353.267	299.91
353.65	336.29
354.032	333.58
354.414	350.08
354.797	355.95
355.179	348.95
355.562	357.08
355.944	353.69
356.326	375.16
356.709	351.66
357.091	364.54
357.473	392.56
357.855	366.12
358.238	377.42
358.62	382.39
359.002	363.41
359.384	393.92
359.766	374.48
360.148	379.91
360.53	380.36
360.912	371.09
361.294	387.14
361.676	384.88
362.057	383.52
362.439	381.26
362.821	372.67
363.203	362.05
363.584	362.28
363.966	372.45
364.348	369.96
364.729	369.06
365.111	375.39
365.493	365.89
365.874	398.21
366.256	380.81
366.637	364.31
367.019	376.06
367.4	373.13
367.781	383.3
368.163	380.13
368.544	388.27
368.925	370.41
369.306	399.57
369.688	378.55
370.069	374.03
370.45	372
370.831	386.68
371.212	362.28
371.593	359.79
371.974	391.2
372.355	386.91
372.736	390.07
373.117	414.25
373.498	400.47
373.879	387.14
374.26	393.24
374.641	399.34
375.021	400.92
375.402	403.41
375.783	411.09
376.163	422.39
376.544	417.87
376.925	426.23
377.305	419.9
377.686	435.95
378.066	436.63
378.447	435.5
378.827	411.54
379.208	431.88
379.588	440.02
379.968	426.46
380.349	448.15
380.729	442.5
381.109	453.58
381.489	445.89
381.87	452.22
382.25	467.36
382.63	469.62
383.01	467.36
383.39	473.24
383.77	487.25
384.15	471.2
384.53	480.02
384.91	491.54
385.29	488.15
385.67	492.22
386.049	508.26
386.429	519.11
386.809	527.02
387.189	509.62
387.568	517.53
387.948	533.12
388.328	531.77
388.707	524.99
389.087	547.36
389.466	535.38
389.846	555.27
390.225	549.62
390.605	554.14
390.984	563.63
391.363	582.61
391.743	567.92
392.122	599.11
392.501	616.96
392.881	602.72
393.26	614.7
393.639	625.1
394.018	622.61
394.397	624.42
394.776	640.01
395.155	655.6
395.534	643.4
395.913	659.45
396.292	658.09
396.671	659.22
397.05	689.28
397.429	689.73
397.808	689.95
398.186	690.41
398.565	718.88
398.944	700.57
399.323	727.69
399.701	725.66
400.08	745.32
400.458	753.45
400.837	760.46
401.215	761.82
401.594	763.85
401.972	793
402.351	786.67
402.729	768.37
403.107	811.98
403.486	815.6
403.864	826
404.242	821.93
404.62	847.01
404.999	836.39
405.377	872.1
405.755	889.72
406.133	883.85
406.511	890.4
406.889	916.16
407.267	920.23
407.645	951.42
408.023	954.81
408.401	985.54
408.779	972.88
409.156	994.13
409.534	986.22
409.912	1016.72
410.29	1025.76
410.667	1014.01
411.045	1042.03
411.422	1083.16
411.8	1090.4
412.178	1102.37
412.555	1098.53
412.933	1122.26
413.31	1111.19
413.687	1159.55
414.065	1163.84
414.442	1166.33
414.819	1195.03
415.197	1209.04
415.574	1224.4
415.951	1238.64
416.328	1228.47
416.705	1252.42
417.082	1268.24
417.46	1302.82
417.837	1289.49
418.214	1293.33
418.591	1299.66
418.967	1317.51
419.344	1367.9
419.721	1346.21
420.098	1362.93
420.475	1376.26
420.852	1413.1
421.228	1410.16
421.605	1440.44
421.982	1456.49
422.358	1446.09
422.735	1465.98
423.111	1478.86
423.488	1526.99
423.864	1540.33
424.241	1574.68
424.617	1574.45
424.994	1551.85
425.37	1567.44
425.746	1590.95
426.123	1585.75
426.499	1614.9
426.875	1670.72
427.251	1671.62
427.627	1690.15
428.003	1713.66
428.379	1762.69
428.756	1768.12
429.132	1780.09
429.507	1799.3
429.883	1824.39
430.259	1850.15
430.635	1882.46
431.011	1902.8
431.387	1958.39
431.763	1976.25
432.138	1988.68
432.514	2050.82
432.89	2015.57
433.265	2072.29
433.641	2089.24
434.016	2093.08
434.392	2138.5
434.767	2184.15
435.143	2215.11
435.518	2216.24
435.894	2250.36
436.269	2277.26
436.644	2284.71
437.02	2326.75
437.395	2331.49
437.77	2382.11
438.145	2436.57
438.52	2412.39
438.895	2448.55
439.271	2441.55
439.646	2505.73
440.021	2543.24
440.395	2552.05
440.77	2553.18
441.145	2559.28
441.52	2619.39
441.895	2612.61
442.27	2626.85
442.645	2664.36
443.019	2698.94
443.394	2679.51
443.769	2736.45
444.143	2724.02
444.518	2779.16
444.892	2720.41
445.267	2774.87
445.641	2838.15
446.016	2834.76
446.39	2850.35
446.764	2874.3
447.139	2880.63
447.513	2948.43
447.887	2919.73
448.262	2931.93
448.636	2938.26
449.01	3005.37
449.384	3030.46
449.758	3046.95
450.132	3128.08
450.506	3049.89
450.88	3124.47
451.254	3156.78
451.628	3179.15
452.002	3249.21
452.376	3220.28
452.75	3310.22
453.123	3269.55
453.497	3377.57
453.871	3445.36
454.244	3483.55
454.618	3464.12
454.992	3522.87
455.365	3523.1
455.739	3655.75
456.112	3675.41
456.486	3665.47
456.859	3720.16
457.232	3776.2
457.606	3803.54
457.979	3843.99
458.352	3931.22
458.725	3990.66
459.099	3987.27
459.472	4112.91
459.845	4132.57
460.218	4139.35
460.591	4201.05
460.964	4224.78
461.337	4345.45
461.71	4382.96
462.083	4454.83
462.456	4419.35
462.829	4485.79
463.201	4572.56
463.574	4608.72
463.947	4675.84
464.32	4805.33
464.692	4813.69
465.065	4857.75
465.438	4937.07
465.81	4976.17
466.183	5043.29
466.555	5104.75
466.928	5167.12
467.3	5186.56
467.672	5253.9
468.045	5389.94
468.417	5413.22
468.789	5461.35
469.161	5525.53
469.534	5651.18
469.906	5735.47
470.278	5770.05
470.65	5819.54
471.022	5991.28
471.394	6127.32
471.766	6099.53
472.138	6187.89
472.51	6322.35
472.882	6472.17
473.253	6526.86
473.625	6610.48
473.997	6735.67
474.369	6812.5
474.74	6876.01
475.112	6998.71
475.484	7150.35
475.855	7232.61
476.227	7285.03
476.598	7438.48
476.97	7548.98
477.341	7762.76
477.713	7938.8
478.084	7998.01
478.455	8135.63
478.827	8256.99
479.198	8475.51
479.569	8516.87
479.94	8731.55
480.311	8770.65
480.682	9011.32
481.053	9277.52
481.424	9402.94
481.795	9430.29
482.166	9587.35
482.537	9682.26
482.908	9980.78
483.279	10014.91
483.65	10221.68
484.021	10462.35
484.391	10595
484.762	10662.35
485.133	10810.37
485.503	10968.1
485.874	11175.1
486.244	11287.42
486.615	11521.31
486.985	11658.25
487.356	11833.84
487.726	11940.96
488.097	12175.75
488.467	12300.04
488.837	12514.28
489.207	12686.47
489.578	12848.73
489.948	12972.12
490.318	13126.01
490.688	13158.33
491.058	13524.42
491.428	13528.94
491.798	13676.96
492.168	13971.64
492.538	14109.04
492.908	14267.9
493.278	14381.35
493.648	14439.42
494.017	14607.1
494.387	14804.16
494.757	14947.66
495.126	15077.37
495.496	15131.61
495.866	15320.3
496.235	15449.79
496.605	15647.07
496.974	15785.38
497.344	15924.36
497.713	15918.48
498.082	16092.49
498.452	16353.95
498.821	16385.81
499.19	16512.36
499.559	16657.67
499.928	16788.29
500.298	16929.75
500.667	17028.73
501.036	17114.61
501.405	17373.13
501.774	17295.17
502.143	17544.43
502.512	17602.73
502.88	17686.79
503.249	17807.47
503.618	17860.8
503.987	18023.51
504.356	18184.18
504.724	18315.48
505.093	18447.68
505.462	18468.92
505.83	18658.52
506.199	18802.25
506.567	19018.74
506.936	19061.45
507.304	19272.52
507.672	19332.18
508.041	19464.38
508.409	19650.13
508.777	19857.81
509.145	20019.61
509.514	19912.05
509.882	20204.69
510.25	20359.49
510.618	20489.66
510.986	20546.83
511.354	20803.32
511.722	20962.87
512.09	21086.25
512.458	21084.22
512.826	21388.17
513.193	21477.43
513.561	21629.97
513.929	21844.65
514.297	22120.58
514.664	22175.26
515.032	22246.22
515.4	22448.7
515.767	22643.5
516.135	22783.16
516.502	22722.14
516.869	23206.88
517.237	23291.62
517.604	23334.1
517.972	23604.38
518.339	23756.92
518.706	23905.16
519.073	24067.42
519.44	24184.03
519.808	24567.74
520.175	24451.36
520.542	24833.73
520.909	25048.64
521.276	25051.57
521.643	25282.53
522.009	25490.66
522.376	25667.83
522.743	25905.34
523.11	26153.46
523.477	26404.98
523.843	26491.31
524.21	26882.26
524.577	27030.05
524.943	27289.25
525.31	27338.29
525.676	27760.88
526.043	27824.38
526.409	28004.26
526.776	28308.44
527.142	28357.25
527.508	28614.19
527.874	28831.13
528.241	28917.23
528.607	29061.41
528.973	29293.04
529.339	29263.67
529.705	29566.48
530.071	29880.15
530.437	30015.96
530.803	30170.76
531.169	30272.68
531.535	30398.55
531.901	30623.86
532.267	30698.43
532.632	30958.99
532.998	31051.42
533.364	31269.49
533.73	31370.73
534.095	31534.34
534.461	31776.82
534.826	31861.79
535.192	32055.46
535.557	32313.3
535.923	32314.66
536.288	32393.98
536.653	32606.18
537.019	32489.8
537.384	32756.68
537.749	32990.35
538.114	33065.6
538.479	33107.41
538.845	33351.24
539.21	33416.1
539.575	33510.11
539.94	33615.87
540.305	33816.77
540.67	33808.18
541.034	34043.2
541.399	34065.12
541.764	34109.19
542.129	34340.82
542.494	34557.76
542.858	34466.47
543.223	34627.14
543.587	34919.56
543.952	34818.32
544.316	34970.18
544.681	34957.53
545.045	35239.33
545.41	35367.23
545.774	35469.15
546.138	35634.12
546.503	35663.5
546.867	35746.43
547.231	36056.03
547.595	36137.61
547.959	36245.85
548.324	36348
548.688	36337.15
549.052	36555.9
549.416	36669.8
549.779	36731.04
550.143	36703.7
550.507	37105.72
550.871	37201.76
551.235	37292.16
551.599	37498.25
551.962	37541.64
552.326	37606.5
552.689	37857.34
553.053	37739.15
553.417	37815.53
553.78	38363.09
554.143	38294.16
554.507	38427.04
554.87	38597.43
555.234	38907.48
555.597	38881.04
555.96	38973.69
556.323	39244.87
556.686	39260.46
557.05	39668.82
557.413	39641.7
557.776	39829.04
558.139	39866.32
558.502	40209.14
558.865	40364.16
559.228	40624.72
559.59	40703.59
559.953	40713.31
560.316	41403.69
560.679	41325.95
561.041	41506.96
561.404	41667.63
561.767	41994.63
562.129	41972.94
562.492	42275.75
562.854	42261.52
563.217	42511.23
563.579	42676.87
563.941	42887.49
564.304	43202.96
564.666	43390.53
565.028	43568.37
565.39	43739.22
565.753	43846.78
566.115	44160.9
566.477	44239.32
566.839	44363.38
567.201	44669.36
567.563	44867.32
567.925	45122.46
568.287	45148.22
568.648	45312.51
569.01	45581.88
569.372	45835.43
569.734	45635.44
570.095	46125.14
570.457	46265.03
570.819	46417.79
571.18	46347.06
571.542	46697.56
571.903	46721.29
572.265	46987.72
572.626	47028.62
572.987	47197.88
573.349	47243.98
573.71	47476.29
574.071	47553.81
574.432	47640.81
574.794	48031.08
575.155	48037.86
575.516	47956.73
575.877	48099.55
576.238	48231.53
576.599	48380.45
576.96	48384.74
577.32	48501.35
577.681	48627
578.042	48641.24
578.403	48749.93
578.763	48807.11
579.124	48990.15
579.485	49136.59
579.845	49225.85
580.206	49174.33
580.566	49233.54
580.927	49346.98
581.287	49561.89
581.648	49379.07
582.008	49599.63
582.368	49474.21
582.728	49616.35
583.089	49498.61
583.449	49640.53
583.809	49563.02
584.169	49763.24
584.529	49726.63
584.889	49931.6
585.249	49800.98
585.609	49742
585.969	49999.62
586.329	49805.5
586.688	49884.37
587.048	49795.1
587.408	49829.23
587.768	49841.88
588.127	49692.73
588.487	49833.75
588.846	50055.89
589.206	49817.48
589.565	49788.32
589.925	50101.54
590.284	49940.18
590.643	49976.79
591.003	50129.33
591.362	50204.58
591.721	50027.87
592.08	50065.15
592.44	50318.25
592.799	50296.11
593.158	50176.79
593.517	50164.81
593.876	50198.03
594.235	50117.81
594.593	50253.85
594.952	50372.49
595.311	50211.14
595.67	50390.79
596.029	50499.49
596.387	50447.74
596.746	50601.18
597.104	50385.37
597.463	50353.05
597.822	50497.01
598.18	50395.99
598.538	50424.24
598.897	50556.44
599.255	50323.45
599.613	50853.61
599.972	50648.87
600.33	50687.96
600.688	50590.79
601.046	50788.98
601.404	50864.68
601.762	50751.91
602.12	50979.48
602.478	51081.4
602.836	51023.55
603.194	50862.87
603.552	50821.97
603.91	50818.81
604.268	51009.76
604.625	50981.74
604.983	51050.89
605.341	50842.53
605.698	51143.54
606.056	51151.23
606.413	51071.68
606.771	51133.6
607.128	51255.63
607.485	50974.28
607.843	51020.61
608.2	51298.11
608.557	51463.53
608.914	51287.49
609.272	51565.9
609.629	51438.68
609.986	51637.54
610.343	51405.23
610.7	51603.42
611.057	51469.64
611.414	51543.31
611.771	51660.36
612.127	51727.71
612.484	51510.54
612.841	51688.16
613.198	51655.39
613.554	51669.4
613.911	51801.38
614.267	51889.06
614.624	51748.95
614.98	51791.43
615.337	51904.65
615.693	51905.78
616.05	51885.9
616.406	52044.76
616.762	51958.89
617.118	51805.67
617.475	52048.6
617.831	52006.34
618.187	52101.71
618.543	52018.55
618.899	52257.19
619.255	52210.18
619.611	52242.5
619.967	52273.23
620.323	52367.01
620.678	52161.37
621.034	52186.45
621.39	52226.9
621.746	52224.64
622.101	52527.69
622.457	52257.41
622.812	52391.65
623.168	52445.2
623.523	52354.13
623.879	52590.06
624.234	52178.77
624.589	52457.41
624.945	52383.28
625.3	52355.26
625.655	52253.34
626.01	52366.33
626.365	52330.86
626.72	52297.18
627.075	52360.01
627.43	52286.56
627.785	52254.47
628.14	52352.78
628.495	52449.27
628.85	52264.64
629.205	52204.08
629.559	52466.67
629.914	52209.05
630.269	52324.08
630.623	52213.34
630.978	52175.38
631.332	52297.64
631.687	52273.23
632.041	52079.11
632.396	52219.67
632.75	52068.26
633.104	52208.37
633.459	51953.92
633.813	51939.45
634.167	51964.09
634.521	51870.98
634.875	51962.73
635.229	51968.61
635.583	51753.7
635.937	51762.51
636.291	51698.78
636.645	51729.74
636.999	51565.9
637.352	51711.21
637.706	51560.03
638.06	51607.26
638.413	51585.56
638.767	51470.77
639.121	51538.11
639.474	51323.88
639.828	51368.4
640.181	51419.69
640.534	51303.54
640.888	51088.63
641.241	51068.29
641.594	51114.84
641.947	51197.78
642.301	51010.21
642.654	51162.52
643.007	50993.26
643.36	51089.76
643.713	50884.34
644.066	51076.43
644.419	50807.05
644.771	50644.35
645.124	50252.27
645.477	50218.82
645.83	50037.58
646.182	49984.48
646.535	49736.57
646.888	49810.47
647.24	49642.79
647.593	49744.71
647.945	49647.31
648.298	49495.45
648.65	49378.39
649.002	49340.2
649.355	49313.99
649.707	49364.15
650.059	49436.47
650.411	49914.65
650.763	49861.77
651.115	50219.95
651.467	50065.15
651.819	50103.8
652.171	49956.23
652.523	49921.2
652.875	50054.31
653.227	49817.93
653.578	50058.83
653.93	49985.61
654.282	49822.67
654.633	49666.52
654.985	49748.1
655.337	49769.34
655.688	49746.74
656.039	49867.42
656.391	49666.52
656.742	49546.3
657.094	49514.21
657.445	49624.94
657.796	49631.04
658.147	49489.57
658.498	49321.44
658.849	49449.12
659.2	49380.2
659.551	49219.98
659.902	49342.46
660.253	49152.18
660.604	49366.41
660.955	49055.24
661.306	49255.68
661.656	49204.38
662.007	49286.87
662.358	49302.46
662.708	49116.02
663.059	49109.92
663.409	48904.96
663.76	49191.28
664.11	49176.59
664.461	49247.09
664.811	49063.6
665.161	49083.71
665.511	48985.41
665.862	49114.22
666.212	49109.7
666.562	48970.94
666.912	49080.55
667.262	48897.27
667.612	48807.11
667.962	48807.78
668.312	48881.68
668.662	49080.32
669.011	48825.64
669.361	48831.74
669.711	48859.76
670.06	48720.1
670.41	48638.75
670.76	48638.75
671.109	48772.53
671.459	48659.09
671.808	48606.66
672.157	48596.49
672.507	48499.09
672.856	48470.17
673.205	48544.51
673.554	48641.24
673.904	48413.67
674.253	48491.63
674.602	48468.81
674.951	47993.12
675.3	47786.79
675.649	48335.93
675.998	48366.21
676.346	48192.66
676.695	48273.56
677.044	47919.22
677.393	48104.3
677.741	48164.19
678.09	48000.35
678.438	47901.37
678.787	47918.99
679.135	47945.21
679.484	47707.93
679.832	47684.65
680.181	47642.39
680.529	47759.45
680.877	47636.97
681.225	47502.96
681.573	47724.65
681.922	47423.19
682.27	47424.77
682.618	47274.72
682.966	47324.43
683.314	47306.58
683.661	47154.49
684.009	46921.05
684.357	46775.07
684.705	46834.28
685.053	46864.78
685.4	46789.08
685.748	46546.6
686.095	46451.01
686.443	46364.91
686.79	46289.21
687.138	46457.34
687.485	46363.55
687.832	46226.38
688.18	46116.56
688.527	46009.21
688.874	45974.41
689.221	45930.35
689.568	45928.54
689.915	45619.39
690.262	45595.67
690.609	45484.93
690.956	45270.25
691.303	45353.19
691.65	45226.86
691.997	45205.39
692.344	44850.37
692.69	44884.72
693.037	44926.53
693.383	44692.64
693.73	44508.24
694.077	44463.94
694.423	44375.36
694.769	44269.82
695.116	44143.73
695.462	44099.43
695.808	43832.77
696.155	44050.17
696.501	43607.02
696.847	43573.8
697.193	43501.71
697.539	43595.72
697.885	43298.78
698.231	43150.98
698.577	43203.41
698.923	43082.74
699.269	42942.85
699.614	42742.41
699.96	42706.25
700.306	42738.57
700.651	42458.35
700.997	42247.73
701.342	42306.49
701.688	42148.52
702.033	42064.23
702.379	42103.78
702.724	41746.73
703.069	41780.17
703.415	41431.03
703.76	41304.93
704.105	41410.01
704.45	41348.32
704.795	41039.4
705.14	41013.87
705.485	40916.01
705.83	40819.07
706.175	40814.1
706.52	40642.35
706.865	40535.01
707.209	40445.29
707.554	40297.95
707.899	40509.47
708.243	40212.3
708.588	40114.68
708.932	39717.18
709.277	39798.76
709.621	39921.46
709.966	39447.58
710.31	39578.87
710.654	39301.59
710.998	39393.34
711.342	39274.48
711.687	39051.43
712.031	38904.99
712.375	38974.37
712.719	39027.25
713.063	38763.3
713.407	39048.95
713.75	38699.35
714.094	38752
714.438	38549.07
714.782	38521.73
715.125	38400.6
715.469	38437.44
715.812	38290.55
716.156	38102.53
716.499	38121.74
716.843	38256.88
717.186	37851.24
717.53	38076.77
717.873	37977.33
718.216	37786.15
718.559	37680.62
718.902	37485.14
719.246	37609.89
719.589	37279.5
719.932	37188.88
720.275	37245.15
720.617	37151.59
720.96	37169.9
721.303	37055.78
721.646	36985.95
721.989	36892.84
722.331	36957.02
722.674	36783.24
723.016	36881.09
723.359	36673.87
723.701	36781.89
724.044	36489.46
724.386	36462.8
724.729	36586.86
725.071	36404.95
725.413	36450.6
725.755	36407.88
726.097	36345.29
726.439	36138.97
726.782	36124.5
727.124	36227.32
727.465	36078.18
727.807	36033.66
728.149	35959.08
728.491	35825.3
728.833	35956.82
729.175	35682.25
729.516	35546.89
729.858	35512.77
730.199	35642.03
730.541	35427.12
730.882	35382.15
731.224	35634.57
731.565	35215.83
731.906	35213.79
732.248	35160.23
732.589	34979.67
732.93	34944.87
733.271	34895.16
733.612	34884.31
733.953	34876.85
734.294	34697.2
734.635	34522.74
734.976	34604.77
735.317	34432.8
735.658	34512.12
735.999	34404.55
736.339	34209.07
736.68	34478.67
737.021	34379.92
737.361	34168.17
737.702	34290.88
738.042	34130.88
738.383	33986.71
738.723	34112.58
739.063	34160.49
739.404	33950.77
739.744	33789.87
740.084	33642.53
740.424	33670.33
740.764	33604.12
741.104	33649.99
741.444	33430.56
741.784	33352.6
742.124	33431.69
742.464	33330
742.804	33159.61
743.143	33216.33
743.483	33330.45
743.823	32996
744.162	33018.6
744.502	33105.15
744.841	32881.42
745.181	33092.49
745.52	32889.33
745.86	32956.45
746.199	32707.87
746.538	32637.81
746.877	32725.95
747.216	32692.28
747.556	32493.86
747.895	32447.08
748.234	32309.91
748.573	32214.32
748.911	32256.81
749.25	32219.75
749.589	32021.56
749.928	32113.53
750.267	32010.26
750.605	31874.44
750.944	31953.76
751.283	31691.62
751.621	31726.2
751.96	31600.1
752.298	31523.27
752.636	31525.53
752.975	31354.68
753.313	31299.77
753.651	31310.62
753.989	31153.56
754.327	30978.42
754.666	30835.38
755.004	30825.43
755.342	30960.8
755.679	30840.12
756.017	30694.36
756.355	30750.18
756.693	30622.95
757.031	30553.8
757.368	30434.26
757.706	30364.43
758.044	30223.41
758.381	30323.75
758.719	30151.78
759.056	30166.24
759.394	29886.7
759.731	29737.55
760.068	29811.9
760.405	29570.1
760.743	29524.22
761.08	29581.62
761.417	29358.13
761.754	29308.41
762.091	29394.51
762.428	29236.55
762.765	29042.2
763.102	29037.91
763.438	28889.44
763.775	28857.8
764.112	28841.76
764.449	28763.34
764.785	28729.44
765.122	28406.74
765.458	28270.7
765.795	28335.55
766.131	28321.09
766.467	28202.68
766.804	27929.92
767.14	27943.7
767.476	27837.26
767.812	27773.31
768.148	27847.66
768.485	27532.86
768.821	27490.6
769.157	27426.2
769.492	27279.08
769.828	27247.9
770.164	26962.26
770.5	26907.57
770.836	26891.75
771.171	26698.31
771.507	26790.06
771.842	26475.94
772.178	26607.46
772.513	26337.41
772.849	26211.09
773.184	26101.04
773.519	26148.49
773.855	26063.98
774.19	25913.47
774.525	25818.33
774.86	25887.26
775.195	25767.03
775.53	25601.61
775.865	25328.18
776.2	25259.03
776.535	25101.29
776.87	25141.51
777.205	24982.2
777.539	24778.13
777.874	24890.45
778.209	24691.13
778.543	24688.87
778.878	24534.3
779.212	24519.38
779.547	24253.18
779.881	24331.59
780.215	24122.56
780.55	24210.01
780.884	24014.99
781.218	23840.76
781.552	23916.46
781.886	23691.16
782.22	23634.89
782.554	23546.3
782.888	23303.37
783.222	23338.85
783.556	23216.37
783.889	23135.47
784.223	22980.44
784.557	22944.06
784.89	23001.68
785.224	22839.65
785.557	22832.65
785.891	22748.81
786.224	22596.27
786.558	22620.68
786.891	22520.34
787.224	22368.25
787.557	22309.27
787.891	22269.73
788.224	22197.41
788.557	22224.53
788.89	22097.07
789.223	22027.92
789.556	21737.31
789.888	21792.68
790.221	21674.71
790.554	21513.81
790.887	21536.86
791.219	21411.89
791.552	21354.27
791.884	21243.31
792.217	21137.33
792.549	21138
792.882	20931
793.214	20875.41
793.546	20968.52
793.879	20668.64
794.211	20575.31
794.543	20702.31
794.875	20559.71
795.207	20629.09
795.539	20426.84
795.871	20374.63
796.203	20225.71
796.535	20151.59
796.867	20072.04
797.198	19935.78
797.53	19960.63
797.862	19817.81
798.193	19860.97
798.525	19721.54
798.856	19755.22
799.188	19434.09
799.519	19493.3
799.85	19413.3
800.182	19435.22
800.513	19361.33
800.844	19155
801.175	19278.62
801.506	19218.28
801.837	19095.8
802.168	19010.38
802.499	18993.65
802.83	18933.32
803.161	18864.17
803.491	18724.06
803.822	18864.39
804.153	18751.17
804.483	18510.28
804.814	18498.98
805.145	18487.68
805.475	18519.77
805.805	18439.09
806.136	18420.79
806.466	18356.16
806.796	18336.04
807.126	18141.92
807.457	18174.92
807.787	18130.85
808.117	18056.5
808.447	17991.42
808.777	18021.25
809.107	18008.37
809.436	17893.34
809.766	17883.17
810.096	17826.45
810.426	17686.34
810.755	17690.41
811.085	17728.38
811.414	17564.54
811.744	17434.82
812.073	17414.26
812.403	17460.13
812.732	17461.94
813.061	17363.19
813.39	17181.72
813.719	17177.2
814.049	17264.89
814.378	17166.36
814.707	17070.99
815.036	17025.8
815.365	16890.66
815.693	16800.72
816.022	16809.53
816.351	16772.47
816.68	16629.87
817.008	16649.53
817.337	16577.22
817.665	16514.62
817.994	16597.56
818.322	16561.17
818.651	16412.7
818.979	16299.26
819.307	16420.16
819.636	16310.33
819.964	16280.5
820.292	16316.66
820.62	16185.14
820.948	16219.49
821.276	16221.97
821.604	16188.76
821.932	16209.55
822.259	16253.39
822.587	16202.77
822.915	16238.02
823.243	16240.51
823.57	16165.03
823.898	16154.86
824.225	16103.33
824.553	16179.26
824.88	16111.47
825.207	16181.98
825.535	16153.28
825.862	16094.97
826.189	16026.95
826.516	16234.4
826.843	16220.17
827.17	16230.11
827.497	16179.72
827.824	16154.86
828.151	16244.8
828.478	16102.2
828.805	16055.88
829.131	15993.05
829.458	16125.71
829.785	15941.08
830.111	16044.13
830.438	16104.01
830.764	16194.4
831.09	16115.54
831.417	16057.91
831.743	16041.64
832.069	15984.01
832.395	15924.81
832.722	16029.89
833.048	15988.76
833.374	16040.96
833.7	15906.5
834.026	16004.81
834.351	15987.4
834.677	15952.38
835.003	16031.25
835.329	15940.4
835.654	15848.2
835.98	15790.12
836.306	15895.88
836.631	15819.05
836.956	15823.57
837.282	15859.72
837.607	15711.03
837.932	15717.58
838.258	15676.23
838.583	15643.68
838.908	15514.42
839.233	15537.02
839.558	15572.05
839.883	15468.32
840.208	15461.32
840.533	15509.45
840.858	15427.19
841.182	15485.72
841.507	15393.97
841.832	15358.72
842.156	15303.13
842.481	15280.3
842.805	15315.78
843.13	15236.24
843.454	15144.04
843.778	15239.85
844.103	15163.7
844.427	15170.48
844.751	15083.7
845.075	15005.74
845.399	15039.86
845.723	14947.66
846.047	14932.97
846.371	14746.53
846.695	14788.79
847.019	14591.96
847.343	14617.05
847.666	14507.22
847.99	14561.23
848.313	14579.31
848.637	14512.19
848.96	14470.61
849.284	14412.53
849.607	14257.73
849.931	14221.8
850.254	14142.71
850.577	14128.92
850.9	14150.39
851.223	14095.02
851.546	13942.71
851.869	13919.21
852.192	13913.79
852.515	13876.05
852.838	13747.69
853.161	13670.4
853.483	13641.03
853.806	13592.89
854.129	13610.52
854.451	13558.54
854.774	13560.12
855.096	13418.21
855.419	13354.25
855.741	13377.08
856.063	13262.96
856.385	13298.44
856.708	13205.33
857.03	13151.32
857.352	13180.02
857.674	13168.27
857.996	13027.26
858.318	13031.55
858.64	12970.31
858.961	12997.65
859.283	12938.67
859.605	12795.62
859.926	12919.91
860.248	12825.91
860.57	12841.95
860.891	12806.02
861.212	12725.12
861.534	12704.33
861.855	12735.06
862.176	12745.46
862.498	12709.98
862.819	12713.14
863.14	12657.32
863.461	12638.34
863.782	12641.28
864.103	12615.97
864.424	12567.16
864.745	12677.89
865.065	12540.72
865.386	12511.79
865.707	12511.56
866.027	12527.16
866.348	12510.89
866.668	12458.01
866.989	12466.37
867.309	12476.54
867.63	12468.4
867.95	12453.26
868.27	12353.83
868.59	12366.26
868.91	12346.6
869.23	12198.35
869.55	12236.54
869.87	12280.38
870.19	12260.72
870.51	12229.76
870.83	12244.9
871.15	12095.98
871.469	12194.51
871.789	12215.53
872.109	12134.85
872.428	12081.07
872.748	12128.75
873.067	12088.52
873.386	12104.34
873.706	12175.08
874.025	12053.04
874.344	11984.12
874.663	12032.03
874.982	11961.07
875.301	11933.27
875.62	11967.4
875.939	11957.91
876.258	11888.76
876.577	11895.08
876.896	11914.74
877.214	11852.6
877.533	11824.58
877.852	11809.89
878.17	11832.94
878.489	11896.44
878.807	11790.23
879.125	11726.5
879.444	11780.28
879.762	11732.83
880.08	11767.4
880.398	11681.98
880.716	11679.27
881.034	11675.65
881.352	11652.38
881.67	11676.11
881.988	11643.11
882.306	11557.24
882.624	11595.88
882.941	11533.06
883.259	11537.8
883.577	11438.6
883.894	11417.58
884.212	11448.54
884.529	11389.79
884.846	11432.72
885.164	11341.2
885.481	11340.07
885.798	11270.69
886.115	11230.92
886.432	11238.38
886.75	11245.16
887.067	11220.98
887.383	11198.83
887.7	11195.67
888.017	11169.23
888.334	11166.29
888.651	11124.48
888.967	11071.6
889.284	10994.54
889.6	11022.11
889.917	10875.22
890.233	10966.29
890.55	10815.79
890.866	10910.48
891.182	10808.78
891.498	10809.46
891.815	10844.49
892.131	10702.12
892.447	10731.72
892.763	10712.51
893.079	10736.7
893.395	10713.19
893.71	10607.21
894.026	10610.6
894.342	10615.34
894.657	10581.9
894.973	10450.83
895.289	10513.42
895.604	10520.43
895.92	10419.42
896.235	10405.4
896.55	10386.65
896.865	10356.82
897.181	10344.62
897.496	10305.75
897.811	10289.25
898.126	10254.22
898.441	10195.69
898.756	10154.56
899.071	10108.01
899.386	10187.56
899.7	10049.71
900.015	9994.34
900.33	10034.79
900.644	9999.09
900.959	9981.91
901.273	9969.48
901.588	9890.62
901.902	9861.46
902.216	9816.27
902.531	9828.7
902.845	9814.46
903.159	9747.79
903.473	9704.86
903.787	9710.51
904.101	9582.15
904.415	9652.43
904.729	9587.12
905.042	9519.1
905.356	9488.14
905.67	9542.6
905.984	9473.68
906.297	9495.15
906.611	9370.86
906.924	9340.35
907.237	9374.92
907.551	9293.57
907.864	9324.08
908.177	9245.43
908.491	9267.36
908.804	9183.06
909.117	9174.7
909.43	9156.17
909.743	9100.58
910.056	9070.98
910.368	9065.33
910.681	8975.39
910.994	8951.66
911.307	8917.53
911.619	8854.26
911.932	8908.72
912.244	8800.7
912.557	8825.56
912.869	8758.22
913.181	8710.76
913.494	8630.99
913.806	8648.16
914.118	8638.67
914.43	8576.3
914.742	8583.53
915.054	8537.66
915.366	8487.26
915.678	8442.52
915.99	8382.18
916.302	8320.94
916.613	8360.49
916.925	8378.11
917.236	8325.01
917.548	8225.12
917.859	8266.7
918.171	8143.32
918.482	8118.01
918.794	8042.53
919.105	8181.96
919.416	8055.86
919.727	8057.9
920.038	7943.1
920.349	7935.64
920.66	7875.53
920.971	7889.09
921.282	7893.38
921.593	7825.59
921.903	7761.63
922.214	7775.87
922.525	7713.95
922.835	7690.9
923.146	7710.79
923.456	7655.42
923.767	7672.37
924.077	7550.34
924.387	7545.59
924.697	7505.82
925.008	7535.88
925.318	7533.16
925.628	7502.43
925.938	7452.94
926.248	7409.55
926.558	7325.71
926.867	7343.11
927.177	7351.02
927.487	7221.08
927.796	7240.97
928.106	7215.21
928.416	7207.52
928.725	7207.75
929.034	7184.7
929.344	7076.68
929.653	7113.97
929.962	7078.94
930.271	7005.95
930.581	7053.63
930.89	6982.22
931.199	6959.17
931.508	6971.14
931.817	6909
932.125	6930.92
932.434	6911.48
932.743	6818.83
933.051	6783.13
933.36	6801.43
933.669	6700.19
933.977	6761.43
934.286	6709.46
934.594	6679.85
934.902	6684.6
935.21	6666.29
935.519	6621.78
935.827	6562.12
936.135	6576.13
936.443	6473.08
936.751	6493.19
937.059	6436.02
937.367	6403.02
937.674	6447.09
937.982	6411.16
938.29	6390.37
938.597	6350.37
938.905	6297.72
939.213	6247.32
939.52	6252.07
939.827	6245.51
940.135	6223.14
940.442	6182.46
940.749	6161
941.056	6166.65
941.363	6056.14
941.67	6028.57
941.977	6042.36
942.284	5989.48
942.591	5981.57
942.898	5920.78
943.205	5944.5
943.511	5942.02
943.818	5933.21
944.125	5843.26
944.431	5841.91
944.738	5802.14
945.044	5812.98
945.35	5774.57
945.657	5725.75
945.963	5757.62
946.269	5734.11
946.575	5707
946.881	5667.68
947.187	5661.12
947.493	5630.84
947.799	5631.74
948.105	5581.35
948.41	5532.31
948.716	5520.11
949.022	5464.74
949.327	5484.4
949.633	5413.45
949.938	5445.76
950.244	5419.55
950.549	5347.68
950.854	5330.28
951.16	5335.48
951.465	5318.08
951.77	5260.23
952.075	5246.22
952.38	5260.68
952.685	5231.98
952.99	5155.15
953.294	5166.45
953.599	5103.4
953.904	5062.04
954.209	5050.74
954.513	5087.8
954.818	5102.72
955.122	5039.22
955.426	5030.63
955.731	4953.34
956.035	4954.25
956.339	4970.97
956.643	4949.28
956.948	4919.22
957.252	4897.98
957.556	4897.07
957.86	4787.02
958.163	4834.25
958.467	4782.5
958.771	4786.34
959.075	4784.76
959.378	4731.2
959.682	4728.94
959.985	4776.4
960.289	4665.67
960.592	4681.71
960.896	4641.49
961.199	4610.98
961.502	4591.32
961.805	4631.77
962.108	4611.43
962.411	4575.73
962.714	4551.1
963.017	4582.73
963.32	4542.06
963.623	4502.96
963.926	4498.44
964.228	4428.84
964.531	4479.91
964.833	4446.69
965.136	4427.03
965.438	4398.56
965.741	4385.45
966.043	4343.42
966.345	4359.46
966.648	4341.61
966.95	4342.29
967.252	4308.62
967.554	4293.7
967.856	4245.57
968.158	4244.66
968.46	4204.21
968.761	4197.21
969.063	4126.47
969.365	4150.43
969.666	4135.51
969.968	4108.39
970.269	4067.27
970.571	4075.85
970.872	4028.85
971.174	4050.32
971.475	4049.64
971.776	3981.62
972.077	4017.78
972.378	4003.99
972.679	3966.7
972.98	3951.56
973.281	3949.98
973.582	3922.64
973.883	3875.18
974.183	3847.84
974.484	3888.06
974.785	3816.43
975.085	3819.81
975.386	3850.55
975.686	3796.54
975.986	3802.64
976.287	3788.4
976.587	3695.98
976.887	3721.29
977.187	3661.63
977.487	3696.88
977.787	3661.85
978.087	3660.72
978.387	3666.82
978.687	3637.22
978.987	3612.36
979.286	3541.86
979.586	3588.63
979.885	3570.1
980.185	3539.37
980.484	3533.27
980.784	3488.52
981.083	3500.5
981.382	3434.29
981.682	3474.51
981.981	3490.33
982.28	3437.45
982.579	3455.53
982.878	3406.94
983.177	3373.95
983.475	3376.44
983.774	3361.3
984.073	3340.73
984.372	3369.88
984.67	3299.6
984.969	3295.76
985.267	3279.49
985.566	3321.3
985.864	3242.43
986.162	3261.41
986.461	3219.38
986.759	3221.19
987.057	3218.47
987.355	3200.4
987.653	3178.48
987.951	3161.3
988.249	3141.87
988.547	3146.16
988.844	3142.77
989.142	3119.72
989.44	3081.98
989.737	3133.05
990.035	3051.47
990.332	3030.23
990.63	3048.54
990.927	3008.31
991.224	3051.25
991.521	3000.18
991.819	2992.27
992.116	2944.81
992.413	2953.85
992.71	2952.94
993.006	2933.74
993.303	2913.62
993.6	2890.57
993.897	2901.42
994.193	2884.47
994.49	2873.63
994.787	2815.32
995.083	2827.52
995.379	2821.87
995.676	2816.9
995.972	2777.13
996.268	2755.66
996.565	2794.76
996.861	2734.42
997.157	2761.31
997.453	2724.93
997.749	2700.52
998.044	2695.78
998.34	2684.7
998.636	2662.56
998.932	2642.67
999.227	2641.09
999.523	2624.59
999.818	2565.61
1000.114	2604.93
1000.409	2548.21
1000.704	2586.63
1001	2531.94
1001.295	2573.52
1001.59	2529.91
1001.885	2490.81
1002.18	2475.44
1002.475	2481.77
1002.77	2476.8
1003.065	2449.46
1003.359	2466.4
1003.654	2450.13
1003.949	2432.51
1004.243	2438.61
1004.538	2384.37
1004.832	2384.82
1005.127	2378.5
1005.421	2379.17
1005.715	2354.77
1006.009	2359.06
1006.304	2296.92
1006.598	2297.59
1006.892	2310.25
1007.186	2260.31
1007.48	2286.07
1007.773	2305.73
1008.067	2271.15
1008.361	2239.74
1008.655	2222.57
1008.948	2215.11
1009.242	2191.84
1009.535	2183.47
1009.829	2161.1
1010.122	2147.54
1010.415	2151.38
1010.708	2122.01
1011.001	2132.85
1011.295	2113.42
1011.588	2091.05
1011.881	2079.07
1012.173	2067.77
1012.466	2043.14
1012.759	2033.65
1013.052	2068.22
1013.344	2071.16
1013.637	2055.79
1013.93	2034.33
1014.222	1975.34
1014.514	1971.73
1014.807	1984.61
1015.099	1939.19
1015.391	1954.55
1015.683	1945.51
1015.976	1905.06
1016.268	1926.76
1016.56	1922.46
1016.851	1883.59
1017.143	1837.27
1017.435	1882.01
1017.727	1838.4
1018.018	1880.2
1018.31	1849.25
1018.602	1799.08
1018.893	1782.81
1019.185	1773.54
1019.476	1781.45
1019.767	1794.56
1020.058	1766.99
1020.35	1762.02
1020.641	1769.7
1020.932	1708.23
1021.223	1686.99
1021.514	1706.42
1021.804	1703.71
1022.095	1672.75
1022.386	1649.25
1022.677	1659.19
1022.967	1671.17
1023.258	1651.06
1023.548	1593.43
1023.839	1619.42
1024.129	1610.61
1024.419	1602.02
1024.709	1590.04
1025	1582.13
1025.29	1595.92
1025.58	1534.9
1025.87	1522.47
1026.16	1541.91
1026.449	1525.86
1026.739	1522.93
1027.029	1501.68
1027.319	1493.1
1027.608	1478.63
1027.898	1442.93
1028.187	1476.37
1028.477	1461.68
1028.766	1444.51
1029.055	1446.32
1029.344	1398.86
1029.634	1403.61
1029.923	1399.77
1030.212	1371.74
1030.501	1390.73
1030.79	1354.34
1031.078	1404.51
1031.367	1364.29
1031.656	1343.72
1031.945	1336.26
1032.233	1331.74
1032.522	1321.12
1032.81	1288.81
1033.099	1310.5
1033.387	1306.89
1033.675	1300.79
1033.963	1282.03
1034.251	1235.48
1034.54	1250.39
1034.828	1241.58
1035.116	1252.88
1035.403	1228.47
1035.691	1199.77
1035.979	1222.59
1036.267	1189.38
1036.554	1191.64
1036.842	1203.16
1037.129	1165.2
1037.417	1165.65
1037.704	1162.48
1037.992	1144.86
1038.279	1121.13
1038.566	1136.95
1038.853	1136.95
1039.14	1136.95
