Data from aluminium_macbook_case_FLMS001491_014.txt Node
Date: Tue Feb 07 10:43:16 GMT 2017
User: dcchb
Spectrometer: FLMS00149
Trigger mode: 0
Integration Time (sec): 2.000000E-2
Scans to average: 10
Electric dark correction enabled: true
Nonlinearity correction enabled: false
Boxcar width: 0
XAxis mode: Wavelengths
Number of Pixels in Spectrum: 2048
>>>>>Begin Spectral Data<<<<<
341.393	3.9
341.776	3.9
342.16	3.9
342.543	-58.47
342.927	-52.15
343.31	-71.35
343.693	-65.7
344.077	-44.01
344.46	-66.83
344.843	-61.41
345.226	-33.39
345.61	-45.37
345.993	-33.61
346.376	17.68
346.759	5.03
347.142	29.21
347.525	68.53
347.908	71.69
348.291	55.65
348.674	82.31
349.057	91.58
349.44	120.96
349.823	151.24
350.206	188.98
350.588	244.34
350.971	266.04
351.354	273.27
351.737	288.86
352.119	311.23
352.502	302.65
352.884	316.66
353.267	345.36
353.65	355.75
354.032	338.13
354.414	367.5
354.797	355.98
355.179	385.13
355.562	392.59
355.944	400.5
356.326	382.87
356.709	399.14
357.091	415.41
357.473	399.82
357.855	379.71
358.238	414.51
358.62	406.83
359.002	407.05
359.384	426.49
359.766	409.09
360.148	426.26
360.53	412.48
360.912	422.87
361.294	405.92
361.676	427.62
362.057	416.77
362.439	412.7
362.821	408.86
363.203	419.48
363.584	413.83
363.966	403.66
364.348	415.41
364.729	436.43
365.111	419.03
365.493	421.51
365.874	407.28
366.256	416.54
366.637	414.73
367.019	409.09
367.4	401.4
367.781	436.66
368.163	426.49
368.544	440.72
368.925	443.21
369.306	450.21
369.688	435.07
370.069	461.51
370.45	432.59
370.831	455.41
371.212	434.85
371.593	468.52
371.974	456.99
372.355	474.62
372.736	453.6
373.117	464.9
373.498	466.71
373.879	495.86
374.26	479.14
374.641	452.47
375.021	480.72
375.402	480.27
375.783	496.31
376.163	531.57
376.544	532.47
376.925	496.99
377.305	507.61
377.686	510.78
378.066	546.03
378.447	522.98
378.827	520.49
379.208	534.51
379.588	518.23
379.968	526.14
380.349	528.86
380.729	534.51
381.109	547.16
381.489	584.9
381.87	573.6
382.25	564.11
382.63	577.67
383.01	590.32
383.39	592.13
383.77	575.86
384.15	593.26
384.53	625.58
384.91	618.8
385.29	624.67
385.67	605.46
386.049	650.66
386.429	644.11
386.809	651.56
387.189	654.05
387.568	684.78
387.948	673.03
388.328	685.24
388.707	695.63
389.087	710.32
389.466	688.4
389.846	715.29
390.225	725.91
390.605	738.57
390.984	757.78
391.363	736.08
391.743	733.82
392.122	782.18
392.501	785.57
392.881	810.2
393.26	809.3
393.639	798.68
394.018	796.87
394.397	832.58
394.776	822.86
395.155	846.36
395.534	833.48
395.913	866.25
396.292	860.6
396.671	864.44
397.05	877.55
397.429	889.52
397.808	910.09
398.186	913.93
398.565	926.13
398.944	941.27
399.323	955.29
399.701	943.31
400.08	959.58
400.458	971.56
400.837	987.6
401.215	986.92
401.594	995.51
401.972	1021.72
402.351	1007.04
402.729	1032.8
403.107	1057.2
403.486	1072.57
403.864	1090.42
404.242	1098.11
404.62	1126.35
404.999	1139.46
405.377	1141.04
405.755	1140.14
406.133	1159.12
406.511	1181.49
406.889	1201.61
407.267	1230.53
407.645	1225.34
408.023	1235.5
408.401	1263.75
408.779	1272.57
409.156	1304.2
409.534	1296.75
409.912	1341.26
410.29	1376.74
410.667	1374.03
411.045	1391.21
411.422	1399.79
411.8	1441.15
412.178	1482.05
412.555	1495.61
412.933	1514.82
413.31	1506.91
413.687	1552.78
414.065	1573.35
414.442	1604.53
414.819	1595.95
415.197	1609.73
415.574	1605.21
415.951	1656.74
416.328	1669.39
416.705	1682.72
417.082	1695.38
417.46	1747.13
417.837	1779.67
418.214	1768.37
418.591	1758.2
418.967	1803.17
419.344	1825.55
419.721	1852.44
420.098	1871.19
420.475	1885.43
420.852	1904.41
421.228	1910.29
421.605	1924.75
421.982	1998.2
422.358	1964.75
422.735	2026.44
423.111	2041.58
423.488	2057.86
423.864	2108.02
424.241	2102.6
424.617	2152.09
424.994	2137.4
425.37	2193.45
425.746	2224.86
426.123	2266.21
426.499	2269.83
426.875	2285.19
427.251	2316.61
427.627	2367.45
428.003	2402.25
428.379	2451.07
428.756	2454.68
429.132	2479.31
429.507	2541.01
429.883	2597.73
430.259	2648.57
430.635	2656.71
431.011	2675.92
431.387	2697.16
431.763	2780.77
432.138	2773.77
432.514	2879.75
432.89	2849.25
433.265	2929.02
433.641	2984.16
434.016	3043.82
434.392	3026.64
434.767	3075.46
435.143	3093.31
435.518	3155.23
435.894	3184.38
436.269	3254.43
436.644	3287.2
437.02	3323.13
437.395	3326.97
437.77	3405.84
438.145	3429.12
438.52	3460.3
438.895	3495.78
439.271	3518.83
439.646	3595.44
440.021	3633.41
440.395	3641.54
440.77	3659.4
441.145	3642.9
441.52	3781.2
441.895	3742.56
442.27	3817.36
442.645	3808.09
443.019	3880.41
443.394	3886.06
443.769	3984.58
444.143	3940.52
444.518	3972.83
444.892	3961.76
445.267	4047.18
445.641	4040.63
446.016	4063.23
446.39	4166.73
446.764	4147.07
447.139	4195.43
447.513	4238.14
447.887	4282.66
448.262	4281.98
448.636	4333.05
449.01	4361.98
449.384	4402.88
449.758	4412.37
450.132	4521.29
450.506	4545.7
450.88	4631.8
451.254	4604.91
451.628	4699.82
452.002	4706.83
452.376	4743.21
452.75	4843.54
453.123	4911.57
453.497	5027.49
453.871	4994.95
454.244	5109.98
454.618	5160.15
454.992	5214.38
455.365	5246.02
455.739	5359.69
456.112	5416.64
456.486	5416.86
456.859	5547.71
457.232	5630.64
457.606	5586.35
457.979	5682.62
458.352	5802.84
458.725	5893.46
459.099	5958.32
459.472	6067.02
459.845	6132.1
460.218	6189.5
460.591	6268.14
460.964	6316.5
461.337	6460.23
461.71	6592.2
462.083	6624.29
462.456	6626.55
462.829	6670.16
463.201	6854.57
463.574	6827.22
463.947	7014.11
464.32	7112.64
464.692	7192.86
465.065	7256.59
465.438	7382.91
465.81	7518.28
466.183	7554.66
466.555	7651.15
466.928	7730.02
467.3	7731.6
467.672	7913.52
468.045	8070.13
468.417	8162.55
468.789	8173.17
469.161	8300.63
469.534	8502.66
469.906	8640.06
470.278	8763.89
470.65	8803.67
471.022	9087.73
471.394	9249.53
471.766	9299.92
472.138	9411.11
472.51	9674.15
472.882	9715.73
473.253	9847.93
473.625	10024.43
473.997	10256.74
474.369	10327.47
474.74	10432.78
475.112	10656.05
475.484	10803.39
475.855	11014.46
476.227	11120.67
476.598	11398.17
476.97	11541.9
477.341	11813.31
477.713	11972.17
478.084	12027.08
478.455	12344.36
478.827	12492.61
479.198	12896.89
479.569	12961.52
479.94	13289.42
480.311	13441.06
480.682	13729.41
481.053	14060.93
481.424	14284.88
481.795	14408.04
482.166	14669.73
482.537	14814.81
482.908	15143.16
483.279	15302.7
483.65	15622.92
484.021	15912.63
484.391	16057.26
484.762	16257.48
485.133	16430.13
485.503	16637.81
485.874	17023.11
486.244	17180.62
486.615	17472.37
486.985	17713.49
487.356	18035.29
487.726	18285.68
488.097	18539
488.467	18647.48
488.837	19123.85
489.207	19241.81
489.578	19669.82
489.948	19822.81
490.318	20114.1
490.688	20276.13
491.058	20518.84
491.428	20931.94
491.798	21046.51
492.168	21471.13
492.538	21498.7
492.908	21819.37
493.278	22055.3
493.648	22150.89
494.017	22476.53
494.387	22635.39
494.757	22906.57
495.126	23100.47
495.496	23234.47
495.866	23405.99
496.235	23637.85
496.605	23882.37
496.974	23922.14
497.344	24206.65
497.713	24276.25
498.082	24502.92
498.452	24882.34
498.821	25010.02
499.19	25074.43
499.559	25331.82
499.928	25536.11
500.298	25739.27
500.667	25957.57
501.036	26000.5
501.405	26393.03
501.774	26447.5
502.143	26639.58
502.512	26843.64
502.88	27164.77
503.249	27188.95
503.618	27280.24
503.987	27623.51
504.356	27723.4
504.724	27850.17
505.093	27908.7
505.462	28112.31
505.83	28278.18
506.199	28583.94
506.567	28915.68
506.936	28934.44
507.304	29292.85
507.672	29352.05
508.041	29583.23
508.409	29930.79
508.777	29992.49
509.145	30271.35
509.514	30320.62
509.882	30524.23
510.25	30792.24
510.618	30924.22
510.986	31093.7
511.354	31516.52
511.722	31766.68
512.09	32009.38
512.458	32085.09
512.826	32458.64
513.193	32674.23
513.561	32760.78
513.929	33030.37
514.297	33387.88
514.664	33651.15
515.032	33764.37
515.4	34040.29
515.767	34188.54
516.135	34416.78
516.502	34359.38
516.869	34932.7
517.237	35023.77
517.604	34984
517.972	35407.04
518.339	35722.06
518.706	35854.03
519.073	36016.51
519.44	36221.03
519.808	36660.11
520.175	36736.94
520.542	37027.11
520.909	37403.14
521.276	37511.16
521.643	37947.76
522.009	38129
522.376	38426.39
522.743	38738.7
523.11	39235.41
523.477	39607.6
523.843	39751.55
524.21	40191.99
524.577	40447.13
524.943	40705.43
525.31	40965.53
525.676	41327.56
526.043	41652.29
526.409	41795.79
526.776	42247.31
527.142	42334.31
527.508	42530.24
527.874	42934.97
528.241	43007.51
528.607	43275.3
528.973	43591.45
529.339	43516.88
529.705	44065.56
530.071	44382.84
530.437	44516.17
530.803	44706
531.169	44851.08
531.535	44957.97
531.901	45121.36
532.267	45397.28
532.632	45664.84
532.998	45705.07
533.364	46018.73
533.73	46218.73
534.095	46432.06
534.461	46687.42
534.826	46818.49
535.192	47161.98
535.557	47405.59
535.923	47484.46
536.288	47686.94
536.653	47867.72
537.019	47899.81
537.384	48165.8
537.749	48374.38
538.114	48442.85
538.479	48555.39
538.845	48580.7
539.21	48673.8
539.575	48816.85
539.94	49035.38
540.305	49282.38
540.67	49146.56
541.034	49374.58
541.399	49503.61
541.764	49516.04
542.129	49610.96
542.494	49693.21
542.858	49904.06
543.223	49962.81
543.587	50153.99
543.952	50154.67
544.316	50333.65
544.681	50368
545.045	50512.85
545.41	50673.53
545.774	50847.76
546.138	50867.87
546.503	51029
546.867	51076.23
547.231	51406.39
547.595	51374.52
547.959	51575.42
548.324	51684.12
548.688	51831.91
549.052	51979.71
549.416	52052.93
549.779	52151.91
550.143	52391.22
550.507	52489.07
550.871	52578.11
551.235	52623.31
551.599	52869.63
551.962	52950.08
552.326	52994.37
552.689	53202.73
553.053	53085.67
553.417	53238.2
553.78	53557.07
554.143	53503.73
554.507	53600.91
554.87	53639.32
555.234	53929.03
555.597	53792.54
555.96	53979.2
556.323	54117.5
556.686	54134.9
557.05	54330.38
557.413	54359.08
557.776	54502.35
558.139	54612.41
558.502	54698.51
558.865	54805.62
559.228	55061.66
559.59	55092.17
559.953	55233.63
560.316	55471.37
560.679	55486.73
561.041	55616.45
561.404	55840.4
561.767	55923.78
562.129	56004.69
562.492	56273.83
562.854	56241.52
563.217	56280.38
563.579	56481.96
563.941	56670.88
564.304	56728.28
564.666	56900.71
565.028	56929.86
565.39	57060.7
565.753	57178.89
566.115	57366.46
566.477	57352.9
566.839	57414.82
567.201	57670.18
567.563	57676.05
567.925	57874.01
568.287	57781.59
568.648	57850.96
569.01	57972.54
569.372	58149.49
569.734	58085.53
570.095	58156.04
570.457	58347.22
570.819	58337.28
571.18	58338.18
571.542	58497.5
571.903	58471.97
572.265	58640.1
572.626	58660.21
572.987	58698.85
573.349	58829.7
573.71	58885.29
574.071	59001.67
574.432	59067.88
574.794	59226.3
575.155	59193.75
575.516	59167.09
575.877	59240.76
576.238	59354.88
576.599	59429.68
576.96	59514.65
577.32	59487.98
577.681	59662.44
578.042	59661.09
578.403	59774.3
578.763	59790.35
579.124	59781.76
579.485	59838.48
579.845	60032.15
580.206	59899.72
580.566	59949.44
580.927	59931.81
581.287	60051.81
581.648	59954.41
582.008	60066.95
582.368	59999.61
582.728	60109.66
583.089	60032.15
583.449	60040.06
583.809	59981.98
584.169	60071.25
584.529	59935.43
584.889	60139.27
585.249	59970.01
585.609	59932.27
585.969	60088.65
586.329	59976.33
586.688	60006.39
587.048	60066.5
587.408	59980.63
587.768	59977.01
588.127	59970.68
588.487	59946.95
588.846	60077.35
589.206	59966.84
589.565	59969.78
589.925	60079.61
590.284	60051.36
590.643	60119.15
591.003	60132.03
591.362	60171.13
591.721	60159.38
592.08	60219.49
592.44	60226.27
592.799	60256.78
593.158	60239.15
593.517	60282.99
593.876	60292.03
594.235	60248.64
594.593	60340.84
594.952	60336.32
595.311	60252.03
595.67	60336.78
596.029	60541.97
596.387	60478.01
596.746	60497.67
597.104	60378.13
597.463	60398.47
597.822	60471.46
598.18	60407.73
598.538	60411.12
598.897	60459.26
599.255	60352.14
599.613	60551.91
599.972	60461.29
600.33	60506.26
600.688	60373.61
601.046	60447.28
601.404	60574.73
601.762	60471.91
602.12	60603.89
602.478	60612.02
602.836	60650.44
603.194	60498.35
603.552	60567.73
603.91	60502.65
604.268	60646.37
604.625	60553.72
604.983	60675.98
605.341	60489.09
605.698	60639.14
606.056	60660.16
606.413	60665.35
606.771	60768.4
607.128	60767.05
607.485	60654.73
607.843	60750.55
608.2	60881.39
608.557	60982.86
608.914	60859.25
609.272	61070.54
609.629	60993.26
609.986	61152.35
610.343	61032.12
610.7	61224.89
611.057	61222.4
611.414	61203.19
611.771	61199.58
612.127	61303.3
612.484	61274.15
612.841	61386.47
613.198	61295.39
613.554	61309.86
613.911	61390.76
614.267	61393.92
614.624	61331.55
614.98	61403.19
615.337	61497.2
615.693	61414.03
616.05	61341.95
616.406	61494.26
616.762	61344.88
617.118	61389.18
617.475	61401.15
617.831	61439.34
618.187	61498.33
618.543	61538.33
618.899	61638.44
619.255	61575.84
619.611	61515.5
619.967	61597.31
620.323	61637.53
620.678	61507.14
621.034	61416.29
621.39	61446.8
621.746	61424.88
622.101	61698.55
622.457	61527.25
622.812	61475.5
623.168	61587.14
623.523	61594.82
623.879	61643.18
624.234	61537.42
624.589	61555.27
624.945	61580.36
625.3	61594.14
625.655	61598.21
626.01	61649.06
626.365	61589.85
626.72	61564.99
627.075	61620.58
627.43	61523.86
627.785	61565.67
628.14	61588.04
628.495	61649.51
628.85	61579.45
629.205	61527.25
629.559	61701.71
629.914	61567.7
630.269	61620.36
630.623	61477.99
630.978	61469.17
631.332	61528.38
631.687	61573.35
632.041	61468.5
632.396	61493.13
632.75	61396.63
633.104	61398.22
633.459	61228.05
633.813	61245.23
634.167	61233.7
634.521	61255.85
634.875	61224.89
635.229	61183.31
635.583	61058.79
635.937	61130.88
636.291	61028.73
636.645	61035.29
636.999	60876.65
637.352	60965.69
637.706	60804.11
638.06	60894.05
638.413	60856.08
638.767	60770.66
639.121	60827.38
639.474	60678.91
639.828	60756.88
640.181	60643.66
640.534	60633.72
640.888	60520.95
641.241	60512.36
641.594	60481.86
641.947	60582.19
642.301	60430.11
642.654	60477.34
643.007	60406.6
643.36	60403.21
643.713	60310.56
644.066	60389.2
644.419	60267.62
644.771	60137.68
645.124	59932.04
645.477	59886.84
645.83	59758.94
646.182	59654.53
646.535	59574.31
646.888	59709.67
647.24	59555.78
647.593	59697.47
647.945	59598.49
648.298	59379.96
648.65	59498.38
649.002	59306.97
649.355	59478.04
649.707	59387.42
650.059	59537.7
650.411	59773.63
650.763	59805.49
651.115	60046.84
651.467	59866.28
651.819	59856.56
652.171	59836.45
652.523	59801.42
652.875	59744.47
653.227	59690.24
653.578	59821.53
653.93	59751.03
654.282	59673.97
654.633	59616.34
654.985	59618.83
655.337	59607.98
655.688	59560.3
656.039	59624.93
656.391	59419.06
656.742	59414.31
657.094	59356.01
657.445	59492.73
657.796	59418.16
658.147	59300.42
658.498	59313.53
658.849	59330.02
659.2	59349.68
659.551	59188.33
659.902	59351.26
660.253	59173.64
660.604	59308.55
660.955	59095.45
661.306	59230.14
661.656	59119.41
662.007	59092.97
662.358	59057.26
662.708	59143.36
663.059	58953.31
663.409	58903.59
663.76	59077.37
664.11	59026.98
664.461	59083.93
664.811	59100.2
665.161	59042.8
665.511	58985.17
665.862	59009.8
666.212	59053.42
666.562	59100.2
666.912	59041.89
667.262	59107.43
667.612	59047.77
667.962	59049.35
668.312	58979.07
668.662	59065.4
669.011	59018.39
669.361	59001.44
669.711	58979.75
670.06	58958.96
670.41	58931.61
670.76	58871.5
671.109	58919.41
671.459	58892.29
671.808	58802.8
672.157	58859.3
672.507	58702.69
672.856	58702.47
673.205	58697.27
673.554	58749.02
673.904	58669.25
674.253	58781.79
674.602	58609.36
674.951	58270.16
675.3	58180.9
675.649	58579.76
675.998	58493.66
676.346	58523.49
676.695	58559.42
677.044	58376.83
677.393	58446.43
677.741	58474.45
678.09	58312.65
678.438	58240.79
678.787	58339.31
679.135	58249.15
679.484	58101.35
679.832	58161.01
680.181	57958.31
680.529	58100.45
680.877	57975.48
681.225	57994.46
681.573	58123.73
681.922	57948.59
682.27	57787.24
682.618	57766
682.966	57707.47
683.314	57720.57
683.661	57570.07
684.009	57473.57
684.357	57482.16
684.705	57410.52
685.053	57473.35
685.4	57453.24
685.748	57368.27
686.095	57261.15
686.443	57228.16
686.79	57228.38
687.138	57263.18
687.485	57244.65
687.832	57119.01
688.18	57243.52
688.527	57053.02
688.874	57012.57
689.221	56959.91
689.568	56899.8
689.915	56910.2
690.262	56888.96
690.609	56782.74
690.956	56787.72
691.303	56713.59
691.65	56633.6
691.997	56592.01
692.344	56421.85
692.69	56381.85
693.037	56384.34
693.383	56201.97
693.73	56291.91
694.077	55996.1
694.423	56110.22
694.769	55954.74
695.116	55822.32
695.462	55818.93
695.808	55673.17
696.155	55743.45
696.501	55516.79
696.847	55543.91
697.193	55322.67
697.539	55387.07
697.885	55125.16
698.231	55089.91
698.577	55066.41
698.923	55011.72
699.269	54885.17
699.614	54630.26
699.96	54701.9
700.306	54563.82
700.651	54443.82
700.997	54286.99
701.342	54343.26
701.688	54208.12
702.033	54140.78
702.379	54162.02
702.724	54042.48
703.069	54106.2
703.415	53626.44
703.76	53715.25
704.105	53631.19
704.45	53514.81
704.795	53284.76
705.14	53263.97
705.485	53327.47
705.83	53113.01
706.175	53231.2
706.52	53121.6
706.865	52926.8
707.209	52839.57
707.554	52751.21
707.899	52846.8
708.243	52629.63
708.588	52561.61
708.932	52358.23
709.277	52484.55
709.621	52487.26
709.966	52276.87
710.31	52353.03
710.654	52135.63
710.998	52194.16
711.342	52215.41
711.687	52139.02
712.031	52033.26
712.375	51929.54
712.719	51959.82
713.063	51898.8
713.407	51946.04
713.75	51771.35
714.094	51679.6
714.438	51525.26
714.782	51723.89
715.125	51492.94
715.469	51534.29
715.812	51325.71
716.156	51162.1
716.499	51234.64
716.843	51128.88
717.186	50910.36
717.53	51003.24
717.873	51000.07
718.216	51008.21
718.559	50771.83
718.902	50549.69
719.246	50612.96
719.589	50443.25
719.932	50274.89
720.275	50220.66
720.617	50178.17
720.96	50139.3
721.303	50064.95
721.646	50092.07
721.989	49802.36
722.331	49870.61
722.674	49710.61
723.016	49701.12
723.359	49696.6
723.701	49607.11
724.044	49300.68
724.386	49117.41
724.729	49245.09
725.071	49161.02
725.413	49204.86
725.755	49015.72
726.097	48799
726.439	48669.51
726.782	48582.73
727.124	48831.99
727.465	48519.23
727.807	48342.06
728.149	48330.99
728.491	48223.65
728.833	48289.41
729.175	48073.82
729.516	48078.34
729.858	48059.13
730.199	48068.62
730.541	47817.78
730.882	47742.3
731.224	47882.41
731.565	47756.31
731.906	47796.77
732.248	47758.57
732.589	47509.54
732.93	47478.13
733.271	47553.61
733.612	47509.54
733.953	47547.73
734.294	47361.3
734.635	47279.94
734.976	47394.97
735.317	47088.99
735.658	47234.97
735.999	47204.01
736.339	47251.24
736.68	47249.66
737.021	46936.68
737.361	46979.61
737.702	47145.03
738.042	46987.75
738.383	46773.29
738.723	46909.78
739.063	46664.37
739.404	46876.11
739.744	46572.62
740.084	46578.49
740.424	46420.3
740.764	46400.64
741.104	46508.44
741.444	46302.34
741.784	46089.69
742.124	46193.42
742.464	46113.87
742.804	45915.23
743.143	45897.15
743.483	45787.78
743.823	45670.95
744.162	45684.73
744.502	45710.49
744.841	45505.07
745.181	45479.09
745.52	45203.16
745.86	45284.74
746.199	45115.71
746.538	44950.29
746.877	45061.02
747.216	45002.04
747.556	44629.17
747.895	44797.52
748.234	44628.94
748.573	44595.27
748.911	44563.18
749.25	44264.88
749.589	44181.27
749.928	44129.29
750.267	44071.44
750.605	43995.28
750.944	43786.93
751.283	43552.36
751.621	43690.43
751.96	43248.86
752.298	43428.75
752.636	43353.72
752.975	43149.2
753.313	42861.3
753.651	43176.55
753.989	42872.15
754.327	42763.45
754.666	42540.41
755.004	42445.04
755.342	42424.48
755.679	42332.5
756.017	42145.16
756.355	42169.34
756.693	42124.15
757.031	42252.28
757.368	42150.13
757.706	41889.8
758.044	41669.02
758.381	41828.11
758.719	41526.2
759.056	41558.74
759.394	41403.71
759.731	41259.54
760.068	41266.54
760.405	41188.58
760.743	40960.34
761.08	40934.8
761.417	40874.24
761.754	40913.33
762.091	40685.54
762.428	40422.72
762.765	40346.79
763.102	40573.23
763.438	40322.61
763.775	40117.87
764.112	40185.89
764.449	40104.09
764.785	39920.36
765.122	39696.19
765.458	39544.78
765.795	39487.38
766.131	39405.57
766.467	39310.89
766.804	39113.38
767.14	39070.89
767.476	38955.87
767.812	38740.05
768.148	38818.7
768.485	38450.8
768.821	38312.72
769.157	38220.75
769.492	38042.45
769.828	38144.82
770.164	37716.58
770.5	37608.56
770.836	37586.41
771.171	37423.25
771.507	37380.09
771.842	37028.69
772.178	36955.69
772.513	36917.5
772.849	36747.56
773.184	36552.99
773.519	36517.74
773.855	36217.86
774.19	36110.75
774.525	35941.26
774.86	35792.56
775.195	35848.38
775.53	35564.55
775.865	35383.53
776.2	35178.79
776.535	35075.97
776.87	35050.43
777.205	34655.87
777.539	34659.03
777.874	34577.9
778.209	34211.59
778.543	34238.03
778.878	33934.53
779.212	33984.93
779.547	33787.64
779.881	33775.89
780.215	33438.95
780.55	33513.98
780.884	33261.1
781.218	33222.91
781.552	33094.78
781.886	32965.07
782.22	32718.97
782.554	32636.94
782.888	32359.43
783.222	32267.46
783.556	32092.77
783.889	32128.25
784.223	31859.33
784.557	31780.69
784.89	31897.52
785.224	31915.6
785.557	31603.97
785.891	31454.6
786.224	31626.8
786.558	31343.41
786.891	31241.27
787.224	30920.15
787.557	30907.49
787.891	31024.78
788.224	30854.61
788.557	30991.11
788.89	30861.17
789.223	30736.65
789.556	30605.13
789.888	30493.49
790.221	30409.43
790.554	30150.45
790.887	30227.74
791.219	30017.8
791.552	29961.98
791.884	29756.11
792.217	29769.22
792.549	29684.7
792.882	29444.03
793.214	29409.23
793.546	29356.35
793.879	29097.6
794.211	29042.23
794.543	29212.4
794.875	28945.28
795.207	29053.08
795.539	28875.46
795.871	28920.2
796.203	28611.51
796.535	28465.07
796.867	28466.88
797.198	28348.24
797.53	28300.56
797.862	28202.03
798.193	28048.81
798.525	28006.1
798.856	27913.67
799.188	27573.57
799.519	27605.88
799.85	27443.4
800.182	27442.95
800.513	27491.31
800.844	27208.38
801.175	27287.47
801.506	27159.79
801.837	27000.93
802.168	26885.9
802.499	26811.78
802.83	26493.82
803.161	26520.49
803.491	26456.08
803.822	26330.89
804.153	26247.73
804.483	25952.82
804.814	25851.35
805.145	25918.7
805.475	25904.46
805.805	25650.91
806.136	25701.75
806.466	25680.74
806.796	25583.11
807.126	25405.04
807.457	25255.66
807.787	25254.99
808.117	25146.74
808.447	25065.39
808.777	25050.7
809.107	25107.42
809.436	24896.58
809.766	24928.89
810.096	24644.15
810.426	24676.47
810.755	24608.9
811.085	24497.94
811.414	24375.91
811.744	24248.91
812.073	24183.15
812.403	24231.51
812.732	24156.48
813.061	24190.61
813.39	24001.01
813.719	23894.8
814.049	24011.4
814.378	23850.73
814.707	23864.74
815.036	23886.21
815.365	23619.77
815.693	23490.29
816.022	23615.93
816.351	23574.8
816.68	23439.44
817.008	23560.11
817.337	23328.03
817.665	23246.22
817.994	23524.64
818.322	23265.43
818.651	23320.8
818.979	23283.51
819.307	23339.1
819.636	23182.27
819.964	23044.87
820.292	23222.5
820.62	23156.74
820.948	23101.14
821.276	23171.42
821.604	23079.22
821.932	23053.91
822.259	23227.24
822.587	23204.64
822.915	22989.73
823.243	23053.24
823.57	23001.94
823.898	23053.91
824.225	22988.38
824.553	23074.03
824.88	23001.03
825.207	23077.42
825.535	23056.17
825.862	23074.48
826.189	23024.99
826.516	23063.18
826.843	23255.94
827.17	23175.72
827.497	23144.08
827.824	23088.71
828.151	23141.14
828.478	23086.68
828.805	23050.3
829.131	23016.4
829.458	22879.45
829.785	22836.52
830.111	22895.5
830.438	22942.05
830.764	22789.06
831.09	22900.92
831.417	22817.08
831.743	22849.17
832.069	22847.14
832.395	22731.44
832.722	22904.76
833.048	22692.79
833.374	22746.35
833.7	22573.93
834.026	22615.96
834.351	22574.83
834.677	22629.74
835.003	22579.12
835.329	22517.43
835.654	22446.7
835.98	22290.32
836.306	22276.31
836.631	22340.26
836.956	22274.5
837.282	22216.42
837.607	22058.23
837.932	22096.88
838.258	22058.46
838.583	22044.67
838.908	21822.99
839.233	22072.47
839.558	21800.61
839.883	21744.8
840.208	21735.08
840.533	21680.16
840.858	21665.7
841.182	21667.06
841.507	21655.98
841.832	21560.62
842.156	21528.08
842.481	21492.15
842.805	21382.77
843.13	21335.77
843.454	21278.59
843.778	21179.61
844.103	21094.42
844.427	21200.4
844.751	21251.25
845.075	21140.07
845.399	21079.73
845.723	20912.27
846.047	20947.08
846.371	20726.07
846.695	20815.55
847.019	20656.91
847.343	20658.95
847.666	20464.15
847.99	20482.46
848.313	20449.24
848.637	20307.32
848.96	20338.5
849.284	20246.76
849.607	20096.25
849.931	20048.79
850.254	20056.93
850.577	19957.05
850.9	19788.46
851.223	19737.16
851.546	19780.55
851.869	19627.11
852.192	19758.41
852.515	19525.64
852.838	19558.19
853.161	19479.54
853.483	19392.99
853.806	19390.51
854.129	19297.85
854.451	19233
854.774	19191.87
855.096	19200.68
855.419	19032.55
855.741	19107.58
856.063	18960.46
856.385	18958.88
856.708	18857.19
857.03	18781.71
857.352	18857.19
857.674	18677.76
857.996	18703.07
858.318	18683.41
858.64	18643.18
858.961	18553.47
859.283	18521.83
859.605	18354.15
859.926	18395.96
860.248	18374.49
860.57	18359.35
860.891	18397.54
861.212	18125.91
861.534	18167.94
861.855	18113.48
862.176	18088.85
862.498	18185.34
862.819	18052.92
863.14	18077.32
863.461	17948.74
863.782	17941.05
864.103	17849.53
864.424	17806.82
864.745	17903.54
865.065	17770.21
865.386	17671
865.707	17608.18
866.027	17636.43
866.348	17666.94
866.668	17555.3
866.989	17437.34
867.309	17394.18
867.63	17468.52
867.95	17343.78
868.27	17358.47
868.59	17398.47
868.91	17292.71
869.23	17245.93
869.55	17259.72
869.87	17315.08
870.19	17152.15
870.51	17159.38
870.83	17210
871.15	17014.52
871.469	17015.88
871.789	17138.36
872.109	16968.65
872.428	16876
872.748	17030.57
873.067	16875.77
873.386	16801.65
873.706	16857.24
874.025	16797.35
874.344	16664.93
874.663	16751.93
874.982	16681.88
875.301	16586.06
875.62	16549
875.939	16549.9
876.258	16496.12
876.577	16526.4
876.896	16453.41
877.214	16501.32
877.533	16392.62
877.852	16485.95
878.17	16527.53
878.489	16405.5
878.807	16368.44
879.125	16432.17
879.444	16447.08
879.762	16247.76
880.08	16352.17
880.398	16202.12
880.716	16292.51
881.034	16211.16
881.352	16281.21
881.67	16193.3
881.988	16222.91
882.306	16139.75
882.624	16139.97
882.941	16008
883.259	16027.43
883.577	15946.53
883.894	16010.93
884.212	16023.14
884.529	15993.53
884.846	15891.84
885.164	15830.83
885.481	15795.35
885.798	15900.43
886.115	15771.62
886.432	15802.8
886.75	15659.98
887.067	15777.95
887.383	15665.86
887.7	15602.13
888.017	15679.42
888.334	15689.81
888.651	15614.56
888.967	15571.85
889.284	15589.48
889.6	15566.88
889.917	15433.77
890.233	15529.14
890.55	15387.9
890.866	15467.67
891.182	15342.93
891.498	15373.44
891.815	15306.77
892.131	15228.13
892.447	15300.45
892.763	15221.13
893.079	15105.87
893.395	15187.91
893.71	15082.37
894.026	15092.77
894.342	14987.01
894.657	14894.35
894.973	14948.59
895.289	14841.47
895.604	14827.69
895.92	14771.87
896.235	14688.71
896.55	14678.99
896.865	14662.72
897.181	14637.86
897.496	14507.92
897.811	14483.07
898.126	14378.21
898.441	14384.09
898.756	14311.77
899.071	14202.85
899.386	14276.29
899.7	14054.83
900.015	14081.49
900.33	13992.68
900.644	14052.79
900.959	14030.65
901.273	13959.01
901.588	13815.51
901.902	13778.9
902.216	13777.55
902.531	13790.43
902.845	13564.67
903.159	13579.59
903.473	13533.03
903.787	13457.33
904.101	13440.61
904.415	13471.79
904.729	13319.03
905.042	13186.6
905.356	13209.88
905.67	13137.56
905.984	13166.04
906.297	13137.34
906.611	13072.26
906.924	12984.12
907.237	12977.34
907.551	12844.92
907.864	12754.98
908.177	12731.47
908.491	12671.14
908.804	12681.98
909.117	12558.37
909.43	12557.01
909.743	12392.72
910.056	12467.75
910.368	12315.66
910.681	12303.46
910.994	12299.85
911.307	12289.45
911.619	12156.35
911.932	12167.65
912.244	11971.72
912.557	12019.63
912.869	11956.35
913.181	11907.54
913.494	11887.65
913.806	11825.28
914.118	11771.72
914.43	11706.64
914.742	11728.34
915.054	11590.03
915.366	11515.69
915.678	11556.81
915.99	11501
916.302	11442.92
916.613	11370.38
916.925	11356.59
917.236	11359.98
917.548	11278.4
917.859	11247.67
918.171	11162.02
918.482	11156.83
918.794	11124.28
919.105	11081.12
919.416	11069.14
919.727	10954.8
920.038	11037.73
920.349	10845.65
920.66	10810.39
920.971	10832.77
921.282	10873.89
921.593	10779.89
921.903	10745.31
922.214	10707.57
922.525	10713.45
922.835	10602.04
923.146	10597.97
923.456	10554.36
923.767	10536.73
924.077	10481.59
924.387	10414.25
924.697	10343.06
925.008	10350.29
925.318	10290.18
925.628	10258.54
925.938	10241.37
926.248	10145.1
926.558	10179.45
926.867	10083.63
927.177	10091.99
927.487	10043.18
927.796	9912.56
928.106	9964.09
928.416	9946.01
928.725	9931.09
929.034	9784.43
929.344	9841.83
929.653	9835.5
929.962	9677.54
930.271	9674.15
930.581	9661.27
930.89	9689.75
931.199	9539.92
931.508	9511.22
931.817	9474.61
932.125	9485.46
932.434	9485.68
932.743	9329.3
933.051	9347.83
933.36	9292.24
933.669	9238.01
933.977	9247.72
934.286	9217.89
934.594	9246.82
934.902	9153.94
935.21	9064.9
935.519	9124.11
935.827	9070.1
936.135	9035.3
936.443	8852.71
936.751	8868.98
937.059	8874.17
937.367	8760.5
937.674	8726.38
937.982	8767.06
938.29	8730
938.597	8691.13
938.905	8571.58
939.213	8601.86
939.52	8544.92
939.827	8601.86
940.135	8479.61
940.442	8452.94
940.749	8363.68
941.056	8418.37
941.363	8303.12
941.67	8329.78
941.977	8244.36
942.284	8162.55
942.591	8147.64
942.898	8139.05
943.205	8060.41
943.511	8037.59
943.818	8007.08
944.125	7963.91
944.431	7911.71
944.738	7933.63
945.044	7881.88
945.35	7793.52
945.657	7709.23
945.963	7722.79
946.269	7619.74
946.575	7635.79
946.881	7599.4
947.187	7586.75
947.493	7492.97
947.799	7487.77
948.105	7471.95
948.41	7403.03
948.716	7465.85
949.022	7285.06
949.327	7334.33
949.633	7238.06
949.938	7241.67
950.244	7206.19
950.549	7170.26
950.854	7110.38
951.16	7016.82
951.465	7043.49
951.77	7029.02
952.075	6993.77
952.38	6978.86
952.685	6951.96
952.99	6863.6
953.294	6876.71
953.599	6889.59
953.904	6803.72
954.209	6845.3
954.513	6839.42
954.818	6719.65
955.122	6673.1
955.426	6643.05
955.731	6704.06
956.035	6623.39
956.339	6594.01
956.643	6576.38
956.948	6558.53
957.252	6478.76
957.556	6493.45
957.86	6446.67
958.163	6459.1
958.467	6415.03
958.771	6388.82
959.075	6350.4
959.378	6320.79
959.682	6393.33
959.985	6242.38
960.289	6243.73
960.592	6223.62
960.896	6176.62
961.199	6207.12
961.502	6181.36
961.805	6169.61
962.108	6022.05
962.411	6102.04
962.714	6069.28
963.017	6022.95
963.32	6002.16
963.623	5996.28
963.926	6026.34
964.228	5906.34
964.531	5960.13
964.833	5927.58
965.136	5854.82
965.438	5889.85
965.741	5846.23
966.043	5825.89
966.345	5806.23
966.648	5788.6
966.95	5755.39
967.252	5695.27
967.554	5684.88
967.856	5713.58
968.158	5645.56
968.46	5604.88
968.761	5617.99
969.063	5617.08
969.365	5535.5
969.666	5615.95
969.968	5525.56
970.269	5506.8
970.571	5490.53
970.872	5462.74
971.174	5486.24
971.475	5402.4
971.776	5399.46
972.077	5380.25
972.378	5344.77
972.679	5319.46
972.98	5304.55
973.281	5312.01
973.582	5273.82
973.883	5249.18
974.183	5220.26
974.484	5199.92
974.785	5174.38
975.085	5113.82
975.386	5112.69
975.686	5123.76
975.986	5101.84
976.287	5100.94
976.587	5018.68
976.887	4986.14
977.187	4999.7
977.487	4961.06
977.787	4968.97
978.087	4904.56
978.387	4831.79
978.687	4848.29
978.987	4818.01
979.286	4811.46
979.586	4834.73
979.885	4764.23
980.185	4760.38
980.484	4733.49
980.784	4688.97
981.083	4683.78
981.382	4630.44
981.682	4638.58
981.981	4622.99
982.28	4626.6
982.579	4557.68
982.878	4554.74
983.177	4495.76
983.475	4518.13
983.774	4470.22
984.073	4446.95
984.372	4465.25
984.67	4421.64
984.969	4426.83
985.267	4400.62
985.566	4332.6
985.864	4326.95
986.162	4310.68
986.461	4262.32
986.759	4231.13
987.057	4209.89
987.355	4202.88
987.653	4197.46
987.951	4166.5
988.249	4183
988.547	4141.87
988.844	4116.56
989.142	4106.84
989.44	4054.41
989.737	4054.19
990.035	4020.29
990.332	4001.08
990.63	3968.54
990.927	3979.84
991.224	3965.6
991.521	3953.4
991.819	3967.64
992.116	3931.48
992.413	3850.58
992.71	3877.69
993.006	3856.68
993.303	3838.83
993.6	3775.55
993.897	3776.68
994.193	3735.1
994.49	3724.48
994.787	3690.13
995.083	3679.28
995.379	3655.1
995.676	3613.97
995.972	3630.7
996.268	3627.31
996.565	3557.93
996.861	3597.93
997.157	3555.67
997.453	3551.15
997.749	3542.11
998.044	3496.01
998.34	3479.51
998.636	3449.01
998.932	3440.87
999.227	3419.85
999.523	3396.13
999.818	3376.46
1000.114	3366.07
1000.409	3351.15
1000.704	3340.53
1001	3334.43
1001.295	3307.99
1001.59	3279.52
1001.885	3259.18
1002.18	3220.76
1002.475	3197.26
1002.77	3184.15
1003.065	3215.11
1003.359	3219.86
1003.654	3164.27
1003.949	3134.21
1004.243	3149.8
1004.538	3087.66
1004.832	3075.23
1005.127	3058.73
1005.421	3044.27
1005.715	3081.78
1006.009	3043.82
1006.304	3028.23
1006.598	2963.82
1006.892	2978.06
1007.186	2931.5
1007.48	2914.1
1007.773	2912.52
1008.067	2938.96
1008.361	2884.5
1008.655	2882.01
1008.948	2881.11
1009.242	2843.15
1009.535	2845.18
1009.829	2780.77
1010.122	2778.51
1010.415	2771.28
1010.708	2765.41
1011.001	2751.17
1011.295	2733.54
1011.588	2739.87
1011.881	2665.07
1012.173	2663.49
1012.466	2666.43
1012.759	2666.2
1013.052	2649.7
1013.344	2633.21
1013.637	2609.93
1013.93	2560.67
1014.222	2565.19
1014.514	2538.29
1014.807	2554.11
1015.099	2549.59
1015.391	2533.1
1015.683	2500.33
1015.976	2526.54
1016.268	2475.7
1016.56	2468.92
1016.851	2432.53
1017.143	2409.71
1017.435	2425.3
1017.727	2398.19
1018.018	2386.43
1018.31	2343.05
1018.602	2352.31
1018.893	2331.29
1019.185	2335.81
1019.476	2268.02
1019.767	2265.76
1020.058	2276.61
1020.35	2268.7
1020.641	2275.7
1020.932	2214.69
1021.223	2221.92
1021.514	2164.52
1021.804	2176.27
1022.095	2146.21
1022.386	2163.84
1022.677	2121.36
1022.967	2135.14
1023.258	2079.78
1023.548	2070.74
1023.839	2066.44
1024.129	2038.19
1024.419	2068.7
1024.709	2023.28
1025	2034.35
1025.29	1997.52
1025.58	1990.29
1025.87	1959.33
1026.16	1941.02
1026.449	1953.68
1026.739	1939.89
1027.029	1892.21
1027.319	1889.5
1027.608	1869.84
1027.898	1889.95
1028.187	1849.73
1028.477	1838.65
1028.766	1834.58
1029.055	1790.74
1029.344	1810.63
1029.634	1806.79
1029.923	1771.54
1030.212	1739.45
1030.501	1737.64
1030.79	1754.13
1031.078	1719.79
1031.367	1723.85
1031.656	1687.24
1031.945	1714.14
1032.233	1682.95
1032.522	1685.66
1032.81	1650.41
1033.099	1630.52
1033.387	1638.21
1033.675	1614.25
1033.963	1613.8
1034.251	1583.07
1034.54	1555.5
1034.828	1535.16
1035.116	1514.59
1035.403	1537.64
1035.691	1515.27
1035.979	1492.45
1036.267	1499.68
1036.554	1497.42
1036.842	1470.98
1037.129	1454.48
1037.417	1453.58
1037.704	1453.13
1037.992	1461.49
1038.279	1433.24
1038.566	1386.23
1038.853	1386.23
1039.14	1386.23
