Data from aluminium_macbook_case_FLMS001491_047.txt Node
Date: Tue Feb 07 10:43:40 GMT 2017
User: dcchb
Spectrometer: FLMS00149
Trigger mode: 0
Integration Time (sec): 2.000000E-2
Scans to average: 10
Electric dark correction enabled: true
Nonlinearity correction enabled: false
Boxcar width: 0
XAxis mode: Wavelengths
Number of Pixels in Spectrum: 2048
>>>>>Begin Spectral Data<<<<<
341.393	-18.69
341.776	-18.69
342.16	-18.69
342.543	-62.53
342.927	-66.82
343.31	-63.88
343.693	-53.26
344.077	-52.36
344.46	-61.85
344.843	-57.1
345.226	-45.8
345.61	-45.13
345.993	-34.5
346.376	7.75
346.759	14.08
347.142	12.73
347.525	69.45
347.908	55.66
348.291	63.12
348.674	81.2
349.057	109.9
349.44	113.97
349.823	152.16
350.206	185.38
350.588	228.09
350.971	258.37
351.354	280.52
351.737	274.87
352.119	294.3
352.502	313.06
352.884	343.11
353.267	330.46
353.65	348.99
354.032	373.17
354.414	365.48
354.797	389.66
355.179	392.6
355.562	385.6
355.944	375.2
356.326	392.6
356.709	420.4
357.091	415.65
357.473	388.08
357.855	406.84
358.238	415.2
358.62	399.83
359.002	419.49
359.384	431.92
359.766	403.68
360.148	429.44
360.53	419.04
360.912	412.04
361.294	421.53
361.676	432.83
362.057	422.66
362.439	433.51
362.821	431.25
363.203	421.08
363.584	417.01
363.966	427.18
364.348	424.69
364.729	449.1
365.111	427.4
365.493	435.77
365.874	444.58
366.256	432.38
366.637	430.12
367.019	433.73
367.4	451.36
367.781	412.04
368.163	431.7
368.544	440.06
368.925	444.35
369.306	445.26
369.688	433.05
370.069	448.87
370.45	452.94
370.831	433.05
371.212	450.23
371.593	432.15
371.974	457.01
372.355	411.59
372.736	452.71
373.117	462.66
373.498	433.05
373.879	450.68
374.26	462.21
374.641	460.85
375.021	445.26
375.402	487.97
375.783	492.04
376.163	515.09
376.544	520.73
376.925	508.76
377.305	489.1
377.686	521.41
378.066	524.35
378.447	535.42
378.827	534.97
379.208	521.41
379.588	525.03
379.968	540.85
380.349	524.58
380.729	542.88
381.109	533.39
381.489	551.02
381.87	579.49
382.25	575.42
382.63	557.57
383.01	602.99
383.39	604.57
383.77	584.24
384.15	591.92
384.53	617.46
384.91	636.89
385.29	591.02
385.67	640.05
386.049	638.7
386.429	632.37
386.809	650.9
387.189	660.17
387.568	671.69
387.948	665.59
388.328	665.59
388.707	691.35
389.087	677.11
389.466	713.27
389.846	710.56
390.225	729.77
390.605	737.9
390.984	720.96
391.363	755.98
391.743	748.53
392.122	773.61
392.501	784.23
392.881	767.51
393.26	797.79
393.639	800.28
394.018	788.52
394.397	833.27
394.776	813.61
395.155	848.18
395.534	833.5
395.913	853.61
396.292	861.52
396.671	861.74
397.05	873.27
397.429	871.91
397.808	922.08
398.186	904.45
398.565	918.92
398.944	916.2
399.323	950.33
399.701	932.7
400.08	963.66
400.458	954.17
400.837	984.9
401.215	984.23
401.594	1010.21
401.972	1001.63
402.351	1027.39
402.729	1030.1
403.107	1040.95
403.486	1075.07
403.864	1082.08
404.242	1087.95
404.62	1114.17
404.999	1100.15
405.377	1105.58
405.755	1136.54
406.133	1156.65
406.511	1172.7
406.889	1160.49
407.267	1228.74
407.645	1201.39
408.023	1214.5
408.401	1246.82
408.779	1267.83
409.156	1309.41
409.534	1301.73
409.912	1334.95
410.29	1318.23
410.667	1368.62
411.045	1373.82
411.422	1392.35
411.8	1385.34
412.178	1438.9
412.555	1462.86
412.933	1483.42
413.31	1514.83
413.687	1524.32
414.065	1566.58
414.442	1552.8
414.819	1583.76
415.197	1579.92
415.574	1633.02
415.951	1645.68
416.328	1668.73
416.705	1671.67
417.082	1682.96
417.46	1723.64
417.837	1731.1
418.214	1756.86
418.591	1768.61
418.967	1792.34
419.344	1804.54
419.721	1821.27
420.098	1805.9
420.475	1804.09
420.852	1912.11
421.228	1908.04
421.605	1942.84
421.982	1908.95
422.358	1965.89
422.735	1973.13
423.111	1993.24
423.488	2061.49
423.864	2053.8
424.241	2061.26
424.617	2140.13
424.994	2159.56
425.37	2144.2
425.746	2174.48
426.123	2207.92
426.499	2207.92
426.875	2279.33
427.251	2288.82
427.627	2362.95
428.003	2381.93
428.379	2409.72
428.756	2419.22
429.132	2487.91
429.507	2486.11
429.883	2525.43
430.259	2557.07
430.635	2575.14
431.011	2629.38
431.387	2689.27
431.763	2729.94
432.138	2775.59
432.514	2786.44
432.89	2836.38
433.265	2886.55
433.641	2899.43
434.016	2959.77
434.392	3008.58
434.767	3059.65
435.143	3074.11
435.518	3122.93
435.894	3124.73
436.269	3176.71
436.644	3230.72
437.02	3258.29
437.395	3298.51
437.77	3330.83
438.145	3337.61
438.52	3409.92
438.895	3475.91
439.271	3478.17
439.646	3574.67
440.021	3600.88
440.395	3590.48
440.77	3596.59
441.145	3656.47
441.52	3713.42
441.895	3726.75
442.27	3781.89
442.645	3769.69
443.019	3843.59
443.394	3871.83
443.769	3892.17
444.143	3810.82
444.518	3922.45
444.892	3908.67
445.267	3985.05
445.641	4011.72
446.016	4011.26
446.39	4136.46
446.764	4126.97
447.139	4116.8
447.513	4138.04
447.887	4165.84
448.262	4207.42
448.636	4258.49
449.01	4333.52
449.384	4384.81
449.758	4411.48
450.132	4464.81
450.506	4451.48
450.88	4526.51
451.254	4497.58
451.628	4624.36
452.002	4684.02
452.376	4665.71
452.75	4719.27
453.123	4808.08
453.497	4873.61
453.871	4905.7
454.244	5013.05
454.618	5098.92
454.992	5115.64
455.365	5178.24
455.739	5274.96
456.112	5361.96
456.486	5439.48
456.859	5392.47
457.232	5535.52
457.606	5558.34
457.979	5620.26
458.352	5767.15
458.725	5818.67
459.099	5881.05
459.472	5966.92
459.845	6040.59
460.218	6137.31
460.591	6127.14
460.964	6179.12
461.337	6321.71
461.71	6414.14
462.083	6519.22
462.456	6550.41
462.829	6616.85
463.201	6707.24
463.574	6734.81
463.947	6784.52
464.32	6967.8
464.692	7084.86
465.065	7074.91
465.438	7226.32
465.81	7306.77
466.183	7447.78
466.555	7582.24
466.928	7648.46
467.3	7654.78
467.672	7836.47
468.045	8005.06
468.417	8031.27
468.789	8097.48
469.161	8204.6
469.534	8343.13
469.906	8515.33
470.278	8608.21
470.65	8693.4
471.022	8840.06
471.394	8974.07
471.766	9080.28
472.138	9224.01
472.51	9466.04
472.882	9530.67
473.253	9726.82
473.625	9793.49
473.997	9985.12
474.369	10091.33
474.74	10209.07
475.112	10424.43
475.484	10583.07
475.855	10745.1
476.227	10937.41
476.598	11209.95
476.97	11366.1
477.341	11556.83
477.713	11746.88
478.084	11844.28
478.455	12200.2
478.827	12293.76
479.198	12591.38
479.569	12738.27
479.94	13076.11
480.311	13096.22
480.682	13437.46
481.053	13795.87
481.424	13963.55
481.795	14160.15
482.166	14392.91
482.537	14583.64
482.908	14852.56
483.279	14990.18
483.65	15283.51
484.021	15645.08
484.391	15802.37
484.762	15979.54
485.133	16053.21
485.503	16355.35
485.874	16694.09
486.244	16911.49
486.615	17247.53
486.985	17427.63
487.356	17812.26
487.726	17909.2
488.097	18377.21
488.467	18360.04
488.837	18713.48
489.207	19025.56
489.578	19234.59
489.948	19419.45
490.318	19768.36
490.688	19825.76
491.058	20121.8
491.428	20466.43
491.798	20583.48
492.168	21062.12
492.538	21101.66
492.908	21305.05
493.278	21654.42
493.648	21736
494.017	21912.04
494.387	22167.85
494.757	22407.39
495.126	22629.76
495.496	22778
495.866	22790.21
496.235	23154.04
496.605	23319.01
496.974	23580.47
497.344	23783.85
497.713	23850.52
498.082	24078.76
498.452	24400.78
498.821	24480.56
499.19	24692.53
499.559	24897.95
499.928	25042.12
500.298	25285.28
500.667	25563.24
501.036	25437.14
501.405	25800.52
501.774	25823.12
502.143	26126.16
502.512	26248.65
502.88	26438.7
503.249	26583.55
503.618	26699.26
503.987	26816.77
504.356	27019.7
504.724	27235.29
505.093	27339.46
505.462	27565.45
505.83	27612.68
506.199	27993.46
506.567	28264.41
506.936	28319.55
507.304	28691.97
507.672	28805.87
508.041	28864.4
508.409	29243.6
508.777	29358.62
509.145	29746.86
509.514	29782.11
509.882	30035.21
510.25	30093.29
510.618	30501.87
510.986	30525.6
511.354	30818.92
511.722	31041.29
512.09	31421.62
512.458	31344.56
512.826	31629.3
513.193	31912
513.561	32123.52
513.929	32226.79
514.297	32553.11
514.664	32867
515.032	32953.55
515.4	33148.58
515.767	33397.84
516.135	33657.04
516.502	33456.82
516.869	34014.32
517.237	34094.09
517.604	34090.47
517.972	34641.65
518.339	34889.1
518.706	34931.13
519.073	35296.54
519.44	35525.01
519.808	35834.61
520.175	35954.83
520.542	36356.4
520.909	36745.55
521.276	36757.3
521.643	37194.57
522.009	37450.16
522.376	37644.28
522.743	37964.95
523.11	38209.91
523.477	38789.56
523.843	38858.26
524.21	39265.03
524.577	39576.21
524.943	39673.38
525.31	39925.12
525.676	40330.08
526.043	40459.8
526.409	40740.92
526.776	41155.82
527.142	41116.5
527.508	41384.52
527.874	41766.43
528.241	41988.12
528.607	41967.33
528.973	42445.96
529.339	42581.1
529.705	43043.46
530.071	43306.28
530.437	43454.75
530.803	43648.64
531.169	43930.44
531.535	44017.22
531.901	44220.38
532.267	44361.84
532.632	44840.93
532.998	44921.83
533.364	45152.33
533.73	45202.72
534.095	45611.75
534.461	45708.02
534.826	45959.31
535.192	46258.06
535.557	46564.95
535.923	46508.9
536.288	46712.97
536.653	46929.91
537.019	46896.01
537.384	47049.45
537.749	47270.92
538.114	47346.17
538.479	47391.14
538.845	47641.08
539.21	47484.7
539.575	47616.9
539.94	47784.35
540.305	48073.38
540.67	48182.76
541.034	48303.21
541.399	48518.79
541.764	48554.27
542.129	48681.28
542.494	48698.45
542.858	48911.55
543.223	48922.85
543.587	49302.5
543.952	49313.35
544.316	49427.02
544.681	49413.91
545.045	49541.82
545.41	49896.16
545.774	49913.79
546.138	50143.16
546.503	50138.64
546.867	50268.35
547.231	50644.16
547.595	50602.13
547.959	50863.59
548.324	50902.69
548.688	50929.13
549.052	51150.59
549.416	51134.09
549.779	51188.1
550.143	51332.51
550.507	51632.61
550.871	51642.55
551.235	51649.79
551.599	51904.69
551.962	52002.55
552.326	52056.1
552.689	52226.95
553.053	52160.96
553.417	52147.17
553.78	52736.99
554.143	52491.8
554.507	52759.81
554.87	52802.3
555.234	53167.94
555.597	52826.7
555.96	53092.23
556.323	53206.58
556.686	53272.79
557.05	53560.02
557.413	53524.31
557.776	53669.39
558.139	53858.09
558.502	54017.41
558.865	54073.68
559.228	54389.37
559.59	54385.76
559.953	54423.95
560.316	54821.45
560.679	54802.47
561.041	54953.65
561.404	55069.36
561.767	55326.07
562.129	55254.89
562.492	55525.39
562.854	55525.84
563.217	55505.73
563.579	55690.58
563.941	55791.15
564.304	56025.72
564.666	56168.31
565.028	56157.46
565.39	56253.28
565.753	56369.66
566.115	56519.26
566.477	56571.92
566.839	56617.34
567.201	56839.25
567.563	56861.63
567.925	57025.24
568.287	56985.46
568.648	57079.47
569.01	57196.53
569.372	57390.2
569.734	57248.28
570.095	57434.49
570.457	57585.68
570.819	57668.84
571.18	57682.85
571.542	57868.83
571.903	57848.72
572.265	57883.29
572.626	57998.77
572.987	58136.85
573.349	58149.5
573.71	58263.4
574.071	58292.78
574.432	58424.52
574.794	58542.49
575.155	58524.86
575.516	58511.3
575.877	58642.6
576.238	58631.75
576.599	58808.24
576.96	58845.3
577.32	58796.72
577.681	58949.93
578.042	59021.34
578.403	58966.2
578.763	58986.09
579.124	59028.12
579.485	59142.02
579.845	59185.63
580.206	59177.72
580.566	59207.1
580.927	59163.26
581.287	59275.57
581.648	59153.77
582.008	59290.49
582.368	59286.2
582.728	59234.67
583.089	59180.44
583.449	59179.31
583.809	59203.94
584.169	59345.85
584.529	59267.89
584.889	59435.8
585.249	59187.89
585.609	59194.45
585.969	59319.19
586.329	59208.23
586.688	59340.66
587.048	59306.76
587.408	59233.54
587.768	59292.52
588.127	59294.56
588.487	59240.77
588.846	59434.44
589.206	59261.79
589.565	59317.61
589.925	59422.24
590.284	59365.74
590.643	59366.42
591.003	59525.74
591.362	59530.26
591.721	59499.75
592.08	59466.3
592.44	59574.78
592.799	59538.17
593.158	59490.48
593.517	59538.39
593.876	59588.79
594.235	59523.25
594.593	59552.86
594.952	59615.68
595.311	59492.97
595.67	59589.46
596.029	59723.02
596.387	59660.65
596.746	59713.53
597.104	59567.32
597.463	59571.16
597.822	59593.76
598.18	59572.97
598.538	59540.88
598.897	59680.99
599.255	59493.87
599.613	59838.72
599.972	59699.29
600.33	59722.79
600.688	59636.24
601.046	59709.69
601.404	59786.97
601.762	59742.91
602.12	59828.1
602.478	59846.86
602.836	59849.34
603.194	59707.2
603.552	59836.01
603.91	59696.58
604.268	59872.17
604.625	59784.26
604.983	59969.12
605.341	59907.87
605.698	60010.92
606.056	60027.42
606.413	59958.49
606.771	60064.71
607.128	60097.7
607.485	59949.45
607.843	60086.17
608.2	60180.18
608.557	60274.42
608.914	60170.47
609.272	60355.77
609.629	60334.08
609.986	60419.95
610.343	60308.54
610.7	60412.95
611.057	60416.56
611.414	60377.47
611.771	60390.12
612.127	60442.55
612.484	60437.8
612.841	60537.01
613.198	60469.67
613.554	60468.09
613.911	60591.7
614.267	60561.87
614.624	60503.56
614.98	60571.13
615.337	60667.18
615.693	60612.71
616.05	60628.08
616.406	60717.34
616.762	60654.29
617.118	60644.8
617.475	60573.62
617.831	60748.53
618.187	60657.91
618.543	60678.7
618.899	60828.75
619.255	60773.61
619.611	60771.35
619.967	60885.7
620.323	60910.56
620.678	60793.73
621.034	60759.83
621.39	60788.75
621.746	60723.22
622.101	61001.18
622.457	60831.47
622.812	60895.64
623.168	60924.34
623.523	60956.21
623.879	61014.74
624.234	60863.78
624.589	60976.77
624.945	60952.37
625.3	60936.55
625.655	60915.08
626.01	60933.84
626.365	60954.4
626.72	60977
627.075	60899.49
627.43	60866.04
627.785	60805.48
628.14	60829.43
628.495	60854.97
628.85	60784.01
629.205	60759.6
629.559	60919.82
629.914	60792.82
630.269	60783.56
630.623	60735.65
630.978	60657.23
631.332	60774.74
631.687	60747.85
632.041	60557.8
632.396	60632.6
632.75	60476.45
633.104	60553.28
633.459	60478.93
633.813	60444.81
634.167	60403.45
634.521	60417.69
634.875	60449.78
635.229	60418.82
635.583	60246.62
635.937	60218.83
636.291	60249.33
636.645	60246.62
636.999	60134.53
637.352	60206.85
637.706	59998.94
638.06	60129.34
638.413	60057.7
638.767	60014.99
639.121	59997.59
639.474	59917.37
639.828	59911.04
640.181	59906.74
640.534	59934.31
640.888	59809.35
641.241	59773.64
641.594	59773.19
641.947	59761.21
642.301	59685.73
642.654	59767.31
643.007	59789.91
643.36	59737.71
643.713	59701.33
644.066	59711.27
644.419	59623.59
644.771	59403.25
645.124	59175.69
645.477	59121
645.83	58983.38
646.182	58892.76
646.535	58794.46
646.888	58845.98
647.24	58709.94
647.593	58856.15
647.945	58755.81
648.298	58618.64
648.65	58572.77
649.002	58484.41
649.355	58604.18
649.707	58532.77
650.059	58600.11
650.411	58839.43
650.763	58925.53
651.115	59117.84
651.467	59000.33
651.819	58991.74
652.171	58909.26
652.523	58856.38
652.875	58917.17
653.227	58702.93
653.578	58969.14
653.93	58831.74
654.282	58714.46
654.633	58652.31
654.985	58724.4
655.337	58669.71
655.688	58594.24
656.039	58782.93
656.391	58528.48
656.742	58535.93
657.094	58535.25
657.445	58634.91
657.796	58556.05
658.147	58507.46
658.498	58489.61
658.849	58544.97
659.2	58470.17
659.551	58337.52
659.902	58518.31
660.253	58469.49
660.604	58487.8
660.955	58389.95
661.306	58355.15
661.656	58324.19
662.007	58384.52
662.358	58341.81
662.708	58351.53
663.059	58336.84
663.409	58173.91
663.76	58311.31
664.11	58311.31
664.461	58367.58
664.811	58308.37
665.161	58262.04
665.511	58172.55
665.862	58237.18
666.212	58271.08
666.562	58272.89
666.912	58238.99
667.262	58187.92
667.612	58139.78
667.962	58181.59
668.312	58126
668.662	58197.18
669.011	58064.31
669.361	58056.17
669.711	58025.89
670.06	57969.17
670.41	57912.22
670.76	57844.43
671.109	58023.4
671.459	57938.21
671.808	57856.63
672.157	57841.26
672.507	57649.63
672.856	57752
673.205	57717.42
673.554	57740.47
673.904	57651.66
674.253	57736.18
674.602	57733.47
674.951	57342.97
675.3	57165.12
675.649	57571.21
675.998	57559.01
676.346	57533.25
676.695	57655.96
677.044	57346.36
677.393	57470.42
677.741	57489.63
678.09	57535.28
678.438	57413.25
678.787	57455.96
679.135	57482.85
679.484	57296.87
679.832	57352.46
680.181	57196.31
680.529	57318.79
680.877	57203.76
681.225	57110.66
681.573	57296.42
681.922	57076.08
682.27	57040.38
682.618	57055.97
682.966	56946.37
683.314	57058.68
683.661	56904.56
684.009	56714.51
684.357	56622.76
684.705	56614.63
685.053	56698.92
685.4	56612.59
685.748	56556.55
686.095	56475.87
686.443	56378.25
686.79	56313.39
687.138	56326.73
687.485	56270.91
687.832	56208.54
688.18	56245.82
688.527	56109.56
688.874	56132.38
689.221	55988.65
689.568	55936.68
689.915	55863.91
690.262	55786.85
690.609	55723.58
690.956	55562
691.303	55619.17
691.65	55456.01
691.997	55522.68
692.344	55307.54
692.69	55173.31
693.037	55251.5
693.383	55028.68
693.73	55055.8
694.077	54918.85
694.423	54912.3
694.769	54833.66
695.116	54788.23
695.462	54717.5
695.808	54573.32
696.155	54632.98
696.501	54366.1
696.847	54408.81
697.193	54174.92
697.539	54321.13
697.885	54029.84
698.231	53980.12
698.577	53971.76
698.923	53948.26
699.269	53756.17
699.614	53611.54
699.96	53606.8
700.306	53595.95
700.651	53446.12
700.997	53352.11
701.342	53123.87
701.688	53149.18
702.033	53079.8
702.379	53036.42
702.724	53049.3
703.069	53016.3
703.415	52678.23
703.76	52640.04
704.105	52576.32
704.45	52475.3
704.795	52347.17
705.14	52358.92
705.485	52224.69
705.83	52145.37
706.175	52161.18
706.52	51982.88
706.865	51914.64
707.209	51959.16
707.554	51713.06
707.899	51820.63
708.243	51653.63
708.588	51624.93
708.932	51430.58
709.277	51408.66
709.621	51324.82
709.966	51031.95
710.31	51201.66
710.654	50744.05
710.998	50940.65
711.342	50989.46
711.687	50847.55
712.031	50583.83
712.375	50639.42
712.719	50634.45
713.063	50518.06
713.407	50524.39
713.75	50391.51
714.094	50368.24
714.438	50128.47
714.782	50111.52
715.125	49975.93
715.469	49937.51
715.812	49814.58
716.156	49646.9
716.499	49680.8
716.843	49638.77
717.186	49356.74
717.53	49605.77
717.873	49553.34
718.216	49541.14
718.559	49249.62
718.902	49045.56
719.246	49111.32
719.589	48950.65
719.932	48796.98
720.275	48822.29
720.617	48740.48
720.96	48660.03
721.303	48625.23
721.646	48606.25
721.989	48350.21
722.331	48495.97
722.674	48423.43
723.016	48447.16
723.359	48257.11
723.701	48212.81
724.044	48044.68
724.386	47877.46
724.729	48003.1
725.071	47776.67
725.413	47805.59
725.755	47867.51
726.097	47597.69
726.439	47379.62
726.782	47397.02
727.124	47495.32
727.465	47199.06
727.807	47243.12
728.149	47181.88
728.491	47121.32
728.833	46925.16
729.175	46757.49
729.516	46805.17
729.858	46677.04
730.199	46635.23
730.541	46587.32
730.882	46587.77
731.224	46582.12
731.565	46308.91
731.906	46333.54
732.248	46291.96
732.589	46094
732.93	45851.29
733.271	46017.17
733.612	45997.28
733.953	45937.39
734.294	45666.44
734.635	45640.9
734.976	45803.61
735.317	45527.46
735.658	45553.68
735.999	45576.5
736.339	45387.35
736.68	45650.62
737.021	45317.75
737.361	45088.38
737.702	45344.42
738.042	45170.63
738.383	45169.05
738.723	45016.74
739.063	45010.64
739.404	45050.64
739.744	44802.73
740.084	44724.77
740.424	44803.64
740.764	44706.92
741.104	44875.95
741.444	44531.78
741.784	44545.11
742.124	44614.94
742.464	44454.27
742.804	44330.2
743.143	44134.28
743.483	44063.54
743.823	43875.75
744.162	44007.95
744.502	44065.8
744.841	43787.85
745.181	43848.86
745.52	43613.84
745.86	43759.37
746.199	43588.3
746.538	43518.7
746.877	43597.79
747.216	43492.26
747.556	43337.24
747.895	43344.92
748.234	43140.86
748.573	42947.19
748.911	42934.99
749.25	42907.64
749.589	42778.61
749.928	42813.41
750.267	42729.34
750.605	42401.67
750.944	42379.52
751.283	42348.34
751.621	42318.05
751.96	42065.63
752.298	42028.34
752.636	41986.54
752.975	41824.28
753.313	41831.97
753.651	41812.76
753.989	41505.87
754.327	41396.04
754.666	41307.01
755.004	41289.38
755.342	41306.1
755.679	41214.35
756.017	40899.56
756.355	41024.3
756.693	40641.04
757.031	40955.15
757.368	40467.03
757.706	40466.35
758.044	40409.18
758.381	40260.03
758.719	40226.13
759.056	39975.29
759.394	39934.84
759.731	39765.13
760.068	39636.09
760.405	39502.08
760.743	39368.08
761.08	39523.55
761.417	39191.81
761.754	39190.45
762.091	39123.79
762.428	39014.86
762.765	38770.35
763.102	38851.25
763.438	38678.38
763.775	38308.22
764.112	38494.88
764.449	38511.83
764.785	38274.09
765.122	37999.52
765.458	37916.14
765.795	37908.45
766.131	37821
766.467	37687.44
766.804	37446.32
767.14	37188.02
767.476	37262.82
767.812	37045.42
768.148	37091.07
768.485	36837.29
768.821	36832.1
769.157	36756.84
769.492	36599.33
769.828	36540.13
770.164	36179.01
770.5	36049.97
770.836	36138.78
771.171	35910.54
771.507	35773.14
771.842	35546.71
772.178	35474.39
772.513	35317.33
772.849	35344.45
773.184	35092.26
773.519	35028.08
773.855	34861.75
774.19	34676.22
774.525	34578.6
774.86	34516.23
775.195	34325.72
775.53	34292.95
775.865	33950.82
776.2	33748.56
776.535	33566.65
776.87	33530.94
777.205	33444.84
777.539	33284.17
777.874	33266.54
778.209	33021.8
778.543	32866.78
778.878	32735.03
779.212	32668.36
779.547	32517.86
779.881	32497.3
780.215	32376.17
780.55	32360.8
780.884	32214.59
781.218	32094.82
781.552	31956.74
781.886	31602.86
782.22	31601.05
782.554	31483.08
782.888	31198.57
783.222	31058.46
783.556	31023.66
783.889	30964.91
784.223	30726.72
784.557	30719.04
784.89	30748.41
785.224	30624.58
785.557	30311.82
785.891	30234.3
786.224	30269.33
786.558	30273.85
786.891	29910.47
787.224	29882.45
787.557	29684.71
787.891	29739.4
788.224	29573.53
788.557	29577.6
788.89	29501.89
789.223	29455.57
789.556	29191.17
789.888	29204.95
790.221	29036.14
790.554	28874.34
790.887	28963.38
791.219	28782.82
791.552	28696.04
791.884	28557.29
792.217	28319.1
792.549	28367.46
792.882	28211.98
793.214	28057.19
793.546	28164.98
793.879	27873.01
794.211	27863.74
794.543	27951.65
794.875	27668.95
795.207	27770.64
795.539	27623.3
795.871	27585.56
796.203	27270.77
796.535	27163.88
796.867	27167.49
797.198	27059.02
797.53	27111
797.862	26847.05
798.193	26821.51
798.525	26798.01
798.856	26708.52
799.188	26428.3
799.519	26487.28
799.85	26253.17
800.182	26271.7
800.513	26244.35
800.844	25999.61
801.175	26040.74
801.506	26058.82
801.837	25879.84
802.168	25816.79
802.499	25705.84
802.83	25665.38
803.161	25423.58
803.491	25427.88
803.822	25368.9
804.153	25229.01
804.483	24990.6
804.814	25031.95
805.145	24920.77
805.475	24947.21
805.805	24744.73
806.136	24812.98
806.466	24630.61
806.796	24691.4
807.126	24427.9
807.457	24358.3
807.787	24300.45
808.117	24231.52
808.447	24154.24
808.777	24174.8
809.107	24074.69
809.436	23952.44
809.766	23896.62
810.096	23782.95
810.426	23841.48
810.755	23905.2
811.085	23675.15
811.414	23677.19
811.744	23456.63
812.073	23411.88
812.403	23437.42
812.732	23342.51
813.061	23352.68
813.39	23143.87
813.719	23057.09
814.049	23201.49
814.378	23109.29
814.707	23023.19
815.036	23078.56
815.365	22888.06
815.693	22710.89
816.022	22666.82
816.351	22604.45
816.68	22522.87
817.008	22474.51
817.337	22399.03
817.665	22430.67
817.994	22477.9
818.322	22420.27
818.651	22308.18
818.979	22205.59
819.307	22187.96
819.636	22155.42
819.964	22037.01
820.292	22183.22
820.62	22179.83
820.948	21947.52
821.276	22102.09
821.604	21990.9
821.932	22022.32
822.259	22066.16
822.587	21982.77
822.915	22011.92
823.243	22030.45
823.57	22022.99
823.898	22003.33
824.225	21917.23
824.553	21883.34
824.88	21890.79
825.207	22003.11
825.535	21975.76
825.862	22007.85
826.189	21834.07
826.516	21877.69
826.843	22009.21
827.17	21999.72
827.497	22085.82
827.824	22119.49
828.151	22031.36
828.478	21979.15
828.805	22078.81
829.131	21977.8
829.458	21935.77
829.785	21867.74
830.111	22011.02
830.438	21957.23
830.764	21885.37
831.09	21879.95
831.417	21887.4
831.743	21960.85
832.069	21885.37
832.395	21711.82
832.722	21796.11
833.048	21724.92
833.374	21782.77
833.7	21614.64
834.026	21687.86
834.351	21666.39
834.677	21614.42
835.003	21691.93
835.329	21633.17
835.654	21588.88
835.98	21478.15
836.306	21430.47
836.631	21292.84
836.956	21486.29
837.282	21488.32
837.607	21223.02
837.932	21183.47
838.258	21212.85
838.583	21163.81
838.908	21109.35
839.233	21068.67
839.558	21039.97
839.883	20999.74
840.208	20911.84
840.533	20997.71
840.858	20883.59
841.182	20839.52
841.507	20888.11
841.832	20809.47
842.156	20693.99
842.481	20776.93
842.805	20699.64
843.13	20550.26
843.454	20445.63
843.778	20524.95
844.103	20338.74
844.427	20397.05
844.751	20354.79
845.075	20376.71
845.399	20241.8
845.723	20145.76
846.047	20171.97
846.371	20073.44
846.695	19973.1
847.019	19924.97
847.343	19786.89
847.666	19612.21
847.99	19678.42
848.313	19583.96
848.637	19506
848.96	19520.24
849.284	19463.29
849.607	19188.49
849.931	19265.33
850.254	19046.58
850.577	18981.49
850.9	18878.22
851.223	18794.83
851.546	18778.33
851.869	18592.58
852.192	18747.37
852.515	18642.29
852.838	18583.54
853.161	18554.39
853.483	18480.49
853.806	18474.39
854.129	18436.2
854.451	18304
854.774	18221.51
855.096	18243.21
855.419	18148.97
855.741	18173.83
856.063	18052.25
856.385	18050.44
856.708	17954.85
857.03	17885.02
857.352	17937.9
857.674	17810.45
857.996	17874.85
858.318	17753.05
858.64	17728.87
858.961	17692.03
859.283	17583.11
859.605	17565.03
859.926	17526.16
860.248	17460.18
860.57	17345.83
860.891	17493.85
861.212	17384.47
861.534	17319.84
861.855	17274.64
862.176	17229.22
862.498	17250.01
862.819	17335.66
863.14	17130.47
863.461	17212.5
863.782	17020.19
864.103	17118.94
864.424	17029
864.745	17073.97
865.065	16946.97
865.386	16937.25
865.707	16997.14
866.027	16884.15
866.348	16800.76
866.668	16824.49
866.989	16798.05
867.309	16619.97
867.63	16642.12
867.95	16695.22
868.27	16615.68
868.59	16564.15
868.91	16577.49
869.23	16564.15
869.55	16389.24
869.87	16532.29
870.19	16506.76
870.51	16506.08
870.83	16457.27
871.15	16372.52
871.469	16327.55
871.789	16323.48
872.109	16398.74
872.428	16187.44
872.748	16301.34
873.067	16260.21
873.386	16241.68
873.706	16197.84
874.025	16119.87
874.344	16151.74
874.663	16173.2
874.982	16006.88
875.301	16073.32
875.62	15997.84
875.939	15935.02
876.258	15955.13
876.577	15833.1
876.896	15826.32
877.214	15774.8
877.533	15834.23
877.852	15898.18
878.17	15895.47
878.489	15822.71
878.807	15847.11
879.125	15734.57
879.444	15740
879.762	15741.8
880.08	15666.55
880.398	15561.92
880.716	15664.52
881.034	15698.64
881.352	15611.19
881.67	15505.2
881.988	15514.01
882.306	15590.62
882.624	15455.26
882.941	15404.19
883.259	15342.94
883.577	15405.32
883.894	15354.24
884.212	15267.69
884.529	15283.28
884.846	15289.39
885.164	15321.93
885.481	15238.09
885.798	15215.72
886.115	15137.07
886.432	15098.66
886.75	15139.79
887.067	15071.76
887.383	15033.12
887.7	15074.25
888.017	14948.15
888.334	14995.61
888.651	14873.8
888.967	14872
889.284	14839.91
889.6	14746.35
889.917	14747.93
890.233	14764.65
890.55	14674.04
890.866	14718.33
891.182	14684.88
891.498	14735.28
891.815	14607.6
892.131	14601.95
892.447	14423.42
892.763	14486.7
893.079	14399.47
893.395	14406.02
893.71	14318.56
894.026	14242.41
894.342	14230.43
894.657	14209.19
894.973	14167.38
895.289	14135.07
895.604	14128.06
895.92	14010.55
896.235	14024.56
896.55	14044.67
896.865	13950.89
897.181	13909.31
897.496	13915.41
897.811	13808.52
898.126	13760.61
898.441	13646.27
898.756	13646.49
899.071	13646.27
899.386	13700.28
899.7	13518.36
900.015	13437.23
900.33	13421.19
900.644	13384.35
900.959	13370.11
901.273	13316.78
901.588	13272.72
901.902	13202.21
902.216	13222.1
902.531	13132.38
902.845	13146.17
903.159	12998.15
903.473	12920.86
903.787	12851.94
904.101	12765.16
904.415	12861.43
904.729	12852.39
905.042	12700.08
905.356	12601.32
905.67	12666.4
905.984	12614.2
906.297	12536.24
906.611	12467.99
906.924	12447.2
907.237	12414.21
907.551	12333.76
907.864	12304.38
908.177	12305.06
908.491	12213.76
908.804	12188.22
909.117	12074.78
909.43	12015.57
909.743	12034.33
910.056	11903.49
910.368	11942.13
910.681	11886.54
910.994	11838.4
911.307	11779.2
911.619	11690.84
911.932	11656.94
912.244	11595.25
912.557	11536.04
912.869	11496.04
913.181	11514.12
913.494	11459.43
913.806	11390.05
914.118	11262.83
914.43	11245.65
914.742	11277.74
915.054	11204.75
915.366	11148.25
915.678	11147.57
915.99	11094.02
916.302	11032.55
916.613	11031.19
916.925	11004.3
917.236	10925.89
917.548	10861.93
917.859	10805.89
918.171	10779.9
918.482	10745.78
918.794	10599.11
919.105	10731.77
919.416	10609.06
919.727	10534.71
920.038	10585.1
920.349	10511.88
920.66	10412
920.971	10371.1
921.282	10411.32
921.593	10277.31
921.903	10208.62
922.214	10223.53
922.525	10225.11
922.835	10175.85
923.146	10078.22
923.456	10068.96
923.767	9999.36
924.077	10024.44
924.387	10027.83
924.697	9911
925.008	9842.3
925.318	9839.59
925.628	9900.38
925.938	9807.27
926.248	9764.33
926.558	9668.97
926.867	9576.32
927.177	9610.44
927.487	9549.2
927.796	9520.72
928.106	9510.33
928.416	9464.91
928.725	9419.48
929.034	9403.21
929.344	9365.25
929.653	9356.66
929.962	9288.87
930.271	9275.31
930.581	9221.98
930.89	9195.54
931.199	9158.93
931.508	9127.51
931.817	9106.5
932.125	9035.31
932.434	9063.34
932.743	8981.53
933.051	8892.94
933.36	8910.8
933.669	8838.93
933.977	8794.87
934.286	8741.31
934.594	8773.85
934.902	8677.81
935.21	8623.57
935.519	8626.06
935.827	8682.55
936.135	8591.48
936.443	8519.85
936.751	8483.24
937.059	8531.15
937.367	8345.84
937.674	8344.71
937.982	8351.04
938.29	8335.9
938.597	8320.53
938.905	8191.49
939.213	8216.58
939.52	8109.24
939.827	8151.04
940.135	8134.09
940.442	8036.02
940.749	8071.04
941.056	8024.04
941.363	7909.69
941.67	7965.28
941.977	7896.81
942.284	7819.75
942.591	7825.4
942.898	7803.93
943.205	7799.87
943.511	7718.51
943.818	7687.1
944.125	7693.2
944.431	7624.73
944.738	7579.98
945.044	7515.58
945.35	7407.33
945.657	7510.61
945.963	7417.05
946.269	7377.5
946.575	7309.26
946.881	7344.96
947.187	7269.71
947.493	7211.86
947.799	7175.93
948.105	7227
948.41	7093.9
948.716	7199.43
949.022	7125.98
949.327	7057.51
949.633	7038.08
949.938	6987.68
950.244	6961.7
950.549	6895.26
950.854	6888.25
951.16	6820.23
951.465	6840.34
951.77	6821.36
952.075	6708.37
952.38	6796.73
952.685	6654.58
952.99	6588.15
953.294	6660.23
953.599	6585.21
953.904	6580.69
954.209	6537.3
954.513	6509.5
954.818	6490.75
955.122	6466.57
955.426	6437.19
955.731	6403.07
956.035	6334.37
956.339	6354.03
956.643	6350.86
956.948	6279.91
957.252	6274.03
957.556	6252.34
957.86	6217.08
958.163	6211.88
958.467	6196.74
958.771	6142.73
959.075	6177.54
959.378	6052.11
959.682	6123.53
959.985	6042.62
960.289	5989.97
960.592	5951.1
960.896	5981.61
961.199	5949.29
961.502	5882.63
961.805	5858.9
962.108	5864.55
962.411	5868.62
962.714	5796.08
963.017	5758.34
963.32	5778
963.623	5742.29
963.926	5738.9
964.228	5728.51
964.531	5696.87
964.833	5672.69
965.136	5650.77
965.438	5595.4
965.741	5592.47
966.043	5516.08
966.345	5509.53
966.648	5518.57
966.95	5511.34
967.252	5418.69
967.554	5459.14
967.856	5430.66
968.158	5374.39
968.46	5394.28
968.761	5340.04
969.063	5299.14
969.365	5332.59
969.666	5238.58
969.968	5312.93
970.269	5226.37
970.571	5207.84
970.872	5193.61
971.174	5180.95
971.475	5161.97
971.776	5146.83
972.077	5059.82
972.378	5088.3
972.679	5059.15
972.98	5008.98
973.281	5049.88
973.582	5025.02
973.883	4975.53
974.183	4919.72
974.484	4936.89
974.785	4919.49
975.085	4921.98
975.386	4925.59
975.686	4888.08
975.986	4855.99
976.287	4799.94
976.587	4764.69
976.887	4805.59
977.187	4774.41
977.487	4745.48
977.787	4738.48
978.087	4685.15
978.387	4705.94
978.687	4655.09
978.987	4635.65
979.286	4584.58
979.586	4618.71
979.885	4550.23
980.185	4526.96
980.484	4527.64
980.784	4497.81
981.083	4470.69
981.382	4474.76
981.682	4466.17
981.981	4394.31
982.28	4386.85
982.579	4368.54
982.878	4353.63
983.177	4299.39
983.475	4305.95
983.774	4292.84
984.073	4271.14
984.372	4258.04
984.67	4263.91
984.969	4240.86
985.267	4212.84
985.566	4178.49
985.864	4159.06
986.162	4119.74
986.461	4074.77
986.759	4087.19
987.057	4068.21
987.355	4020.08
987.653	4019.4
987.951	4009.23
988.249	3960.87
988.547	4003.81
988.844	3944.37
989.142	3962.23
989.44	3889.91
989.737	3905.05
990.035	3846.3
990.332	3890.14
990.63	3870.7
990.927	3786.86
991.224	3855.11
991.521	3766.07
991.819	3748.9
992.116	3743.93
992.413	3721.78
992.71	3694.21
993.006	3673.65
993.303	3707.32
993.6	3699.63
993.897	3628.68
994.193	3606.98
994.49	3609.02
994.787	3597.94
995.083	3588.22
995.379	3529.47
995.676	3531.96
995.972	3508.45
996.268	3511.62
996.565	3475.69
996.861	3432.3
997.157	3438.4
997.453	3384.39
997.749	3414.22
998.044	3375.35
998.34	3357.95
998.636	3352.98
998.932	3350.72
999.227	3301.9
999.523	3359.08
999.818	3274.79
1000.114	3265.75
1000.409	3230.72
1000.704	3227.33
1001	3190.95
1001.295	3154.56
1001.59	3209.48
1001.885	3156.82
1002.18	3117.5
1002.475	3114.11
1002.77	3117.73
1003.065	3068.01
1003.359	3088.35
1003.654	3065.98
1003.949	3032.53
1004.243	3035.7
1004.538	2980.78
1004.832	2992.53
1005.127	2996.15
1005.421	2916.6
1005.715	2926.32
1006.009	2900.79
1006.304	2888.81
1006.598	2852.65
1006.892	2883.84
1007.186	2836.38
1007.48	2863.27
1007.773	2781.92
1008.067	2794.12
1008.361	2770.62
1008.655	2769.94
1008.948	2747.34
1009.242	2742.15
1009.535	2743.05
1009.829	2722.03
1010.122	2679.32
1010.415	2654.01
1010.708	2670.73
1011.001	2647.23
1011.295	2603.84
1011.588	2647.68
1011.881	2582.38
1012.173	2583.96
1012.466	2567.91
1012.759	2541.02
1013.052	2531.76
1013.344	2528.37
1013.637	2496.05
1013.93	2456.5
1014.222	2474.58
1014.514	2440.68
1014.807	2452.66
1015.099	2428.48
1015.391	2416.28
1015.683	2378.09
1015.976	2355.71
1016.268	2407.46
1016.56	2363.17
1016.851	2326.11
1017.143	2333.12
1017.435	2298.09
1017.727	2289.5
1018.018	2251.99
1018.31	2238.66
1018.602	2248.83
1018.893	2239.11
1019.185	2191.2
1019.476	2196.17
1019.767	2192.56
1020.058	2183.06
1020.35	2164.53
1020.641	2146.23
1020.932	2125.21
1021.223	2106.68
1021.514	2090.19
1021.804	2109.62
1022.095	2048.6
1022.386	2066.23
1022.677	2033.01
1022.967	2021.03
1023.258	2001.83
1023.548	1974.26
1023.839	2008.38
1024.129	1988.04
1024.419	1959.79
1024.709	1924.99
1025	1925.67
1025.29	1895.61
1025.58	1923.86
1025.87	1884.31
1026.16	1859.68
1026.449	1855.62
1026.739	1846.12
1027.029	1818.33
1027.319	1806.35
1027.608	1834.37
1027.898	1809.97
1028.187	1786.24
1028.477	1758.67
1028.766	1738.1
1029.055	1722.96
1029.344	1735.39
1029.634	1716.18
1029.923	1682.06
1030.212	1665.79
1030.501	1643.87
1030.79	1636.41
1031.078	1632.12
1031.367	1599.35
1031.656	1643.19
1031.945	1614.49
1032.233	1626.69
1032.522	1599.58
1032.81	1588.05
1033.099	1572.91
1033.387	1558.9
1033.675	1523.87
1033.963	1524.78
1034.251	1526.36
1034.54	1499.69
1034.828	1505.12
1035.116	1505.34
1035.403	1465.12
1035.691	1489.3
1035.979	1479.81
1036.267	1423.31
1036.554	1422.63
1036.842	1426.25
1037.129	1419.47
1037.417	1416.98
1037.704	1398.9
1037.992	1390.09
1038.279	1376.08
1038.566	1377.66
1038.853	1377.66
1039.14	1377.66
