Data from aluminium_surface_pro_back_FLMS001491_00077.txt Node
Date: Wed Feb 08 15:34:32 GMT 2017
User: dcchb
Spectrometer: FLMS00149
Trigger mode: 0
Integration Time (sec): 2.000000E-2
Scans to average: 10
Electric dark correction enabled: true
Nonlinearity correction enabled: false
Boxcar width: 0
XAxis mode: Wavelengths
Number of Pixels in Spectrum: 2048
>>>>>Begin Spectral Data<<<<<
341.393	-10.8
341.776	-10.8
342.16	-10.8
342.543	-60.52
342.927	-56.68
343.31	-47.64
343.693	-86.96
344.077	-73.85
344.46	-74.31
344.843	-44.48
345.226	-27.98
345.61	-34.53
345.993	-17.81
346.376	-14.42
346.759	14.05
347.142	23.77
347.525	54.96
347.908	49.98
348.291	79.59
348.674	89.53
349.057	110.1
349.44	126.82
349.823	133.15
350.206	184.22
350.588	217.89
350.971	245.46
351.354	277.32
351.737	263.09
352.119	290.88
352.502	286.59
352.884	304.22
353.267	304.22
353.65	328.4
354.032	339.92
354.414	325.46
354.797	332.24
355.179	364.55
355.562	350.32
355.944	353.25
356.326	359.58
356.709	346.02
357.091	375.85
357.473	366.13
357.855	369.52
358.238	391.22
358.62	369.75
359.002	363.65
359.384	400.26
359.766	384.67
360.148	387.83
360.53	366.81
360.912	393.03
361.294	376.98
361.676	374.95
362.057	347.83
362.439	370.2
362.821	372.91
363.203	391.67
363.584	383.54
363.966	377.89
364.348	375.4
364.729	371.11
365.111	369.52
365.493	381.95
365.874	368.17
366.256	374.72
366.637	372.46
367.019	364.78
367.4	381.5
367.781	347.15
368.163	377.89
368.544	371.33
368.925	386.02
369.306	365.46
369.688	383.76
370.069	402.74
370.45	390.99
370.831	388.73
371.212	383.99
371.593	396.42
371.974	366.36
372.355	388.28
372.736	390.54
373.117	388.96
373.498	393.93
373.879	393.03
374.26	393.03
374.641	384.44
375.021	409.07
375.402	399.81
375.783	404.55
376.163	434.83
376.544	433.03
376.925	409.75
377.305	425.79
377.686	425.57
378.066	441.84
378.447	438.9
378.827	435.96
379.208	436.64
379.588	431.9
379.968	426.7
380.349	461.73
380.729	461.73
381.109	466.02
381.489	452.91
381.87	458.11
382.25	483.42
382.63	449.75
383.01	466.02
383.39	501.5
383.77	462.86
384.15	483.87
384.53	475.96
384.91	485.23
385.29	501.5
385.67	506.24
386.049	514.15
386.429	503.53
386.809	520.71
387.189	516.64
387.568	535.85
387.948	553.02
388.328	527.71
388.707	543.08
389.087	541.95
389.466	543.3
389.846	554.83
390.225	556.41
390.605	574.26
390.984	550.54
391.363	583.3
391.743	597.99
392.122	604.32
392.501	593.7
392.881	633.02
393.26	618.11
393.639	618.78
394.018	613.81
394.397	630.08
394.776	656.07
395.155	621.04
395.534	652.91
395.913	645.22
396.292	642.51
396.671	680.48
397.05	693.36
397.429	698.56
397.808	679.57
398.186	699.23
398.565	700.59
398.944	713.92
399.323	739.68
399.701	721.61
400.08	735.16
400.458	755.28
400.837	764.32
401.215	778.55
401.594	761.38
401.972	769.51
402.351	785.33
402.729	806.57
403.107	802.06
403.486	816.29
403.864	836.4
404.242	813.58
404.62	826.01
404.999	873.24
405.377	881.6
405.755	893.58
406.133	872.79
406.511	899.45
406.889	914.14
407.267	932
407.645	922.28
408.023	934.48
408.401	940.13
408.779	996.4
409.156	996.85
409.534	1013.8
409.912	988.72
410.29	1025.33
410.667	1060.81
411.045	1085.66
411.422	1045.44
411.8	1070.52
412.178	1076.62
412.555	1106.23
412.933	1122.95
413.31	1136.51
413.687	1152.78
414.065	1163.18
414.442	1182.84
414.819	1214.7
415.197	1207.92
415.574	1232.55
415.951	1257.18
416.328	1235.26
416.705	1267.81
417.082	1270.07
417.46	1294.47
417.837	1300.8
418.214	1295.38
418.591	1324.75
418.967	1309.84
419.344	1362.94
419.721	1380.57
420.098	1322.27
420.475	1397.52
420.852	1397.29
421.228	1416.05
421.605	1423.96
421.982	1439.1
422.358	1430.06
422.735	1454.24
423.111	1495.14
423.488	1515.93
423.864	1516.39
424.241	1534.47
424.617	1543.73
424.994	1550.28
425.37	1556.39
425.746	1571.98
426.123	1619.43
426.499	1629.38
426.875	1641.58
427.251	1676.38
427.627	1696.04
428.003	1714.12
428.379	1759.77
428.756	1783.27
429.132	1788.47
429.507	1804.97
429.883	1818.53
430.259	1885.87
430.635	1863.04
431.011	1893.78
431.387	1944.4
431.763	1948.92
432.138	1992.53
432.514	2027.11
432.89	2012.87
433.265	2055.58
433.641	2094.22
434.016	2122.7
434.392	2130.16
434.767	2198.18
435.143	2190.27
435.518	2233.2
435.894	2243.37
436.269	2247.89
436.644	2302.58
437.02	2329.02
437.395	2316.59
437.77	2360.21
438.145	2430.71
438.52	2408.79
438.895	2461.67
439.271	2511.84
439.646	2513.2
440.021	2526.98
440.395	2566.98
440.77	2519.3
441.145	2561.1
441.52	2648.79
441.895	2617.15
442.27	2634.1
442.645	2649.01
443.019	2693.76
443.394	2667.77
443.769	2725.85
444.143	2731.27
444.518	2770.82
444.892	2738.73
445.267	2784.38
445.641	2820.76
446.016	2818.27
446.39	2854.66
446.764	2876.8
447.139	2897.37
447.513	2931.72
447.887	2970.36
448.262	2933.98
448.636	2943.24
449.01	3036.57
449.384	3029.34
449.758	3042.22
450.132	3104.37
450.506	3089
450.88	3108.44
451.254	3155.44
451.628	3173.52
452.002	3212.61
452.376	3246.06
452.75	3281.76
453.123	3334.42
453.497	3420.29
453.871	3386.39
454.244	3433.17
454.618	3485.83
454.992	3541.19
455.365	3539.84
455.739	3650.34
456.112	3667.74
456.486	3717.46
456.859	3758.36
457.232	3794.07
457.606	3789.77
457.979	3839.04
458.352	3958.81
458.725	4009.43
459.099	4026.83
459.472	4075.87
459.845	4131.46
460.218	4163.32
460.591	4186.82
460.964	4231.57
461.337	4326.48
461.71	4430.89
462.083	4415.97
462.456	4500.04
462.829	4485.8
463.201	4594.05
463.574	4628.17
463.947	4671.11
464.32	4762.4
464.692	4805.34
465.065	4871.33
465.438	4907.71
465.81	5042.62
466.183	5020.7
466.555	5134.6
466.928	5206.69
467.3	5155.84
467.672	5320.13
468.045	5422.72
468.417	5443.52
468.789	5487.58
469.161	5524.64
469.534	5622.04
469.906	5783.39
470.278	5832.21
470.65	5918.08
471.022	5935.48
471.394	6085.76
471.766	6186.32
472.138	6237.17
472.51	6349.03
472.882	6474.45
473.253	6557.61
473.625	6637.38
473.997	6770.03
474.369	6815.46
474.74	6857.26
475.112	6971.61
475.484	7146.97
475.855	7262.9
476.227	7330.92
476.598	7512.84
476.97	7603.23
477.341	7781.76
477.713	7887.29
478.084	7934.07
478.455	8115.76
478.827	8198.24
479.198	8466.03
479.569	8521.4
479.94	8766.14
480.311	8796.87
480.682	8985.79
481.053	9222.62
481.424	9409.51
481.795	9440.7
482.166	9549.17
482.537	9752.33
482.908	9940.8
483.279	10027.8
483.65	10248.59
484.021	10416.72
484.391	10590.05
484.762	10646.77
485.133	10818.29
485.503	10874.11
485.874	11205.85
486.244	11311.84
486.615	11492.62
486.985	11612.84
487.356	11780.52
487.726	11936.23
488.097	12317.23
488.467	12288.98
488.837	12590.67
489.207	12668.64
489.578	12832.02
489.948	12962.19
490.318	13126.7
490.688	13211.67
491.058	13427.71
491.428	13581.61
491.798	13750.19
492.168	14008.26
492.538	14086
492.908	14279.89
493.278	14385.43
493.648	14393.56
494.017	14628.81
494.387	14815.02
494.757	14934.11
495.126	15065.63
495.496	15177.95
495.866	15316.48
496.235	15573.19
496.605	15648.44
496.974	15759.18
497.344	15985.84
497.713	16122.33
498.082	16073.29
498.452	16383.11
498.821	16437.58
499.19	16390.57
499.559	16650.68
499.928	16710.79
500.298	17001.4
500.667	17156.65
501.036	17098.8
501.405	17265.35
501.774	17292.92
502.143	17525.01
502.512	17540.15
502.88	17826.01
503.249	17804.55
503.618	17988.27
503.987	17970.19
504.356	18177.64
504.724	18299.22
505.093	18372.67
505.462	18493.12
505.83	18604.07
506.199	18819.43
506.567	19076.6
506.936	19038.41
507.304	19302.59
507.672	19340.55
508.041	19395.46
508.409	19690.6
508.777	19823.93
509.145	20059.4
509.514	19980.08
509.882	20082.9
510.25	20099.4
510.618	20475.44
510.986	20519.95
511.354	20722.89
511.722	20841.3
512.09	21060.28
512.458	21021.64
512.826	21447.61
513.193	21485.35
513.561	21657.78
513.929	21857.32
514.297	22076.07
514.664	22238.1
515.032	22291.89
515.4	22443.75
515.767	22661.59
516.135	22770.97
516.502	22695.26
516.869	23210.05
517.237	23337.73
517.604	23299.09
517.972	23696.59
518.339	23702.7
518.706	23830.83
519.073	23974.1
519.44	24252.29
519.808	24588.1
520.175	24506.29
520.542	24858.6
520.909	25055.88
521.276	24943.34
521.643	25271.02
522.009	25482.99
522.376	25722.76
522.743	25942.41
523.11	26180.37
523.477	26451.55
523.843	26612.22
524.21	26868.04
524.577	27070.29
524.943	27165.66
525.31	27350.28
525.676	27608.81
526.043	27830.5
526.409	27888.35
526.776	28366.98
527.142	28509.58
527.508	28667.31
527.874	28754.77
528.241	29063.91
528.607	28976.23
528.973	29364.69
529.339	29304.13
529.705	29667.74
530.071	29896.66
530.437	29997.22
530.803	30174.39
531.169	30467.49
531.535	30418.45
531.901	30645.56
532.267	30718.1
532.632	30885.11
532.998	30959.45
533.364	31145.44
533.73	31347.24
534.095	31707.23
534.461	31758.53
534.826	31980.9
535.192	31985.42
535.557	32215.47
535.923	32221.57
536.288	32399.42
536.653	32665.17
537.019	32497.04
537.384	32770.48
537.749	32998.5
538.114	33091.6
538.479	33253.63
538.845	33373.18
539.21	33335.66
539.575	33553.06
539.94	33637.35
540.305	33911.69
540.67	33801.41
541.034	33973.16
541.399	34095.64
541.764	34144.91
542.129	34402.53
542.494	34366.82
542.858	34525.24
543.223	34639.81
543.587	34908.5
543.952	34964.32
544.316	34989.86
544.681	34933.81
545.045	35215.16
545.41	35445.89
545.774	35469.17
546.138	35600.24
546.503	35615.38
546.867	35612.21
547.231	36105.76
547.595	35990.73
547.959	36241.58
548.324	36262.37
548.688	36281.8
549.052	36535.58
549.416	36702.81
549.779	36797.27
550.143	36810.83
550.507	37024.15
550.871	37185.73
551.235	37269.57
551.599	37576.68
551.962	37553.18
552.326	37638.6
552.689	37979.16
553.053	37759.95
553.417	37999.04
553.78	38369.43
554.143	38361.07
554.507	38450.56
554.87	38572.36
555.234	38998.56
555.597	38758.57
555.96	39071.33
556.323	39271.1
556.686	39316.52
557.05	39671.99
557.413	39674.25
557.776	39843.74
558.139	40083.06
558.502	40200.57
558.865	40215.26
559.228	40795.35
559.59	40738.63
559.953	40864.05
560.316	41357.82
560.679	41272.86
561.041	41516.46
561.404	41723.01
561.767	41932.27
562.129	41838.04
562.492	42326.61
562.854	42287.29
563.217	42405.48
563.579	42685.7
563.941	42842.76
564.304	43162.3
564.666	43413.82
565.028	43483.64
565.39	43797.31
565.753	43861.71
566.115	44035.27
566.477	44338.09
566.839	44389.38
567.201	44666.44
567.563	44806.32
567.925	45143.94
568.287	45129.93
568.648	45352.07
569.01	45626.19
569.372	45752.06
569.734	45587.54
570.095	45920.87
570.457	46148.21
570.819	46358.37
571.18	46409.9
571.542	46581.19
571.903	46774.41
572.265	46947.28
572.626	46982.76
572.987	47142.76
573.349	47354.28
573.71	47407.16
574.071	47508.62
574.432	47681.27
574.794	47883.3
575.155	47923.98
575.516	47932.79
575.877	48110.19
576.238	48204.2
576.599	48425.66
576.96	48358.54
577.32	48495.26
577.681	48591.31
578.042	48665.88
578.403	48598.31
578.763	48795.37
579.124	48909.94
579.485	49165.3
579.845	49288.46
580.206	49286.43
580.566	49217.96
580.927	49342.02
581.287	49518.06
581.648	49423.83
582.008	49575.46
582.368	49532.07
582.728	49552.86
583.089	49511.51
583.449	49656.36
583.809	49622.24
584.169	49736.14
584.529	49673.99
584.889	49956.47
585.249	49716.25
585.609	49727.77
585.969	49939.52
586.329	49711.28
586.688	49827.66
587.048	49815.68
587.408	49784.72
587.768	49783.14
588.127	49912.85
588.487	49774.78
588.846	50094.32
589.206	49873.76
589.565	49892.29
589.925	50054.09
590.284	49922.8
590.643	50012.96
591.003	50050.93
591.362	50205.73
591.721	50135.9
592.08	50083.7
592.44	50387.87
592.799	50213.19
593.158	50103.58
593.517	50137.93
593.876	50240.3
594.235	50113.98
594.593	50207.08
594.952	50288.89
595.311	50207.31
595.67	50343.8
596.029	50426.29
596.387	50574.53
596.746	50551.26
597.104	50345.16
597.463	50407.76
597.822	50548.77
598.18	50434.65
598.538	50446.63
598.897	50648.65
599.255	50372.96
599.613	50984.01
599.972	50612.72
600.33	50777.92
600.688	50617.47
601.046	50844.81
601.404	50897.69
601.762	50866.95
602.12	50943.79
602.478	51057.68
602.836	50967.06
603.194	50871.7
603.552	50910.12
603.91	50813.62
604.268	51006.38
604.625	50861.98
604.983	51062.43
605.341	50900.4
605.698	51117.57
606.056	51068.98
606.413	51069.43
606.771	51228.98
607.128	51258.58
607.485	51057.23
607.843	51127.96
608.2	51270.56
608.557	51485.69
608.914	51252.25
609.272	51435.07
609.629	51494.73
609.986	51622.64
610.343	51392.14
610.7	51667.16
611.057	51610.66
611.414	51543.32
611.771	51454.28
612.127	51621.74
612.484	51649.53
612.841	51749.42
613.198	51669.42
613.554	51691.56
613.911	51849.3
614.267	51765.46
614.624	51796.42
614.98	51818.57
615.337	52006.81
615.693	51828.06
616.05	51803.65
616.406	52032.57
616.762	52005.45
617.118	52009.52
617.475	51865.8
617.831	52012.01
618.187	52091.33
618.543	52052.69
618.899	52227.14
619.255	52174.26
619.611	52168.61
619.967	52340.14
620.323	52423.07
620.678	52303.75
621.034	52255.17
621.39	52199.8
621.746	52222.85
622.101	52560.69
622.457	52296.52
622.812	52395.95
623.168	52387.82
623.523	52413.58
623.879	52534.71
624.234	52230.53
624.589	52377.2
624.945	52413.81
625.3	52373.81
625.655	52439.57
626.01	52296.07
626.365	52386.24
626.72	52411.77
627.075	52265.11
627.43	52365.9
627.785	52243.19
628.14	52354.15
628.495	52359.34
628.85	52310.98
629.205	52346.69
629.559	52422.62
629.914	52214.26
630.269	52240.48
630.623	52168.61
630.978	52137.65
631.332	52343.98
631.687	52333.58
632.041	52111.67
632.396	52266.92
632.75	52082.97
633.104	52139.69
633.459	51963.42
633.813	52060.82
634.167	52017.88
634.521	51950.09
634.875	51962.74
635.229	51962.07
635.583	51745.12
635.937	51784.44
636.291	51648.63
636.645	51612.24
636.999	51621.96
637.352	51682.75
637.706	51484.34
638.06	51654.73
638.413	51573.38
638.767	51412.25
639.121	51481.63
639.474	51343.78
639.828	51338.13
640.181	51363.89
640.534	51325.47
640.888	51184.69
641.241	51087.29
641.594	51163.89
641.947	51174.06
642.301	50995.09
642.654	51084.35
643.007	51081.41
643.36	50991.02
643.713	51012.71
644.066	51078.7
644.419	50819.95
644.771	50684.59
645.124	50229.46
645.477	50295.22
645.83	49936.13
646.182	49842.35
646.535	49897.71
646.888	49888.9
647.24	49710.83
647.593	49760.54
647.945	49723.71
648.298	49466.54
648.65	49396.03
649.002	49275.58
649.355	49372.53
649.707	49367.56
650.059	49467.67
650.411	49967.09
650.763	50091.83
651.115	50233.3
651.467	50100.65
651.819	50050.25
652.171	49922.12
652.523	49932.74
652.875	50024.94
653.227	49885.74
653.578	50008.67
653.93	49983.59
654.282	49762.12
654.633	49629.25
654.985	49800.77
655.337	49778.85
655.688	49720.54
656.039	49850.26
656.391	49575.46
656.742	49538.4
657.094	49605.52
657.445	49635.8
657.796	49574.78
658.147	49555.58
658.498	49326.88
658.849	49481.23
659.2	49309.71
659.551	49217.73
659.902	49335.02
660.253	49198.52
660.604	49329.37
660.955	49208.92
661.306	49194.68
661.656	49080.11
662.007	49205.3
662.358	49178.64
662.708	49229.71
663.059	49145.42
663.409	48868.36
663.76	49243.27
664.11	49060.45
664.461	49138.64
664.811	49066.55
665.161	49202.14
665.511	49107.23
665.862	48995.59
666.212	49026.32
666.562	49127.34
666.912	48898.64
667.262	48940.45
667.612	48926.89
667.962	48878.76
668.312	48793.79
668.662	48996.27
669.011	48843.73
669.361	48824.3
669.711	48808.7
670.06	48696.39
670.41	48683.06
670.76	48656.62
671.109	48706.78
671.459	48724.64
671.808	48602.61
672.157	48728.25
672.507	48384.31
672.856	48369.62
673.205	48532.78
673.554	48496.39
673.904	48406.45
674.253	48605.09
674.602	48347.02
674.951	47892.57
675.3	47745
675.649	48264.08
675.998	48274.25
676.346	48366.91
676.695	48333.01
677.044	47914.49
677.393	48046.24
677.741	48073.81
678.09	47944.77
678.438	47855.73
678.787	47855.06
679.135	47943.19
679.484	47645.12
679.832	47861.61
680.181	47601.05
680.529	47753.59
680.877	47635.63
681.225	47437.44
681.573	47601.73
681.922	47450.09
682.27	47319.7
682.618	47336.65
682.966	47259.82
683.314	47326.03
683.661	47177.33
684.009	46926.72
684.357	46935.53
684.705	46852.14
685.053	46816.66
685.4	46754.75
685.748	46479.72
686.095	46581.19
686.443	46333.74
686.79	46372.38
687.138	46384.81
687.485	46441.08
687.832	46227.08
688.18	46264.59
688.527	46039.96
688.874	46034.99
689.221	45808.1
689.568	45881.55
689.915	45835.45
690.262	45730.14
690.609	45482.69
690.956	45479.52
691.303	45380.77
691.65	45240.43
691.997	45130.16
692.344	44843.84
692.69	44748.02
693.037	44796.6
693.383	44505.54
693.73	44737.4
694.077	44431.64
694.423	44429.83
694.769	44169.95
695.116	44115.27
695.462	43996.85
695.808	43985.78
696.155	44034.82
696.501	43648.61
696.847	43727.71
697.193	43403.42
697.539	43581.04
697.885	43211.79
698.231	43238
698.577	43205.46
698.923	43058.35
699.269	42875.3
699.614	42704.91
699.96	42851.35
700.306	42720.5
700.651	42470.79
700.997	42237.8
701.342	42301.53
701.688	42125.26
702.033	42018.15
702.379	41959.39
702.724	41814.99
703.069	41918.04
703.415	41371.84
703.76	41367.54
704.105	41413.87
704.45	41280.76
704.795	41161.45
705.14	40968.23
705.485	41004.84
705.83	40705.41
706.175	40851.85
706.52	40553.78
706.865	40635.58
707.209	40429.94
707.554	40283.28
707.899	40460.67
708.243	40166.67
708.588	40081.02
708.932	39807.81
709.277	39649.4
709.621	39744.08
709.966	39517.65
710.31	39660.69
710.654	39334.38
710.998	39345
711.342	39413.24
711.687	39080.37
712.031	39121.05
712.375	38759.25
712.719	38933.71
713.063	38769.42
713.407	39039.92
713.75	38796.54
714.094	38719.48
714.438	38515.41
714.782	38667.27
715.125	38328.3
715.469	38562.64
715.812	38203.11
716.156	38038.14
716.499	38006.95
716.843	38100.96
717.186	37865.04
717.53	37941.19
717.873	38002.66
718.216	37896.22
718.559	37693.51
718.902	37512.05
719.246	37580.52
719.589	37300.08
719.932	37245.16
720.275	37140.53
720.617	37147.09
720.96	37218.5
721.303	37003.59
721.646	36971.05
721.989	36834.55
722.331	37062.12
722.674	36899.19
723.016	36776.7
723.359	36682.47
723.701	36698.29
724.044	36458.52
724.386	36580.32
724.729	36550.95
725.071	36514.56
725.413	36395.24
725.755	36441.57
726.097	36211.97
726.439	36157.06
726.782	36211.29
727.124	36214.91
727.465	36000.23
727.807	36023.73
728.149	35845.2
728.491	35925.88
728.833	35866.67
729.175	35683.4
729.516	35691.08
729.858	35591.65
730.199	35606.34
730.541	35587.36
730.882	35261.49
731.224	35446.57
731.565	35242.96
731.906	35232.11
732.248	35188.72
732.589	35030.99
732.93	34841.84
733.271	34967.71
733.612	34942.63
733.953	34904.44
734.294	34645.23
734.635	34526.82
734.976	34654.5
735.317	34471.45
735.658	34474.16
735.999	34389.87
736.339	34340.61
736.68	34421.28
737.021	34179.71
737.361	34172.03
737.702	34253.38
738.042	34089.32
738.383	34008.87
738.723	34057.68
739.063	33902.43
739.404	33921.86
739.744	33949.21
740.084	33761.87
740.424	33808.19
740.764	33679.16
741.104	33759.38
741.444	33620.18
741.784	33305.61
742.124	33470.35
742.464	33388.99
742.804	33334.08
743.143	33223.35
743.483	33236
743.823	33093.64
744.162	32967.31
744.502	33037.37
744.841	32856.58
745.181	33005.5
745.52	32895.45
745.86	32979.97
746.199	32853.87
746.538	32849.12
746.877	32774.55
747.216	32632.86
747.556	32517.15
747.895	32469.02
748.234	32336.59
748.573	32284.17
748.911	32124.85
749.25	32213.21
749.589	31941.58
749.928	32091.63
750.267	32088.24
750.605	31984.96
750.944	31930.73
751.283	31780
751.621	31733.67
751.96	31505.43
752.298	31552.89
752.636	31494.58
752.975	31367.81
753.313	31345.66
753.651	31397.86
753.989	31156.06
754.327	31047.59
754.666	30787.93
755.004	31057.98
755.342	30956.52
755.679	30779.12
756.017	30698.67
756.355	30726.69
756.693	30523.53
757.031	30572.35
757.368	30357.89
757.706	30309.53
758.044	30300.71
758.381	30286.25
758.719	30085.58
759.056	30208.06
759.394	29975.75
759.731	29780.28
760.068	29686.04
760.405	29703.44
760.743	29570.56
761.08	29668.41
761.417	29407.86
761.754	29294.41
762.091	29308.42
762.428	29232.27
762.765	29049.9
763.102	29086.96
763.438	28960.64
763.775	28883.12
764.112	28819.4
764.449	28762.9
764.785	28682.23
765.122	28446.53
765.458	28298.06
765.795	28367.88
766.131	28347.09
766.467	28046.31
766.804	28043.15
767.14	27771.74
767.476	27796.83
767.812	27821.46
768.148	27796.37
768.485	27568.13
768.821	27501.69
769.157	27306.89
769.492	27202.26
769.828	27196.39
770.164	26942.16
770.5	26952.55
770.836	27002.72
771.171	26701.71
771.507	26616.74
771.842	26430.31
772.178	26386.47
772.513	26296.75
772.849	26300.14
773.184	26090.43
773.519	26065.35
773.855	25982.18
774.19	25895.63
774.525	25807.27
774.86	25630.55
775.195	25712.59
775.53	25517.34
775.865	25341.75
776.2	25171.58
776.535	25014.53
776.87	25060.85
777.205	25019.72
777.539	24778.6
777.874	24888.65
778.209	24545.16
778.543	24569.79
778.878	24533.18
779.212	24421.77
779.547	24301.1
779.881	24303.13
780.215	24150.37
780.55	24139.52
780.884	24047.77
781.218	23999.64
781.552	23882.35
781.886	23783.82
782.22	23535.69
782.554	23536.6
782.888	23370.5
783.222	23279.43
783.556	23197.17
783.889	23145.87
784.223	22935.71
784.557	22985.2
784.89	22987.01
785.224	22949.95
785.557	22843.28
785.891	22754.7
786.224	22627.02
786.558	22643.97
786.891	22390.19
787.224	22319.46
787.557	22161.04
787.891	22225.67
788.224	22275.16
788.557	22180.93
788.89	22125.56
789.223	21929.86
789.556	21851.45
789.888	21802.86
790.221	21625.46
790.554	21456.2
790.887	21509.08
791.219	21398.8
791.552	21364.68
791.884	21250.56
792.217	21178.92
792.549	21039.26
792.882	20960.85
793.214	20907.06
793.546	20919.04
793.879	20686.05
794.211	20601.76
794.543	20652.38
794.875	20541.65
795.207	20536.9
795.539	20456.45
795.871	20412.61
796.203	20191.38
796.535	20071.38
796.867	20125.61
797.198	19958.84
797.53	20042.68
797.862	19846.53
798.193	19833.19
798.525	19676.14
798.856	19725.85
799.188	19478.4
799.519	19494.45
799.85	19369.02
800.182	19392.98
800.513	19260.33
800.844	19180.55
801.175	19277.28
801.506	19224.62
801.837	19038.19
802.168	19042.93
802.499	19119.77
802.83	18900.56
803.161	18895.14
803.491	18786.67
803.822	18758.42
804.153	18671.64
804.483	18553.9
804.814	18465.77
805.145	18503.74
805.475	18541.93
805.805	18375.6
806.136	18437.07
806.466	18365.66
806.796	18248.15
807.126	18247.47
807.457	18146.91
807.787	18167.7
808.117	18077.31
808.447	18028.95
808.777	18064.65
809.107	18028.95
809.436	17868.27
809.766	17887.93
810.096	17830.31
810.426	17686.81
810.755	17702.63
811.085	17688.39
811.414	17575.85
811.744	17453.59
812.073	17450.21
812.403	17466.02
812.732	17358
813.061	17312.81
813.39	17250.89
813.719	17281.85
814.049	17267.38
814.378	17104.45
814.707	17065.36
815.036	17018.35
815.365	16904.68
815.693	16766.61
816.022	16720.96
816.351	16748.98
816.68	16590.57
817.008	16722.77
817.337	16483.45
817.665	16501.98
817.994	16525.71
818.322	16494.52
818.651	16405.26
818.979	16342.66
819.307	16385.6
819.636	16321.87
819.964	16290.01
820.292	16283
820.62	16180.41
820.948	16068.09
821.276	16179.73
821.604	16246.85
821.932	16141.54
822.259	16262.67
822.587	16157.81
822.915	16139.73
823.243	16276.68
823.57	16221.31
823.898	16220.41
824.225	16057.47
824.553	16116
824.88	16197.58
825.207	16125.72
825.535	16116.91
825.862	16141.09
826.189	16081.43
826.516	16165.49
826.843	16252.95
827.17	16106.06
827.497	16119.39
827.824	16108.55
828.151	16187.19
828.478	16039.17
828.805	16230.58
829.131	16056.8
829.458	16096.57
829.785	16075.1
830.111	16064.7
830.438	16158.26
830.764	16125.49
831.09	16159.39
831.417	15980.64
831.743	15993.75
832.069	16108.32
832.395	15893.86
832.722	16066.06
833.048	15897.03
833.374	16077.36
833.7	15940.19
834.026	16017.47
834.351	15979.96
834.677	15987.42
835.003	16044.59
835.329	15908.1
835.654	15923.47
835.98	15894.77
836.306	15938.83
836.631	15782.68
836.956	15858.61
837.282	15788.78
837.607	15618.84
837.932	15659.07
838.258	15686.64
838.583	15636.24
838.908	15642.34
839.233	15619.52
839.558	15586.07
839.883	15573.87
840.208	15496.81
840.533	15487.09
840.858	15407.77
841.182	15411.39
841.507	15479.18
841.832	15356.7
842.156	15353.76
842.481	15343.37
842.805	15232.41
843.13	15275.35
843.454	15261.56
843.778	15065.18
844.103	15175.69
844.427	15133.2
844.751	15135.69
845.075	15020.44
845.399	15049.59
845.723	14883.94
846.047	14980.89
846.371	14799.88
846.695	14791.52
847.019	14670.17
847.343	14504.75
847.666	14543.39
847.99	14498.42
848.313	14512.2
848.637	14452.77
848.96	14454.35
849.284	14460.91
849.607	14321.25
849.931	14275.83
850.254	14178.88
850.577	14036.74
850.9	13998.77
851.223	14027.92
851.546	13977.08
851.869	13940.01
852.192	13970.97
852.515	13835.61
852.838	13753.81
853.161	13707.93
853.483	13685.78
853.806	13650.08
854.129	13498.67
854.451	13520.59
854.774	13509.74
855.096	13395.4
855.419	13446.69
855.741	13393.36
856.063	13309.3
856.385	13247.83
856.708	13257.55
857.03	13229.53
857.352	13244.89
857.674	13150.21
857.996	13051.45
858.318	12994.5
858.64	13084.44
858.961	12978.68
859.283	12861.17
859.605	12851.68
859.926	12885.58
860.248	12774.85
860.57	12820.72
860.891	12862.76
861.212	12754.51
861.534	12851
861.855	12746.6
862.176	12722.65
862.498	12776.88
862.819	12726.71
863.14	12619.15
863.461	12634.29
863.782	12581.18
864.103	12679.26
864.424	12672.48
864.745	12707.28
865.065	12587.73
865.386	12516.32
865.707	12451.92
866.027	12533.05
866.348	12474.74
866.668	12550.22
866.989	12529.43
867.309	12406.95
867.63	12373.28
867.95	12436.55
868.27	12351.81
868.59	12364.46
868.91	12299.38
869.23	12294.63
869.55	12214.41
869.87	12288.08
870.19	12223.9
870.51	12230.91
870.83	12219.83
871.15	12208.08
871.469	12134.64
871.789	12163.34
872.109	12134.64
872.428	12065.49
872.748	12119.95
873.067	12160.17
873.386	12177.8
873.706	11966.06
874.025	11964.47
874.344	11984.36
874.663	11950.69
874.982	12022.1
875.301	12008.31
875.62	11937.58
875.939	11953.85
876.258	11855.32
876.577	11923.8
876.896	11908.88
877.214	11839.05
877.533	11840.41
877.852	11879.05
878.17	11902.55
878.489	11875.44
878.807	11787.3
879.125	11744.59
879.444	11787.76
879.762	11791.82
880.08	11707.08
880.398	11737.36
880.716	11698.04
881.034	11684.71
881.352	11640.87
881.67	11617.36
881.988	11647.87
882.306	11554.99
882.624	11566.74
882.941	11528.78
883.259	11458.5
883.577	11433.19
883.894	11378.05
884.212	11434.77
884.529	11370.82
884.846	11416.69
885.164	11369.46
885.481	11316.13
885.798	11302.34
886.115	11242.91
886.432	11287.88
886.75	11208.79
887.067	11307.32
887.383	11138.51
887.7	11186.87
888.017	11135.34
888.334	11188.22
888.651	11148
888.967	11015.57
889.284	11048.79
889.6	11058.73
889.917	10893.54
890.233	10976.25
890.55	10874.56
890.866	10866.88
891.182	10818.97
891.498	10809.25
891.815	10754.34
892.131	10794.11
892.447	10795.24
892.763	10679.54
893.079	10722.92
893.395	10731.74
893.71	10658.29
894.026	10663.49
894.342	10569.03
894.657	10496.26
894.973	10500.78
895.289	10441.8
895.604	10503.72
895.92	10465.76
896.235	10406.77
896.55	10367
896.865	10392.99
897.181	10344.86
897.496	10305.53
897.811	10252.88
898.126	10269.6
898.441	10183.5
898.756	10151.64
899.071	10164.29
899.386	10196.38
899.7	10003.62
900.015	10005.88
900.33	9991.87
900.644	9933.34
900.959	9948.48
901.273	9992.1
901.588	9927.24
901.902	9917.07
902.216	9880.69
902.531	9813.34
902.845	9790.29
903.159	9717.53
903.473	9722.95
903.787	9652.67
904.101	9616.51
904.415	9629.17
904.729	9629.17
905.042	9544.88
905.356	9517.53
905.67	9476.86
905.984	9522.05
906.297	9472.11
906.611	9426.91
906.924	9411.55
907.237	9346.46
907.551	9381.72
907.864	9343.07
908.177	9268.73
908.491	9215.85
908.804	9185.56
909.117	9164.77
909.43	9132.01
909.743	9058.56
910.056	9049.75
910.368	8958.45
910.681	9028.28
910.994	8944.21
911.307	8952.8
911.619	8813.37
911.932	8860.15
912.244	8833.71
912.557	8810.66
912.869	8687.95
913.181	8688.85
913.494	8642.75
913.806	8654.5
914.118	8601.85
914.43	8534.06
914.742	8547.39
915.054	8510.55
915.366	8500.16
915.678	8445.24
915.99	8408.86
916.302	8370.22
916.613	8322.99
916.925	8353.04
917.236	8315.76
917.548	8259.26
917.859	8240.96
918.171	8192.6
918.482	8109.89
918.794	8072.15
919.105	8154.18
919.416	8068.08
919.727	8068.98
920.038	8051.13
920.349	8008.65
920.66	7956.9
920.971	7918.25
921.282	7909.66
921.593	7820.85
921.903	7807.75
922.214	7816.79
922.525	7732.72
922.835	7723.68
923.146	7668.77
923.456	7713.06
923.767	7640.75
924.077	7536.79
924.387	7565.04
924.697	7537.47
925.008	7541.76
925.318	7497.02
925.628	7467.64
925.938	7422.67
926.248	7339.74
926.558	7377.48
926.867	7351.26
927.177	7398.04
927.487	7287.99
927.796	7211.15
928.106	7234.2
928.416	7146.97
928.725	7222.68
929.034	7109.69
929.344	7122.57
929.653	7128.89
929.962	7048.22
930.271	7036.02
930.581	7033.3
930.89	7015.45
931.199	6959.18
931.508	6972.74
931.817	6972.97
932.125	6923.48
932.434	6877.83
932.743	6787.89
933.051	6780.43
933.36	6745.4
933.669	6725.29
933.977	6746.08
934.286	6716.7
934.594	6701.79
934.902	6652.75
935.21	6621.34
935.519	6627.44
935.827	6603.48
936.135	6575.69
936.443	6511.28
936.751	6492.53
937.059	6502.7
937.367	6410.5
937.674	6429.48
937.982	6404.39
938.29	6363.72
938.597	6397.16
938.905	6296.83
939.213	6257.96
939.52	6232.87
939.827	6233.32
940.135	6195.59
940.442	6190.39
940.749	6186.55
941.056	6183.16
941.363	6126.89
941.67	6065.19
941.977	6023.84
942.284	5995.59
942.591	6017.96
942.898	5969.15
943.205	5969.15
943.511	5921.02
943.818	5939.55
944.125	5845.76
944.431	5888.48
944.738	5865.42
945.044	5813.45
945.35	5752.89
945.657	5742.26
945.963	5712.89
946.269	5726.67
946.575	5682.83
946.881	5683.51
947.187	5616.17
947.493	5617.3
947.799	5599.67
948.105	5562.61
948.41	5563.51
948.716	5511.08
949.022	5476.73
949.327	5497.52
949.633	5420.92
949.938	5438.77
950.244	5384.08
950.549	5349.28
950.854	5365.78
951.16	5305.67
951.465	5310.19
951.77	5337.98
952.075	5254.59
952.38	5241.26
952.685	5234.03
952.99	5154.26
953.294	5190.64
953.599	5149.29
953.904	5078.55
954.209	5082.85
954.513	5084.88
954.818	5084.88
955.122	5056.63
955.426	4976.18
955.731	5031.77
956.035	4989.74
956.339	4971.89
956.643	4960.82
956.948	4850.54
957.252	4864.32
957.556	4860.71
957.86	4862.06
958.163	4848.5
958.467	4856.64
958.771	4832.91
959.075	4773.48
959.378	4721.73
959.682	4716.3
959.985	4715.85
960.289	4742.29
960.592	4676.3
960.896	4632.46
961.199	4687.6
961.502	4654.38
961.805	4586.59
962.108	4560.15
962.411	4604.89
962.714	4575.74
963.017	4556.53
963.32	4552.24
963.623	4478.12
963.926	4484.44
964.228	4458
964.531	4446.25
964.833	4525.12
965.136	4428.85
965.438	4346.82
965.741	4383.66
966.043	4369.87
966.345	4303.66
966.648	4332.36
966.95	4334.62
967.252	4281.29
967.554	4250.55
967.856	4208.75
968.158	4220.27
968.46	4206.26
968.761	4200.61
969.063	4213.94
969.365	4159.03
969.666	4158.13
969.968	4112.7
970.269	4102.99
970.571	4051.24
970.872	4064.79
971.174	4059.82
971.475	4026.15
971.776	3999.71
972.077	3995.42
972.378	3941.18
972.679	3958.58
972.98	3950.45
973.281	3936.89
973.582	3932.59
973.883	3907.96
974.183	3881.07
974.484	3870.45
974.785	3833.61
975.085	3831.35
975.386	3860.28
975.686	3826.38
975.986	3784.58
976.287	3804.24
976.587	3707.52
976.887	3748.64
977.187	3731.24
977.487	3741.41
977.787	3710.45
978.087	3654.86
978.387	3625.71
978.687	3606.05
978.987	3583.68
979.286	3620.29
979.586	3580.29
979.885	3563.11
980.185	3579.38
980.484	3563.34
980.784	3528.31
981.083	3504.81
981.382	3469.56
981.682	3475.21
981.981	3461.42
982.28	3426.84
982.579	3419.39
982.878	3419.61
983.177	3415.09
983.475	3383.23
983.774	3444.25
984.073	3356.79
984.372	3291.93
984.67	3340.97
984.969	3359.5
985.267	3332.38
985.566	3298.71
985.864	3269.56
986.162	3283.12
986.461	3230.47
986.759	3209.22
987.057	3225.95
987.355	3166.96
987.653	3176.46
987.951	3202.9
988.249	3156.34
988.547	3166.06
988.844	3112.5
989.142	3147.3
989.44	3082.67
989.737	3119.96
990.035	3072.05
990.332	3055.56
990.63	3029.12
990.927	3042.22
991.224	3037.48
991.521	3030.92
991.819	2965.16
992.116	2992.73
992.413	2938.27
992.71	2946.86
993.006	2948.21
993.303	2890.59
993.6	2890.14
993.897	2888.33
994.193	2865.28
994.49	2882.23
994.787	2850.36
995.083	2829.8
995.379	2776.92
995.676	2794.09
995.972	2799.74
996.268	2766.75
996.565	2771.27
996.861	2758.84
997.157	2719.07
997.453	2731.72
997.749	2720.87
998.044	2712.74
998.34	2697.15
998.636	2630.48
998.932	2625.06
999.227	2626.64
999.523	2605.4
999.818	2585.06
1000.114	2562.46
1000.409	2583.25
1000.704	2589.35
1001	2552.52
1001.295	2545.06
1001.59	2533.99
1001.885	2515.68
1002.18	2473.42
1002.475	2483.37
1002.77	2488.79
1003.065	2467.1
1003.359	2426.42
1003.654	2471.62
1003.949	2430.94
1004.243	2420.77
1004.538	2393.65
1004.832	2398.85
1005.127	2415.8
1005.421	2353.43
1005.715	2362.92
1006.009	2310.72
1006.304	2340.09
1006.598	2321.79
1006.892	2303.26
1007.186	2275.01
1007.48	2276.14
1007.773	2255.58
1008.067	2236.14
1008.361	2234.79
1008.655	2196.37
1008.948	2199.31
1009.242	2206.31
1009.535	2156.82
1009.829	2172.19
1010.122	2154.11
1010.415	2145.52
1010.708	2134
1011.001	2110.95
1011.295	2124.73
1011.588	2073.21
1011.881	2068.24
1012.173	2055.81
1012.466	2067.11
1012.759	2046.77
1013.052	2052.87
1013.344	2061.68
1013.637	1990.95
1013.93	2015.36
1014.222	2002.93
1014.514	1969.26
1014.807	1950.05
1015.099	1969.26
1015.391	1962.7
1015.683	1961.12
1015.976	1916.15
1016.268	1928.58
1016.56	1917.05
1016.851	1885.64
1017.143	1864.17
1017.435	1865.53
1017.727	1857.17
1018.018	1867.34
1018.31	1852.42
1018.602	1814.46
1018.893	1801.35
1019.185	1756.15
1019.476	1762.48
1019.767	1791.18
1020.058	1760.22
1020.35	1748.7
1020.641	1734.69
1020.932	1723.84
1021.223	1705.08
1021.514	1708.25
1021.804	1697.4
1022.095	1680.68
1022.386	1657.63
1022.677	1683.84
1022.967	1649.49
1023.258	1628.25
1023.548	1627.8
1023.839	1597.29
1024.129	1635.25
1024.419	1604.97
1024.709	1566.1
1025	1556.39
1025.29	1555.71
1025.58	1565.65
1025.87	1524.07
1026.16	1529.72
1026.449	1503.73
1026.739	1521.13
1027.029	1511.87
1027.319	1463.28
1027.608	1498.99
1027.898	1478.2
1028.187	1464.18
1028.477	1441.36
1028.766	1474.35
1029.055	1416.95
1029.344	1423.28
1029.634	1407.91
1029.923	1404.3
1030.212	1390.97
1030.501	1408.14
1030.79	1381.02
1031.078	1374.92
1031.367	1343.51
1031.656	1350.97
1031.945	1331.98
1032.233	1329.5
1032.522	1351.19
1032.81	1329.72
1033.099	1305.54
1033.387	1296.51
1033.675	1333.57
1033.963	1252.44
1034.251	1286.11
1034.54	1261.48
1034.828	1245.43
1035.116	1226.9
1035.403	1232.33
1035.691	1197.3
1035.979	1212.21
1036.267	1219.45
1036.554	1206.56
1036.842	1175.38
1037.129	1171.31
1037.417	1177.19
1037.704	1171.09
1037.992	1151.88
1038.279	1146.23
1038.566	1136.28
1038.853	1136.28
1039.14	1136.28
