Data from aluminium_surface_pro_back_FLMS001491_00029.txt Node
Date: Wed Feb 08 15:33:50 GMT 2017
User: dcchb
Spectrometer: FLMS00149
Trigger mode: 0
Integration Time (sec): 2.000000E-2
Scans to average: 10
Electric dark correction enabled: true
Nonlinearity correction enabled: false
Boxcar width: 0
XAxis mode: Wavelengths
Number of Pixels in Spectrum: 2048
>>>>>Begin Spectral Data<<<<<
341.393	-3.76
341.776	-3.76
342.16	-3.76
342.543	-81.95
342.927	-79.91
343.31	-58.67
343.693	-54.15
344.077	-86.92
344.46	-75.85
344.843	-52.8
345.226	-35.39
345.61	-26.58
345.993	-18.9
346.376	-11.44
346.759	18.16
347.142	33.53
347.525	34.66
347.908	52.06
348.291	87.54
348.674	84.38
349.057	110.36
349.44	129.35
349.823	134.54
350.206	172.74
350.588	208.21
350.971	243.69
351.354	251.6
351.737	274.65
352.119	301.77
352.502	277.82
352.884	308.78
353.267	311.49
353.65	332.73
354.032	322.79
354.414	337.7
354.797	347.65
355.179	355.78
355.562	342.22
355.944	371.15
356.326	371.6
356.709	359.17
357.091	360.3
357.473	363.47
357.855	364.14
358.238	356.69
358.62	391.03
359.002	363.24
359.384	361.88
359.766	352.39
360.148	356.69
360.53	379.06
360.912	377.93
361.294	364.59
361.676	373.63
362.057	388.55
362.439	367.98
362.821	354.88
363.203	372.5
363.584	366.63
363.966	372.5
364.348	368.44
364.729	358.95
365.111	374.99
365.493	363.01
365.874	374.76
366.256	357.59
366.637	349.91
367.019	367.08
367.4	367.08
367.781	357.36
368.163	351.04
368.544	352.84
368.925	376.12
369.306	386.74
369.688	377.7
370.069	385.16
370.45	379.51
370.831	368.21
371.212	351.49
371.593	369.57
371.974	387.87
372.355	386.97
372.736	365.72
373.117	382
373.498	376.8
373.879	380.19
374.26	381.54
374.641	370.02
375.021	393.75
375.402	396.46
375.783	393.75
376.163	411.6
376.544	414.31
376.925	412.05
377.305	434.2
377.686	402.79
378.066	424.48
378.447	410.02
378.827	423.12
379.208	425.84
379.588	436.01
379.968	443.01
380.349	458.15
380.729	443.24
381.109	422.45
381.489	445.72
381.87	457.25
382.25	467.42
382.63	469.22
383.01	450.69
383.39	469.68
383.77	459.73
384.15	471.71
384.53	494.76
384.91	475.78
385.29	487.08
385.67	479.17
386.049	487.08
386.429	500.18
386.809	506.51
387.189	494.99
387.568	506.74
387.948	515.1
388.328	530.69
388.707	532.73
389.087	550.58
389.466	527.3
389.846	567.08
390.225	545.61
390.605	560.75
390.984	567.3
391.363	563.91
391.743	571.82
392.122	604.36
392.501	584.25
392.881	614.98
393.26	589.22
393.639	618.37
394.018	614.98
394.397	637.36
394.776	613.4
395.155	630.35
395.534	630.35
395.913	643.01
396.292	644.14
396.671	661.31
397.05	691.82
397.429	661.54
397.808	678.26
398.186	690.24
398.565	683.46
398.944	704.7
399.323	700.41
399.701	710.35
400.08	738.37
400.458	737.69
400.837	766.62
401.215	733.4
401.594	772.27
401.972	767.75
402.351	763.91
402.729	779.95
403.107	809.1
403.486	797.8
403.864	822.44
404.242	821.98
404.62	836.45
404.999	853.62
405.377	838.48
405.755	856.33
406.133	860.85
406.511	875.77
406.889	874.86
407.267	883.45
407.645	916.9
408.023	919.61
408.401	920.96
408.779	943.56
409.156	963
409.534	968.19
409.912	1003.67
410.29	1023.56
410.667	1040.74
411.045	1040.51
411.422	1033.5
411.8	1050.45
412.178	1066.27
412.555	1062.88
412.933	1112.6
413.31	1107.4
413.687	1123.45
414.065	1120.96
414.442	1157.12
414.819	1158.25
415.197	1166.61
415.574	1208.64
415.951	1212.26
416.328	1205.93
416.705	1222.2
417.082	1238.92
417.46	1245.7
417.837	1281.18
418.214	1280.96
418.591	1272.82
418.967	1287.51
419.344	1344
419.721	1348.3
420.098	1331.8
420.475	1353.27
420.852	1390.33
421.228	1417.22
421.605	1399.82
421.982	1425.13
422.358	1429.43
422.735	1435.98
423.111	1451.8
423.488	1518.24
423.864	1462.65
424.241	1497.67
424.617	1513.72
424.994	1538.12
425.37	1572.92
425.746	1546.71
426.123	1608.86
426.499	1583.77
426.875	1630.32
427.251	1676.88
427.627	1675.75
428.003	1706.25
428.379	1700.38
428.756	1740.83
429.132	1738.8
429.507	1793.94
429.883	1803.88
430.259	1836.42
430.635	1836.42
431.011	1872.13
431.387	1913.71
431.763	1930.2
432.138	1922.75
432.514	1965.91
432.89	1996.42
433.265	2013.14
433.641	2093.36
434.016	2088.17
434.392	2097.88
434.767	2175.85
435.143	2147.82
435.518	2175.17
435.894	2206.35
436.269	2248.16
436.644	2277.09
437.02	2273.47
437.395	2299.23
437.77	2341.72
438.145	2381.27
438.52	2389.63
438.895	2395.5
439.271	2426.24
439.646	2494.93
440.021	2475.73
440.395	2496.29
440.77	2513.24
441.145	2523.63
441.52	2546.46
441.895	2581.71
442.27	2600.69
442.645	2604.99
443.019	2637.98
443.394	2628.72
443.769	2686.12
444.143	2691.77
444.518	2716.85
444.892	2729.73
445.267	2753.68
445.641	2776.51
446.016	2805.89
446.39	2791.65
446.764	2842.5
447.139	2844.76
447.513	2873
447.887	2896.28
448.262	2903.74
448.636	2902.16
449.01	2985.99
449.384	3001.14
449.758	2991.19
450.132	3067.35
450.506	3088.59
450.88	3107.12
451.254	3078.2
451.628	3144.86
452.002	3201.58
452.376	3229.83
452.75	3248.36
453.123	3249.04
453.497	3334.69
453.871	3327.45
454.244	3398.19
454.618	3424.63
454.992	3498.75
455.365	3512.31
455.739	3615.81
456.112	3596.37
456.486	3674.79
456.859	3676.6
457.232	3724.05
457.606	3741.68
457.979	3816.03
458.352	3904.16
458.725	3936.93
459.099	3983.03
459.472	4065.51
459.845	4077.04
460.218	4137.83
460.591	4162.01
460.964	4208.79
461.337	4273.87
461.71	4347.09
462.083	4426.18
462.456	4430.25
462.829	4449.69
463.201	4541.89
463.574	4562
463.947	4611.94
464.32	4737.59
464.692	4757.25
465.065	4821.88
465.438	4858.49
465.81	4951.82
466.183	5003.57
466.555	5086.28
466.928	5158.37
467.3	5120.18
467.672	5216.22
468.045	5419.15
468.417	5370.11
468.789	5447.4
469.161	5502.54
469.534	5567.4
469.906	5744.79
470.278	5706.15
470.65	5802.87
471.022	5952.02
471.394	6043.77
471.766	6074.73
472.138	6198.34
472.51	6304.55
472.882	6349.3
473.253	6446.24
473.625	6576.86
473.997	6723.3
474.369	6757.87
474.74	6808.95
475.112	6981.6
475.484	7061.14
475.855	7177.98
476.227	7300.23
476.598	7521.24
476.97	7496.61
477.341	7711.75
477.713	7750.16
478.084	7906.77
478.455	8106.31
478.827	8155.35
479.198	8384.72
479.569	8422.46
479.94	8673.08
480.311	8734.32
480.682	8963.46
481.053	9149
481.424	9298.6
481.795	9407.52
482.166	9518.7
482.537	9646.16
482.908	9824.69
483.279	9972.03
483.65	10152.59
484.021	10307.38
484.391	10447.72
484.762	10535.85
485.133	10804.77
485.503	10900.36
485.874	11045.9
486.244	11218.55
486.615	11398.66
486.985	11477.98
487.356	11728.82
487.726	11803.84
488.097	12122.48
488.467	12134.23
488.837	12397.05
489.207	12576.93
489.578	12690.15
489.948	12890.37
490.318	13080.87
490.688	13038.84
491.058	13363.35
491.428	13503.01
491.798	13602.66
492.168	13872.71
492.538	13954.29
492.908	14049.88
493.278	14348.41
493.648	14352.02
494.017	14604.22
494.387	14681.05
494.757	14878.11
495.126	15092.57
495.496	15115.62
495.866	15266.35
496.235	15422.5
496.605	15568.94
496.974	15642.84
497.344	15807.35
497.713	15981.59
498.082	16020.23
498.452	16218.87
498.821	16267.45
499.19	16371.86
499.559	16523.04
499.928	16631.74
500.298	16722.36
500.667	17004.61
501.036	16948.11
501.405	17095.45
501.774	17164.83
502.143	17392.85
502.512	17431.04
502.88	17606.4
503.249	17638.72
503.618	17824.02
503.987	17865.83
504.356	17938.14
504.724	18080.06
505.093	18130.23
505.462	18310.79
505.83	18453.38
506.199	18614.74
506.567	18783.09
506.936	18820.61
507.304	19098.34
507.672	19150.32
508.041	19275.06
508.409	19498.1
508.777	19568.61
509.145	19745.55
509.514	19893.12
509.882	20010.18
510.25	20154.13
510.618	20217.63
510.986	20321.81
511.354	20551.86
511.722	20705.76
512.09	20941.91
512.458	20935.81
512.826	21189.36
513.193	21187.32
513.561	21338.96
513.929	21532.63
514.297	21783.47
514.664	21914.99
515.032	21970.35
515.4	22180.29
515.767	22392.49
516.135	22519.94
516.502	22485.6
516.869	22711.13
517.237	22965.36
517.604	22907.51
517.972	23215.29
518.339	23431.33
518.706	23506.81
519.073	23585.23
519.44	23669.07
519.808	24097.08
520.175	24177.08
520.542	24480.57
520.909	24634.47
521.276	24623.17
521.643	25000.11
522.009	25132.31
522.376	25367.55
522.743	25548.57
523.11	25833.76
523.477	26151.26
523.843	26162.79
524.21	26491.59
524.577	26724.58
524.943	26765.03
525.31	26968.19
525.676	27329.76
526.043	27535.86
526.409	27642.3
526.776	27893.59
527.142	27956.64
527.508	28096.52
527.874	28346.91
528.241	28456.06
528.607	28667.13
528.973	28923.62
529.339	28857.63
529.705	29117.29
530.071	29580.1
530.437	29594.79
530.803	29756.82
531.169	30017.83
531.535	29849.24
531.901	29990.71
532.267	30401.32
532.632	30477.25
532.998	30769.22
533.364	30860.52
533.73	30961.08
534.095	31300.73
534.461	31304.8
534.826	31500.05
535.192	31623.21
535.557	31795.41
535.923	31753.83
536.288	31863.65
536.653	32047.38
537.019	31982.97
537.384	32262.51
537.749	32297.54
538.114	32458.67
538.479	32553.81
538.845	32701.15
539.21	32648.04
539.575	32990.4
539.94	32981.59
540.305	33337.29
540.67	33122.6
541.034	33305.65
541.399	33524.18
541.764	33512.65
542.129	33685.98
542.494	33862.7
542.858	33744.51
543.223	34012.98
543.587	34232.18
543.952	34309.47
544.316	34390.59
544.681	34417.48
545.045	34493.64
545.41	34665.16
545.774	34823.35
546.138	34873.07
546.503	34927.3
546.867	35011.59
547.231	35373.17
547.595	35511.47
547.959	35515.76
548.324	35531.81
548.688	35699.26
549.052	35903.32
549.416	35780.61
549.779	35953.94
550.143	36018.35
550.507	36390.09
550.871	36405.91
551.235	36463.98
551.599	36711.21
551.962	36835.27
552.326	36985.55
552.689	37130.41
553.053	37014.48
553.417	37236.85
553.78	37715.25
554.143	37517.06
554.507	37642.94
554.87	37875.93
555.234	38263.26
555.597	38116.82
555.96	38291.73
556.323	38627.32
556.686	38446.76
557.05	38938.5
557.413	38904.6
557.776	39192.95
558.139	39333.97
558.502	39427.07
558.865	39546.62
559.228	39871.13
559.59	40062.53
559.953	40040.16
560.316	40590.2
560.679	40503.65
561.041	40682.18
561.404	40935.96
561.767	41132.11
562.129	41047.59
562.492	41475.38
562.854	41503.4
563.217	41634.7
563.579	41779.1
563.941	42097.51
564.304	42245.53
564.666	42547.21
565.028	42671.05
565.39	42789.24
565.753	43086.41
566.115	43189.01
566.477	43440.75
566.839	43577.47
567.201	43847.75
567.563	43998.93
567.925	44223.1
568.287	44219.04
568.648	44290.9
569.01	44623.77
569.372	44848.62
569.734	44832.58
570.095	45111.44
570.457	45444.99
570.819	45519.57
571.18	45502.17
571.542	45899.44
571.903	45892.89
572.265	46045.2
572.626	46141.02
572.987	46240.68
573.349	46433.67
573.71	46697.61
574.071	46750.49
574.432	46666.2
574.794	47071.62
575.155	46931.96
575.516	47007.21
575.877	47304.38
576.238	47309.8
576.599	47467.31
576.96	47589.12
577.32	47622.79
577.681	47846.28
578.042	47941.88
578.403	47933.06
578.763	47953.63
579.124	48144.13
579.485	48300.51
579.845	48288.08
580.206	48336.21
580.566	48287.4
580.927	48408.98
581.287	48547.73
581.648	48452.82
582.008	48569.2
582.368	48545.93
582.728	48585.7
583.089	48666.15
583.449	48700.95
583.809	48631.12
584.169	48799.71
584.529	48681.29
584.889	49010.77
585.249	48864.56
585.609	48775.98
585.969	49102.3
586.329	48944.56
586.688	48991.56
587.048	49019.59
587.408	48911.34
587.768	48924.9
588.127	48904.11
588.487	48778.46
588.846	49010.55
589.206	48939.36
589.565	48824.11
589.925	49037.67
590.284	48928.06
590.643	49137.32
591.003	49018.68
591.362	49155.85
591.721	49097.32
592.08	49171
592.44	49244.21
592.799	49284.21
593.158	49138
593.517	49257.32
593.876	49409.18
594.235	49344.32
594.593	49289.18
594.952	49372.35
595.311	49109.08
595.67	49403.31
596.029	49638.78
596.387	49620.93
596.746	49604.88
597.104	49562.62
597.463	49461.84
597.822	49615.05
598.18	49474.04
598.538	49585.22
598.897	49690.08
599.255	49378.67
599.613	49976.4
599.972	49657.99
600.33	49841.26
600.688	49725.1
601.046	49848.72
601.404	49943.18
601.762	49963.74
602.12	50111.08
602.478	50100.69
602.836	50041.48
603.194	49919
603.552	49975.49
603.91	49870.64
604.268	50159.9
604.625	49978.43
604.983	50078.54
605.341	50016.4
605.698	50280.57
606.056	50182.27
606.413	50151.99
606.771	50256.39
607.128	50262.72
607.485	50182.04
607.843	50283.51
608.2	50474.01
608.557	50643.72
608.914	50528.02
609.272	50741.58
609.629	50753.55
609.986	50898.41
610.343	50749.26
610.7	50956.94
611.057	50856.15
611.414	50882.81
611.771	50830.84
612.127	50853.44
612.484	50971.17
612.841	51022.92
613.198	50949.93
613.554	51072.41
613.911	51270.83
614.267	51137.72
614.624	51077.84
614.98	51218.17
615.337	51391.95
615.693	51320.77
616.05	51194.44
616.406	51495
616.762	51437.38
617.118	51265.18
617.475	51325.29
617.831	51460.2
618.187	51422.01
618.543	51468.11
618.899	51695.22
619.255	51512.18
619.611	51519.18
619.967	51600.08
620.323	51630.14
620.678	51622.68
621.034	51501.78
621.39	51502.01
621.746	51463.82
622.101	51665.39
622.457	51467.21
622.812	51565.51
623.168	51705.17
623.523	51669.46
623.879	51716.01
624.234	51481.22
624.589	51657.03
624.945	51647.77
625.3	51738.16
625.655	51678.95
626.01	51690.48
626.365	51687.77
626.72	51594.21
627.075	51485.51
627.43	51473.99
627.785	51557.83
628.14	51573.42
628.495	51608.67
628.85	51559.63
629.205	51458.39
629.559	51683.47
629.914	51453.2
630.269	51412.97
630.623	51373.65
630.978	51287.78
631.332	51404.61
631.687	51484.83
632.041	51325.51
632.396	51408.22
632.75	51222.24
633.104	51349.02
633.459	51245.07
633.813	51154.67
634.167	51223.37
634.521	51201.22
634.875	51266.76
635.229	51166.2
635.583	51055.69
635.937	51030.38
636.291	51004.85
636.645	50899.99
636.999	50822.48
637.352	50941.34
637.706	50703.16
638.06	50822.93
638.413	50624.06
638.767	50650.05
639.121	50684.18
639.474	50523.05
639.828	50430.17
640.181	50431.75
640.534	50543.84
640.888	50346.78
641.241	50305.2
641.594	50349.72
641.947	50409.61
642.301	50293.45
642.654	50223.85
643.007	50233.57
643.36	50203.96
643.713	50036.28
644.066	50222.04
644.419	49730.98
644.771	49513.81
645.124	49228.39
645.477	49244.67
645.83	49017.1
646.182	48900.95
646.535	48674.74
646.888	48874.73
647.24	48594.74
647.593	48836.09
647.945	48683.78
648.298	48572.37
648.65	48507.96
649.002	48438.59
649.355	48526.94
649.707	48496.44
650.059	48637
650.411	49035.41
650.763	48934.17
651.115	49342.52
651.467	49216.42
651.819	49130.77
652.171	49170.09
652.523	49073.6
652.875	49018.68
653.227	48876.99
653.578	49096.65
653.93	48964.45
654.282	48815.52
654.633	48633.83
654.985	48621.86
655.337	48736.88
655.688	48669.31
656.039	48836.09
656.391	48462.54
656.742	48595.64
657.094	48664.79
657.445	48714.06
657.796	48551.12
658.147	48448.08
658.498	48545.93
658.849	48554.74
659.2	48479.49
659.551	48403.33
659.902	48537.79
660.253	48485.14
660.604	48446.72
660.955	48172.6
661.306	48196.33
661.656	48216.67
662.007	48177.8
662.358	48246.5
662.708	48227.52
663.059	48265.93
663.409	47965.15
663.76	48246.05
664.11	48299.83
664.461	48158.37
664.811	48222.09
665.161	48153.62
665.511	47949.78
665.862	47980.52
666.212	48138.48
666.562	48055.77
666.912	48132.83
667.262	47973.29
667.612	47871.59
667.962	47947.52
668.312	47986.17
668.662	48050.35
669.011	47990.24
669.361	47830.69
669.711	47850.8
670.06	47733.52
670.41	47651.71
670.76	47624.6
671.109	47816.91
671.459	47646.74
671.808	47625.95
672.157	47679.06
672.507	47422.57
672.856	47462.57
673.205	47431.38
673.554	47576.46
673.904	47416.01
674.253	47692.62
674.602	47403.58
674.951	46868.23
675.3	46748.46
675.649	47254.44
675.998	47159.75
676.346	47281.78
676.695	47253.76
677.044	46992.3
677.393	46914.78
677.741	47142.8
678.09	46983.26
678.438	46840.21
678.787	46922.47
679.135	46917.27
679.484	46801.57
679.832	46743.26
680.181	46617.62
680.529	46727.22
680.877	46604.06
681.225	46498.52
681.573	46640.67
681.922	46382.59
682.27	46382.82
682.618	46406.1
682.966	46160.23
683.314	46172.43
683.661	46092.88
684.009	45845.66
684.357	45953.9
684.705	45714.36
685.053	45750.75
685.4	45695.38
685.748	45552.33
686.095	45503.97
686.443	45412.45
686.79	45319.57
687.138	45393.92
687.485	45439.12
687.832	45167.71
688.18	45095.62
688.527	44859.02
688.874	44874.16
689.221	44878.23
689.568	44688.18
689.915	44614.96
690.262	44614.5
690.609	44423.78
690.956	44367.96
691.303	44450.44
691.65	44227.62
691.997	44261.75
692.344	43958.02
692.69	44054.07
693.037	43970.91
693.383	43648.43
693.73	43780.63
694.077	43443.01
694.423	43543.8
694.769	43358.72
695.116	43254.09
695.462	43213.41
695.808	43136.58
696.155	43045.51
696.501	42769.81
696.847	42721.22
697.193	42596.93
697.539	42730.49
697.885	42352.19
698.231	42249.82
698.577	42222.93
698.923	42112.88
699.269	41958.76
699.614	41889.15
699.96	41699.1
700.306	41642.38
700.651	41560.35
700.997	41360.81
701.342	41306.12
701.688	41281.71
702.033	41162.62
702.379	41159.45
702.724	40915.17
703.069	41104.54
703.415	40646.02
703.76	40555.63
704.105	40561.5
704.45	40561.73
704.795	40399.7
705.14	40120.61
705.485	40138.92
705.83	40117
706.175	40112.48
706.52	39888.98
706.865	39723.33
707.209	39785.93
707.554	39456.9
707.899	39599.95
708.243	39401.31
708.588	39279.28
708.932	38988.44
709.277	39039.28
709.621	38948.89
709.966	38787.09
710.31	38868.22
710.654	38516.81
710.998	38677.49
711.342	38655.11
711.687	38609.47
712.031	38327.44
712.375	38337.61
712.719	38399.75
713.063	38221.23
713.407	38443.14
713.75	38074.56
714.094	38091.74
714.438	37863.5
714.782	37860.56
715.125	37738.3
715.469	37828.69
715.812	37594.12
716.156	37374.02
716.499	37364.98
716.843	37553.9
717.186	37330.63
717.53	37361.59
717.873	37409.04
718.216	37171.08
718.559	37150.07
718.902	36756.86
719.246	36920.7
719.589	36896.06
719.932	36565.68
720.275	36748.5
720.617	36577.2
720.96	36551.21
721.303	36597.31
721.646	36666.01
721.989	36271.9
722.331	36425.57
722.674	36433.48
723.016	36326.36
723.359	36316.19
723.701	36165.91
724.044	36004.56
724.386	35722.08
724.729	36066.03
725.071	35730.9
725.413	35707.85
725.755	35708.52
726.097	35553.05
726.439	35516.44
726.782	35379.04
727.124	35548.98
727.465	35298.59
727.807	35338.36
728.149	35221.98
728.491	35085.72
728.833	35136.56
729.175	35032.61
729.516	34947.41
729.858	34956.45
730.199	34864.93
730.541	34896.12
730.882	34821.77
731.224	34935.66
731.565	34713.75
731.906	34672.39
732.248	34707.87
732.589	34536.8
732.93	34425.62
733.271	34418.61
733.612	34450.03
733.953	34409.35
734.294	34178.17
734.635	34068.34
734.976	34094.1
735.317	34002.35
735.658	33928.01
735.999	33877.16
736.339	33759.42
736.68	33888.01
737.021	33852.75
737.361	33660.44
737.702	33703.61
738.042	33695.7
738.383	33700.44
738.723	33605.75
739.063	33560.11
739.404	33414.12
739.744	33424.29
740.084	33287.12
740.424	33257.06
740.764	33196.05
741.104	33354.69
741.444	33117.86
741.784	32865.21
742.124	33006.9
742.464	33055.26
742.804	33023.4
743.143	32944.53
743.483	32885.55
743.823	32694.14
744.162	32663.41
744.502	32655.05
744.841	32592.22
745.181	32713.35
745.52	32531.88
745.86	32648.94
746.199	32535.05
746.538	32372.11
746.877	32396.75
747.216	32333.02
747.556	32281.27
747.895	32295.51
748.234	31973.48
748.573	32039.69
748.911	31901.62
749.25	31924.67
749.589	31699.36
749.928	31669.08
750.267	31733.04
750.605	31631.34
750.944	31477
751.283	31440.39
751.621	31510.22
751.96	31295.08
752.298	31359.03
752.636	31351.35
752.975	31064.35
753.313	30958.59
753.651	31246.95
753.989	31009.21
754.327	30965.6
754.666	30796.11
755.004	30857.13
755.342	30886.5
755.679	30763.8
756.017	30631.82
756.355	30637.7
756.693	30452.17
757.031	30532.62
757.368	30257.14
757.706	30268.22
758.044	30104.38
758.381	30230.25
758.719	30015.34
759.056	30025.06
759.394	29961.1
759.731	29823.48
760.068	29712.07
760.405	29515.01
760.743	29485.41
761.08	29455.13
761.417	29354.34
761.754	29364.06
762.091	29186.44
762.428	29111.41
762.765	28897.4
763.102	29053.11
763.438	28892.21
763.775	28671.2
764.112	28706
764.449	28628.71
764.785	28413.35
765.122	28379.45
765.458	28137.88
765.795	28208.83
766.131	28099.01
766.467	27998.22
766.804	27842.74
767.14	27808.85
767.476	27709.86
767.812	27578.57
768.148	27578.57
768.485	27365.01
768.821	27176.55
769.157	27054.97
769.492	27192.82
769.828	27045.48
770.164	26739.95
770.5	26746.5
770.836	26721.64
771.171	26545.15
771.507	26444.14
771.842	26310.81
772.178	26293.86
772.513	26210.7
772.849	26150.81
773.184	26020.87
773.519	26020.42
773.855	25926.18
774.19	25828.56
774.525	25755.79
774.86	25632.41
775.195	25679.64
775.53	25490.71
775.865	25374.78
776.2	25096.6
776.535	24946.1
776.87	25005.98
777.205	24883.05
777.539	24709.49
777.874	24771.64
778.209	24519.89
778.543	24513.34
778.878	24392.21
779.212	24370.97
779.547	24097.08
779.881	24306.56
780.215	23997.19
780.55	24042.39
780.884	23848.95
781.218	23829.51
781.552	23854.6
781.886	23656.19
782.22	23483.31
782.554	23539.58
782.888	23277.89
783.222	23112.7
783.556	23025.02
783.889	22998.35
784.223	22891.23
784.557	22702.09
784.89	22903.21
785.224	22776.66
785.557	22542.09
785.891	22631.81
786.224	22452.6
786.558	22428.2
786.891	22212.38
787.224	22189.56
787.557	22233.62
787.891	22143.68
788.224	22154.76
788.557	22094.87
788.89	21939.62
789.223	21979.39
789.556	21743.69
789.888	21615.79
790.221	21545.73
790.554	21399.3
790.887	21528.78
791.219	21393.65
791.552	21315.68
791.884	21197.95
792.217	21094.45
792.549	21083.15
792.882	20875.02
793.214	20838.18
793.546	20838.86
793.879	20713.66
794.211	20560.45
794.543	20553.67
794.875	20548.92
795.207	20639.09
795.539	20478.64
795.871	20410.4
796.203	20265.09
796.535	20241.81
796.867	20023.97
797.198	20135.83
797.53	20039.56
797.862	19865.78
798.193	19910.75
798.525	19810.41
798.856	19789.39
799.188	19534.49
799.519	19548.5
799.85	19392.34
800.182	19446.58
800.513	19432.34
800.844	19164.1
801.175	19274.61
801.506	19201.61
801.837	19153.48
802.168	19171.78
802.499	19129.98
802.83	18937.89
803.161	18966.59
803.491	18968.4
803.822	18969.08
804.153	18772.92
804.483	18603.44
804.814	18581.52
805.145	18493.61
805.475	18509.88
805.805	18400.96
806.136	18472.37
806.466	18449.09
806.796	18332.94
807.126	18159.83
807.457	18105.6
807.787	18233.28
808.117	18031.25
808.447	17975.88
808.777	18078.93
809.107	17896.34
809.436	17868.32
809.766	17844.81
810.096	17714.42
810.426	17678.72
810.755	17726.4
811.085	17657.02
811.414	17645.95
811.744	17509.91
812.073	17487.31
812.403	17527.76
812.732	17344.71
813.061	17381.1
813.39	17216.81
813.719	17137.49
814.049	17265.39
814.378	17253.19
814.707	17043.25
815.036	17084.16
815.365	17057.94
815.693	16804.61
816.022	16784.95
816.351	16759.19
816.68	16692.98
817.008	16786.99
817.337	16702.7
817.665	16603.26
817.994	16659.08
818.322	16625.64
818.651	16513.32
818.979	16392.42
819.307	16516.94
819.636	16448.69
819.964	16374.12
820.292	16460.22
820.62	16274.01
820.948	16267.91
821.276	16324.63
821.604	16202.37
821.932	16376.38
822.259	16309.26
822.587	16232.88
822.915	16273.1
823.243	16352.2
823.57	16285.31
823.898	16319.66
824.225	16197.85
824.553	16190.39
824.88	16222.26
825.207	16308.81
825.535	16294.12
825.862	16276.27
826.189	16262.26
826.516	16379.54
826.843	16374.8
827.17	16364.17
827.497	16357.39
827.824	16321.69
828.151	16359.43
828.478	16252.76
828.805	16379.99
829.131	16282.59
829.458	16207.57
829.785	16130.06
830.111	16075.37
830.438	16179.09
830.764	16196.72
831.09	16156.95
831.417	16145.87
831.743	16144.29
832.069	16115.59
832.395	16035.14
832.722	16094.35
833.048	16089.83
833.374	16116.27
833.7	16021.81
834.026	15976.16
834.351	16100.68
834.677	16053
835.003	16107.01
835.329	16062.26
835.654	15965.09
835.98	16021.36
836.306	15911.08
836.631	15922.83
836.956	15914.69
837.282	15975.48
837.607	15862.27
837.932	15720.12
838.258	15747.69
838.583	15786.11
838.908	15609.62
839.233	15687.13
839.558	15676.51
839.883	15692.55
840.208	15587.02
840.533	15588.15
840.858	15521.26
841.182	15548.83
841.507	15548.38
841.832	15409.4
842.156	15394.71
842.481	15475.38
842.805	15380.7
843.13	15406.01
843.454	15316.07
843.778	15275.39
844.103	15333.92
844.427	15233.81
844.751	15215.05
845.075	15169.63
845.399	15219.12
845.723	15063.42
846.047	15045.79
846.371	14948.84
846.695	14928.73
847.019	14910.2
847.343	14822.52
847.666	14709.98
847.99	14593.6
848.313	14674.28
848.637	14495.07
848.96	14553.6
849.284	14509.53
849.607	14402.64
849.931	14281.52
850.254	14230.22
850.577	14107.06
850.9	14145.25
851.223	14162.65
851.546	14033.61
851.869	13929.44
852.192	13942.99
852.515	13832.72
852.838	13774.86
853.161	13841.08
853.483	13703.68
853.806	13665.26
854.129	13650.35
854.451	13571.48
854.774	13500.29
855.096	13549.33
855.419	13399.05
855.741	13483.35
856.063	13372.61
856.385	13320.64
856.708	13226.63
857.03	13287.42
857.352	13305.5
857.674	13163.13
857.996	13209.91
858.318	13110.02
858.64	13072.51
858.961	12991.61
859.283	12961.1
859.605	12931.5
859.926	12965.62
860.248	12894.43
860.57	12886.3
860.891	12893.98
861.212	12806.08
861.534	12842.01
861.855	12748.22
862.176	12756.13
862.498	12649.47
862.819	12727.66
863.14	12586.87
863.461	12631.39
863.782	12574.22
864.103	12710.49
864.424	12569.47
864.745	12635.01
865.065	12460.1
865.386	12564.95
865.707	12540.09
866.027	12464.84
866.348	12393.66
866.668	12394.79
866.989	12446.09
867.309	12311.85
867.63	12406.09
867.95	12408.12
868.27	12253.1
868.59	12308.46
868.91	12202.93
869.23	12290.16
869.55	12181.46
869.87	12221.46
870.19	12208.35
870.51	12150.73
870.83	12258.97
871.15	12146.43
871.469	12191.4
871.789	12141.91
872.109	12083.38
872.428	12000.67
872.748	12093.78
873.067	12073.67
873.386	12101.91
873.706	11965.65
874.025	12010.39
874.344	11902.14
874.663	11949.15
874.982	11964.06
875.301	12006.1
875.62	11835.71
875.939	11882.71
876.258	11876.38
876.577	11870.96
876.896	11849.26
877.214	11855.59
877.533	11838.42
877.852	11765.2
878.17	11738.53
878.489	11865.54
878.807	11752.54
879.125	11819.21
879.444	11826.21
879.762	11779.89
880.08	11772.2
880.398	11687.91
880.716	11763.62
881.034	11730.4
881.352	11708.25
881.67	11723.84
881.988	11636.16
882.306	11579.89
882.624	11638.2
882.941	11527.01
883.259	11527.01
883.577	11511.19
883.894	11516.62
884.212	11572.21
884.529	11517.52
884.846	11441.14
885.164	11480.91
885.481	11427.13
885.798	11400.46
886.115	11294.48
886.432	11333.57
886.75	11334.7
887.067	11352.1
887.383	11294.25
887.7	11222.39
888.017	11254.25
888.334	11300.58
888.651	11215.16
888.967	11241.6
889.284	11098.55
889.6	11074.82
889.917	11000.25
890.233	11057.42
890.55	10992.34
890.866	11036.63
891.182	10944.43
891.498	10913.7
891.815	10939.91
892.131	10900.14
892.447	10908.72
892.763	10847.26
893.079	10839.8
893.395	10761.84
893.71	10710.99
894.026	10661.73
894.342	10691.78
894.657	10608.85
894.973	10589.41
895.289	10581.95
895.604	10600.48
895.92	10586.02
896.235	10507.83
896.55	10588.51
896.865	10458.57
897.181	10509.64
897.496	10352.13
897.811	10333.6
898.126	10323.43
898.441	10315.29
898.756	10273.71
899.071	10233.94
899.386	10261.06
899.7	10186.48
900.015	10172.25
900.33	10047.28
900.644	10051.57
900.959	10040.05
901.273	10053.61
901.588	9974.96
901.902	9906.26
902.216	9862.88
902.531	9877.57
902.845	9854.51
903.159	9788.3
903.473	9700.85
903.787	9710.56
904.101	9751.69
904.415	9724.12
904.729	9726.61
905.042	9684.35
905.356	9652.03
905.67	9677.34
905.984	9591.7
906.297	9533.39
906.611	9483.23
906.924	9469.44
907.237	9384.24
907.551	9390.35
907.864	9323
908.177	9326.85
908.491	9267.86
908.804	9248.2
909.117	9268.54
909.43	9174.76
909.743	9168.88
910.056	9130.69
910.368	9057.47
910.681	9055.44
910.994	8987.87
911.307	8986.74
911.619	8878.72
911.932	8856.35
912.244	8866.07
912.557	8881.66
912.869	8844.15
913.181	8769.35
913.494	8746.3
913.806	8706.97
914.118	8695.9
914.43	8658.61
914.742	8653.42
915.054	8568.9
915.366	8609.12
915.678	8480.99
915.99	8506.53
916.302	8419.3
916.613	8452.97
916.925	8402.12
917.236	8437.15
917.548	8358.74
917.859	8351.96
918.171	8305.18
918.482	8266.53
918.794	8160.77
919.105	8246.65
919.416	8159.19
919.727	8128.23
920.038	8116.03
920.349	8039.87
920.66	8041.23
920.971	8041.68
921.282	8025.18
921.593	7899.31
921.903	7852.53
922.214	7897.96
922.525	7849.14
922.835	7840.33
923.146	7732.76
923.456	7721.92
923.767	7715.14
924.077	7716.27
924.387	7604.18
924.697	7559.66
925.008	7560.11
925.318	7561.02
925.628	7551.52
925.938	7533.22
926.248	7429.72
926.558	7412.77
926.867	7388.82
927.177	7388.82
927.487	7394.92
927.796	7290.97
928.106	7250.74
928.416	7271.31
928.725	7252.1
929.034	7177.52
929.344	7166.9
929.653	7153.34
929.962	7052.78
930.271	7075.83
930.581	7050.29
930.89	7015.72
931.199	6947.02
931.508	6970.75
931.817	6946.57
932.125	6973.69
932.434	6934.59
932.743	6853.46
933.051	6815.05
933.36	6782.73
933.669	6769.85
933.977	6706.58
934.286	6749.96
934.594	6684.88
934.902	6579.12
935.21	6583.19
935.519	6606.46
935.827	6552.23
936.135	6477.65
936.443	6427.26
936.751	6416.19
937.059	6454.83
937.367	6447.82
937.674	6415.28
937.982	6350.2
938.29	6329.86
938.597	6324.44
938.905	6270.65
939.213	6208.28
939.52	6200.6
939.827	6215.51
940.135	6221.84
940.442	6156.31
940.749	6177.1
941.056	6149.75
941.363	6095.74
941.67	6034.73
941.977	6028.4
942.284	5940.04
942.591	5949.08
942.898	5929.65
943.205	5920.16
943.511	5876.09
943.818	5844.22
944.125	5837.45
944.431	5895.97
944.738	5822.08
945.044	5825.92
945.35	5752.7
945.657	5701.63
945.963	5664.12
946.269	5684.91
946.575	5674.06
946.881	5641.52
947.187	5646.94
947.493	5646.49
947.799	5602.42
948.105	5550.67
948.41	5504.12
948.716	5508.87
949.022	5496.66
949.327	5429.77
949.633	5433.84
949.938	5411.02
950.244	5444.24
950.549	5338.7
950.854	5347.29
951.16	5316.1
951.465	5312.04
951.77	5323.56
952.075	5333.73
952.38	5234.98
952.685	5244.69
952.99	5146.62
953.294	5206.73
953.599	5124.92
953.904	5152.49
954.209	5067.07
954.513	5093.06
954.818	5037.24
955.122	5086.5
955.426	5041.76
955.731	5000.86
956.035	4996.79
956.339	4975.77
956.643	4927.64
956.948	4917.92
957.252	4921.31
957.556	4906.17
957.86	4885.61
958.163	4804.93
958.467	4844.48
958.771	4789.11
959.075	4800.18
959.378	4716.12
959.682	4753.41
959.985	4675.89
960.289	4714.54
960.592	4651.71
960.896	4672.05
961.199	4656.01
961.502	4643.58
961.805	4630.02
962.108	4556.12
962.411	4540.3
962.714	4528.1
963.017	4559.06
963.32	4535.56
963.623	4538.04
963.926	4503.24
964.228	4504.6
964.531	4443.58
964.833	4422.34
965.136	4399.74
965.438	4366.75
965.741	4375.79
966.043	4356.58
966.345	4317.26
966.648	4333.08
966.95	4298.95
967.252	4293.31
967.554	4258.28
967.856	4246.53
968.158	4216.02
968.46	4230.48
968.761	4222.8
969.063	4170.6
969.365	4163.37
969.666	4157.49
969.968	4134.44
970.269	4105.74
970.571	4089.69
970.872	4058.96
971.174	4038.4
971.475	4032.52
971.776	4026.65
972.077	3948.46
972.378	3998.62
972.679	3958.62
972.98	3927.89
973.281	3933.77
973.582	3906.65
973.883	3867.1
974.183	3824.84
974.484	3886.99
974.785	3826.88
975.085	3819.87
975.386	3822.13
975.686	3822.13
975.986	3779.19
976.287	3759.31
976.587	3769.48
976.887	3737.16
977.187	3754.56
977.487	3709.82
977.787	3652.42
978.087	3682.47
978.387	3647.67
978.687	3648.35
978.987	3595.47
979.286	3598.41
979.586	3597.96
979.885	3625.07
980.185	3539.43
980.484	3570.39
980.784	3564.28
981.083	3508.92
981.382	3479.77
981.682	3515.47
981.981	3499.88
982.28	3478.19
982.579	3448.58
982.878	3464.4
983.177	3433.44
983.475	3411.07
983.774	3388.24
984.073	3393.44
984.372	3346.21
984.67	3320.9
984.969	3334.46
985.267	3341.01
985.566	3316.38
985.864	3283.61
986.162	3263.5
986.461	3258.53
986.759	3245.88
987.057	3216.27
987.355	3233.67
987.653	3231.41
987.951	3217.4
988.249	3164.75
988.547	3161.13
988.844	3190.74
989.142	3128.14
989.44	3111.64
989.737	3115.48
990.035	3091.08
990.332	3103.05
990.63	3041.13
990.927	3037.07
991.224	3023.28
991.521	2992.32
991.819	3001.81
992.116	2971.31
992.413	2926.79
992.71	2950.29
993.006	2966.33
993.303	2922.27
993.6	2950.29
993.897	2901.25
994.193	2890.86
994.49	2849.5
994.787	2844.53
995.083	2857.64
995.379	2881.36
995.676	2833
995.972	2791.2
996.268	2787.13
996.565	2780.58
996.861	2771.54
997.157	2749.17
997.453	2741.48
997.749	2717.08
998.044	2696.96
998.34	2676.17
998.636	2667.59
998.932	2639.11
999.227	2662.16
999.523	2618.77
999.818	2621.94
1000.114	2611.54
1000.409	2578.1
1000.704	2609.51
1001	2543.29
1001.295	2533.58
1001.59	2536.74
1001.885	2568.38
1002.18	2523.18
1002.475	2499.91
1002.77	2496.06
1003.065	2459.23
1003.359	2471.21
1003.654	2447.48
1003.949	2442.73
1004.243	2430.53
1004.538	2405.67
1004.832	2341.49
1005.127	2391.21
1005.421	2367.03
1005.715	2326.35
1006.009	2347.59
1006.304	2318.22
1006.598	2297.43
1006.892	2328.16
1007.186	2301.72
1007.48	2268.5
1007.773	2236.18
1008.067	2282.06
1008.361	2216.3
1008.655	2212
1008.948	2226.24
1009.242	2239.12
1009.535	2183.3
1009.829	2193.25
1010.122	2143.98
1010.415	2154.38
1010.708	2127.49
1011.001	2132.23
1011.295	2095.4
1011.588	2122.97
1011.881	2095.17
1012.173	2082.52
1012.466	2068.05
1012.759	2055.17
1013.052	2033.93
1013.344	2018.11
1013.637	2049.97
1013.93	1986.47
1014.222	1981.73
1014.514	1974.5
1014.807	1965.91
1015.099	1974.5
1015.391	1947.38
1015.683	1945.12
1015.976	1936.08
1016.268	1904.67
1016.56	1891.33
1016.851	1874.39
1017.143	1928.4
1017.435	1858.57
1017.727	1865.12
1018.018	1859.02
1018.31	1816.99
1018.602	1838.91
1018.893	1805.46
1019.185	1780.15
1019.476	1790.55
1019.767	1765.24
1020.058	1789.64
1020.35	1751
1020.641	1748.97
1020.932	1719.36
1021.223	1723.66
1021.514	1709.42
1021.804	1702.64
1022.095	1689.53
1022.386	1689.53
1022.677	1658.57
1022.967	1647.05
1023.258	1618.35
1023.548	1597.56
1023.839	1606.14
1024.129	1632.36
1024.419	1585.35
1024.709	1559.82
1025	1565.24
1025.29	1567.73
1025.58	1540.16
1025.87	1531.8
1026.16	1513.27
1026.449	1513.27
1026.739	1536.99
1027.029	1484.34
1027.319	1483.66
1027.608	1478.69
1027.898	1495.41
1028.187	1445.02
1028.477	1440.27
1028.766	1428.75
1029.055	1408.18
1029.344	1420.16
1029.634	1397.79
1029.923	1381.74
1030.212	1392.36
1030.501	1377.68
1030.79	1355.98
1031.078	1360.27
1031.367	1349.43
1031.656	1332.48
1031.945	1330.9
1032.233	1367.73
1032.522	1308.3
1032.81	1317.79
1033.099	1311.91
1033.387	1286.83
1033.675	1261.75
1033.963	1259.26
1034.251	1278.92
1034.54	1220.62
1034.828	1236.21
1035.116	1243.67
1035.403	1241.41
1035.691	1223.78
1035.979	1214.74
1036.267	1217.91
1036.554	1202.54
1036.842	1191.24
1037.129	1198.25
1037.417	1175.65
1037.704	1151.47
1037.992	1148.98
1038.279	1133.16
1038.566	1140.62
1038.853	1140.62
1039.14	1140.62
