Data from aluminium_macbook_case_FLMS001491_048.txt Node
Date: Tue Feb 07 10:43:41 GMT 2017
User: dcchb
Spectrometer: FLMS00149
Trigger mode: 0
Integration Time (sec): 2.000000E-2
Scans to average: 10
Electric dark correction enabled: true
Nonlinearity correction enabled: false
Boxcar width: 0
XAxis mode: Wavelengths
Number of Pixels in Spectrum: 2048
>>>>>Begin Spectral Data<<<<<
341.393	-19
341.776	-19
342.16	-19
342.543	-44.53
342.927	-80.69
343.31	-47.47
343.693	-61.71
344.077	-62.39
344.46	-67.81
344.843	-61.03
345.226	-44.53
345.61	-39.34
345.993	-14.03
346.376	2.7
346.759	-8.6
347.142	30.27
347.525	41.11
347.908	61.91
348.291	81.79
348.674	84.5
349.057	104.62
349.44	151.39
349.823	127.44
350.206	160.43
350.588	240.66
350.971	267.32
351.354	278.62
351.737	302.8
352.119	302.8
352.502	313.42
352.884	310.03
353.267	323.37
353.65	329.69
354.032	360.2
354.414	366.08
354.797	363.14
355.179	386.42
355.562	370.6
355.944	393.65
356.326	393.65
356.709	407.66
357.091	411.73
357.473	409.69
357.855	404.5
358.238	418.05
358.62	409.24
359.002	416.02
359.384	395.68
359.766	424.16
360.148	431.39
360.53	406.98
360.912	424.38
361.294	388.68
361.676	408.79
362.057	405.85
362.439	409.92
362.821	439.97
363.203	423.03
363.584	412.63
363.966	436.13
364.348	429.13
364.729	419.86
365.111	405.4
365.493	410.37
365.874	398.85
366.256	430.71
366.637	418.05
367.019	428.45
367.4	404.27
367.781	416.92
368.163	403.14
368.544	437.94
368.925	421.67
369.306	439.97
369.688	416.47
370.069	449.69
370.45	455.57
370.831	442.01
371.212	439.3
371.593	446.53
371.974	452.86
372.355	458.05
372.736	452.63
373.117	470.48
373.498	471.39
373.879	468.9
374.26	456.25
374.641	467.77
375.021	465.06
375.402	447.21
375.783	490.59
376.163	518.16
376.544	513.87
376.925	492.4
377.305	530.82
377.686	496.47
378.066	512.74
378.447	489.92
378.827	503.25
379.208	511.38
379.588	513.42
379.968	525.17
380.349	543.7
380.729	563.36
381.109	564.72
381.489	537.37
381.87	554.32
382.25	567.65
382.63	579.18
383.01	575.79
383.39	590.48
383.77	585.73
384.15	604.04
384.53	588.22
384.91	590.03
385.29	626.41
385.67	603.36
386.049	631.61
386.429	652.62
386.809	642
387.189	673.41
387.568	655.34
387.948	657.14
388.328	668.22
388.707	688.1
389.087	689.01
389.466	694.88
389.846	684.71
390.225	697.82
390.605	736.92
390.984	742.34
391.363	748.21
391.743	769.91
392.122	753.19
392.501	769.01
392.881	781.43
393.26	787.08
393.639	795.22
394.018	783.47
394.397	817.59
394.776	830.25
395.155	848.55
395.534	839.96
395.913	850.13
396.292	850.81
396.671	885.16
397.05	871.6
397.429	880.64
397.808	918.38
398.186	897.36
398.565	895.1
398.944	905.72
399.323	922.67
399.701	944.37
400.08	959.96
400.458	950.92
400.837	989.79
401.215	981.43
401.594	998.38
401.972	1001.54
402.351	993.18
402.729	1026.17
403.107	1061.88
403.486	1063.91
403.864	1075.44
404.242	1093.29
404.62	1091.93
404.999	1113.63
405.377	1113.85
405.755	1117.24
406.133	1151.37
406.511	1152.5
406.889	1193.17
407.267	1214.42
407.645	1201.31
408.023	1250.12
408.401	1263.68
408.779	1271.14
409.156	1305.94
409.534	1311.82
409.912	1300.29
410.29	1335.09
410.667	1366.28
411.045	1382.77
411.422	1404.02
411.8	1435.2
412.178	1434.52
412.555	1443.79
412.933	1468.87
413.31	1516.56
413.687	1536.44
414.065	1528.53
414.442	1562.66
414.819	1559.94
415.197	1590.45
415.574	1604.24
415.951	1627.97
416.328	1639.72
416.705	1679.04
417.082	1699.6
417.46	1725.82
417.837	1724.46
418.214	1761.52
418.591	1787.74
418.967	1765.14
419.344	1824.8
419.721	1807.17
420.098	1835.19
420.475	1825.7
420.852	1859.37
421.228	1925.58
421.605	1935.53
421.982	1952.93
422.358	1987.28
422.735	2023.89
423.111	1993.61
423.488	2076.32
423.864	2052.81
424.241	2055.3
424.617	2127.39
424.994	2133.04
425.37	2164.67
425.746	2188.18
426.123	2219.36
426.499	2211.45
426.875	2220.49
427.251	2338.91
427.627	2337.55
428.003	2365.12
428.379	2391.79
428.756	2400.83
429.132	2454.84
429.507	2496.64
429.883	2514.27
430.259	2579.81
430.635	2594.95
431.011	2609.41
431.387	2728.5
431.763	2718.56
432.138	2753.81
432.514	2790.19
432.89	2806.24
433.265	2903.64
433.641	2924.65
434.016	2944.32
434.392	3032.67
434.767	3064.09
435.143	3073.13
435.518	3105.67
435.894	3122.16
436.269	3164.2
436.644	3262.72
437.02	3276.74
437.395	3283.29
437.77	3333.68
438.145	3406.45
438.52	3444.19
438.895	3416.17
439.271	3515.15
439.646	3566.45
440.021	3581.59
440.395	3580.23
440.77	3553.56
441.145	3648.7
441.52	3733
441.895	3709.04
442.27	3772.77
442.645	3764.18
443.019	3827.46
443.394	3829.49
443.769	3860
444.143	3877.62
444.518	3981.12
444.892	3962.59
445.267	3979.54
445.641	3982.93
446.016	4031.07
446.39	4082.14
446.764	4078.52
447.139	4104.06
447.513	4217.95
447.887	4167.79
448.262	4203.72
448.636	4241.23
449.01	4302.92
449.384	4376.14
449.758	4376.37
450.132	4442.81
450.506	4491.85
450.88	4533.2
451.254	4535.91
451.628	4597.61
452.002	4631.73
452.376	4716.25
452.75	4760.76
453.123	4837.37
453.497	4863.81
453.871	4877.15
454.244	5020.64
454.618	5084.6
454.992	5103.81
455.365	5152.17
455.739	5268.32
456.112	5302.67
456.486	5427.87
456.859	5397.13
457.232	5552.83
457.606	5568.43
457.979	5639.61
458.352	5738.82
458.725	5867.85
459.099	5842.54
459.472	5975.42
459.845	6049.54
460.218	6040.96
460.591	6155.3
460.964	6166.6
461.337	6372.25
461.71	6456.54
462.083	6560.49
462.456	6576.76
462.829	6508.06
463.201	6688.85
463.574	6727.49
463.947	6827.15
464.32	7028.95
464.692	6993.7
465.065	7103.53
465.438	7200.47
465.81	7345.78
466.183	7436.4
466.555	7586.91
466.928	7679.56
467.3	7650.86
467.672	7849.95
468.045	7970.4
468.417	8014.24
468.789	8058.53
469.161	8193.22
469.534	8373.55
469.906	8511.17
470.278	8639.53
470.65	8742.13
471.022	8900.54
471.394	9018.96
471.766	9127.66
472.138	9216.01
472.51	9425.5
472.882	9587.98
473.253	9686.74
473.625	9778.03
473.997	9923.79
474.369	10137.35
474.74	10227.06
475.112	10427.06
475.484	10596.09
475.855	10780.72
476.227	10905.69
476.598	11206.02
476.97	11280.82
477.341	11530.98
477.713	11719
478.084	11820.01
478.455	12196.5
478.827	12337.51
479.198	12719.88
479.569	12712.65
479.94	13042.81
480.311	13135.91
480.682	13482.34
481.053	13758.04
481.424	13939.28
481.795	14103.12
482.166	14312.38
482.537	14566.83
482.908	14914.17
483.279	15044.34
483.65	15340.6
484.021	15590.99
484.391	15785.79
484.762	15927.93
485.133	16161.59
485.503	16370.85
485.874	16704.18
486.244	16933.78
486.615	17230.49
486.985	17489.92
487.356	17718.84
487.726	17898.27
488.097	18313.85
488.467	18323.8
488.837	18794.97
489.207	19002.2
489.578	19252.14
489.948	19413.03
490.318	19762.4
490.688	19789.07
491.058	20203.07
491.428	20453.46
491.798	20642.15
492.168	21053.22
492.538	21019.77
492.908	21314.91
493.278	21605.97
493.648	21678.29
494.017	21991.95
494.387	22257.25
494.757	22287.76
495.126	22597.13
495.496	22643.01
495.866	22773.4
496.235	23180.39
496.605	23384.91
496.974	23508.07
497.344	23787.83
497.713	23927.04
498.082	24136.53
498.452	24449.51
498.821	24573.8
499.19	24716.62
499.559	24864.42
499.928	25088.37
500.298	25294.24
500.667	25508.47
501.036	25539.88
501.405	25816.71
501.774	25783.71
502.143	26144.38
502.512	26139.41
502.88	26412.17
503.249	26557.93
503.618	26764.25
503.987	26771.49
504.356	27078.37
504.724	27208.99
505.093	27338.25
505.462	27552.71
505.83	27702.53
506.199	27976.88
506.567	28226.14
506.936	28317.89
507.304	28709.97
507.672	28774.82
508.041	29008.71
508.409	29148.6
508.777	29330.29
509.145	29756.94
509.514	29803.95
509.882	30011.85
510.25	30229.02
510.618	30366.19
510.986	30573.42
511.354	30902.22
511.722	31172.27
512.09	31432.83
512.458	31420.85
512.826	31794.4
513.193	31859.04
513.561	32042.31
513.929	32278.46
514.297	32577.21
514.664	32839.35
515.032	32854.04
515.4	33230.3
515.767	33384.42
516.135	33561.82
516.502	33380.13
516.869	34223.72
517.237	34188.69
517.604	34258.97
517.972	34533.32
518.339	34838.62
518.706	34978.05
519.073	35324.48
519.44	35372.39
519.808	35929.21
520.175	35793.17
520.542	36441.74
520.909	36648.74
521.276	36641.28
521.643	37084.21
522.009	37441.26
522.376	37782.95
522.743	38088.25
523.11	38352.2
523.477	38712.19
523.843	38920.09
524.21	39255.45
524.577	39587.42
524.943	39695.67
525.31	39823.57
525.676	40160.51
526.043	40582.87
526.409	40768.63
526.776	40981.51
527.142	41209.07
527.508	41329.07
527.874	41716.18
528.241	41960.92
528.607	42072.1
528.973	42443.16
529.339	42598.41
529.705	42937.84
530.071	43218.96
530.437	43395
530.803	43745.95
531.169	44019.85
531.535	44063.91
531.901	44108.43
532.267	44389.55
532.632	44778.24
532.998	44933.95
533.364	45144.56
533.73	45355.18
534.095	45609.63
534.461	45738.44
534.826	45940.7
535.192	46136.85
535.557	46507.24
535.923	46536.39
536.288	46700.9
536.653	46860.67
537.019	46762.82
537.384	46950.84
537.749	47222.92
538.114	47272.64
538.479	47360.32
538.845	47622.69
539.21	47592.41
539.575	47633.99
539.94	47932.28
540.305	48089.57
540.67	48206.4
541.034	48200.98
541.399	48441.88
541.764	48548.99
542.129	48697.91
542.494	48800.06
542.858	48938.59
543.223	48977.46
543.587	49266.49
543.952	49231.23
544.316	49441.4
544.681	49560.72
545.045	49711.67
545.41	49794.83
545.774	49952.34
546.138	50058.78
546.503	50260.81
546.867	50227.59
547.231	50504.19
547.595	50653.8
547.959	50771.53
548.324	50785.54
548.688	50940.34
549.052	51086.33
549.416	51214.68
549.779	51251.97
550.143	51355.7
550.507	51513.43
550.871	51656.48
551.235	51677.95
551.599	51960.2
551.962	51973.08
552.326	51997.04
552.689	52253.98
553.053	52150.03
553.417	52207.43
553.78	52681.76
554.143	52497.14
554.507	52708.2
554.87	52814.42
555.234	53012.6
555.597	52869.33
555.96	53137.35
556.323	53258.47
556.686	53223.45
557.05	53472.25
557.413	53607.39
557.776	53716.31
558.139	53900.49
558.502	53927.16
558.865	54066.36
559.228	54263.87
559.59	54366.24
559.953	54489.17
560.316	54812.1
560.679	54721.71
561.041	55010.29
561.404	55122.83
561.767	55295.93
562.129	55175.94
562.492	55530.73
562.854	55501.58
563.217	55488.02
563.579	55673.78
563.941	55942.24
564.304	56022.47
564.666	56193.99
565.028	56153.09
565.39	56268.34
565.753	56342.23
566.115	56444.38
566.477	56626.97
566.839	56616.12
567.201	56891.6
567.563	56860.64
567.925	57065.38
568.287	57011.82
568.648	57027.41
569.01	57213.4
569.372	57336.11
569.734	57253.85
570.095	57483.45
570.457	57610
570.819	57614.74
571.18	57616.32
571.542	57774.06
571.903	57827.62
572.265	57853.61
572.626	57992.59
572.987	58130.21
573.349	58177.44
573.71	58280.94
574.071	58324.1
574.432	58368.39
574.794	58566.13
575.155	58490.88
575.516	58510.54
575.877	58602.29
576.238	58662.4
576.599	58749.63
576.96	58777.88
577.32	58868.72
577.681	58894.71
578.042	59023.29
578.403	58960.7
578.763	58985.33
579.124	59101.71
579.485	59136.96
579.845	59211.08
580.206	59163.63
580.566	59155.27
580.927	59179.67
581.287	59333.79
581.648	59151.88
582.008	59228.26
582.368	59214.93
582.728	59320.46
583.089	59226.45
583.449	59220.35
583.809	59268.94
584.169	59293.57
584.529	59279.33
584.889	59366.79
585.249	59161.59
585.609	59130.63
585.969	59301.93
586.329	59308.93
586.688	59319.33
587.048	59273.23
587.408	59184.42
587.768	59237.07
588.127	59314.58
588.487	59259.67
588.846	59436.39
589.206	59218.54
589.565	59341.02
589.925	59409.27
590.284	59340.35
590.643	59425.77
591.003	59454.69
591.362	59486.33
591.721	59509.38
592.08	59524.97
592.44	59527.23
592.799	59551.19
593.158	59517.07
593.517	59540.12
593.876	59585.99
594.235	59517.52
594.593	59563.84
594.952	59506.44
595.311	59532.21
595.67	59597.51
596.029	59740.11
596.387	59697.17
596.746	59647.68
597.104	59540.79
597.463	59564.07
597.822	59616.05
598.18	59601.81
598.538	59515.03
598.897	59691.3
599.255	59451.08
599.613	59834.34
599.972	59745.08
600.33	59741.92
600.688	59579.21
601.046	59757.28
601.404	59753.67
601.762	59717.74
602.12	59832.08
602.478	59858.07
602.836	59838.86
603.194	59724.74
603.552	59797.96
603.91	59672.54
604.268	59888.58
604.625	59839.77
604.983	59926.55
605.341	59881.12
605.698	60014.23
606.056	60050.84
606.413	60037.96
606.771	60088.12
607.128	60029.37
607.485	60032.53
607.843	60019.65
608.2	60178.52
608.557	60308.68
608.914	60166.09
609.272	60343.71
609.629	60355.69
609.986	60373.31
610.343	60283.15
610.7	60431.39
611.057	60383.71
611.414	60399.75
611.771	60406.99
612.127	60534.21
612.484	60380.55
612.841	60548.9
613.198	60502.58
613.554	60444.5
613.911	60614.89
614.267	60563.82
614.624	60526.98
614.98	60554.55
615.337	60637.94
615.693	60570.82
616.05	60636.58
616.406	60679.52
616.762	60620.76
617.118	60625.51
617.475	60608.56
617.831	60684.27
618.187	60687.66
618.543	60704.6
618.899	60791.16
619.255	60758.61
619.611	60789.8
619.967	60813.3
620.323	60885.39
620.678	60854.88
621.034	60853.53
621.39	60782.79
621.746	60798.39
622.101	60966.74
622.457	60822.12
622.812	60909.34
623.168	60938.04
623.523	60951.15
623.879	60986.18
624.234	60887.88
624.589	60915.67
624.945	60932.4
625.3	60897.37
625.655	60959.06
626.01	60969.46
626.365	60958.16
626.72	60952.28
627.075	60902.79
627.43	60901.66
627.785	60857.59
628.14	60799.07
628.495	60886.07
628.85	60839.52
629.205	60754.09
629.559	60943.92
629.914	60775.56
630.269	60813.75
630.623	60659.86
630.978	60648.11
631.332	60724.49
631.687	60765.85
632.041	60661.89
632.396	60641.33
632.75	60492.41
633.104	60488.79
633.459	60432.3
633.813	60380.32
634.167	60440.2
634.521	60430.49
634.875	60418.06
635.229	60378.06
635.583	60267.55
635.937	60294.67
636.291	60185.75
636.645	60204.96
636.999	60120.66
637.352	60239.31
637.706	60045.64
638.06	60142.59
638.413	60096.71
638.767	59982.14
639.121	60034.79
639.474	59887.9
639.828	59915.02
640.181	59963.15
640.534	59894.46
640.888	59802.26
641.241	59687.23
641.594	59852.88
641.947	59877.06
642.301	59784.63
642.654	59770.84
643.007	59822.37
643.36	59779.88
643.713	59695.59
644.066	59780.33
644.419	59626.67
644.771	59444.75
645.124	59240.69
645.477	59166.57
645.83	59006.12
646.182	58892.22
646.535	58823.52
646.888	58861.04
647.24	58646.58
647.593	58892.22
647.945	58803.64
648.298	58609.29
648.65	58590.76
649.002	58496.75
649.355	58601.83
649.707	58601.61
650.059	58643.64
650.411	58849.29
650.763	58950.75
651.115	59051.31
651.467	59032.33
651.819	58925.44
652.171	58836.4
652.523	58867.59
652.875	58796.63
653.227	58763.19
653.578	58892.67
653.93	58876.18
654.282	58735.62
654.633	58590.54
654.985	58691.1
655.337	58626.69
655.688	58627.14
656.039	58725.45
656.391	58521.38
656.742	58538.11
657.094	58578.11
657.445	58679.12
657.796	58623.98
658.147	58557.77
658.498	58490.43
658.849	58533.14
659.2	58471.22
659.551	58384.44
659.902	58536.07
660.253	58389.19
660.604	58520.03
660.955	58369.07
661.306	58417.21
661.656	58403.42
662.007	58374.04
662.358	58334.95
662.708	58323.65
663.059	58371.78
663.409	58107.38
663.76	58372.24
664.11	58315.74
664.461	58260.15
664.811	58312.12
665.161	58200.94
665.511	58098.35
665.862	58228.96
666.212	58309.19
666.562	58284.56
666.912	58200.26
667.262	58249.53
667.612	58187.61
667.962	58209.3
668.312	58078.01
668.662	58184.9
669.011	58030.55
669.361	58046.82
669.711	57979.93
670.06	57985.35
670.41	57897.9
670.76	57862.42
671.109	57960.72
671.459	57899.25
671.808	57824
672.157	57825.81
672.507	57703.33
672.856	57697.9
673.205	57733.61
673.554	57769.31
673.904	57661.97
674.253	57784.68
674.602	57729.32
674.951	57349.44
675.3	57159.39
675.649	57585.82
675.998	57529.55
676.346	57544.69
676.695	57623.1
677.044	57390.12
677.393	57500.62
677.741	57459.72
678.09	57415.2
678.438	57406.84
678.787	57390.34
679.135	57443.9
679.484	57295.65
679.832	57347.86
680.181	57252.49
680.529	57245.03
680.877	57161.87
681.225	57101.76
681.573	57254.75
681.922	57057.02
682.27	57102.44
682.618	56976.34
682.966	56940.18
683.314	56987.19
683.661	56906.29
684.009	56689.34
684.357	56602.11
684.705	56582.68
685.053	56693.41
685.4	56573.64
685.748	56435.34
686.095	56492.74
686.443	56401.89
686.79	56344.49
687.138	56301.78
687.485	56359.63
687.832	56185.4
688.18	56216.36
688.527	56027.21
688.874	56072.41
689.221	55964.39
689.568	55904.5
689.915	55786.77
690.262	55801.91
690.609	55716.71
690.956	55617.05
691.303	55641.46
691.65	55442.6
691.997	55409.15
692.344	55222.94
692.69	55200.34
693.037	55231.53
693.383	55001.48
693.73	55094.58
694.077	54879.45
694.423	54926.9
694.769	54837.19
695.116	54662.28
695.462	54646.68
695.808	54618.66
696.155	54569.62
696.501	54375.51
696.847	54406.01
697.193	54207.15
697.539	54305.45
697.885	54067.94
698.231	53946.82
698.577	53957.21
698.923	53941.17
699.269	53747.95
699.614	53600.84
699.96	53543.44
700.306	53609.88
700.651	53384.8
700.997	53317.45
701.342	53251.47
701.688	53207.17
702.033	53093.73
702.379	53087.63
702.724	52931.25
703.069	53106.84
703.415	52689.9
703.76	52687.87
704.105	52634.53
704.45	52539.4
704.795	52364.26
705.14	52248.1
705.485	52178.05
705.83	52059.18
706.175	52154.77
706.52	52029.58
706.865	51925.4
707.209	51905.74
707.554	51696.71
707.899	51874.55
708.243	51685.86
708.588	51605.41
708.932	51374
709.277	51275.47
709.621	51331.07
709.966	51144.63
710.31	51178.98
710.654	50865.99
710.998	50951.41
711.342	50894.69
711.687	50767.46
712.031	50618.32
712.375	50531.99
712.719	50582.61
713.063	50468.49
713.407	50565.44
713.75	50253.81
714.094	50292.67
714.438	50149.18
714.782	50199.34
715.125	49905.34
715.469	49936.07
715.812	49813.59
716.156	49670.54
716.499	49599.36
716.843	49693.59
717.186	49462.64
717.53	49515.29
717.873	49492.7
718.216	49451.79
718.559	49276.66
718.902	48961.86
719.246	49228.97
719.589	49074.85
719.932	48786.73
720.275	48904.91
720.617	48819.27
720.96	48655.43
721.303	48533.17
721.646	48683.45
721.989	48414.08
722.331	48532.72
722.674	48405.49
723.016	48516.45
723.359	48289.11
723.701	48347.87
724.044	48061.55
724.386	47836.69
724.729	47905.62
725.071	47802.12
725.413	47859.29
725.755	47783.59
726.097	47488.45
726.439	47313.32
726.782	47411.62
727.124	47537.04
727.465	47247.33
727.807	47149.48
728.149	47162.81
728.491	47024.06
728.833	46984.74
729.175	46868.13
729.516	46738.19
729.858	46589.95
730.199	46749.04
730.541	46662.49
730.882	46568.7
731.224	46615.94
731.565	46273.8
731.906	46250.07
732.248	46250.3
732.589	46024.99
732.93	45856.86
733.271	45945.44
733.612	46061.6
733.953	45838.33
734.294	45619.58
734.635	45783.87
734.976	45778.22
735.317	45672.01
735.658	45586.13
735.999	45490.77
736.339	45423.2
736.68	45657.09
737.021	45197.67
737.361	45191.79
737.702	45377.55
738.042	45251.45
738.383	45073.6
738.723	45121.29
739.063	44907.28
739.404	45052.36
739.744	44894.17
740.084	44867.73
740.424	44709.77
740.764	44654.4
741.104	44748.64
741.444	44510.45
741.784	44422.32
742.124	44500.28
742.464	44372.6
742.804	44443.11
743.143	44159.95
743.483	44180.07
743.823	44106.62
744.162	43957.25
744.502	44072.73
744.841	43785.5
745.181	43827.76
745.52	43724.03
745.86	43678.16
746.199	43632.74
746.538	43541.67
746.877	43504.38
747.216	43465.74
747.556	43234.33
747.895	43353.42
748.234	43181
748.573	43010.15
748.911	42819.2
749.25	42861.46
749.589	42691.97
749.928	42670.95
750.267	42738.3
750.605	42558.41
750.944	42510.05
751.283	42242.26
751.621	42336.73
751.96	42032.55
752.298	42130.63
752.636	42032.55
752.975	41836.85
753.313	41663.75
753.651	41862.16
753.989	41541.72
754.327	41557.54
754.666	41319.8
755.004	41356.64
755.342	41329.07
755.679	41203.42
756.017	40821.51
756.355	40918.68
756.693	40745.13
757.031	40877.56
757.368	40443.22
757.706	40472.37
758.044	40280.28
758.381	40412.48
758.719	40102.21
759.056	40192.15
759.394	40014.07
759.731	39591.26
760.068	39717.36
760.405	39502.22
760.743	39414.54
761.08	39363.92
761.417	39104.49
761.754	39151.95
762.091	39032.18
762.428	38942.01
762.765	38801.45
763.102	38894.1
763.438	38615.92
763.775	38364.63
764.112	38438.3
764.449	38532.76
764.785	38221.35
765.122	37982.94
765.458	37907.46
765.795	37822.27
766.131	37863.85
766.467	37613.91
766.804	37485.33
767.14	37333.92
767.476	37359.23
767.812	37064.55
768.148	37024.1
768.485	36877.21
768.821	36621.85
769.157	36731.68
769.492	36561.28
769.828	36574.17
770.164	36086.04
770.5	36059.83
770.836	36044.01
771.171	35998.36
771.507	35724.02
771.842	35534.87
772.178	35453.06
772.513	35371.94
772.849	35213.3
773.184	35160.64
773.519	35044.26
773.855	34819.64
774.19	34649.24
774.525	34594.1
774.86	34525.41
775.195	34348.46
775.53	34107.79
775.865	34043.61
776.2	33749.38
776.535	33488.37
776.87	33509.61
777.205	33410.86
777.539	33259.45
777.874	33297.87
778.209	32938.33
778.543	33041.38
778.878	32834.38
779.212	32767.26
779.547	32602.29
779.881	32626.92
780.215	32389.42
780.55	32387.38
780.884	32091.35
781.218	32062.87
781.552	31909.43
781.886	31733.39
782.22	31625.37
782.554	31545.6
782.888	31149.45
783.222	31147.19
783.556	31086.4
783.889	30992.84
784.223	30813.41
784.557	30706.07
784.89	30688.22
785.224	30645.28
785.557	30355.12
785.891	30298.17
786.224	30171.62
786.558	30248.91
786.891	29829.48
787.224	29836.49
787.557	29777.28
787.891	29790.16
788.224	29589.72
788.557	29660
788.89	29477.85
789.223	29473.56
789.556	29102.5
789.888	29181.59
790.221	29039.22
790.554	28930.75
790.887	28774.37
791.219	28868.15
791.552	28741.6
791.884	28582.51
792.217	28467.94
792.549	28314.72
792.882	28131.45
793.214	28165.57
793.546	28094.16
793.879	27973.94
794.211	27919.7
794.543	27943.43
794.875	27625.25
795.207	27775.98
795.539	27677.9
795.871	27629.32
796.203	27275.2
796.535	27252.15
796.867	27213.51
797.198	27160.18
797.53	27068.65
797.862	26863.01
798.193	26963.34
798.525	26710.47
798.856	26696.01
799.188	26447.88
799.519	26400.42
799.85	26188
800.182	26288.11
800.513	26273.65
800.844	26011.96
801.175	26036.14
801.506	26063.03
801.837	25901.9
802.168	25785.75
802.499	25798.63
802.83	25550.27
803.161	25493.55
803.491	25409.04
803.822	25440.22
804.153	25290.17
804.483	25039.1
804.814	24986.45
805.145	24918.43
805.475	24981.7
805.805	24750.3
806.136	24827.58
806.466	24641.37
806.796	24659.22
807.126	24435.5
807.457	24362.51
807.787	24292.91
808.117	24269.86
808.447	24194.38
808.777	24163.87
809.107	24060.6
809.436	23942.86
809.766	23974.04
810.096	23819.02
810.426	23735.18
810.755	23758.46
811.085	23677.33
811.414	23703.32
811.744	23518.24
812.073	23431.69
812.403	23438.69
812.732	23367.96
813.061	23247.51
813.39	23157.8
813.719	23066.95
814.049	23186.49
814.378	23121.86
814.707	22981.53
815.036	23031.47
815.365	22871.47
815.693	22584.25
816.022	22661.76
816.351	22546.29
816.68	22427.64
817.008	22500.64
817.337	22300.64
817.665	22300.19
817.994	22359.17
818.322	22400.53
818.651	22245.05
818.979	22210.7
819.307	22283.02
819.636	22273.98
819.964	22038.05
820.292	22141.55
820.62	22095.45
820.948	22017.03
821.276	22056.81
821.604	21921.9
821.932	21940.2
822.259	21946.53
822.587	22027.43
822.915	21956.47
823.243	22048.67
823.57	21932.74
823.898	22011.38
824.225	21935.91
824.553	21904.27
824.88	21934.78
825.207	22045.51
825.535	21933.42
825.862	21901.78
826.189	21876.7
826.516	22077.6
826.843	22012.97
827.17	21950.14
827.497	21998.05
827.824	22007.54
828.151	22071.95
828.478	22035.34
828.805	22201.44
829.131	22076.69
829.458	21950.14
829.785	21904.27
830.111	21867.89
830.438	21982.68
830.764	21943.14
831.09	22035.79
831.417	21845.06
831.743	21846.19
832.069	21955.79
832.395	21705.4
832.722	21776.81
833.048	21729.13
833.374	21766.42
833.7	21588.12
834.026	21656.37
834.351	21663.82
834.677	21630.15
835.003	21622.02
835.329	21685.97
835.654	21516.48
835.98	21434.45
836.306	21421.57
836.631	21398.07
836.956	21446.43
837.282	21402.36
837.607	21198.07
837.932	21153.33
838.258	21167.11
838.583	21072.2
838.908	21129.15
839.233	21088.24
839.558	21044.86
839.883	21013.9
840.208	20946.55
840.533	20889.83
840.858	21022.03
841.182	20961.69
841.507	20900.68
841.832	20733.45
842.156	20733.9
842.481	20706.79
842.805	20604.87
843.13	20597.86
843.454	20511.54
843.778	20468.15
844.103	20363.07
844.427	20302.05
844.751	20402.39
845.075	20264.54
845.399	20222.05
845.723	20125.33
846.047	20164.2
846.371	20015.96
846.695	20076.52
847.019	19843.98
847.343	19810.76
847.666	19729.18
847.99	19566.93
848.313	19645.8
848.637	19408.74
848.96	19517.44
849.284	19467.04
849.607	19296.65
849.931	19259.37
850.254	19090.11
850.577	19011.92
850.9	18850.34
851.223	18859.38
851.546	18809.66
851.869	18681.3
852.192	18780.06
852.515	18645.37
852.838	18532.38
853.161	18530.12
853.483	18517.01
853.806	18489.9
854.129	18423.68
854.451	18387.75
854.774	18351.37
855.096	18272.5
855.419	18219.17
855.741	18116.57
856.063	18008.33
856.385	18061.66
856.708	17986.41
857.03	17848.1
857.352	17945.28
857.674	17802
857.996	17833.64
858.318	17765.62
858.64	17758.39
858.961	17614.44
859.283	17605.62
859.605	17565.85
859.926	17543.71
860.248	17478.4
860.57	17537.15
860.891	17520.88
861.212	17277.95
861.534	17344.61
861.855	17256.71
862.176	17295.58
862.498	17334.22
862.819	17283.37
863.14	17196.6
863.461	17187.56
863.782	17076.6
864.103	17098.97
864.424	17000.89
864.745	17020.1
865.065	16994.79
865.386	16860.33
865.707	16937.17
866.027	16941.46
866.348	16795.93
866.668	16781.47
866.989	16733.78
867.309	16722.03
867.63	16723.84
867.95	16746.89
868.27	16581.02
868.59	16613.33
868.91	16544.41
869.23	16582.6
869.55	16377.41
869.87	16498.54
870.19	16496.28
870.51	16434.58
870.83	16428.71
871.15	16343.06
871.469	16282.04
871.789	16362.49
872.109	16272.33
872.428	16242.27
872.748	16242.04
873.067	16249.95
873.386	16236.17
873.706	16200.01
874.025	16101.48
874.344	16078.89
874.663	16115.49
874.982	15982.84
875.301	16062.84
875.62	15968.15
875.939	15924.54
876.258	15990.75
876.577	15822.39
876.896	15839.34
877.214	15878.89
877.533	15867.37
877.852	15847.48
878.17	15919.12
878.489	15873.24
878.807	15786.92
879.125	15729.06
879.444	15687.26
879.762	15728.16
880.08	15744.88
880.398	15635.51
880.716	15739.23
881.034	15628.73
881.352	15606.81
881.67	15565.23
881.988	15478.22
882.306	15517.09
882.624	15472.12
882.941	15472.12
883.259	15469.18
883.577	15393.25
883.894	15372.91
884.212	15309.19
884.529	15282.97
884.846	15165.69
885.164	15202.75
885.481	15167.04
885.798	15247.04
886.115	15160.49
886.432	15133.37
886.75	15073.04
887.067	15069.42
887.383	14955.3
887.7	15054.28
888.017	14956.43
888.334	14988.29
888.651	14889.99
888.967	14890.44
889.284	14880.72
889.6	14797.79
889.917	14697.68
890.233	14730.45
890.55	14619.94
890.866	14623.56
891.182	14598.02
891.498	14565.03
891.815	14618.58
892.131	14540.39
892.447	14592.82
892.763	14472.37
893.079	14484.8
893.395	14357.8
893.71	14368.87
894.026	14249.33
894.342	14209.78
894.657	14213.17
894.973	14187.64
895.289	14151.03
895.604	14157.13
895.92	14128.88
896.235	14008.21
896.55	13950.35
896.865	13930.69
897.181	13851.15
897.496	13920.3
897.811	13824.26
898.126	13814.76
898.441	13659.06
898.756	13715.33
899.071	13696.57
899.386	13626.97
899.7	13588.1
900.015	13498.39
900.33	13391.27
900.644	13368.67
900.959	13363.25
901.273	13328.67
901.588	13255
901.902	13176.36
902.216	13109.25
902.531	13077.61
902.845	13085.29
903.159	12972.75
903.473	12936.37
903.787	12955.8
904.101	12827.45
904.415	12887.1
904.729	12700.44
905.042	12668.81
905.356	12744.51
905.67	12655.92
905.984	12645.76
906.297	12494.57
906.611	12426.55
906.924	12413.44
907.237	12420.68
907.551	12331.19
907.864	12251.42
908.177	12299.1
908.491	12222.26
908.804	12174.36
909.117	12013.46
909.43	11968.71
909.743	11993.12
910.056	11867.7
910.368	11912.22
910.681	11865.21
910.994	11840.8
911.307	11742.95
911.619	11639.91
911.932	11680.13
912.244	11546.57
912.557	11628.38
912.869	11420.7
913.181	11450.98
913.494	11420.48
913.806	11390.42
914.118	11354.94
914.43	11324.89
914.742	11335.51
915.054	11201.95
915.366	11182.52
915.678	11101.84
915.99	11069.98
916.302	10943.43
916.613	10932.58
916.925	10967.61
917.236	10971
917.548	10866.59
917.859	10861.85
918.171	10771.91
918.482	10742.98
918.794	10652.59
919.105	10644.9
919.416	10584.79
919.727	10591.35
920.038	10515.64
920.349	10502.31
920.66	10481.07
920.971	10418.02
921.282	10360.62
921.593	10280.17
921.903	10216.89
922.214	10191.36
922.525	10166.05
922.835	10150.23
923.146	10105.93
923.456	10013.06
923.767	10087.18
924.077	9987.97
924.387	9993.4
924.697	9888.54
925.008	9912.27
925.318	9863.91
925.628	9799.5
925.938	9773.29
926.248	9676.12
926.558	9681.31
926.867	9645.83
927.177	9615.78
927.487	9597.93
927.796	9550.02
928.106	9481.09
928.416	9476.12
928.725	9483.58
929.034	9380.76
929.344	9387.08
929.653	9373.98
929.962	9326.75
930.271	9243.81
930.581	9299.4
930.89	9225.96
931.199	9064.83
931.508	9067.09
931.817	9059.86
932.125	9088.33
932.434	9004.49
932.743	8915.68
933.051	8884.95
933.36	8915.23
933.669	8819.19
933.977	8724.95
934.286	8757.5
934.594	8717.04
934.902	8663.71
935.21	8621
935.519	8638.4
935.827	8631.62
936.135	8523.15
936.443	8497.62
936.751	8422.59
937.059	8478.41
937.367	8365.42
937.674	8392.99
937.982	8308.92
938.29	8350.5
938.597	8315.47
938.905	8171.97
939.213	8155.93
939.52	8176.04
939.827	8223.05
940.135	8124.29
940.442	8067.34
940.749	8045.42
941.056	8025.99
941.363	7923.39
941.67	7944.86
941.977	7823.06
942.284	7812.21
942.591	7752.55
942.898	7775.83
943.205	7830.97
943.511	7692.21
943.818	7675.72
944.125	7649.28
944.431	7588.71
944.738	7555.49
945.044	7542.84
945.35	7487.02
945.657	7399.57
945.963	7407.47
946.269	7358.66
946.575	7362.5
946.881	7256.74
947.187	7235.28
947.493	7244.99
947.799	7218.55
948.105	7170.19
948.41	7153.02
948.716	7118.44
949.022	7078.67
949.327	7037.77
949.633	6992.57
949.938	7026.92
950.244	6977.66
950.549	6892.23
950.854	6844.55
951.16	6846.36
951.465	6851.33
951.77	6742.18
952.075	6741.96
952.38	6724.78
952.685	6714.61
952.99	6623.99
953.294	6626.25
953.599	6613.82
953.904	6558.01
954.209	6494.28
954.513	6527.5
954.818	6457.22
955.122	6400.04
955.426	6431.68
955.731	6410.89
956.035	6360.95
956.339	6328.63
956.643	6357.11
956.948	6330.67
957.252	6305.36
957.556	6236.88
957.86	6191.69
958.163	6273.04
958.467	6142.42
958.771	6153.5
959.075	6153.5
959.378	6089.77
959.682	6047.28
959.985	6020.17
960.289	5999.83
960.592	5942.43
960.896	6006.16
961.199	5918.02
961.502	5886.38
961.805	5907.4
962.108	5855.2
962.411	5892.49
962.714	5797.12
963.017	5822.66
963.32	5792.38
963.623	5813.17
963.926	5719.84
964.228	5693.85
964.531	5708.08
964.833	5662.89
965.136	5626.96
965.438	5559.39
965.741	5584.7
966.043	5550.35
966.345	5536.11
966.648	5480.07
966.95	5510.8
967.252	5452.05
967.554	5450.69
967.856	5402.33
968.158	5349
968.46	5403.91
968.761	5367.53
969.063	5298.6
969.365	5268.55
969.666	5289.34
969.968	5259.73
970.269	5248.89
970.571	5220.41
970.872	5157.82
971.174	5144.03
971.475	5155.1
971.776	5135.22
972.077	5097.25
972.378	5042.57
972.679	5087.08
972.98	5041.89
973.281	5010.7
973.582	5021.1
973.883	5012.74
974.183	5008.22
974.484	4917.82
974.785	4931.83
975.085	4899.97
975.386	4893.42
975.686	4867.43
975.986	4867.88
976.287	4793.08
976.587	4768.22
976.887	4762.12
977.187	4786.98
977.487	4712.4
977.787	4697.26
978.087	4688.45
978.387	4660.2
978.687	4622.92
978.987	4635.8
979.286	4601.67
979.586	4601.22
979.885	4538.85
980.185	4572.52
980.484	4486.87
980.784	4509.92
981.083	4485.07
981.382	4455.01
981.682	4460.21
981.981	4441.9
982.28	4412.3
982.579	4394.45
982.878	4361
983.177	4328.23
983.475	4323.49
983.774	4278.07
984.073	4233.32
984.372	4245.52
984.67	4233.09
984.969	4237.39
985.267	4203.04
985.566	4181.34
985.864	4164.17
986.162	4130.5
986.461	4104.06
986.759	4111.29
987.057	4041.46
987.355	4006.21
987.653	4005.98
987.951	3999.65
988.249	3954.68
988.547	3937.74
988.844	3921.92
989.142	3917.85
989.44	3897.28
989.737	3924.85
990.035	3847.12
990.332	3834.69
990.63	3835.37
990.927	3830.62
991.224	3796.27
991.521	3808.7
991.819	3754.92
992.116	3751.07
992.413	3711.98
992.71	3699.1
993.006	3684.41
993.303	3647.35
993.6	3669.95
993.897	3637.63
994.193	3621.59
994.49	3594.24
994.787	3586.78
995.083	3536.62
995.379	3533
995.676	3507.92
995.972	3502.04
996.268	3461.36
996.565	3467.69
996.861	3456.39
997.157	3453
997.453	3408.94
997.749	3393.34
998.044	3363.97
998.34	3355.15
998.636	3318.32
998.932	3319.67
999.227	3316.73
999.523	3301.37
999.818	3281.71
1000.114	3248.94
1000.409	3211.88
1000.704	3189.51
1001	3163.52
1001.295	3165.33
1001.59	3183.63
1001.885	3180.69
1002.18	3123.29
1002.475	3119.68
1002.77	3081.26
1003.065	3054.82
1003.359	3041.71
1003.654	3046.91
1003.949	3048.95
1004.243	2993.58
1004.538	2966.24
1004.832	2990.19
1005.127	3034.48
1005.421	2944.99
1005.715	2913.36
1006.009	2900.47
1006.304	2913.81
1006.598	2864.09
1006.892	2849.18
1007.186	2826.13
1007.48	2825.67
1007.773	2800.36
1008.067	2837.88
1008.361	2770.99
1008.655	2791.78
1008.948	2708.39
1009.242	2742.06
1009.535	2752.68
1009.829	2727.82
1010.122	2705
1010.415	2676.53
1010.708	2649.63
1011.001	2627.94
1011.295	2581.16
1011.588	2599.92
1011.881	2585.68
1012.173	2597.88
1012.466	2599.92
1012.759	2577.55
1013.052	2565.79
1013.344	2529.86
1013.637	2514.27
1013.93	2475.85
1014.222	2475.4
1014.514	2458.23
1014.807	2460.94
1015.099	2401.73
1015.391	2378.45
1015.683	2401.28
1015.976	2378.45
1016.268	2363.31
1016.56	2352.92
1016.851	2330.09
1017.143	2338.46
1017.435	2335.07
1017.727	2317.67
1018.018	2276.54
1018.31	2290.32
1018.602	2252.13
1018.893	2193.83
1019.185	2182.53
1019.476	2223.66
1019.767	2184.34
1020.058	2161.74
1020.35	2138.69
1020.641	2139.82
1020.932	2101.17
1021.223	2098.01
1021.514	2084
1021.804	2046.26
1022.095	2093.04
1022.386	2043.1
1022.677	2032.7
1022.967	2033.38
1023.258	2039.25
1023.548	1999.93
1023.839	1935.53
1024.129	1987.05
1024.419	1964.68
1024.709	1935.75
1025	1932.59
1025.29	1929.43
1025.58	1918.35
1025.87	1877
1026.16	1862.08
1026.449	1869.77
1026.739	1855.3
1027.029	1821.18
1027.319	1830.45
1027.608	1818.24
1027.898	1782.31
1028.187	1793.16
1028.477	1735.08
1028.766	1744.8
1029.055	1730.11
1029.344	1721.52
1029.634	1717.68
1029.923	1685.14
1030.212	1680.62
1030.501	1694.18
1030.79	1641.98
1031.078	1629.55
1031.367	1641.75
1031.656	1612.6
1031.945	1628.19
1032.233	1594.52
1032.522	1609.89
1032.81	1585.25
1033.099	1601.75
1033.387	1571.7
1033.675	1546.16
1033.963	1525.37
1034.251	1540.74
1034.54	1528.76
1034.828	1478.37
1035.116	1504.13
1035.403	1474.07
1035.691	1456.22
1035.979	1448.99
1036.267	1477.24
1036.554	1427.97
1036.842	1417.8
1037.129	1422.1
1037.417	1402.43
1037.704	1370.8
1037.992	1381.64
1038.279	1363.11
1038.566	1351.59
1038.853	1351.59
1039.14	1351.59
