Data from aluminium_surface_pro_back_FLMS001491_00026.txt Node
Date: Wed Feb 08 15:33:50 GMT 2017
User: dcchb
Spectrometer: FLMS00149
Trigger mode: 0
Integration Time (sec): 2.000000E-2
Scans to average: 10
Electric dark correction enabled: true
Nonlinearity correction enabled: false
Boxcar width: 0
XAxis mode: Wavelengths
Number of Pixels in Spectrum: 2048
>>>>>Begin Spectral Data<<<<<
341.393	-3.94
341.776	-3.94
342.16	-3.94
342.543	-60.21
342.927	-75.58
343.31	-73.77
343.693	-73.77
344.077	-71.28
344.46	-50.04
344.843	-63.37
345.226	-31.74
345.61	-17.27
345.993	-18.18
346.376	-10.27
346.759	13.01
347.142	25.21
347.525	50.75
347.908	52.33
348.291	70.41
348.674	78.32
349.057	119.67
349.44	121.48
349.823	168.71
350.206	152.21
350.588	222.04
350.971	241.93
351.354	251.42
351.737	275.6
352.119	301.81
352.502	274.92
352.884	294.81
353.267	306.33
353.65	313.79
354.032	346.33
354.414	349.27
354.797	352.66
355.179	340.23
355.562	350.17
355.944	341.14
356.326	364.64
356.709	387.69
357.091	375.94
357.473	378.2
357.855	373.22
358.238	369.61
358.62	381.36
359.002	375.71
359.384	361.93
359.766	375.26
360.148	359.44
360.53	389.27
360.912	366.45
361.294	358.08
361.676	375.94
362.057	398.53
362.439	380.91
362.821	369.61
363.203	384.07
363.584	388.82
363.966	396.27
364.348	383.85
364.729	377.74
365.111	391.76
365.493	362.38
365.874	375.94
366.256	387.69
366.637	359.67
367.019	384.98
367.4	357.18
367.781	348.82
368.163	363.96
368.544	382.26
368.925	387.46
369.306	379.78
369.688	384.52
370.069	381.59
370.45	392.66
370.831	378.42
371.212	388.59
371.593	382.72
371.974	394.69
372.355	404.41
372.736	391.08
373.117	415.48
373.498	384.07
373.879	373.45
374.26	386.78
374.641	390.4
375.021	396.27
375.402	386.78
375.783	416.39
376.163	425.2
376.544	408.7
376.925	433.11
377.305	434.92
377.686	421.58
378.066	432.88
378.447	431.53
378.827	427.23
379.208	428.59
379.588	415.94
379.968	458.19
380.349	431.98
380.729	434.69
381.109	451.64
381.489	448.7
381.87	443.73
382.25	452.32
382.63	457.52
383.01	476.27
383.39	471.53
383.77	473.11
384.15	474.69
384.53	480.79
384.91	498.65
385.29	472.21
385.67	481.92
386.049	510.4
386.429	505.42
386.809	512.66
387.189	516.72
387.568	519.89
387.948	524.86
388.328	520.79
388.707	525.76
389.087	535.25
389.466	546.55
389.846	529.6
390.225	550.85
390.605	571.86
390.984	562.82
391.363	587
391.743	590.85
392.122	588.59
392.501	596.27
392.881	602.15
393.26	604.86
393.639	623.39
394.018	605.76
394.397	643.05
394.776	638.75
395.155	624.52
395.534	628.13
395.913	624.97
396.292	664.74
396.671	652.09
397.05	696.38
397.429	672.88
397.808	699.09
398.186	678.08
398.565	686.21
398.944	714.91
399.323	694.8
399.701	737.51
400.08	729.83
400.458	746.55
400.837	761.69
401.215	770.5
401.594	757.4
401.972	751.07
402.351	775.93
402.729	791.97
403.107	768.24
403.486	792.42
403.864	822.03
404.242	810.95
404.62	810.28
404.999	837.39
405.377	831.07
405.755	837.39
406.133	867.22
406.511	904.06
406.889	892.31
407.267	914.68
407.645	902.02
408.023	938.41
408.401	935.92
408.779	923.04
409.156	951.06
409.534	962.14
409.912	966.2
410.29	1010.72
410.667	1047.56
411.045	1049.14
411.422	1053.43
411.8	1051.4
412.178	1079.42
412.555	1072.64
412.933	1108.8
413.31	1136.14
413.687	1115.58
414.065	1140.21
414.442	1173.2
414.819	1175.69
415.197	1186.08
415.574	1189.47
415.951	1205.07
416.328	1248.23
416.705	1208.91
417.082	1239.87
417.46	1267.21
417.837	1275.35
418.214	1278.29
418.591	1286.19
418.967	1305.18
419.344	1317.15
419.721	1335.69
420.098	1358.28
420.475	1358.96
420.852	1362.8
421.228	1392.41
421.605	1423.37
421.982	1415.01
422.358	1442.8
422.735	1473.76
423.111	1471.05
423.488	1527.32
423.864	1477.83
424.241	1499.52
424.617	1544.49
424.994	1560.54
425.37	1567.32
425.746	1539.3
426.123	1574.55
426.499	1570.48
426.875	1606.19
427.251	1618.39
427.627	1670.37
428.003	1693.64
428.379	1702.23
428.756	1732.06
429.132	1753.08
429.507	1776.35
429.883	1788.1
430.259	1797.59
430.635	1850.02
431.011	1880.3
431.387	1883.69
431.763	1928.44
432.138	1944.71
432.514	1970.92
432.89	2014.31
433.265	2037.36
433.641	2067.64
434.016	2090.47
434.392	2118.72
434.767	2157.58
435.143	2196.91
435.518	2230.35
435.894	2215.89
436.269	2256.79
436.644	2273.97
437.02	2282.55
437.395	2283
437.77	2348.31
438.145	2355.09
438.52	2404.58
438.895	2406.17
439.271	2404.36
439.646	2480.97
440.021	2523.9
440.395	2521.64
440.77	2509.67
441.145	2514.64
441.52	2586.95
441.895	2581.08
442.27	2583.56
442.645	2604.58
443.019	2698.59
443.394	2659.94
443.769	2669.66
444.143	2726.61
444.518	2725.48
444.892	2692.03
445.267	2790.11
445.641	2756.44
446.016	2791.92
446.39	2832.6
446.764	2854.52
447.139	2861.29
447.513	2901.07
447.887	2876.66
448.262	2908.98
448.636	2954.17
449.01	2968.64
449.384	2977.68
449.758	3030.56
450.132	3081.4
450.506	3085.7
450.88	3125.69
451.254	3154.17
451.628	3152.81
452.002	3211.57
452.376	3224.68
452.75	3244.56
453.123	3297.67
453.497	3352.36
453.871	3363.2
454.244	3462.86
454.618	3452.92
454.992	3499.02
455.365	3511.9
455.739	3598.68
456.112	3598.9
456.486	3623.08
456.859	3697.66
457.232	3773.14
457.606	3753.47
457.979	3844.77
458.352	3916.41
458.725	3955.96
459.099	3975.16
459.472	4091.09
459.845	4088.16
460.218	4128.61
460.591	4187.36
460.964	4230.75
461.337	4313.69
461.71	4311.88
462.083	4442.5
462.456	4437.07
462.829	4439.33
463.201	4508.48
463.574	4561.36
463.947	4631.42
464.32	4715.26
464.692	4764.97
465.065	4825.08
465.438	4884.97
465.81	4936.49
466.183	5012.88
466.555	5133.33
466.928	5145.98
467.3	5138.98
467.672	5271.85
468.045	5333.32
468.417	5353.66
468.789	5400.44
469.161	5501
469.534	5625.74
469.906	5755.91
470.278	5758.62
470.65	5860.54
471.022	5963.59
471.394	6104.6
471.766	6086.52
472.138	6158.84
472.51	6255.78
472.882	6428.43
473.253	6431.6
473.625	6512.95
473.997	6681.53
474.369	6733.06
474.74	6839.72
475.112	6985.71
475.484	7054.18
475.855	7213.5
476.227	7285.36
476.598	7451.46
476.97	7550.66
477.341	7721.73
477.713	7825.68
478.084	7927.15
478.455	8089.63
478.827	8140.48
479.198	8409.4
479.569	8429.74
479.94	8678.54
480.311	8760.8
480.682	8949.5
481.053	9176.83
481.424	9292.09
481.795	9427
482.166	9563.04
482.537	9624.05
482.908	9839.19
483.279	10081.44
483.65	10167.54
484.021	10374.77
484.391	10479.17
484.762	10599.4
485.133	10675.33
485.503	10800.75
485.874	11098.82
486.244	11196.44
486.615	11379.04
486.985	11551.01
487.356	11750.1
487.726	11802.75
488.097	12129.53
488.467	12089.3
488.837	12450.2
489.207	12527.26
489.578	12697.65
489.948	12811.09
490.318	13140.57
490.688	13133.79
491.058	13330.62
491.428	13515.93
491.798	13638.19
492.168	13897.39
492.538	13887.9
492.908	14045.86
493.278	14348.9
493.648	14312.52
494.017	14586.18
494.387	14795.44
494.757	14942.11
495.126	15082.67
495.496	15171.48
495.866	15259.39
496.235	15331.93
496.605	15631.81
496.974	15665.25
497.344	15877.45
497.713	15937.11
498.082	16020.5
498.452	16125.58
498.821	16301.39
499.19	16318.34
499.559	16500.03
499.928	16680.14
500.298	16683.3
500.667	16924.2
501.036	16897.54
501.405	17123.97
501.774	17076.74
502.143	17366.45
502.512	17411.42
502.88	17575.48
503.249	17561.25
503.618	17663.17
503.987	17844.86
504.356	18026.77
504.724	18146.99
505.093	18215.47
505.462	18331.17
505.83	18405.52
506.199	18597.83
506.567	18841.44
506.936	18845.06
507.304	19123.47
507.672	19172.5
508.041	19286.63
508.409	19446.85
508.777	19669.21
509.145	19779.72
509.514	19864.24
509.882	20115.3
510.25	20107.62
510.618	20332.02
510.986	20210.67
511.354	20672.8
511.722	20813.82
512.09	20964.77
512.458	20935.4
512.826	21191.43
513.193	21296.97
513.561	21283.64
513.929	21536.06
514.297	21734.02
514.664	21903.51
515.032	21924.07
515.4	22189.6
515.767	22314.12
516.135	22459.88
516.502	22470.5
516.869	22835.46
517.237	22942.57
517.604	22964.5
517.972	23165.39
518.339	23273.19
518.706	23423.47
519.073	23604.7
519.44	23759.05
519.808	24035.43
520.175	24053.28
520.542	24460.73
520.909	24545.92
521.276	24655.98
521.643	24940.49
522.009	25163.31
522.376	25408.95
522.743	25555.16
523.11	25951.99
523.477	26085.09
523.843	26166.67
524.21	26506.1
524.577	26684.62
524.943	26842.81
525.31	26996.25
525.676	27188.34
526.043	27389.01
526.409	27562.34
526.776	27944.25
527.142	27967.53
527.508	28198.93
527.874	28297.91
528.241	28579.26
528.607	28616.32
528.973	28918.69
529.339	28883.89
529.705	29075.07
530.071	29455.4
530.437	29548.95
530.803	29760.93
531.169	30007.25
531.535	29965.21
531.901	30197.53
532.267	30278.88
532.632	30551.64
532.998	30666.21
533.364	30710.28
533.73	31031.18
534.095	31233.66
534.461	31284.73
534.826	31582.12
535.192	31493.31
535.557	31775.56
535.923	31673.87
536.288	31881.77
536.653	32172.84
537.019	31981.21
537.384	32210.13
537.749	32387.3
538.114	32485.15
538.479	32524.02
538.845	32747.29
539.21	32766.95
539.575	32926.94
539.94	33041.29
540.305	33215.75
540.67	33145.92
541.034	33343.21
541.399	33482.18
541.764	33679.92
542.129	33789.52
542.494	33783.87
542.858	33949.74
543.223	33935.51
543.587	34363.29
543.952	34190.19
544.316	34267.25
544.681	34404.42
545.045	34569.39
545.41	34686.22
545.774	34759.44
546.138	34899.77
546.503	34967.34
546.867	35064.06
547.231	35377.28
547.595	35320.78
547.959	35577.5
548.324	35641
548.688	35617.27
549.052	35772.97
549.416	35865.85
549.779	35863.59
550.143	36089.57
550.507	36334.99
550.871	36437.81
551.235	36432.84
551.599	36727.07
551.962	36773.62
552.326	36820.63
552.689	37138.81
553.053	37009.1
553.417	37115.76
553.78	37596.88
554.143	37515.3
554.507	37847.95
554.87	37728.17
555.234	38190.76
555.597	38097.43
555.96	38408.83
556.323	38466.91
556.686	38461.71
557.05	38941.02
557.413	38966.33
557.776	39099.44
558.139	39398.41
558.502	39500.78
558.865	39601.35
559.228	39849.02
559.59	40084.04
559.953	40111.84
560.316	40598.61
560.679	40638.38
561.041	40792.5
561.404	41020.74
561.767	41128.99
562.129	41092.61
562.492	41429.77
562.854	41559.26
563.217	41613.5
563.579	41740.72
563.941	42119.02
564.304	42203.09
564.666	42655.05
565.028	42596.97
565.39	42683.07
565.753	43161.25
566.115	43198.77
566.477	43456.61
566.839	43551.98
567.201	43858.63
567.563	44003.04
567.925	44191.96
568.287	44190.6
568.648	44276.48
569.01	44605.28
569.372	44892.28
569.734	44885.27
570.095	45245.27
570.457	45538.59
570.819	45426.96
571.18	45388.76
571.542	45706.27
571.903	45904.91
572.265	46079.82
572.626	46198.91
572.987	46276.88
573.349	46363.43
573.71	46652.23
574.071	46678.67
574.432	46788.5
574.794	47091.32
575.155	47106.46
575.516	47124.99
575.877	47245.21
576.238	47303.74
576.599	47591.87
576.96	47640.91
577.32	47672.55
577.681	47783.96
578.042	47958.87
578.403	48076.83
578.763	47967.23
579.124	48124.06
579.485	48312.3
579.845	48442.24
580.206	48222.36
580.566	48346.65
580.927	48466.42
581.287	48640.2
581.648	48450.6
582.008	48539.19
582.368	48500.09
582.728	48566.53
583.089	48632.97
583.449	48607.66
583.809	48683.14
584.169	48711.61
584.529	48770.14
584.889	49087.65
585.249	48848.33
585.609	48781.44
585.969	49120.19
586.329	48961.55
586.688	48956.58
587.048	48954.32
587.408	48907.09
587.768	48925.17
588.127	48754.1
588.487	48805.4
588.846	49144.6
589.206	48830.93
589.565	48854.66
589.925	48987.99
590.284	49023.24
590.643	49025.73
591.003	49093.53
591.362	49203.13
591.721	49166.97
592.08	49210.36
592.44	49197.48
592.799	49248.78
593.158	49228.66
593.517	49320.19
593.876	49318.83
594.235	49234.99
594.593	49251.71
594.952	49364.93
595.311	49263.01
595.67	49404.93
596.029	49613.96
596.387	49577.81
596.746	49643.12
597.104	49433.18
597.463	49536.68
597.822	49538.26
598.18	49469.56
598.538	49530.12
598.897	49658.93
599.255	49492.39
599.613	50027.74
599.972	49758.37
600.33	49823
600.688	49721.53
601.046	49895.76
601.404	49952.71
601.762	49947.97
602.12	50015.76
602.478	50015.54
602.836	49958.81
603.194	49854.86
603.552	50043.78
603.91	49910.91
604.268	50039.94
604.625	49891.92
604.983	50191.12
605.341	49935.76
605.698	50124.23
606.056	50143.89
606.413	50124.01
606.771	50352.02
607.128	50328.3
607.485	50237.68
607.843	50338.01
608.2	50566.93
608.557	50626.14
608.914	50433.38
609.272	50733.93
609.629	50810.77
609.986	50879.69
610.343	50627.27
610.7	51013.7
611.057	50941.39
611.414	50795.18
611.771	50822.52
612.127	50926.7
612.484	51002.4
612.841	51148.39
613.198	51036.98
613.554	50990.2
613.911	51179.35
614.267	51228.16
614.624	51174.6
614.98	51186.35
615.337	51369.17
615.693	51293.02
616.05	51251.43
616.406	51450.53
616.762	51392.9
617.118	51364.2
617.475	51380.92
617.831	51391.77
618.187	51342.73
618.543	51435.84
618.899	51617.75
619.255	51670.18
619.611	51499.11
619.967	51687.36
620.323	51775.04
620.678	51451.2
621.034	51442.16
621.39	51425.89
621.746	51448.72
622.101	51674.47
622.457	51382.96
622.812	51511.54
623.168	51676.73
623.523	51661.82
623.879	51631.54
624.234	51452.56
624.589	51631.99
624.945	51704.08
625.3	51659.11
625.655	51617.3
626.01	51642.16
626.365	51681.03
626.72	51635.61
627.075	51677.86
627.43	51494.14
627.785	51540.69
628.14	51608.94
628.495	51551.99
628.85	51581.6
629.205	51439.68
629.559	51597.41
629.914	51348.61
630.269	51416.85
630.623	51381.15
630.978	51302.06
631.332	51385.22
631.687	51400.81
632.041	51271.77
632.396	51455.72
632.75	51248.95
633.104	51279.46
633.459	51207.82
633.813	51200.36
634.167	51184.32
634.521	51227.25
634.875	51249.18
635.229	51189.29
635.583	51058.9
635.937	51012.57
636.291	50967.15
636.645	50956.53
636.999	50820.94
637.352	50966.47
637.706	50595.86
638.06	50747.72
638.413	50731
638.767	50587.05
639.121	50620.94
639.474	50458.91
639.828	50428.41
640.181	50371.01
640.534	50525.13
640.888	50425.69
641.241	50199.49
641.594	50327.84
641.947	50373.94
642.301	50320.39
642.654	50285.13
643.007	50220.5
643.36	50278.58
643.713	50079.71
644.066	50036.78
644.419	49894.86
644.771	49590.91
645.124	49304.59
645.477	49268.21
645.83	48862.35
646.182	48838.84
646.535	48743.7
646.888	48825.51
647.24	48693.76
647.593	48849.69
647.945	48581.67
648.298	48567.44
648.65	48504.39
649.002	48360.89
649.355	48455.8
649.707	48247.45
650.059	48572.41
650.411	49095.33
650.763	48959.29
651.115	49357.47
651.467	49114.77
651.819	49234.09
652.171	49106.41
652.523	49086.75
652.875	49095.56
653.227	48871.16
653.578	49210.36
653.93	49026.63
654.282	48797.04
654.633	48716.13
654.985	48649.47
655.337	48726.98
655.688	48708.9
656.039	48801.56
656.391	48580.32
656.742	48653.76
657.094	48611.05
657.445	48758.62
657.796	48677.49
658.147	48718.17
658.498	48542.35
658.849	48685.17
659.2	48443.83
659.551	48469.14
659.902	48575.12
660.253	48320.89
660.604	48535.8
660.955	48177.84
661.306	48317.95
661.656	48265.07
662.007	48268.91
662.358	48259.2
662.708	48093.33
663.059	48177.62
663.409	47962.93
663.76	48201.35
664.11	48207.22
664.461	48117.96
664.811	48125.87
665.161	48115.02
665.511	47960.45
665.862	47979.2
666.212	48244.73
666.562	48084.06
666.912	47923.61
667.262	47970.62
667.612	47987.11
667.962	47966.1
668.312	47922.03
668.662	48167.67
669.011	47936.04
669.361	47918.64
669.711	47819.43
670.06	47837.29
670.41	47710.74
670.76	47639.33
671.109	47815.82
671.459	47593.68
671.808	47594.36
672.157	47628.48
672.507	47391.2
672.856	47478.43
673.205	47572.21
673.554	47645.43
673.904	47413.34
674.253	47676.16
674.602	47446.34
674.951	46824.66
675.3	46626.7
675.649	47231.65
675.998	47295.15
676.346	47198.43
676.695	47420.35
677.044	46935.84
677.393	47040.25
677.741	47119.79
678.09	46993.92
678.438	46897.43
678.787	47035.27
679.135	46751.67
679.484	46676.41
679.832	46736.98
680.181	46635.06
680.529	46716.64
680.877	46573.82
681.225	46491.11
681.573	46727.71
681.922	46376.53
682.27	46193.26
682.618	46238.01
682.966	46111.68
683.314	46123.43
683.661	45995.98
684.009	45737
684.357	45758.02
684.705	45658.81
685.053	45813.39
685.4	45765.93
685.748	45583.11
686.095	45503.79
686.443	45392.15
686.79	45212.27
687.138	45284.13
687.485	45290.91
687.832	45263.34
688.18	45210.01
688.527	44861.55
688.874	44902.45
689.221	44784.49
689.568	44698.16
689.915	44612.97
690.262	44553.53
690.609	44524.38
690.956	44507.43
691.303	44465.85
691.65	44261.34
691.997	44245.74
692.344	43995.58
692.69	43987.9
693.037	43969.14
693.383	43731.86
693.73	43712.65
694.077	43470.85
694.423	43517.17
694.769	43396.73
695.116	43320.8
695.462	43344.75
695.808	43180.23
696.155	43124.19
696.501	42873.58
696.847	42850.07
697.193	42553.13
697.539	42685.56
697.885	42394.27
698.231	42327.15
698.577	42331.67
698.923	42053.03
699.269	41992.92
699.614	41787.28
699.96	41753.15
700.306	41661.18
700.651	41430.68
700.997	41286.73
701.342	41312.71
701.688	41337.8
702.033	41108.42
702.379	41037.01
702.724	40910.01
703.069	41091.48
703.415	40637.93
703.76	40646.52
704.105	40644.93
704.45	40572.62
704.795	40287.88
705.14	40185.96
705.485	40225.06
705.83	39910.72
706.175	39989.36
706.52	39827.55
706.865	39687.67
707.209	39510.95
707.554	39448.58
707.899	39549.14
708.243	39419.43
708.588	39331.3
708.932	39078.65
709.277	39164.3
709.621	39062.15
709.966	38837.3
710.31	39012.43
710.654	38494.93
710.998	38709.39
711.342	38699
711.687	38581.03
712.031	38369.29
712.375	38313.7
712.719	38336.75
713.063	38270.53
713.407	38475.95
713.75	38118.67
714.094	37947.6
714.438	37858.57
714.782	38034.38
715.125	37755.07
715.469	37754.16
715.812	37580.61
716.156	37350.56
716.499	37346.26
716.843	37547.61
717.186	37237.11
717.53	37408.18
717.873	37270.79
718.216	37311.91
718.559	37058.36
718.902	36866.5
719.246	36957.35
719.589	36804.58
719.932	36510.81
720.275	36669.45
720.617	36560.52
720.96	36577.92
721.303	36463.8
721.646	36538.38
721.989	36354.2
722.331	36387.42
722.674	36275.56
723.016	36261.55
723.359	36269.68
723.701	36184.26
724.044	35814.33
724.386	35818.62
724.729	35982.68
725.071	35853.42
725.413	35788.56
725.755	35719.41
726.097	35499.98
726.439	35390.38
726.782	35427.44
727.124	35560.32
727.465	35363.49
727.807	35379.31
728.149	35165.08
728.491	35172.08
728.833	35108.13
729.175	35118.07
729.516	35076.04
729.858	34881.24
730.199	34883.28
730.541	34885.31
730.882	34791.53
731.224	34890.74
731.565	34707.01
731.906	34661.14
732.248	34674.7
732.589	34495.49
732.93	34409.62
733.271	34465.21
733.612	34505.21
733.953	34378.21
734.294	34283.75
734.635	34104.99
734.976	34123.98
735.317	33936.41
735.658	33984.32
735.999	33918.78
736.339	33767.15
736.68	33909.97
737.021	33671.56
737.361	33581.84
737.702	33911.55
738.042	33615.74
738.383	33690.54
738.723	33617.32
739.063	33413.94
739.404	33572.58
739.744	33456.65
740.084	33280.83
740.424	33373.26
740.764	33219.59
741.104	33238.58
741.444	33046.49
741.784	33016.21
742.124	33051.91
742.464	32960.16
742.804	33034.74
743.143	32966.72
743.483	32865.48
743.823	32712.94
744.162	32667.74
744.502	32690.57
744.841	32610.12
745.181	32777.12
745.52	32730.11
745.86	32599.5
746.199	32555.88
746.538	32461.65
746.877	32442.44
747.216	32385.72
747.556	32340.52
747.895	32296.45
748.234	32036.8
748.573	32002.9
748.911	32018.49
749.25	31935.33
749.589	31734.21
749.928	31673.19
750.267	31814.21
750.605	31604.27
750.944	31566.3
751.283	31443.59
751.621	31451.96
751.96	31266.88
752.298	31279.76
752.636	31254.22
752.975	31181.68
753.313	31080.89
753.651	31290.15
753.989	30873.67
754.327	30978.3
754.666	30779.88
755.004	30952.31
755.342	30888.13
755.679	30814.91
756.017	30562.26
756.355	30663.05
756.693	30424.19
757.031	30472.55
757.368	30294.25
757.706	30161.82
758.044	30078.43
758.381	30171.09
758.719	30158.66
759.056	29970.19
759.394	29937.87
759.731	29734.94
760.068	29645.9
760.405	29519.35
760.743	29543.53
761.08	29637.77
761.417	29406.36
761.754	29366.81
762.091	29281.84
762.428	29038.23
762.765	28877.11
763.102	29055.63
763.438	28822.19
763.775	28713.72
764.112	28751.01
764.449	28644.35
764.785	28620.62
765.122	28370.91
765.458	28279.84
765.795	28134.08
766.131	28204.81
766.467	28022.89
766.804	27835.55
767.14	27714.2
767.476	27753.97
767.812	27569.8
768.148	27598.05
768.485	27502.45
768.821	27208.23
769.157	27191.5
769.492	27122.58
769.828	27032.64
770.164	26803.49
770.5	26702.7
770.836	26705.64
771.171	26558.98
771.507	26506.77
771.842	26272.43
772.178	26301.13
772.513	26198.08
772.849	26198.31
773.184	25958.31
773.519	26108.82
773.855	25966
774.19	25853.01
774.525	25736.4
774.86	25701.82
775.195	25615.95
775.53	25547.7
775.865	25409.18
776.2	25197.88
776.535	25058.45
776.87	25047.15
777.205	24919.25
777.539	24707.73
777.874	24755.86
778.209	24532.82
778.543	24378.47
778.878	24351.58
779.212	24394.51
779.547	24207.4
779.881	24200.85
780.215	24000.17
780.55	24059.16
780.884	23839.5
781.218	23851.93
781.552	23848.77
781.886	23667.53
782.22	23507.31
782.554	23389.79
782.888	23210.36
783.222	23123.59
783.556	23064.61
783.889	22946.87
784.223	22801.11
784.557	22837.49
784.89	22906.42
785.224	22691.51
785.557	22751.85
785.891	22558.63
786.224	22579.42
786.558	22478.41
786.891	22233.67
787.224	22188.02
787.557	22171.75
787.891	22128.13
788.224	22101.69
788.557	22166.55
788.89	21937.18
789.223	21945.76
789.556	21829.61
789.888	21700.8
790.221	21665.09
790.554	21424.87
790.887	21461.26
791.219	21419.45
791.552	21262.39
791.884	21181.04
792.217	21192.34
792.549	21032.79
792.882	20944.21
793.214	20758
793.546	20849.52
793.879	20672.8
794.211	20585.57
794.543	20612.24
794.875	20512.58
795.207	20480.94
795.539	20494.28
795.871	20453.83
796.203	20272.14
796.535	20144.46
796.867	20165.02
797.198	19989.43
797.53	20008.87
797.862	19857.68
798.193	19961.86
798.525	19799.83
798.856	19740.17
799.188	19615.66
799.519	19474.87
799.85	19448.43
800.182	19430.35
800.513	19399.17
800.844	19241.2
801.175	19243.01
801.506	19217.7
801.837	19038.5
802.168	19100.19
802.499	19115.56
802.83	19017.25
803.161	19050.25
803.491	19004.6
803.822	18921.89
804.153	18764.61
804.483	18670.82
804.814	18523.71
805.145	18508.79
805.475	18532.3
805.805	18483.71
806.136	18427.89
806.466	18329.36
806.796	18231.74
807.126	18198.07
807.457	18147.22
807.787	18127.56
808.117	18107.67
808.447	17963.95
808.777	18059.77
809.107	17925.98
809.436	17965.08
809.766	17863.39
810.096	17744.97
810.426	17736.16
810.755	17699.55
811.085	17642.38
811.414	17674.92
811.744	17435.15
812.073	17427.24
812.403	17443.96
812.732	17381.82
813.061	17462.72
813.39	17290.75
813.719	17215.27
814.049	17280.58
814.378	17279.67
814.707	17076.06
815.036	17028.38
815.365	16995.16
815.693	16794.26
816.022	16973.01
816.351	16687.82
816.68	16709.74
817.008	16729.63
817.337	16573.25
817.665	16674.49
817.994	16688.05
818.322	16596.07
818.651	16479.24
818.979	16455.97
819.307	16514.72
819.636	16472.69
819.964	16337.55
820.292	16335.06
820.62	16424.78
820.948	16322.41
821.276	16411.22
821.604	16256.42
821.932	16271.11
822.259	16253.94
822.587	16300.72
822.915	16318.34
823.243	16331
823.57	16255.29
823.898	16254.39
824.225	16256.42
824.553	16269.53
824.88	16281.51
825.207	16288.29
825.535	16227.5
825.862	16288.29
826.189	16280.38
826.516	16291.45
826.843	16406.02
827.17	16372.35
827.497	16354.05
827.824	16347.95
828.151	16312.47
828.478	16244.67
828.805	16335.06
829.131	16165.58
829.458	16192.92
829.785	16156.31
830.111	16144.79
830.438	16181.85
830.764	16199.02
831.09	16219.81
831.417	16091.68
831.743	16126.71
832.069	16174.39
832.395	16040.84
832.722	16168.52
833.048	16064.11
833.374	16108.18
833.7	16037.67
834.026	16094.17
834.351	16077.9
834.677	15949.54
835.003	16121.29
835.329	16000.61
835.654	15940.72
835.98	15930.1
836.306	16081.29
836.631	15912.48
836.956	15944.57
837.282	15930.78
837.607	15822.08
837.932	15821.63
838.258	15781.63
838.583	15758.81
838.908	15722.43
839.233	15682.88
839.558	15566.72
839.883	15598.36
840.208	15535.76
840.533	15569.66
840.858	15672.94
841.182	15634.07
841.507	15520.85
841.832	15548.87
842.156	15434.52
842.481	15478.82
842.805	15399.04
843.13	15376.22
843.454	15378.71
843.778	15284.7
844.103	15290.35
844.427	15282.21
844.751	15211.7
845.075	15243.79
845.399	15147.53
845.723	15010.13
846.047	15144.14
846.371	14908.66
846.695	14867.31
847.019	14831.83
847.343	14791.6
847.666	14693.98
847.99	14597.03
848.313	14604.04
848.637	14611.95
848.96	14606.3
849.284	14500.54
849.607	14408.11
849.931	14326.08
850.254	14272.07
850.577	14199.53
850.9	14117.04
851.223	14168.57
851.546	14049.02
851.869	13955.01
852.192	14059.19
852.515	13919.99
852.838	13821.01
853.161	13831.63
853.483	13752.99
853.806	13700.78
854.129	13626.21
854.451	13534.46
854.774	13471.41
855.096	13488.13
855.419	13379.44
855.741	13428.93
856.063	13307.8
856.385	13309.83
856.708	13272.32
857.03	13313.45
857.352	13227.35
857.674	13191.19
857.996	13160.01
858.318	13119.1
858.64	13168.37
858.961	13066.45
859.283	12948.26
859.605	12941.71
859.926	12946.23
860.248	12912.33
860.57	12799.79
860.891	12881.82
861.212	12890.18
861.534	12854.93
861.855	12724.76
862.176	12739.68
862.498	12757.98
862.819	12739.91
863.14	12626.01
863.461	12596.18
863.782	12623.52
864.103	12678.21
864.424	12628.95
864.745	12689.51
865.065	12569.29
865.386	12524.54
865.707	12473.47
866.027	12456.07
866.348	12485.45
866.668	12462.62
866.989	12433.02
867.309	12408.39
867.63	12400.03
867.95	12348.28
868.27	12260.82
868.59	12250.88
868.91	12298.56
869.23	12292.01
869.55	12185.57
869.87	12195.51
870.19	12202.74
870.51	12233.25
870.83	12272.35
871.15	12093.37
871.469	12179.24
871.789	12099.92
872.109	12097.66
872.428	12030.32
872.748	12147.38
873.067	12088.85
873.386	12092.46
873.706	12140.6
874.025	11940.38
874.344	11951.9
874.663	11973.15
874.982	11971.79
875.301	11908.51
875.62	11941.28
875.939	11886.59
876.258	11866.71
876.577	11825.35
876.896	11830.55
877.214	11789.2
877.533	11807.73
877.852	11815.64
878.17	11833.26
878.489	11802.75
878.807	11885.92
879.125	11787.84
879.444	11824.45
879.762	11774.51
880.08	11777.44
880.398	11691.57
880.716	11760.04
881.034	11678.01
881.352	11727.05
881.67	11668.07
881.988	11650.44
882.306	11652.93
882.624	11552.37
882.941	11493.16
883.259	11559.6
883.577	11561.86
883.894	11498.81
884.212	11522.99
884.529	11455.87
884.846	11533.16
885.164	11431.24
885.481	11404.35
885.798	11419.04
886.115	11346.72
886.432	11403.9
886.75	11329.09
887.067	11399.38
887.383	11222.2
887.7	11361.86
888.017	11231.24
888.334	11278.47
888.651	11304.24
888.967	11120.06
889.284	11110.12
889.6	11132.26
889.917	11044.13
890.233	11051.14
890.55	10980.4
890.866	11072.83
891.182	11013.4
891.498	10963.45
891.815	10913.96
892.131	10873.29
892.447	10948.31
892.763	10875.77
893.079	10781.99
893.395	10840.29
893.71	10752.61
894.026	10694.08
894.342	10694.31
894.657	10688.21
894.973	10633.29
895.289	10698.6
895.604	10611.37
895.92	10574.99
896.235	10576.57
896.55	10536.35
896.865	10459.29
897.181	10424.71
897.496	10420.42
897.811	10338.39
898.126	10334.77
898.441	10268.33
898.756	10268.33
899.071	10235.11
899.386	10298.61
899.7	10136.81
900.015	10158.28
900.33	10059.3
900.644	10064.04
900.959	10153.98
901.273	9960.32
901.588	9960.54
901.902	9937.04
902.216	9885.06
902.531	9836.48
902.845	9787.67
903.159	9775.46
903.473	9848.23
903.787	9705.41
904.101	9796.71
904.415	9724.62
904.729	9641.91
905.042	9703.6
905.356	9638.74
905.67	9643.94
905.984	9568.69
906.297	9578.41
906.611	9515.58
906.924	9486.21
907.237	9416.83
907.551	9431.97
907.864	9344.06
908.177	9320.33
908.491	9303.16
908.804	9269.26
909.117	9204.4
909.43	9156.95
909.743	9106.33
910.056	9072.43
910.368	9131.86
910.681	9025.65
910.994	9016.61
911.307	9052.09
911.619	8879.44
911.932	8950.17
912.244	8886.45
912.557	8882.15
912.869	8832.89
913.181	8885.77
913.494	8748.6
913.806	8713.12
914.118	8708.15
914.43	8674.93
914.742	8654.81
915.054	8573.01
915.366	8588.6
915.678	8520.58
915.99	8507.93
916.302	8531.88
916.613	8426.12
916.925	8491.88
917.236	8391.77
917.548	8325.33
917.859	8356.97
918.171	8290.08
918.482	8195.62
918.794	8226.58
919.105	8154.04
919.416	8169.63
919.727	8131.44
920.038	8144.09
920.349	8044.66
920.66	8042.18
920.971	8042.18
921.282	7971.67
921.593	7952.23
921.903	7929.18
922.214	7911.56
922.525	7818.9
922.835	7766.93
923.146	7795.18
923.456	7736.65
923.767	7669.53
924.077	7681.06
924.387	7610.55
924.697	7640.6
925.008	7598.35
925.318	7540.49
925.628	7498.69
925.938	7488.07
926.248	7419.14
926.558	7359.93
926.867	7428.86
927.177	7393.83
927.487	7397.45
927.796	7287.62
928.106	7273.61
928.416	7203.33
928.725	7237.22
929.034	7155.42
929.344	7117.45
929.653	7139.15
929.962	7119.49
930.271	7110.22
930.581	7090.11
930.89	7021.86
931.199	7010.79
931.508	6990
931.817	6941.64
932.125	6904.13
932.434	6936.22
932.743	6907.74
933.051	6782.32
933.36	6711.14
933.669	6709.33
933.977	6736
934.286	6697.58
934.594	6667.97
934.902	6572.84
935.21	6578.03
935.519	6589.78
935.827	6554.53
936.135	6508.2
936.443	6471.14
936.751	6508.88
937.059	6407.87
937.367	6439.28
937.674	6383.46
937.982	6386.17
938.29	6327.64
938.597	6283.35
938.905	6242
939.213	6322.45
939.52	6241.54
939.827	6244.03
940.135	6189.12
940.442	6213.07
940.749	6145.5
941.056	6115.45
941.363	6084.94
941.67	6072.06
941.977	6051.04
942.284	5949.12
942.591	5976.92
942.898	5995.45
943.205	5925.4
943.511	5892.18
943.818	5869.58
944.125	5881.1
944.431	5853.53
944.738	5818.96
945.044	5789.58
945.35	5777.6
945.657	5776.02
945.963	5742.8
946.269	5707.1
946.575	5677.72
946.881	5667.1
947.187	5592.52
947.493	5609.25
947.799	5569.02
948.105	5569.25
948.41	5584.61
948.716	5546.2
949.022	5520.89
949.327	5450.83
949.633	5432.07
949.938	5432.75
950.244	5388.46
950.549	5377.61
950.854	5405.41
951.16	5362.7
951.465	5314.56
951.77	5256.03
952.075	5287.45
952.38	5249.03
952.685	5261.91
952.99	5219.2
953.294	5202.25
953.599	5146.21
953.904	5130.84
954.209	5097.85
954.513	5113.44
954.818	5072.54
955.122	5042.25
955.426	5022.82
955.731	5011.75
956.035	4988.7
956.339	4995.7
956.643	4959.32
956.948	4960.67
957.252	4883.16
957.556	4927
957.86	4899.21
958.163	4858.76
958.467	4804.52
958.771	4832.54
959.075	4811.53
959.378	4780.79
959.682	4743.73
959.985	4753
960.289	4642.49
960.592	4677.07
960.896	4681.81
961.199	4623.73
961.502	4586.9
961.805	4598.2
962.108	4611.08
962.411	4601.14
962.714	4533.34
963.017	4526.79
963.32	4551.19
963.623	4496.96
963.926	4473.46
964.228	4414.93
964.531	4463.06
964.833	4416.51
965.136	4359.56
965.438	4392.33
965.741	4374.7
966.043	4338.09
966.345	4343.52
966.648	4333.57
966.95	4326.12
967.252	4271.65
967.554	4305.1
967.856	4263.52
968.158	4197.08
968.46	4231.2
968.761	4214.03
969.063	4222.84
969.365	4174.03
969.666	4160.47
969.968	4123.41
970.269	4072.34
970.571	4105.1
970.872	4065.1
971.174	4051.32
971.475	4062.62
971.776	4025.33
972.077	3973.36
972.378	3965.67
972.679	3907.82
972.98	3963.19
973.281	3893.58
973.582	3909.18
973.883	3905.34
974.183	3915.28
974.484	3848.16
974.785	3830.31
975.085	3823.76
975.386	3840.48
975.686	3797.32
975.986	3780.37
976.287	3807.48
976.587	3752.57
976.887	3773.81
977.187	3742.4
977.487	3754.38
977.787	3671.44
978.087	3697.88
978.387	3631.9
978.687	3626.7
978.987	3652.46
979.286	3636.87
979.586	3631.22
979.885	3533.59
980.185	3589.86
980.484	3584.44
980.784	3567.72
981.083	3532.46
981.382	3535.63
981.682	3515.51
981.981	3477.32
982.28	3482.75
982.579	3485.46
982.878	3480.94
983.177	3444.33
983.475	3411.56
983.774	3378.34
984.073	3381.06
984.372	3362.75
984.67	3323.88
984.969	3359.36
985.267	3357.55
985.566	3303.54
985.864	3329.08
986.162	3239.59
986.461	3249.53
986.759	3223.32
987.057	3223.09
987.355	3204.11
987.653	3154.62
987.951	3211.57
988.249	3179.7
988.547	3164.56
988.844	3152.36
989.142	3116.88
989.44	3098.58
989.737	3119.82
990.035	3092.48
990.332	3097.67
990.63	3080.05
990.927	3066.49
991.224	2999.82
991.521	3010.9
991.819	3001.18
992.116	2988.75
992.413	2936.77
992.71	2945.81
993.006	2917.56
993.303	2909.66
993.6	2899.94
993.897	2924.8
994.193	2878.92
994.49	2845.7
994.787	2840.96
995.083	2854.97
995.379	2826.49
995.676	2817.45
995.972	2818.81
996.268	2767.29
996.565	2769.55
996.861	2725.25
997.157	2757.34
997.453	2732.71
997.749	2711.92
998.044	2680.06
998.34	2689.77
998.636	2641.87
998.932	2629.44
999.227	2606.16
999.523	2642.77
999.818	2618.59
1000.114	2608.42
1000.409	2606.39
1000.704	2562.55
1001	2567.07
1001.295	2543.34
1001.59	2520.96
1001.885	2527.07
1002.18	2483
1002.475	2506.95
1002.77	2481.19
1003.065	2477.58
1003.359	2489.33
1003.654	2446.84
1003.949	2416.33
1004.243	2416.33
1004.538	2399.84
1004.832	2400.29
1005.127	2352.83
1005.421	2422.44
1005.715	2351.93
1006.009	2357.81
1006.304	2328.43
1006.598	2312.16
1006.892	2314.19
1007.186	2319.84
1007.48	2301.08
1007.773	2259.95
1008.067	2236.68
1008.361	2268.54
1008.655	2261.76
1008.948	2220.41
1009.242	2194.42
1009.535	2191.93
1009.829	2222.67
1010.122	2186.06
1010.415	2173.63
1010.708	2161.43
1011.001	2144.03
1011.295	2124.37
1011.588	2114.42
1011.881	2075.33
1012.173	2087.08
1012.466	2031.49
1012.759	2084.37
1013.052	2073.07
1013.344	2009.57
1013.637	2016.12
1013.93	2019.51
1014.222	2003.01
1014.514	1974.99
1014.807	1954.65
1015.099	1932.96
1015.391	1970.02
1015.683	1936.12
1015.976	1921.43
1016.268	1880.98
1016.56	1911.04
1016.851	1898.38
1017.143	1867.65
1017.435	1914.43
1017.727	1878.27
1018.018	1844.37
1018.31	1829.01
1018.602	1831.49
1018.893	1792.17
1019.185	1777.93
1019.476	1779.74
1019.767	1769.57
1020.058	1751.72
1020.35	1733.87
1020.641	1767.76
1020.932	1736.8
1021.223	1692.74
1021.514	1674.43
1021.804	1688.9
1022.095	1684.38
1022.386	1675.56
1022.677	1660.87
1022.967	1673.3
1023.258	1644.15
1023.548	1611.84
1023.839	1642.57
1024.129	1636.69
1024.419	1595.57
1024.709	1562.8
1025	1576.13
1025.29	1553.98
1025.58	1546.08
1025.87	1524.15
1026.16	1526.19
1026.449	1501.33
1026.739	1505.17
1027.029	1509.47
1027.319	1472.86
1027.608	1473.76
1027.898	1488.9
1028.187	1484.61
1028.477	1481.22
1028.766	1459.07
1029.055	1447.09
1029.344	1421.11
1029.634	1410.71
1029.923	1403.03
1030.212	1404.16
1030.501	1391.28
1030.79	1383.37
1031.078	1378.17
1031.367	1354.89
1031.656	1340.43
1031.945	1311.51
1032.233	1328.23
1032.522	1310.83
1032.81	1310.6
1033.099	1276.7
1033.387	1292.97
1033.675	1299.3
1033.963	1261.56
1034.251	1260.66
1034.54	1278.96
1034.828	1258.85
1035.116	1257.27
1035.403	1234.67
1035.691	1216.59
1035.979	1234.67
1036.267	1224.95
1036.554	1214.56
1036.842	1180.89
1037.129	1181.56
1037.417	1163.03
1037.704	1135.46
1037.992	1150.61
1038.279	1161.68
1038.566	1150.15
1038.853	1150.15
1039.14	1150.15
