Data from aluminium_surface_pro_back_FLMS001491_00009.txt Node
Date: Wed Feb 08 15:33:30 GMT 2017
User: dcchb
Spectrometer: FLMS00149
Trigger mode: 0
Integration Time (sec): 2.000000E-2
Scans to average: 10
Electric dark correction enabled: true
Nonlinearity correction enabled: false
Boxcar width: 0
XAxis mode: Wavelengths
Number of Pixels in Spectrum: 2048
>>>>>Begin Spectral Data<<<<<
341.393	-20.37
341.776	-20.37
342.16	-20.37
342.543	-44.32
342.927	-63.76
343.31	-68.5
343.693	-58.56
344.077	-62.85
344.46	-70.31
344.843	-56.98
345.226	-26.69
345.61	-22.17
345.993	-27.82
346.376	-9.52
346.759	19.63
347.142	16.69
347.525	34.32
347.908	49.46
348.291	82
348.674	92.85
349.057	108.44
349.44	124.26
349.823	139.86
350.206	172.17
350.588	221.43
350.971	230.47
351.354	239.74
351.737	267.31
352.119	284.48
352.502	290.59
352.884	319.96
353.267	308.89
353.65	316.35
354.032	294.43
354.414	315.22
354.797	348.44
355.179	367.65
355.562	351.83
355.944	380.07
356.326	371.49
356.709	354.54
357.091	383.46
357.473	367.19
357.855	383.46
358.238	376.01
358.62	374.65
359.002	361.54
359.384	370.81
359.766	369.45
360.148	392.96
360.53	372.62
360.912	372.17
361.294	371.71
361.676	384.59
362.057	377.81
362.439	378.94
362.821	377.36
363.203	371.04
363.584	367.42
363.966	362.9
364.348	378.27
364.729	363.58
365.111	359.28
365.493	373.97
365.874	347.76
366.256	378.27
366.637	365.39
367.019	365.84
367.4	377.14
367.781	375.78
368.163	369.91
368.544	367.19
368.925	356.57
369.306	389.57
369.688	395.44
370.069	366.29
370.45	385.27
370.831	390.92
371.212	390.47
371.593	359.74
371.974	392.05
372.355	390.02
372.736	374.2
373.117	403.35
373.498	394.54
373.879	401.09
374.26	399.96
374.641	394.09
375.021	384.14
375.402	403.12
375.783	402.45
376.163	412.16
376.544	413.07
376.925	435.67
377.305	421.43
377.686	427.31
378.066	423.69
378.447	421.88
378.827	427.31
379.208	419.4
379.588	430.02
379.968	432.28
380.349	449
380.729	431.15
381.109	445.61
381.489	446.97
381.87	450.13
382.25	468.89
382.63	455.33
383.01	434.76
383.39	466.63
383.77	460.52
384.15	482.44
384.53	484.93
384.91	497.13
385.29	487.42
385.67	514.99
386.049	532.16
386.429	524.03
386.809	512.05
387.189	542.78
387.568	529.9
387.948	537.81
388.328	517.02
388.707	537.13
389.087	534.87
389.466	569.22
389.846	550.69
390.225	559.51
390.605	548.43
390.984	554.76
391.363	560.86
391.743	569.45
392.122	574.65
392.501	620.75
392.881	600.86
393.26	606.96
393.639	641.76
394.018	615.32
394.397	600.41
394.776	635.89
395.155	652.84
395.534	657.81
395.913	654.87
396.292	656.23
396.671	654.87
397.05	691.48
397.429	685.38
397.808	675.89
398.186	683.34
398.565	685.38
398.944	709.11
399.323	706.85
399.701	718.6
400.08	726.05
400.458	705.94
400.837	752.27
401.215	750.01
401.594	732.38
401.972	754.08
402.351	763.79
402.729	775.77
403.107	799.05
403.486	845.6
403.864	797.69
404.242	826.16
404.62	818.26
404.999	826.39
405.377	862.32
405.755	874.3
406.133	886.5
406.511	886.28
406.889	876.78
407.267	924.92
407.645	908.87
408.023	950.23
408.401	938.93
408.779	945.94
409.156	961.98
409.534	959.04
409.912	991.81
410.29	995.65
410.667	1022.54
411.045	1041.3
411.422	1024.35
411.8	1051.7
412.178	1062.32
412.555	1075.65
412.933	1106.16
413.31	1102.54
413.687	1131.24
414.065	1167.4
414.442	1169.21
414.819	1156.1
415.197	1172.14
415.574	1159.72
415.951	1222.99
416.328	1220.96
416.705	1230.67
417.082	1229.32
417.46	1250.11
417.837	1271.12
418.214	1292.82
418.591	1291.01
418.967	1321.74
419.344	1322.65
419.721	1331.69
420.098	1346.15
420.475	1353.38
420.852	1385.47
421.228	1371.46
421.605	1387.05
421.982	1423.66
422.358	1463.21
422.735	1444.23
423.111	1444.45
423.488	1509.31
423.864	1494.17
424.241	1512.25
424.617	1515.86
424.994	1543.43
425.37	1573.26
425.746	1586.14
426.123	1597.9
426.499	1639.02
426.875	1623.21
427.251	1654.17
427.627	1670.89
428.003	1715.63
428.379	1696.2
428.756	1729.64
429.132	1753.6
429.507	1777.55
429.883	1819.36
430.259	1837.89
430.635	1842.18
431.011	1873.59
431.387	1933.03
431.763	1919.47
432.138	1935.06
432.514	1996.76
432.89	2010.99
433.265	2051.44
433.641	2042.86
434.016	2090.09
434.392	2084.21
434.767	2147.94
435.143	2169.41
435.518	2197.65
435.894	2209.86
436.269	2269.06
436.644	2269.29
437.02	2284.21
437.395	2293.7
437.77	2305.45
438.145	2379.8
438.52	2390.19
438.895	2392.23
439.271	2433.35
439.646	2492.79
440.021	2491.21
440.395	2522.39
440.77	2486.23
441.145	2520.81
441.52	2592.67
441.895	2586.12
442.27	2610.52
442.645	2636.06
443.019	2657.75
443.394	2685.32
443.769	2712.22
444.143	2656.63
444.518	2769.84
444.892	2740.46
445.267	2793.34
445.641	2768.94
446.016	2821.14
446.39	2838.09
446.764	2827.24
447.139	2884.42
447.513	2904.98
447.887	2907.47
448.262	2921.93
448.636	2979.78
449.01	2993.11
449.384	3010.29
449.758	3057.29
450.132	3102.26
450.506	3108.36
450.88	3135.26
451.254	3180.68
451.628	3178.42
452.002	3250.28
452.376	3237.63
452.75	3296.16
453.123	3291.86
453.497	3342.03
453.871	3408.24
454.244	3447.79
454.618	3506.77
454.992	3507.68
455.365	3514.91
455.739	3670.38
456.112	3671.97
456.486	3682.13
456.859	3685.98
457.232	3774.11
457.606	3805.3
457.979	3883.94
458.352	3941.79
458.725	3956.48
459.099	4018.17
459.472	4098.17
459.845	4133.65
460.218	4159.64
460.591	4183.82
460.964	4214.32
461.337	4356.92
461.71	4372.29
462.083	4409.8
462.456	4438.27
462.829	4514.43
463.201	4575.67
463.574	4613.86
463.947	4691.37
464.32	4787.87
464.692	4831.03
465.065	4890.01
465.438	4899.28
465.81	4973.17
466.183	5060.63
466.555	5146.5
466.928	5183.34
467.3	5169.1
467.672	5265.37
468.045	5391.92
468.417	5395.08
468.789	5464.01
469.161	5520.96
469.534	5678.69
469.906	5759.82
470.278	5835.07
470.65	5858.35
471.022	5998.23
471.394	6085.24
471.766	6165.46
472.138	6234.16
472.51	6339.01
472.882	6447.49
473.253	6537.43
473.625	6584.43
473.997	6754.37
474.369	6778.32
474.74	6919.56
475.112	7023.52
475.484	7158.65
475.855	7282.04
476.227	7366.33
476.598	7514.35
476.97	7586.89
477.341	7833.21
477.713	7903.72
478.084	7959.76
478.455	8224.39
478.827	8320.43
479.198	8526.08
479.569	8456.92
479.94	8806.29
480.311	8887.87
480.682	9062.56
481.053	9271.59
481.424	9399.5
481.795	9471.81
482.166	9696.44
482.537	9793.16
482.908	10000.84
483.279	10064.11
483.65	10258.91
484.021	10481.96
484.391	10561.73
484.762	10663.65
485.133	10818.44
485.503	10994.94
485.874	11216.17
486.244	11374.14
486.615	11495.04
486.985	11699.1
487.356	11902.03
487.726	11960.11
488.097	12259.99
488.467	12259.31
488.837	12570.49
489.207	12658.85
489.578	12827.21
489.948	12947.2
490.318	13166.63
490.688	13207.76
491.058	13425.83
491.428	13569.11
491.798	13764.81
492.168	14042.31
492.538	14114.4
492.908	14304.45
493.278	14526.82
493.648	14483.43
494.017	14774.5
494.387	14863.08
494.757	14947.15
495.126	15238.22
495.496	15226.69
495.866	15382.17
496.235	15561.14
496.605	15635.04
496.974	15791.87
497.344	15904.41
497.713	16054.46
498.082	16160.68
498.452	16343.27
498.821	16382.37
499.19	16524.28
499.559	16716.14
499.928	16849.92
500.298	16972.63
500.667	17140.54
501.036	17116.36
501.405	17329.23
501.774	17348.44
502.143	17544.82
502.512	17690.81
502.88	17750.92
503.249	17785.27
503.618	17895.32
503.987	18088.31
504.356	18253.73
504.724	18317
505.093	18411.47
505.462	18433.16
505.83	18612.82
506.199	18749.31
506.567	19029.98
506.936	19107.49
507.304	19340.25
507.672	19374.38
508.041	19512.91
508.409	19646.91
508.777	19836.74
509.145	20093.23
509.514	20095.71
509.882	20264.75
510.25	20350.17
510.618	20485.76
510.986	20684.85
511.354	20812.08
511.722	20983.6
512.09	21267.44
512.458	21223.59
512.826	21385.62
513.193	21567.31
513.561	21780.19
513.929	21875.33
514.297	22100.41
514.664	22348.54
515.032	22361.64
515.4	22569.1
515.767	22619.49
516.135	22773.61
516.502	22738.58
516.869	23202.98
517.237	23304.67
517.604	23229.64
517.972	23444.33
518.339	23713.47
518.706	23713.25
519.073	23865.78
519.44	24182.39
519.808	24480.01
520.175	24445.88
520.542	24680.68
520.909	24886.32
521.276	24986.66
521.643	25321.11
522.009	25422.81
522.376	25618.51
522.743	25798.39
523.11	26011.49
523.477	26275.89
523.843	26450.12
524.21	26652.6
524.577	26951.13
524.943	27119.26
525.31	27276.54
525.676	27546.14
526.043	27601.51
526.409	27778.45
526.776	28278.1
527.142	28375.5
527.508	28466.79
527.874	28687.35
528.241	28944.97
528.607	29071.98
528.973	29308.13
529.339	29407.33
529.705	29695.91
530.071	29935.46
530.437	30003.25
530.803	30274.43
531.169	30463.13
531.535	30358.72
531.901	30508.55
532.267	30769.56
532.632	31041.42
532.998	31024.47
533.364	31315.98
533.73	31343.55
534.095	31584.68
534.461	31668.52
534.826	31938.79
535.192	31900.38
535.557	32220.59
535.923	32285
536.288	32372.45
536.653	32505.33
537.019	32677.3
537.384	32731.77
537.749	32977.86
538.114	32979.9
538.479	33101.7
538.845	33360.45
539.21	33308.25
539.575	33506.21
539.94	33598.64
540.305	33758.63
540.67	33753.89
541.034	33956.82
541.399	34081.34
541.764	34053.99
542.129	34338.28
542.494	34352.06
542.858	34553.64
543.223	34659.17
543.587	34858.94
543.952	34894.87
544.316	34966.96
544.681	35007.86
545.045	35277.69
545.41	35288.54
545.774	35375.09
546.138	35519.72
546.503	35617.34
546.867	35695.53
547.231	36044
547.595	35969.2
547.959	36154.05
548.324	36235.18
548.688	36356.53
549.052	36542.97
549.416	36630.42
549.779	36669.74
550.143	36738.89
550.507	37080.58
550.871	37236.28
551.235	37113.57
551.599	37434.24
551.962	37484.18
552.326	37513.11
552.689	37860.45
553.053	37716.04
553.417	37708.13
553.78	38321.45
554.143	38106.31
554.507	38339.53
554.87	38404.84
555.234	38826.52
555.597	38637.83
555.96	38952.85
556.323	39168.21
556.686	39092.28
557.05	39496.11
557.413	39528.2
557.776	39598.93
558.139	40061.97
558.502	40026.94
558.865	40174.96
559.228	40696.75
559.59	40617.89
559.953	40690.65
560.316	41181.26
560.679	41130.19
561.041	41527.02
561.404	41653.79
561.767	41925.2
562.129	41840
562.492	42296.26
562.854	42216.49
563.217	42352.53
563.579	42567.44
563.941	42695.12
564.304	42971.5
564.666	43352.28
565.028	43538.26
565.39	43618.03
565.753	43782.78
566.115	44110.9
566.477	44111.13
566.839	44334.85
567.201	44588.86
567.563	44574.84
567.925	44851.22
568.287	44886.93
568.648	45013.25
569.01	45287.14
569.372	45571.43
569.734	45356.52
570.095	45675.83
570.457	45818.65
570.819	46081.7
571.18	46151.98
571.542	46158.31
571.903	46451.18
572.265	46567.56
572.626	46741.57
572.987	46838.74
573.349	46982.01
573.71	47169.58
574.071	47275.56
574.432	47459.06
574.794	47797.36
575.155	47762.56
575.516	47596.01
575.877	47870.58
576.238	47898.15
576.599	48107.63
576.96	48140.4
577.32	48109.67
577.681	48250.68
578.042	48442.54
578.403	48555.53
578.763	48515.53
579.124	48659.71
579.485	48843.66
579.845	48980.6
580.206	48943.09
580.566	48930.89
580.927	49035.74
581.287	49103.77
581.648	49031
582.008	49274.83
582.368	49162.75
582.728	49244.78
583.089	49292.01
583.449	49212.69
583.809	49356.41
584.169	49421.95
584.529	49243.87
584.889	49729.29
585.249	49384.44
585.609	49397.32
585.969	49537.43
586.329	49464.21
586.688	49529.97
587.048	49409.52
587.408	49405
587.768	49347.83
588.127	49354.61
588.487	49398.9
588.846	49754.14
589.206	49480.93
589.565	49612.9
589.925	49729.29
590.284	49568.61
590.643	49730.64
591.003	49807.48
591.362	49968.6
591.721	49856.29
592.08	49770.19
592.44	49982.39
592.799	49902.84
593.158	49870.3
593.517	49845.21
593.876	49864.2
594.235	49761.6
594.593	49802.73
594.952	49977.41
595.311	49861.26
595.67	49917.76
596.029	50181.93
596.387	50082.95
596.746	50197.07
597.104	49995.72
597.463	50053.57
597.822	50246.33
598.18	50090.86
598.538	50113.68
598.897	50274.36
599.255	50064.64
599.613	50512.54
599.972	50292.66
600.33	50428.25
600.688	50202.49
601.046	50360.46
601.404	50458.53
601.762	50505.54
602.12	50627.12
602.478	50621.92
602.836	50703.95
603.194	50463.05
603.552	50614.91
603.91	50496.5
604.268	50657.4
604.625	50531.98
604.983	50791.4
605.341	50578.53
605.698	50861.91
606.056	50821.91
606.413	50762.03
606.771	50898.07
607.128	50847.45
607.485	50797.51
607.843	50882.02
608.2	51057.39
608.557	51091.96
608.914	50975.35
609.272	51180.55
609.629	51188
609.986	51265.06
610.343	51058.74
610.7	51359.07
611.057	51288.11
611.414	51255.35
611.771	51204.5
612.127	51366.76
612.484	51392.74
612.841	51447.43
613.198	51297.83
613.554	51357.72
613.911	51505.74
614.267	51545.28
614.624	51523.14
614.98	51601.1
615.337	51720.87
615.693	51680.19
616.05	51630.93
616.406	51976.23
616.762	51774.66
617.118	51831.6
617.475	51673.42
617.831	51859.85
618.187	51914.76
618.543	51974.42
618.899	52021.65
619.255	52015.78
619.611	52034.31
619.967	52146.4
620.323	52126.06
620.678	51995.21
621.034	51976.68
621.39	51931.49
621.746	51913.63
622.101	52218.03
622.457	52006.29
622.812	52150.01
623.168	52033.18
623.523	52091.94
623.879	52115.21
624.234	51996.8
624.589	52145.49
624.945	52050.58
625.3	52150.46
625.655	52096.46
626.01	52108.88
626.365	52081.31
626.72	51915.44
627.075	51890.36
627.43	51966.74
627.785	51896.46
628.14	51957.48
628.495	51924.71
628.85	51924.71
629.205	51851.94
629.559	52017.81
629.914	51974.2
630.269	52044.48
630.623	51957.48
630.978	51774.88
631.332	52002.45
631.687	52013.07
632.041	51802.23
632.396	51863.69
632.75	51787.99
633.104	51790.25
633.459	51584.38
633.813	51517.71
634.167	51579.18
634.521	51590.25
634.875	51545.51
635.229	51562.68
635.583	51304.84
635.937	51296.48
636.291	51390.71
636.645	51322.24
636.999	51257.61
637.352	51289.02
637.706	51174.9
638.06	51293.09
638.413	51247.66
638.767	51152.53
639.121	51078.85
639.474	50935.13
639.828	50939.88
640.181	50943.72
640.534	50931.51
640.888	50813.32
641.241	50607
641.594	50702.37
641.947	50765.64
642.301	50666.66
642.654	50706.66
643.007	50600.9
643.36	50691.29
643.713	50500.34
644.066	50625.31
644.419	50462.15
644.771	50200.69
645.124	49953.01
645.477	49901.94
645.83	49692
646.182	49487.71
646.535	49394.15
646.888	49422.85
647.24	49265.8
647.593	49424.89
647.945	49280.94
648.298	49179.24
648.65	49004.33
649.002	49010.66
649.355	49214.5
649.707	48998.23
650.059	49181.96
650.411	49727.7
650.763	49722.28
651.115	50075.72
651.467	49935.16
651.819	49888.83
652.171	49916.4
652.523	49759.12
652.875	49813.13
653.227	49553.25
653.578	49807.7
653.93	49617.42
654.282	49545.56
654.633	49344.44
654.985	49451.33
655.337	49476.18
655.688	49338.79
656.039	49530.19
656.391	49143.76
656.742	49226.7
657.094	49197.77
657.445	49250.88
657.796	49133.14
658.147	49079.59
658.498	49023.32
658.849	49215.63
659.2	49044.11
659.551	48942.64
659.902	49160.94
660.253	49023.54
660.604	48979.7
660.955	48864.9
661.306	49051.11
661.656	48954.16
662.007	48931.11
662.358	48897.67
662.708	48831.91
663.059	48780.38
663.409	48669.65
663.76	48861.29
664.11	48748.75
664.461	48818.58
664.811	48763.66
665.161	48616.09
665.511	48626.49
665.862	48600.95
666.212	48640.27
666.562	48647.96
666.912	48442.77
667.262	48520.5
667.612	48378.81
667.962	48530.9
668.312	48314.63
668.662	48509.43
669.011	48450.22
669.361	48412.94
669.711	48471.24
670.06	48316.22
670.41	48152.6
670.76	48174.75
671.109	48388.08
671.459	48260.85
671.808	48190.34
672.157	48244.35
672.507	48169.1
672.856	48101.98
673.205	48190.8
673.554	48135.66
673.904	48136.79
674.253	48305.82
674.602	48175.88
674.951	47489.8
675.3	47404.15
675.649	47957.13
675.998	47977.69
676.346	47898.83
676.695	48046.84
677.044	47531.6
677.393	47747.64
677.741	47723.69
678.09	47560.3
678.438	47549.46
678.787	47549
679.135	47594.43
679.484	47291.16
679.832	47543.58
680.181	47259.29
680.529	47329.12
680.877	47320.08
681.225	47276.47
681.573	47397.6
681.922	46953.54
682.27	46969.58
682.618	47137.94
682.966	46979.08
683.314	47109.24
683.661	46905.63
684.009	46648.46
684.357	46550.84
684.705	46494.57
685.053	46539.54
685.4	46390.62
685.748	46317.62
686.095	46281.92
686.443	46095.71
686.79	46098.42
687.138	46102.49
687.485	46124.41
687.832	45837.64
688.18	46000.57
688.527	45689.39
688.874	45812.55
689.221	45691.2
689.568	45582.95
689.915	45454.6
690.262	45381.6
690.609	45230.19
690.956	45253.47
691.303	45249.86
691.65	44944.1
691.997	44864.1
692.344	44769.19
692.69	44622.98
693.037	44828.85
693.383	44343.44
693.73	44472.47
694.077	44140.96
694.423	44174.63
694.769	44054.86
695.116	44016.22
695.462	43748.88
695.808	43695.77
696.155	43844.92
696.501	43513.18
696.847	43517.25
697.193	43250.13
697.539	43326.74
697.885	42996.81
698.231	42910.26
698.577	42942.57
698.923	42792.74
699.269	42778.51
699.614	42452.41
699.96	42391.85
700.306	42360.21
700.651	42239.77
700.997	42030.05
701.342	42065.31
701.688	41877.29
702.033	41750.51
702.379	41762.04
702.724	41591.19
703.069	41641.36
703.415	41267.36
703.76	41207.93
704.105	41237.53
704.45	41108.95
704.795	40836.86
705.14	40723.65
705.485	40817.2
705.83	40642.07
706.175	40590.09
706.52	40443.43
706.865	40265.35
707.209	40113.04
707.554	40035.98
707.899	40177.22
708.243	39972.48
708.588	39969.77
708.932	39644.81
709.277	39577.69
709.621	39628.53
709.966	39301.99
710.31	39523.45
710.654	39147.19
710.998	39133.63
711.342	39125.72
711.687	38996.69
712.031	38878.72
712.375	38669.69
712.719	38690.93
713.063	38629.24
713.407	38781.78
713.75	38496.81
714.094	38571.61
714.438	38276.71
714.782	38248.23
715.125	38190.83
715.469	38216.82
715.812	38027.45
716.156	37821.12
716.499	37912.65
716.843	37804.4
717.186	37617.51
717.53	37894.34
717.873	37762.59
718.216	37616.61
718.559	37396.28
718.902	37214.81
719.246	37398.31
719.589	37253.23
719.932	37056.62
720.275	36909.96
720.617	37061.6
720.96	36859.12
721.303	36864.31
721.646	36792.45
721.989	36724.66
722.331	36648.05
722.674	36582.74
723.016	36683.53
723.359	36508.16
723.701	36461.84
724.044	36240.83
724.386	36090.55
724.729	36214.84
725.071	36128.97
725.413	36203.54
725.755	36134.16
726.097	35998.12
726.439	35733.27
726.782	35896.88
727.124	35976.2
727.465	35645.14
727.807	35582.09
728.149	35575.99
728.491	35463.45
728.833	35552.03
729.175	35381.87
729.516	35338.03
729.858	35289.21
730.199	35180.52
730.541	35132.61
730.882	35106.62
731.224	35262.55
731.565	34877.92
731.906	34953.63
732.248	34937.13
732.589	34628.89
732.93	34553.19
733.271	34639.74
733.612	34619.4
733.953	34546.18
734.294	34407.65
734.635	34372.63
734.976	34411.27
735.317	34105.97
735.658	34127.66
735.999	34195.68
736.339	34068.91
736.68	34244.72
737.021	34091.5
737.361	33894.45
737.702	33964.05
738.042	33804.05
738.383	33720.22
738.723	33837.05
739.063	33691.97
739.404	33616.49
739.744	33607.68
740.084	33404.29
740.424	33450.84
740.764	33474.35
741.104	33424.18
741.444	33221.02
741.784	33293.33
742.124	33275.03
742.464	33139.21
742.804	33166.33
743.143	32983.51
743.483	33129.04
743.823	32931.08
744.162	32804.53
744.502	32868.94
744.841	32644.54
745.181	32795.95
745.52	32578.1
745.86	32602.73
746.199	32601.6
746.538	32541.94
746.877	32579.68
747.216	32449.97
747.556	32317.09
747.895	32265.56
748.234	32133.36
748.573	32098.11
748.911	32048.17
749.25	31902.18
749.589	31855.86
749.928	31838.23
750.267	31765.01
750.605	31727.5
750.944	31678.46
751.283	31431.69
751.621	31526.83
751.96	31242.77
752.298	31282.31
752.636	31284.12
752.975	31182.65
753.313	31025.37
753.651	31207.29
753.989	31029.66
754.327	30878.26
754.666	30728.88
755.004	30756.9
755.342	30777.92
755.679	30746.51
756.017	30437.36
756.355	30675.32
756.693	30552.16
757.031	30351.72
757.368	30113.76
757.706	30301.32
758.044	30088.67
758.381	30074.44
758.719	30036.02
759.056	30027.2
759.394	29820.66
759.731	29568.23
760.068	29726.65
760.405	29642.58
760.743	29289.37
761.08	29496.6
761.417	29273.1
761.754	29156.95
762.091	29159.21
762.428	29053.9
762.765	28786.56
763.102	28897.29
763.438	28808.71
763.775	28594.47
764.112	28694.81
764.449	28621.37
764.785	28474.03
765.122	28155.62
765.458	28186.8
765.795	28151.1
766.131	28004.21
766.467	28001.95
766.804	27787.94
767.14	27738.45
767.476	27721.73
767.812	27615.52
768.148	27664.33
768.485	27510.21
768.821	27332.81
769.157	27168.07
769.492	27117.22
769.828	27073.16
770.164	26696.44
770.5	26730.79
770.836	26802.66
771.171	26449.45
771.507	26524.92
771.842	26324.03
772.178	26290.58
772.513	26256.46
772.849	26167.19
773.184	25951.61
773.519	26076.57
773.855	25874.55
774.19	25670.94
774.525	25776.92
774.86	25649.01
775.195	25590.03
775.53	25508.45
775.865	25315.46
776.2	25172.87
776.535	24996.83
776.87	25027.79
777.205	24842.03
777.539	24787.34
777.874	24756.38
778.209	24482.27
778.543	24573.11
778.878	24410.86
779.212	24439.56
779.547	24172.67
779.881	24284.98
780.215	24079.79
780.55	24111.88
780.884	23902.17
781.218	23835.5
781.552	23918.89
781.886	23673.93
782.22	23575.85
782.554	23435.74
782.888	23452.46
783.222	23230.1
783.556	23152.36
783.889	23159.14
784.223	22958.24
784.557	22948.97
784.89	22987.62
785.224	22823.55
785.557	22831.46
785.891	22713.05
786.224	22631.47
786.558	22530.68
786.891	22429.21
787.224	22229.22
787.557	22237.58
787.891	22122.55
788.224	22146.28
788.557	21983.8
788.89	21958.72
789.223	21866.06
789.556	21830.13
789.888	21757.14
790.221	21627.88
790.554	21451.61
790.887	21419.52
791.219	21381.56
791.552	21260.2
791.884	21223.37
792.217	21069.02
792.549	21039.42
792.882	20939.99
793.214	20843.94
793.546	20893.89
793.879	20782.93
794.211	20636.27
794.543	20639.43
794.875	20553.78
795.207	20585.87
795.539	20412.77
795.871	20394.24
796.203	20167.35
796.535	20059.11
796.867	20198.76
797.198	20060.01
797.53	19992.21
797.862	19907.47
798.193	19984.98
798.525	19756.29
798.856	19763.29
799.188	19626.57
799.519	19518.78
799.85	19352.46
800.182	19450.76
800.513	19298.45
800.844	19221.16
801.175	19356.98
801.506	19295.06
801.837	19188.17
802.168	19140.71
802.499	19057.78
802.83	18936.65
803.161	18804.9
803.491	18844.22
803.822	18851.68
804.153	18684.9
804.483	18665.47
804.814	18579.37
805.145	18525.81
805.475	18512.48
805.805	18434.29
806.136	18451.46
806.466	18472.71
806.796	18376.66
807.126	18252.15
807.457	18074.07
807.787	18168.76
808.117	18069.78
808.447	18037.24
808.777	17948.65
809.107	17993.17
809.436	18019.16
809.766	17945.26
810.096	17795.44
810.426	17734.65
810.755	17822.1
811.085	17676.8
811.414	17678.83
811.744	17556.8
812.073	17394.99
812.403	17526.74
812.732	17373.75
813.061	17430.02
813.39	17255.34
813.719	17245.62
814.049	17333.53
814.378	17242.91
814.707	17016.02
815.036	17056.7
815.365	16925.4
815.693	16896.48
816.022	16972.63
816.351	16786.65
816.68	16641.79
817.008	16831.85
817.337	16621.23
817.665	16614
817.994	16731.51
818.322	16625.75
818.651	16571.51
818.979	16495.36
819.307	16551.17
819.636	16462.59
819.964	16357.06
820.292	16368.58
820.62	16351.41
820.948	16385.76
821.276	16344.63
821.604	16223.5
821.932	16308.7
822.259	16261.47
822.587	16246.1
822.915	16331.97
823.243	16323.61
823.57	16224.63
823.898	16235.25
824.225	16216.72
824.553	16226.89
824.88	16252.88
825.207	16314.57
825.535	16183.5
825.862	16311.86
826.189	16210.39
826.516	16403.16
826.843	16354.8
827.17	16340.33
827.497	16245.42
827.824	16282.48
828.151	16393.89
828.478	16198.42
828.805	16276.61
829.131	16183.28
829.458	16223.73
829.785	16128.81
830.111	16155.71
830.438	16381.69
830.764	16280.9
831.09	16240.9
831.417	16129.04
831.743	16200.68
832.069	16111.19
832.395	16073.9
832.722	16099.89
833.048	16039.55
833.374	16119.55
833.7	16087.68
834.026	16145.54
834.351	16091.98
834.677	16047.91
835.003	16131.07
835.329	16073.9
835.654	15934.47
835.98	15950.74
836.306	15928.59
836.631	15876.16
836.956	15907.8
837.282	15930.85
837.607	15739.9
837.932	15684.31
838.258	15753.91
838.583	15750.07
838.908	15619.67
839.233	15662.84
839.558	15609.96
839.883	15612.67
840.208	15456.06
840.533	15440.92
840.858	15434.14
841.182	15419.45
841.507	15388.04
841.832	15280.93
842.156	15340.59
842.481	15307.59
842.805	15341.04
843.13	15321.6
843.454	15271.66
843.778	15186.47
844.103	15210.42
844.427	15059.46
844.751	15190.76
845.075	15052.01
845.399	15037.54
845.723	14987.37
846.047	15024.21
846.371	14915.96
846.695	14865.57
847.019	14832.8
847.343	14759.58
847.666	14757.55
847.99	14749.41
848.313	14602.53
848.637	14584
848.96	14504
849.284	14477.11
849.607	14478.24
849.931	14358.92
850.254	14268.52
850.577	14172.03
850.9	14115.76
851.223	14147.85
851.546	14059.94
851.869	13954.63
852.192	14040.05
852.515	13846.61
852.838	13741.08
853.161	13825.82
853.483	13680.52
853.806	13699.72
854.129	13752.6
854.451	13634.42
854.774	13539.95
855.096	13466.96
855.419	13487.75
855.741	13427.42
856.063	13363.69
856.385	13324.14
856.708	13282.79
857.03	13280.53
857.352	13240.53
857.674	13229.68
857.996	13204.6
858.318	13082.11
858.64	13059.97
858.961	13111.72
859.283	13023.58
859.605	12994.43
859.926	13049.35
860.248	12991.27
860.57	12890.71
860.891	12948.56
861.212	12881.89
861.534	12796.92
861.855	12808.9
862.176	12810.48
862.498	12801.22
862.819	12761.67
863.14	12647.1
863.461	12676.7
863.782	12679.41
864.103	12687.1
864.424	12652.75
864.745	12669.7
865.065	12607.1
865.386	12517.38
865.707	12571.17
866.027	12546.76
866.348	12535.01
866.668	12578.62
866.989	12505.41
867.309	12492.98
867.63	12486.65
867.95	12500.43
868.27	12420.44
868.59	12433.77
868.91	12353.55
869.23	12297.5
869.55	12218.18
869.87	12342.02
870.19	12293.21
870.51	12324.39
870.83	12328.24
871.15	12227.22
871.469	12204.85
871.789	12234.9
872.109	12221.12
872.428	12168.47
872.748	12271.29
873.067	12187.9
873.386	12163.27
873.706	12088.02
874.025	12085.3
874.344	12023.16
874.663	12072.65
874.982	11999.2
875.301	12005.76
875.62	12042.14
875.939	11940.9
876.258	11992.88
876.577	11951.3
876.896	12004.4
877.214	11927.57
877.533	11935.93
877.852	11855.25
878.17	11875.82
878.489	11934.8
878.807	11980
879.125	11849.38
879.444	11845.76
879.762	11897.74
880.08	11870.17
880.398	11812.32
880.716	11839.89
881.034	11813.9
881.352	11743.39
881.67	11720.34
881.988	11756.72
882.306	11701.58
882.624	11709.27
882.941	11591.98
883.259	11586.79
883.577	11610.97
883.894	11537.97
884.212	11643.28
884.529	11580.23
884.846	11542.27
885.164	11416.85
885.481	11349.5
885.798	11511.53
886.115	11299.79
886.432	11400.8
886.75	11320.35
887.067	11361.03
887.383	11295.95
887.7	11298.66
888.017	11194.03
888.334	11225.67
888.651	11267.7
888.967	11215.72
889.284	11075.16
889.6	11093.69
889.917	11066.57
890.233	11101.6
890.55	10982.06
890.866	10988.38
891.182	10966.01
891.498	10956.52
891.815	10921.04
892.131	10857.09
892.447	10867.71
892.763	10795.62
893.079	10855.28
893.395	10763.76
893.71	10690.31
894.026	10708.62
894.342	10686.24
894.657	10605.34
894.973	10602.86
895.289	10644.44
895.604	10610.54
895.92	10590.43
896.235	10493.71
896.55	10518.11
896.865	10503.2
897.181	10466.36
897.496	10467.95
897.811	10316.99
898.126	10356.31
898.441	10323.54
898.756	10301.62
899.071	10284.9
899.386	10319.47
899.7	10190.66
900.015	10143.89
900.33	10100.95
900.644	10080.16
900.959	10135.98
901.273	10114.73
901.588	10034.51
901.902	10030.89
902.216	9944.34
902.531	9966.04
902.845	9900.95
903.159	9941.18
903.473	9858.02
903.787	9884.91
904.101	9773.95
904.415	9799.94
904.729	9728.53
905.042	9668.19
905.356	9666.84
905.67	9705.93
905.984	9681.98
906.297	9592.49
906.611	9523.11
906.924	9522.43
907.237	9574.64
907.551	9455.32
907.864	9438.59
908.177	9463
908.491	9395.43
908.804	9298.94
909.117	9304.59
909.43	9211.25
909.743	9159.73
910.056	9197.02
910.368	9127.87
910.681	9082.44
910.994	9119.73
911.307	9004.71
911.619	8959.28
911.932	9026.18
912.244	8876.8
912.557	8947.99
912.869	8883.13
913.181	8839.29
913.494	8794.99
913.806	8789.35
914.118	8786.41
914.43	8637.03
914.742	8738.95
915.054	8659.63
915.366	8613.76
915.678	8632.97
915.99	8563.59
916.302	8507.09
916.613	8496.47
916.925	8488.34
917.236	8492.18
917.548	8343.26
917.859	8381.22
918.171	8313.2
918.482	8266.2
918.794	8235.24
919.105	8284.95
919.416	8152.07
919.727	8128.8
920.038	8125.41
920.349	8065.07
920.66	8052.42
920.971	8070.27
921.282	7994.56
921.593	7952.08
921.903	7900.1
922.214	7866.66
922.525	7868.01
922.835	7821.91
923.146	7745.76
923.456	7753.89
923.767	7718.86
924.077	7738.98
924.387	7668.92
924.697	7676.15
925.008	7614.69
925.318	7608.59
925.628	7555.48
925.938	7555.25
926.248	7465.76
926.558	7458.53
926.867	7457.85
927.177	7442.26
927.487	7391.42
927.796	7315.94
928.106	7338.99
928.416	7302.38
928.725	7240.23
929.034	7256.28
929.344	7226
929.653	7214.7
929.962	7161.59
930.271	7107.36
930.581	7143.29
930.89	7077.75
931.199	7003.18
931.508	6954.14
931.817	7018.09
932.125	6971.77
932.434	6911.43
932.743	6846.12
933.051	6833.24
933.36	6805.89
933.669	6770.64
933.977	6778.55
934.286	6771.55
934.594	6747.36
934.902	6713.24
935.21	6668.27
935.519	6638.22
935.827	6581.04
936.135	6556.18
936.443	6541.49
936.751	6504.89
937.059	6463.3
937.367	6438.67
937.674	6469.63
937.982	6420.82
938.29	6355.28
938.597	6417.43
938.905	6301.05
939.213	6279.81
939.52	6287.49
939.827	6230.99
940.135	6267.6
940.442	6223.54
940.749	6227.15
941.056	6134.05
941.363	6138.79
941.67	6099.47
941.977	6040.26
942.284	6033.03
942.591	5941.28
942.898	5971.34
943.205	5957.78
943.511	5948.97
943.818	5886.6
944.125	5935.41
944.431	5830.33
944.738	5857.9
945.044	5826.03
945.35	5812.02
945.657	5816.77
945.963	5788.75
946.269	5781.74
946.575	5720.05
946.881	5697.9
947.187	5658.81
947.493	5630.33
947.799	5627.62
948.105	5605.93
948.41	5558.02
948.716	5543.1
949.022	5511.24
949.327	5493.61
949.633	5510.56
949.938	5495.19
950.244	5471.47
950.549	5429.21
950.854	5407.06
951.16	5424.69
951.465	5340.62
951.77	5360.28
952.075	5309.44
952.38	5268.99
952.685	5279.61
952.99	5207.52
953.294	5220.17
953.599	5144.7
953.904	5143.34
954.209	5159.38
954.513	5160.29
954.818	5116.22
955.122	5110.8
955.426	5060.18
955.731	5044.58
956.035	5011.14
956.339	5030.35
956.643	4997.13
956.948	4974.3
957.252	4933.63
957.556	4913.74
957.86	4864.7
958.163	4832.84
958.467	4852.95
958.771	4848.21
959.075	4794.2
959.378	4805.04
959.682	4817.25
959.985	4725.72
960.289	4773.86
960.592	4720.75
960.896	4751.26
961.199	4624.26
961.502	4653.86
961.805	4663.13
962.108	4579.96
962.411	4586.74
962.714	4564.15
963.017	4498.38
963.32	4579.74
963.623	4542.45
963.926	4495.22
964.228	4479.18
964.531	4493.64
964.833	4479.85
965.136	4440.31
965.438	4396.01
965.741	4347.2
966.043	4378.61
966.345	4349.01
966.648	4326.41
966.95	4351.95
967.252	4322.34
967.554	4275.34
967.856	4285.96
968.158	4232.63
968.46	4195.57
968.761	4221.33
969.063	4177.26
969.365	4156.25
969.666	4155.12
969.968	4125.74
970.269	4097.04
970.571	4116.93
970.872	4101.78
971.174	4051.84
971.475	4087.55
971.776	4015.69
972.077	4037.83
972.378	3981.11
972.679	3969.81
972.98	3987.21
973.281	3988.12
973.582	3938.85
973.883	3945.18
974.183	3909.02
974.484	3885.97
974.785	3878.51
975.085	3873.09
975.386	3934.78
975.686	3843.71
975.986	3824.05
976.287	3814.33
976.587	3768.01
976.887	3762.13
977.187	3755.13
977.487	3716.94
977.787	3705.64
978.087	3708.35
978.387	3707.67
978.687	3677.62
978.987	3676.49
979.286	3617.73
979.586	3620.22
979.885	3587.45
980.185	3556.26
980.484	3584.51
980.784	3541.12
981.083	3555.13
981.382	3525.08
981.682	3536.38
981.981	3495.93
982.28	3471.07
982.579	3443.27
982.878	3469.03
983.177	3442.37
983.475	3463.38
983.774	3421.8
984.073	3405.98
984.372	3371.18
984.67	3393.55
984.969	3380.45
985.267	3342.26
985.566	3318.08
985.864	3350.39
986.162	3368.92
986.461	3290.28
986.759	3300.22
987.057	3217.97
987.355	3255.25
987.653	3239.89
987.951	3235.37
988.249	3255.25
988.547	3208.93
988.844	3203.28
989.142	3161.47
989.44	3116.05
989.737	3124.64
990.035	3117.86
990.332	3080.34
990.63	3061.81
990.927	3051.64
991.224	3078.53
991.521	3030.17
991.819	3005.54
992.116	3000.57
992.413	2981.81
992.71	2937.3
993.006	2958.31
993.303	2958.54
993.6	2919.22
993.897	2912.66
994.193	2921.7
994.49	2874.7
994.787	2890.74
995.083	2887.35
995.379	2860.01
995.676	2828.15
995.972	2838.99
996.268	2821.14
996.565	2808.26
996.861	2807.58
997.157	2742.05
997.453	2753.12
997.749	2740.69
998.044	2747.47
998.34	2723.52
998.636	2704.76
998.932	2735.27
999.227	2686
999.523	2680.81
999.818	2659.56
1000.114	2610.07
1000.409	2584.76
1000.704	2625.21
1001	2608.49
1001.295	2559.23
1001.59	2603.29
1001.885	2575.05
1002.18	2564.65
1002.475	2535.5
1002.77	2531.43
1003.065	2494.82
1003.359	2502.28
1003.654	2479.45
1003.949	2460.02
1004.243	2475.39
1004.538	2443.75
1004.832	2416.86
1005.127	2424.09
1005.421	2406.69
1005.715	2364.2
1006.009	2361.04
1006.304	2374.82
1006.598	2319.01
1006.892	2344.54
1007.186	2309.06
1007.48	2306.58
1007.773	2310.65
1008.067	2326.01
1008.361	2270.19
1008.655	2236.3
1008.948	2252.12
1009.242	2247.82
1009.535	2216.64
1009.829	2173.7
1010.122	2193.36
1010.415	2206.47
1010.708	2193.13
1011.001	2165.79
1011.295	2149.75
1011.588	2130.31
1011.881	2109.75
1012.173	2107.71
1012.466	2061.16
1012.759	2083.76
1013.052	2082.63
1013.344	2054.38
1013.637	2055.28
1013.93	1999.24
1014.222	2041.95
1014.514	2025.46
1014.807	1998.34
1015.099	1967.6
1015.391	1984.78
1015.683	1969.86
1015.976	1963.99
1016.268	1912.46
1016.56	1934.16
1016.851	1887.61
1017.143	1895.97
1017.435	1894.16
1017.727	1859.58
1018.018	1853.03
1018.31	1862.97
1018.602	1820.04
1018.893	1853.93
1019.185	1832.92
1019.476	1818.91
1019.767	1805.57
1020.058	1778
1020.35	1769.19
1020.641	1744.33
1020.932	1732.81
1021.223	1722.41
1021.514	1720.38
1021.804	1685.8
1022.095	1683.09
1022.386	1695.29
1022.677	1674.96
1022.967	1670.44
1023.258	1642.87
1023.548	1645.35
1023.839	1627.73
1024.129	1633.38
1024.419	1608.97
1024.709	1582.3
1025	1590.21
1025.29	1590.44
1025.58	1583.43
1025.87	1550.44
1026.16	1552.02
1026.449	1565.81
1026.739	1525.36
1027.029	1551.34
1027.319	1528.07
1027.608	1519.25
1027.898	1496.88
1028.187	1484.68
1028.477	1475.19
1028.766	1509.76
1029.055	1443.1
1029.344	1440.39
1029.634	1411.46
1029.923	1414.85
1030.212	1438.35
1030.501	1409.65
1030.79	1392.25
1031.078	1350.67
1031.367	1380.05
1031.656	1384.79
1031.945	1333.5
1032.233	1342.76
1032.522	1333.27
1032.81	1311.58
1033.099	1310.45
1033.387	1296.89
1033.675	1295.08
1033.963	1295.53
1034.251	1294.18
1034.54	1258.7
1034.828	1254.85
1035.116	1243.1
1035.403	1235.19
1035.691	1231.58
1035.979	1226.38
1036.267	1218.7
1036.554	1220.96
1036.842	1233.84
1037.129	1192.71
1037.417	1192.26
1037.704	1185.7
1037.992	1169.88
1038.279	1179.15
1038.566	1149.09
1038.853	1149.09
1039.14	1149.09
