Data from aluminium_macbook_case_FLMS001491_092.txt Node
Date: Tue Feb 07 10:44:27 GMT 2017
User: dcchb
Spectrometer: FLMS00149
Trigger mode: 0
Integration Time (sec): 2.000000E-2
Scans to average: 10
Electric dark correction enabled: true
Nonlinearity correction enabled: false
Boxcar width: 0
XAxis mode: Wavelengths
Number of Pixels in Spectrum: 2048
>>>>>Begin Spectral Data<<<<<
341.393	3.38
341.776	3.38
342.16	3.38
342.543	-61.03
342.927	-57.64
343.31	-50.63
343.693	-75.94
344.077	-62.39
344.46	-67.58
344.843	-42.5
345.226	-56.74
345.61	-41.37
345.993	-24.19
346.376	-1.82
346.759	13.09
347.142	18.29
347.525	35.92
347.908	56.48
348.291	83.15
348.674	97.84
349.057	118.4
349.44	138.29
349.823	141
350.206	185.52
350.588	269.36
350.971	270.49
351.354	275.01
351.737	302.35
352.119	297.38
352.502	308
352.884	353.2
353.267	323.14
353.65	365.85
354.032	367.43
354.414	351.39
354.797	381.22
355.179	367.21
355.562	391.84
355.944	416.92
356.326	390.94
356.709	401.11
357.091	399.07
357.473	403.59
357.855	410.37
358.238	416.02
358.62	418.73
359.002	429.35
359.384	425.06
359.766	413.99
360.148	432.97
360.53	403.82
360.912	428.45
361.294	453.53
361.676	426.64
362.057	419.41
362.439	406.98
362.821	433.65
363.203	413.53
363.584	408.79
363.966	411.5
364.348	435.23
364.729	418.73
365.111	420.54
365.493	402.46
365.874	430.26
366.256	422.8
366.637	418.28
367.019	421.44
367.4	440.2
367.781	461.44
368.163	444.04
368.544	432.52
368.925	448.34
369.306	435.68
369.688	446.3
370.069	425.96
370.45	437.04
370.831	439.75
371.212	430.93
371.593	439.3
371.974	483.14
372.355	448.79
372.736	453.31
373.117	482.69
373.498	451.95
373.879	483.36
374.26	462.57
374.641	447.88
375.021	457.37
375.402	461.67
375.783	501.44
376.163	512.29
376.544	542.34
376.925	486.3
377.305	493.53
377.686	496.47
378.066	514.55
378.447	499.63
378.827	558.16
379.208	542.12
379.588	541.89
379.968	545.51
380.349	535.57
380.729	544.83
381.109	534.66
381.489	558.16
381.87	569.46
382.25	562.91
382.63	587.77
383.01	588.9
383.39	585.96
383.77	609.69
384.15	599.07
384.53	602.68
384.91	624.83
385.29	615.79
385.67	601.33
386.049	619.4
386.429	643.81
386.809	634.77
387.189	644.26
387.568	651.27
387.948	692.17
388.328	681.1
388.707	662.79
389.087	694.43
389.466	703.7
389.846	703.7
390.225	709.35
390.605	720.19
390.984	736.01
391.363	710.02
391.743	778.27
392.122	771.27
392.501	737.82
392.881	796.8
393.26	799.29
393.639	811.26
394.018	798.61
394.397	803.13
394.776	800.87
395.155	838.83
395.534	850.13
395.913	853.07
396.292	859.17
396.671	864.82
397.05	891.94
397.429	898.04
397.808	903.46
398.186	905.5
398.565	916.12
398.944	922.22
399.323	937.14
399.701	939.4
400.08	935.33
400.458	996.57
400.837	995.44
401.215	994.31
401.594	1006.06
401.972	1005.38
402.351	1018.72
402.729	1043.35
403.107	1031.37
403.486	1062.56
403.864	1074.31
404.242	1060.97
404.62	1088.77
404.999	1111.14
405.377	1116.34
405.755	1147.53
406.133	1154.98
406.511	1171.93
406.889	1200.41
407.267	1215.1
407.645	1227.52
408.023	1243.12
408.401	1241.54
408.779	1248.99
409.156	1280.86
409.534	1284.25
409.912	1322.44
410.29	1366.28
410.667	1382.55
411.045	1428.42
411.422	1402.66
411.8	1407.41
412.178	1440.17
412.555	1474.07
412.933	1472.49
413.31	1497.57
413.687	1532.37
414.065	1542.09
414.442	1560.17
414.819	1602.66
415.197	1583.22
415.574	1637.46
415.951	1650.11
416.328	1644.46
416.705	1709.09
417.082	1693.73
417.46	1708.19
417.837	1733.5
418.214	1728.98
418.591	1752.26
418.967	1767.4
419.344	1811.69
419.721	1858.24
420.098	1845.36
420.475	1863.44
420.852	1859.82
421.228	1895.08
421.605	1930.78
421.982	1924
422.358	1987.28
422.735	2006.49
423.111	2004.68
423.488	2041.51
423.864	2034.73
424.241	2086.26
424.617	2095.07
424.994	2125.81
425.37	2162.87
425.746	2142.3
426.123	2221.85
426.499	2233.6
426.875	2241.96
427.251	2297.78
427.627	2361.96
428.003	2368.51
428.379	2396.53
428.756	2418.68
429.132	2491.45
429.507	2488.06
429.883	2520.6
430.259	2601.05
430.635	2582.06
431.011	2631.56
431.387	2686.69
431.763	2779.57
432.138	2777.54
432.514	2805.56
432.89	2853.02
433.265	2902.73
433.641	2897.76
434.016	2963.3
434.392	2987.25
434.767	3093.92
435.143	3032.45
435.518	3095.95
435.894	3144.76
436.269	3185.44
436.644	3241.71
437.02	3259.79
437.395	3269.05
437.77	3349.28
438.145	3352.89
438.52	3392.67
438.895	3480.12
439.271	3488.48
439.646	3535.03
440.021	3594.02
440.395	3637.4
440.77	3578.2
441.145	3610.51
441.52	3761.24
441.895	3678.08
442.27	3730.96
442.645	3756.27
443.019	3852.54
443.394	3824.97
443.769	3851.86
444.143	3869.49
444.518	3923.72
444.892	3963.95
445.267	4040.33
445.641	4026.55
446.016	4083.04
446.39	4074.46
446.764	4144.28
447.139	4104.51
447.513	4196.49
447.887	4201.46
448.262	4234.9
448.636	4296.14
449.01	4343.6
449.384	4369.36
449.758	4366.42
450.132	4413.43
450.506	4464.28
450.88	4495.23
451.254	4552.63
451.628	4577.94
452.002	4624.27
452.376	4674.44
452.75	4763.93
453.123	4771.39
453.497	4887.09
453.871	4944.26
454.244	5009.8
454.618	5063.58
454.992	5116.91
455.365	5078.95
455.739	5282.11
456.112	5358.72
456.486	5391.26
456.859	5446.85
457.232	5577.47
457.606	5539.95
457.979	5669.22
458.352	5766.39
458.725	5799.16
459.099	5814.97
459.472	5984.01
459.845	6001.86
460.218	6084.57
460.591	6131.58
460.964	6207.05
461.337	6346.71
461.71	6403.21
462.083	6541.28
462.456	6517.1
462.829	6529.31
463.201	6733.37
463.574	6713.03
463.947	6838.45
464.32	7010.87
464.692	7021.72
465.065	7054.49
465.438	7254.48
465.81	7375.61
466.183	7415.38
466.555	7582.16
466.928	7671.87
467.3	7704.42
467.672	7819.67
468.045	8008.59
468.417	8021.24
468.789	8095.37
469.161	8183.27
469.534	8384.4
469.906	8623.04
470.278	8561.34
470.65	8709.36
471.022	8878.85
471.394	9064.15
471.766	9090.59
472.138	9212.85
472.51	9426.18
472.882	9619.62
473.253	9693.74
473.625	9819.39
473.997	10074.3
474.369	10110.23
474.74	10286.27
475.112	10425.7
475.484	10712.7
475.855	10874.95
476.227	10985.46
476.598	11305
476.97	11381.38
477.341	11630.19
477.713	11829.96
478.084	11892.33
478.455	12271.98
478.827	12367.57
479.198	12744.06
479.569	12748.35
479.94	13111.73
480.311	13229.02
480.682	13507.43
481.053	13847.08
481.424	13955.78
481.795	14088.2
482.166	14368.42
482.537	14561.64
482.908	14894.96
483.279	15095.41
483.65	15385.8
484.021	15701.95
484.391	15787.37
484.762	15942.84
485.133	16187.36
485.503	16477.97
485.874	16909.6
486.244	16981.46
486.615	17372.64
486.985	17440.66
487.356	17879.97
487.726	18066.4
488.097	18467.97
488.467	18520.18
488.837	18892.82
489.207	19108.64
489.578	19347.73
489.948	19507.72
490.318	19789.52
490.688	19975.28
491.058	20294.14
491.428	20478.32
491.798	20621.59
492.168	20994.91
492.538	21152.88
492.908	21330.72
493.278	21707.89
493.648	21737.27
494.017	22056.36
494.387	22230.36
494.757	22347.65
495.126	22642.1
495.496	22667.86
495.866	22879.38
496.235	23347.17
496.605	23568.41
496.974	23665.58
497.344	23859.92
497.713	24024.66
498.082	24350.76
498.452	24622.84
498.821	24745.32
499.19	24848.6
499.559	24994.58
499.928	25213.33
500.298	25372.65
500.667	25618.52
501.036	25611.06
501.405	25856.26
501.774	25894.45
502.143	26235.91
502.512	26325.62
502.88	26606.97
503.249	26566.07
503.618	26808.32
503.987	26832.05
504.356	27129.22
504.724	27321.98
505.093	27313.84
505.462	27632.48
505.83	27818.24
506.199	28028.18
506.567	28431.78
506.936	28432.46
507.304	28828.38
507.672	28830.19
508.041	29029.51
508.409	29449.38
508.777	29623.39
509.145	29892.53
509.514	29986.54
509.882	30221.79
510.25	30455.91
510.618	30597.37
510.986	30747.88
511.354	31071.49
511.722	31282.33
512.09	31708.53
512.458	31529.1
512.826	31880.96
513.193	32153.26
513.561	32216.31
513.929	32495.85
514.297	32698.56
514.664	32906.47
515.032	33055.39
515.4	33313.69
515.767	33551.87
516.135	33643.4
516.502	33558.43
516.869	34087.68
517.237	34315.24
517.604	34256.49
517.972	34688.34
518.339	34973.76
518.706	35172.17
519.073	35237.93
519.44	35596.34
519.808	36131.69
520.175	36219.37
520.542	36688.96
520.909	36744.56
521.276	36879.47
521.643	37424.31
522.009	37761.48
522.376	37947.69
522.743	38254.8
523.11	38625.86
523.477	38886.65
523.843	39009.58
524.21	39512.17
524.577	39819.73
524.943	39888.88
525.31	40001.87
525.676	40437.11
526.043	40715.75
526.409	40894.28
526.776	41368.39
527.142	41434.83
527.508	41733.8
527.874	41890.86
528.241	42221.93
528.607	42287.91
528.973	42581.47
529.339	42678.41
529.705	43162.24
530.071	43464.15
530.437	43740.98
530.803	43939.85
531.169	44132.84
531.535	44153.18
531.901	44370.34
532.267	44656.44
532.632	44875.42
532.998	45105.47
533.364	45313.82
533.73	45525.57
534.095	45923.98
534.461	46022.5
534.826	46260.69
535.192	46363.51
535.557	46618.2
535.923	46745.42
536.288	46800.34
536.653	46998.52
537.019	47017.96
537.384	47317.61
537.749	47471.51
538.114	47539.07
538.479	47680.54
538.845	47913.08
539.21	47807.77
539.575	48077.37
539.94	48119.62
540.305	48193.29
540.67	48306.06
541.034	48512.38
541.399	48657.01
541.764	48723.45
542.129	48921.64
542.494	48969.55
542.858	49169.09
543.223	49250.44
543.587	49421.06
543.952	49539.7
544.316	49673.93
544.681	49648.17
545.045	49833.25
545.41	50001.16
545.774	50077.09
546.138	50228.27
546.503	50186.69
546.867	50244.54
547.231	50720.23
547.595	50815.82
547.959	50887.24
548.324	50949.15
548.688	51152.09
549.052	51261.91
549.416	51388.47
549.779	51500.33
550.143	51559.99
550.507	51956.81
550.871	51852.63
551.235	51871.39
551.599	52134.21
551.962	52092.18
552.326	52121.55
552.689	52494.2
553.053	52321.1
553.417	52442.9
553.78	52752.05
554.143	52729.45
554.507	52766.73
554.87	52987.29
555.234	53302.77
555.597	53105.03
555.96	53325.14
556.323	53371.46
556.686	53379.37
557.05	53691.68
557.413	53743.66
557.776	53882.64
558.139	54050.77
558.502	54146.13
558.865	54213.93
559.228	54495.73
559.59	54537.99
559.953	54603.3
560.316	54978.65
560.679	54980.91
561.041	55122.83
561.404	55235.6
561.767	55479.43
562.129	55353.78
562.492	55603.72
562.854	55719.42
563.217	55721.23
563.579	55863.15
563.941	56026.31
564.304	56105.18
564.666	56329.35
565.028	56338.39
565.39	56463.81
565.753	56539.29
566.115	56598.95
566.477	56750.36
566.839	56821.09
567.201	56972.73
567.563	56954.87
567.925	57129.11
568.287	57158.03
568.648	57202.1
569.01	57393.05
569.372	57588.75
569.734	57470.11
570.095	57678.47
570.457	57751.91
570.819	57750.33
571.18	57846.15
571.542	57936.54
571.903	58027.84
572.265	58075.97
572.626	58241.39
572.987	58221.96
573.349	58298.79
573.71	58409.07
574.071	58408.62
574.432	58544.44
574.794	58724.54
575.155	58677.77
575.516	58621.95
575.877	58740.81
576.238	58742.85
576.599	58873.92
576.96	58943.07
577.32	58948.49
577.681	59061.48
578.042	59014.25
578.403	59082.73
578.763	59055.61
579.124	59131.09
579.485	59251.54
579.845	59319.56
580.206	59264.64
580.566	59231.2
580.927	59296.28
581.287	59384.64
581.648	59248.6
582.008	59371.53
582.368	59341.02
582.728	59413.56
583.089	59373.11
583.449	59411.08
583.809	59441.13
584.169	59481.81
584.529	59425.54
584.889	59590.06
585.249	59453.79
585.609	59406.33
585.969	59590.06
586.329	59461.02
586.688	59553.22
587.048	59456.73
587.408	59474.35
587.768	59502.6
588.127	59482.94
588.487	59436.16
588.846	59666.89
589.206	59426.45
589.565	59447.69
589.925	59595.93
590.284	59507.35
590.643	59547.8
591.003	59561.13
591.362	59632.77
591.721	59561.81
592.08	59607.23
592.44	59646.78
592.799	59650.62
593.158	59649.94
593.517	59612.66
593.876	59708.7
594.235	59632.32
594.593	59628.25
594.952	59692.43
595.311	59597.29
595.67	59685.65
596.029	59797.74
596.387	59776.27
596.746	59827.79
597.104	59739.43
597.463	59753.67
597.822	59771.07
598.18	59773.33
598.538	59730.17
598.897	59889.03
599.255	59674.12
599.613	60023.72
599.972	59865.53
600.33	59926.55
600.688	59848.13
601.046	59916.83
601.404	60003.61
601.762	59897.39
602.12	60105.52
602.478	60066.88
602.836	60042.25
603.194	59938.97
603.552	60054
603.91	59932.87
604.268	60083.83
604.625	60011.74
604.983	60143.49
605.341	59995.24
605.698	60125.18
606.056	60141.23
606.413	60143.49
606.771	60221.23
607.128	60192.98
607.485	60062.81
607.843	60139.87
608.2	60324.05
608.557	60340.77
608.914	60231.4
609.272	60343.94
609.629	60434.1
609.986	60564.95
610.343	60385.74
610.7	60585.74
611.057	60527.43
611.414	60528.79
611.771	60512.75
612.127	60588.9
612.484	60541.44
612.841	60678.62
613.198	60543.93
613.554	60600.43
613.911	60743.7
614.267	60697.15
614.624	60643.59
614.98	60747.09
615.337	60778.73
615.693	60760.87
616.05	60732.4
616.406	60839.06
616.762	60837.93
617.118	60847.65
617.475	60836.13
617.831	60938.5
618.187	60903.47
618.543	60931.94
618.899	61048.32
619.255	61013.75
619.611	60963.58
619.967	61087.19
620.323	61093.07
620.678	61051.49
621.034	60966.29
621.39	61016.01
621.746	60935.78
622.101	61131.03
622.457	60948.21
622.812	60988.44
623.168	61023.69
623.523	61007.87
623.879	61117.25
624.234	60927.42
624.589	61000.64
624.945	61027.08
625.3	60999.29
625.655	60998.83
626.01	61067.08
626.365	60969.23
626.72	60898.72
627.075	60952.06
627.43	60980.08
627.785	60876.13
628.14	60932.85
628.495	60978.5
628.85	60883.13
629.205	60815.34
629.559	60915.45
629.914	60798.61
630.269	60825.05
630.623	60810.36
630.978	60752.06
631.332	60835.9
631.687	60850.82
632.041	60742.34
632.396	60779.86
632.75	60637.26
633.104	60627.54
633.459	60622.57
633.813	60558.62
634.167	60555.91
634.521	60573.53
634.875	60577.6
635.229	60608.11
635.583	60433.2
635.937	60517.94
636.291	60450.15
636.645	60498.06
636.999	60366.31
637.352	60376.93
637.706	60268.23
638.06	60391.84
638.413	60283.82
638.767	60223.94
639.121	60285.41
639.474	60064.62
639.828	60128.35
640.181	60111.4
640.534	60100.33
640.888	59886.32
641.241	59895.36
641.594	59945.08
641.947	59924.51
642.301	59886.09
642.654	59915.7
643.007	59871.18
643.36	59745.53
643.713	59745.76
644.066	59864.4
644.419	59671.86
644.771	59501.92
645.124	59272.55
645.477	59266
645.83	59143.52
646.182	58978.32
646.535	58828.72
646.888	58882.73
647.24	58767.71
647.593	58900.81
647.945	58798.44
648.298	58697.2
648.65	58632.34
649.002	58551.67
649.355	58690.65
649.707	58607.94
650.059	58768.38
650.411	59011.32
650.763	59026.68
651.115	59241.37
651.467	59131.09
651.819	59150.97
652.171	59053.35
652.523	59150.75
652.875	59059
653.227	58927.25
653.578	59070.07
653.93	59008.15
654.282	58941.03
654.633	58847.25
654.985	58880.25
655.337	58868.27
655.688	58878.21
656.039	58987.36
656.391	58727.93
656.742	58743.75
657.094	58796.41
657.445	58856.74
657.796	58827.14
658.147	58706.01
658.498	58764.32
658.849	58802.73
659.2	58679.12
659.551	58567.49
659.902	58703.98
660.253	58664.43
660.604	58598.9
660.955	58475.74
661.306	58501.72
661.656	58504.89
662.007	58489.97
662.358	58471.22
662.708	58427.83
663.059	58468.96
663.409	58212.47
663.76	58449.07
664.11	58368.85
664.461	58415.4
664.811	58323.2
665.161	58336.08
665.511	58195.74
665.862	58318.9
666.212	58335.4
666.562	58295.4
666.912	58269.87
667.262	58187.61
667.612	58132.92
667.962	58258.57
668.312	58186.7
668.662	58252.92
669.011	58137.67
669.361	58053.6
669.711	58067.39
670.06	58081.85
670.41	58069.65
670.76	57969.31
671.109	58100.38
671.459	57980.38
671.808	57893.83
672.157	57975.86
672.507	57844.11
672.856	57820.61
673.205	57885.47
673.554	57946.71
673.904	57882.98
674.253	58024
674.602	57885.7
674.951	57541.52
675.3	57464.46
675.649	57851.57
675.998	57810.9
676.346	57791.23
676.695	57785.81
677.044	57663.33
677.393	57805.25
677.741	57784
678.09	57633.05
678.438	57618.81
678.787	57688.86
679.135	57620.84
679.484	57416.33
679.832	57561.64
680.181	57381.3
680.529	57444.35
680.877	57436.67
681.225	57318.25
681.573	57423.11
681.922	57163.45
682.27	57104.47
682.618	57225.83
682.966	57068.32
683.314	57119.16
683.661	57098.6
684.009	56912.39
684.357	56814.54
684.705	56745.84
685.053	56703.58
685.4	56718.49
685.748	56547.2
686.095	56542
686.443	56445.28
686.79	56443.7
687.138	56495.22
687.485	56407.32
687.832	56368.22
688.18	56318.51
688.527	56233.31
688.874	56210.26
689.221	56027.44
689.568	56033.09
689.915	55971.4
690.262	55862.7
690.609	55761.01
690.956	55712.65
691.303	55709.93
691.65	55570.05
691.997	55627
692.344	55474.46
692.69	55418.19
693.037	55501.13
693.383	55102.49
693.73	55269.27
694.077	55064.53
694.423	55120.8
694.769	55057.3
695.116	54975.72
695.462	55038.54
695.808	54860.46
696.155	54878.99
696.501	54681.26
696.847	54639
697.193	54497.08
697.539	54665.44
697.885	54373.02
698.231	54306.81
698.577	54213.02
698.923	54181.16
699.269	54011.45
699.614	53847.84
699.96	53843.99
700.306	53793.83
700.651	53752.47
700.997	53622.98
701.342	53559.93
701.688	53527.62
702.033	53300.51
702.379	53355.87
702.724	53221.41
703.069	53224.35
703.415	52842.21
703.76	52931.48
704.105	52829.11
704.45	52819.84
704.795	52686.06
705.14	52536.46
705.485	52549.79
705.83	52329.91
706.175	52338.5
706.52	52179.63
706.865	52011.05
707.209	51969.69
707.554	51891.95
707.899	51915.23
708.243	51773.09
708.588	51725.18
708.932	51386.88
709.277	51483.15
709.621	51416.26
709.966	51136.49
710.31	51208.36
710.654	51031.64
710.998	51040.68
711.342	51152.77
711.687	50858.54
712.031	50801.14
712.375	50701.48
712.719	50587.36
713.063	50699.44
713.407	50741.25
713.75	50514.36
714.094	50480.92
714.438	50370.86
714.782	50323.63
715.125	50185.56
715.469	50313.69
715.812	50023.08
716.156	49714.38
716.499	49940.82
716.843	49958.67
717.186	49799.13
717.53	49923.19
717.873	49789.86
718.216	49678.23
718.559	49546.25
718.902	49322.53
719.246	49357.78
719.589	49384.45
719.932	49208.86
720.275	49301.74
720.617	49154.85
720.96	49151.24
721.303	49064.23
721.646	48981.52
721.989	48744.69
722.331	48831.24
722.674	48812.04
723.016	48784.01
723.359	48622.89
723.701	48717.57
724.044	48436.68
724.386	48267.42
724.729	48387.64
725.071	48311.48
725.413	48134.09
725.755	48086.63
726.097	47957.59
726.439	47720.77
726.782	47789.46
727.124	47855.9
727.465	47590.82
727.807	47656.13
728.149	47396.25
728.491	47389.7
728.833	47317.39
729.175	47081.46
729.516	47058.86
729.858	46978.86
730.199	46899.09
730.541	46845.76
730.882	46807.34
731.224	46842.14
731.565	46650.74
731.906	46563.96
732.248	46553.34
732.589	46335.94
732.93	46193.57
733.271	46233.8
733.612	46293.91
733.953	46263.4
734.294	45971.88
734.635	45831.55
734.976	45932.11
735.317	45780.93
735.658	45687.37
735.999	45660.25
736.339	45492.8
736.68	45761.27
737.021	45356.99
737.361	45240.38
737.702	45556.08
738.042	45365.35
738.383	45285.8
738.723	45366.02
739.063	45197.67
739.404	45158.35
739.744	45082.19
740.084	44991.12
740.424	44958.13
740.764	44925.36
741.104	45061.85
741.444	44759.26
741.784	44676.1
742.124	44720.17
742.464	44773.05
742.804	44530.11
743.143	44492.83
743.483	44444.24
743.823	44172.16
744.162	44197.02
744.502	44211.25
744.841	44144.14
745.181	44278.6
745.52	43942.11
745.86	44173.06
746.199	43929.45
746.538	43813.07
746.877	43937.36
747.216	43768.78
747.556	43701.44
747.895	43653.98
748.234	43402.23
748.573	43492.4
748.911	43391.39
749.25	43392.07
749.589	43180.32
749.928	43215.35
750.267	43134.22
750.605	42948.01
750.944	42932.42
751.283	42657.85
751.621	42748.47
751.96	42506.21
752.298	42504.63
752.636	42451.98
752.975	42311.87
753.313	42046.34
753.651	42194.36
753.989	41794.82
754.327	41686.8
754.666	41547.59
755.004	41493.13
755.342	41538.33
755.679	41423.08
756.017	41008.4
756.355	41237.77
756.693	41008.4
757.031	40889.98
757.368	40776.99
757.706	40668.52
758.044	40499.71
758.381	40473.5
758.719	40285.93
759.056	40199.83
759.394	40127.29
759.731	39900.41
760.068	39899.95
760.405	39641.43
760.743	39506.29
761.08	39591.71
761.417	39412.73
761.754	39266.98
762.091	39147.43
762.428	39132.29
762.765	38904.5
763.102	38954.22
763.438	38795.12
763.775	38541.35
764.112	38665.86
764.449	38600.1
764.785	38460.67
765.122	38154.46
765.458	38003.73
765.795	38056.61
766.131	37801.25
766.467	37786.34
766.804	37602.61
767.14	37474.25
767.476	37408.04
767.812	37246.01
768.148	37334.6
768.485	37042.63
768.821	36910.2
769.157	36765.35
769.492	36866.36
769.828	36820.49
770.164	36468.63
770.5	36387.96
770.836	36251.24
771.171	36152.03
771.507	35954.29
771.842	35808.99
772.178	35836.56
772.513	35730.8
772.849	35707.75
773.184	35423.24
773.519	35446.96
773.855	35289.45
774.19	35182.56
774.525	35011.72
774.86	35022.79
775.195	34839.3
775.53	34702.8
775.865	34499.19
776.2	34253.55
776.535	34029.6
776.87	34089.49
777.205	33794.13
777.539	33642.27
777.874	33817.63
778.209	33312.33
778.543	33249.96
778.878	33182.62
779.212	32998.67
779.547	32731.33
779.881	32862.17
780.215	32532.01
780.55	32672.35
780.884	32317.78
781.218	32280.94
781.552	32296.31
781.886	32065.13
782.22	31932.71
782.554	31682.54
782.888	31518.93
783.222	31317.35
783.556	31204.59
783.889	31239.62
784.223	30970.24
784.557	30938.61
784.89	30954.2
785.224	30604.15
785.557	30498.62
785.891	30318.28
786.224	30274.9
786.558	30231.96
786.891	29997.16
787.224	29835.59
787.557	29886.88
787.891	29840.33
788.224	29680.34
788.557	29711.52
788.89	29627.68
789.223	29514.24
789.556	29282.15
789.888	29292.32
790.221	29064.76
790.554	28945.89
790.887	28869.96
791.219	28769.4
791.552	28735.5
791.884	28666.12
792.217	28677.42
792.549	28494.15
792.882	28222.75
793.214	28211.22
793.546	28187.49
793.879	28119.47
794.211	27977.78
794.543	27968.97
794.875	27909.99
795.207	27965.8
795.539	27805.13
795.871	27777.33
796.203	27520.84
796.535	27414.63
796.867	27278.36
797.198	27288.31
797.53	27218.48
797.862	27072.27
798.193	27223.9
798.525	26835.66
798.856	27017.81
799.188	26744.14
799.519	26631.38
799.85	26439.52
800.182	26534.88
800.513	26561.32
800.844	26300.54
801.175	26396.81
801.506	26280.65
801.837	26055.57
802.168	26033.43
802.499	26045.18
802.83	25901.45
803.161	25763.15
803.491	25781.68
803.822	25786.43
804.153	25571.74
804.483	25298.08
804.814	25292.88
805.145	25211.07
805.475	25221.24
805.805	24996.84
806.136	24941.48
806.466	24947.8
806.796	25012.21
807.126	24657.19
807.457	24727.02
807.787	24674.59
808.117	24447.03
808.447	24424.43
808.777	24497.42
809.107	24237.54
809.436	24123.19
809.766	24068.51
810.096	23996.64
810.426	24019.24
810.755	24019.69
811.085	23763.2
811.414	23755.97
811.744	23498.58
812.073	23453.38
812.403	23521.18
812.732	23391.01
813.061	23359.82
813.39	23121.41
813.719	23114.41
814.049	23256.32
814.378	23076.44
814.707	23034.63
815.036	22965.71
815.365	22830.57
815.693	22664.93
816.022	22703.12
816.351	22611.59
816.68	22561.43
817.008	22626.74
817.337	22504.7
817.665	22393.52
817.994	22544.48
818.322	22395.56
818.651	22287.99
818.979	22233.53
819.307	22363.01
819.636	22312.39
819.964	22056.81
820.292	22143.13
820.62	22236.92
820.948	22177.48
821.276	22141.32
821.604	22091.83
821.932	22218.38
822.259	22264.26
822.587	22140.42
822.915	22106.52
823.243	22156.24
823.57	22159.63
823.898	22202.34
824.225	22050.03
824.553	22173.64
824.88	22225.16
825.207	22073.98
825.535	22093.19
825.862	22196.24
826.189	22118.27
826.516	22240.76
826.843	22291.38
827.17	22203.24
827.497	22294.77
827.824	22161.66
828.151	22241.66
828.478	22156.69
828.805	22317.14
829.131	22117.14
829.458	22171.15
829.785	21992.85
830.111	22106.3
830.438	22140.42
830.764	22232.4
831.09	22082.57
831.417	22030.59
831.743	22153.53
832.069	22055.23
832.395	22091.61
832.722	22014.32
833.048	22024.27
833.374	22063.59
833.7	21814.33
834.026	21947.66
834.351	21976.81
834.677	21867.66
835.003	21810.94
835.329	21876.02
835.654	21871.73
835.98	21667.66
836.306	21720.77
836.631	21530.72
836.956	21596.93
837.282	21521.23
837.607	21490.49
837.932	21405.98
838.258	21364.62
838.583	21430.38
838.908	21273.32
839.233	21270.61
839.558	21260.9
839.883	21183.16
840.208	21093.44
840.533	21021.81
840.858	21056.83
841.182	21058.19
841.507	20922.37
841.832	20921.92
842.156	20796.5
842.481	20779.1
842.805	20765.54
843.13	20780
843.454	20699.33
843.778	20511.76
844.103	20532.55
844.427	20414.14
844.751	20511.54
845.075	20394.7
845.399	20419.56
845.723	20229.06
846.047	20312.45
846.371	20121.04
846.695	20102.96
847.019	19828.39
847.343	19929.86
847.666	19799.69
847.99	19764.66
848.313	19783.42
848.637	19588.17
848.96	19634.05
849.284	19524.9
849.607	19430.44
849.931	19339.14
850.254	19256.2
850.577	19028.86
850.9	19030.67
851.223	18909.55
851.546	18913.84
851.869	18777.12
852.192	18893.95
852.515	18708.19
852.838	18638.14
853.161	18621.87
853.483	18547.97
853.806	18448.77
854.129	18556.79
854.451	18479.95
854.774	18402.21
855.096	18367.86
855.419	18310.46
855.741	18199.28
856.063	18140.98
856.385	18220.52
856.708	18131.03
857.03	17978.04
857.352	18074.76
857.674	18076.12
857.996	17969.46
858.318	17883.36
858.64	17873.19
858.961	17835.45
859.283	17793.19
859.605	17643.36
859.926	17760.2
860.248	17726.07
860.57	17642.69
860.891	17672.29
861.212	17619.41
861.534	17614.21
861.855	17461.67
862.176	17510.94
862.498	17546.64
862.819	17524.04
863.14	17399.75
863.461	17409.25
863.782	17234.33
864.103	17294.67
864.424	17291.96
864.745	17258.52
865.065	17135.81
865.386	17174
865.707	17182.36
866.027	17079.08
866.348	17068.24
866.668	17122.47
866.989	16940.33
867.309	16831.86
867.63	16937.17
867.95	16821.92
868.27	16757.51
868.59	16869.15
868.91	16725.42
869.23	16750.28
869.55	16583.73
869.87	16742.6
870.19	16652.2
870.51	16639.1
870.83	16649.49
871.15	16484.75
871.469	16503.73
871.789	16451.3
872.109	16516.84
872.428	16455.6
872.748	16456.73
873.067	16456.73
873.386	16458.31
873.706	16504.18
874.025	16364.3
874.344	16337.64
874.663	16240.01
874.982	16332.66
875.301	16196.4
875.62	16115.49
875.939	16181.93
876.258	16170.41
876.577	16078.43
876.896	16047.47
877.214	15954.82
877.533	16031.88
877.852	15924.99
878.17	16038.21
878.489	15958.21
878.807	15994.82
879.125	15906.01
879.444	16030.07
879.762	15763.64
880.08	15717.54
880.398	15696.3
880.716	15824.2
881.034	15668.95
881.352	15697.65
881.67	15670.31
881.988	15633.93
882.306	15586.69
882.624	15567.71
882.941	15508.96
883.259	15532.01
883.577	15461.27
883.894	15369.75
884.212	15377.66
884.529	15397.55
884.846	15389.86
885.164	15348.51
885.481	15299.47
885.798	15311.45
886.115	15263.54
886.432	15280.49
886.75	15245.01
887.067	15301.73
887.383	15240.49
887.7	15286.36
888.017	15134.73
888.334	15113.26
888.651	15121.17
888.967	15029.42
889.284	14951.23
889.6	14933.38
889.917	14853.15
890.233	14920.27
890.55	14839.14
890.866	14952.36
891.182	14821.07
891.498	14758.92
891.815	14786.26
892.131	14691.35
892.447	14723.67
892.763	14577
893.079	14630.11
893.395	14504.46
893.71	14580.85
894.026	14490.68
894.342	14492.49
894.657	14454.52
894.973	14367.29
895.289	14294.53
895.604	14387.63
895.92	14244.58
896.235	14228.54
896.55	14217.69
896.865	14186.73
897.181	14052.72
897.496	14066.73
897.811	14021.99
898.126	13890.02
898.441	13885.5
898.756	13803.24
899.071	13794.88
899.386	13801.2
899.7	13638.95
900.015	13687.08
900.33	13544.94
900.644	13537.48
900.959	13591.27
901.273	13531.61
901.588	13425.4
901.902	13401.22
902.216	13333.87
902.531	13290.94
902.845	13222.46
903.159	13170.26
903.473	13141.79
903.787	13025.63
904.101	12971.4
904.415	12999.42
904.729	12925.07
905.042	12889.59
905.356	12872.87
905.67	12802.81
905.984	12815.24
906.297	12693.21
906.611	12679.65
906.924	12641.24
907.237	12561.46
907.551	12467.68
907.864	12482.37
908.177	12457.74
908.491	12393.33
908.804	12347.91
909.117	12197.86
909.43	12177.97
909.743	12211.87
910.056	12184.98
910.368	12056.17
910.681	11895.04
910.994	11968.03
911.307	11908.37
911.619	11823.18
911.932	11821.14
912.244	11728.04
912.557	11664.99
912.869	11599.45
913.181	11513.58
913.494	11512.68
913.806	11442.85
914.118	11395.17
914.43	11348.39
914.742	11353.59
915.054	11258.22
915.366	11294.83
915.678	11189.97
915.99	11122.41
916.302	11089.19
916.613	11055.97
916.925	11061.16
917.236	11012.35
917.548	10942.97
917.859	10976.42
918.171	10853.94
918.482	10807.84
918.794	10784.34
919.105	10726.03
919.416	10619.37
919.727	10643.1
920.038	10637.67
920.349	10556.09
920.66	10542.76
920.971	10479.26
921.282	10471.8
921.593	10389.54
921.903	10318.81
922.214	10313.16
922.525	10289.43
922.835	10172.6
923.146	10187.74
923.456	10160.4
923.767	10126.5
924.077	10106.84
924.387	10086.05
924.697	10073.62
925.008	10019.84
925.318	9983
925.628	9967.63
925.938	9968.09
926.248	9787.75
926.558	9753.63
926.867	9772.61
927.177	9717.24
927.487	9662.56
927.796	9608.09
928.106	9557.93
928.416	9562.22
928.725	9490.36
929.034	9439.29
929.344	9498.72
929.653	9492.84
929.962	9405.61
930.271	9372.17
930.581	9279.74
930.89	9278.84
931.199	9257.82
931.508	9211.5
931.817	9183.7
932.125	9107.09
932.434	9141.21
932.743	9035.91
933.051	8948
933.36	8995.68
933.669	8898.96
933.977	8933.54
934.286	8919.3
934.594	8870.71
934.902	8832.52
935.21	8767.21
935.519	8718.63
935.827	8729.93
936.135	8626.43
936.443	8599.76
936.751	8617.39
937.059	8534
937.367	8559.08
937.674	8461.01
937.982	8479.31
938.29	8374.91
938.597	8375.13
938.905	8324.51
939.213	8315.93
939.52	8210.84
939.827	8261.46
940.135	8179.21
940.442	8214.91
940.749	8144.4
941.056	8155.7
941.363	8035.71
941.67	8016.27
941.977	8009.04
942.284	7919.55
942.591	7924.75
942.898	7898.31
943.205	7874.58
943.511	7807.69
943.818	7752.32
944.125	7667.13
944.431	7682.5
944.738	7681.14
945.044	7618.54
945.35	7619.22
945.657	7595.49
945.963	7461.71
946.269	7528.6
946.575	7441.82
946.881	7384.42
947.187	7400.47
947.493	7316.86
947.799	7330.41
948.105	7253.35
948.41	7183.3
948.716	7178.33
949.022	7192.11
949.327	7175.62
949.633	7094.94
949.938	7124.09
950.244	7063.75
950.549	6956.19
950.854	6995.06
951.16	6954.83
951.465	6905.79
951.77	6871.9
952.075	6818.79
952.38	6820.82
952.685	6807.04
952.99	6705.57
953.294	6720.71
953.599	6696.31
953.904	6634.16
954.209	6574.5
954.513	6603.88
954.818	6584.9
955.122	6551.9
955.426	6494.05
955.731	6426.71
956.035	6435.97
956.339	6404.56
956.643	6423.55
956.948	6411.34
957.252	6318.46
957.556	6288.86
957.86	6257
958.163	6327.28
958.467	6182.2
958.771	6174.74
959.075	6174.29
959.378	6160.5
959.682	6104.01
959.985	6081.41
960.289	6080.73
960.592	6039.15
960.896	6000.05
961.199	5980.62
961.502	5949.66
961.805	5933.39
962.108	5904.92
962.411	5893.62
962.714	5859.49
963.017	5894.52
963.32	5821.75
963.623	5800.74
963.926	5779.49
964.228	5756.67
964.531	5762.77
964.833	5701.76
965.136	5683.9
965.438	5717.35
965.741	5643
966.043	5623.34
966.345	5570.69
966.648	5599.61
966.95	5555.32
967.252	5570.69
967.554	5521.2
967.856	5548.09
968.158	5455.66
968.46	5484.36
968.761	5409.79
969.063	5370.24
969.365	5347.42
969.666	5389.67
969.968	5232.84
970.269	5299.28
970.571	5305.84
970.872	5273.97
971.174	5254.99
971.475	5196.23
971.776	5231.03
972.077	5175.67
972.378	5175.89
972.679	5146.52
972.98	5102.45
973.281	5168.66
973.582	5107.87
973.883	5105.39
974.183	5031.49
974.484	5013.64
974.785	5045.95
975.085	5005.73
975.386	4975.22
975.686	4934.55
975.986	4907.43
976.287	4894.09
976.587	4819.29
976.887	4908.11
977.187	4854.77
977.487	4787.66
977.787	4762.35
978.087	4752.18
978.387	4745.62
978.687	4710.6
978.987	4670.6
979.286	4672.86
979.586	4639.41
979.885	4623.59
980.185	4638.28
980.484	4570.49
980.784	4533.88
981.083	4534.33
981.382	4537.95
981.682	4504.27
981.981	4450.49
982.28	4482.81
982.579	4471.96
982.878	4434.45
983.177	4366.42
983.475	4432.19
983.774	4347.89
984.073	4317.61
984.372	4358.97
984.67	4336.14
984.969	4307.67
985.267	4265.86
985.566	4219.31
985.864	4190.61
986.162	4245.52
986.461	4177.05
986.759	4171.85
987.057	4120.33
987.355	4085.53
987.653	4082.14
987.951	4063.16
988.249	4066.09
988.547	4055.25
988.844	4055.47
989.142	3996.94
989.44	3971.63
989.737	3939.09
990.035	3979.09
990.332	3951.29
990.63	3879.66
990.927	3817.74
991.224	3858.42
991.521	3857.51
991.819	3832.65
992.116	3840.56
992.413	3775.71
992.71	3734.58
993.006	3755.59
993.303	3739.32
993.6	3743.62
993.897	3716.27
994.193	3673.79
994.49	3612.77
994.787	3618.42
995.083	3610.96
995.379	3560.12
995.676	3553.79
995.972	3544.3
996.268	3479.44
996.565	3511.08
996.861	3490.52
997.157	3436.05
997.453	3463.4
997.749	3425.21
998.044	3398.77
998.34	3385.66
998.636	3387.24
998.932	3367.13
999.227	3328.26
999.523	3327.81
999.818	3277.87
1000.114	3279.9
1000.409	3297.53
1000.704	3274.93
1001	3246.23
1001.295	3245.78
1001.59	3201.26
1001.885	3174.82
1002.18	3180.92
1002.475	3165.33
1002.77	3097.98
1003.065	3111.09
1003.359	3094.59
1003.654	3101.37
1003.949	3069.06
1004.243	3053.69
1004.538	3013.01
1004.832	2969.85
1005.127	3025.9
1005.421	2990.19
1005.715	2982.96
1006.009	2979.57
1006.304	2917.2
1006.598	2888.95
1006.892	2854.15
1007.186	2867.48
1007.48	2832.68
1007.773	2821.38
1008.067	2824.32
1008.361	2809.4
1008.655	2788.39
1008.948	2749.97
1009.242	2744.32
1009.535	2763.08
1009.829	2750.87
1010.122	2737.32
1010.415	2709.07
1010.708	2682.63
1011.001	2673.14
1011.295	2649.63
1011.588	2660.93
1011.881	2602.18
1012.173	2617.32
1012.466	2593.14
1012.759	2554.27
1013.052	2582.97
1013.344	2517.66
1013.637	2525.57
1013.93	2517.21
1014.222	2483.31
1014.514	2459.81
1014.807	2446.7
1015.099	2474.5
1015.391	2449.41
1015.683	2452.8
1015.976	2403.99
1016.268	2381.39
1016.56	2372.58
1016.851	2383.43
1017.143	2345.23
1017.435	2358.79
1017.727	2333.71
1018.018	2341.17
1018.31	2289.64
1018.602	2327.38
1018.893	2282.41
1019.185	2253.49
1019.476	2236.31
1019.767	2241.28
1020.058	2197.22
1020.35	2167.84
1020.641	2136.43
1020.932	2178.23
1021.223	2131.46
1021.514	2099.14
1021.804	2089.42
1022.095	2106.37
1022.386	2070.44
1022.677	2084.22
1022.967	2046.26
1023.258	2043.1
1023.548	2003.1
1023.839	1981.63
1024.129	1998.13
1024.419	1975.08
1024.709	1947.05
1025	1957.9
1025.29	1922.65
1025.58	1879.71
1025.87	1923.78
1026.16	1888.75
1026.449	1876.32
1026.739	1889.43
1027.029	1873.83
1027.319	1854.4
1027.608	1825.7
1027.898	1826.6
1028.187	1783.67
1028.477	1817.11
1028.766	1781.41
1029.055	1785.02
1029.344	1754.52
1029.634	1713.16
1029.923	1752.48
1030.212	1710.22
1030.501	1716.32
1030.79	1697.57
1031.078	1672.94
1031.367	1661.41
1031.656	1637
1031.945	1673.16
1032.233	1622.77
1032.522	1636.1
1032.81	1563.56
1033.099	1581.87
1033.387	1615.76
1033.675	1590.68
1033.963	1562.43
1034.251	1555.88
1034.54	1533.28
1034.828	1517.23
1035.116	1524.47
1035.403	1487.4
1035.691	1490.79
1035.979	1488.31
1036.267	1473.39
1036.554	1484.69
1036.842	1455.31
1037.129	1448.31
1037.417	1418.48
1037.704	1430.23
1037.992	1399.27
1038.279	1382.32
1038.566	1383.68
1038.853	1383.68
1039.14	1383.68
