Data from aluminium_macbook_case_FLMS001491_045.txt Node
Date: Tue Feb 07 10:43:40 GMT 2017
User: dcchb
Spectrometer: FLMS00149
Trigger mode: 0
Integration Time (sec): 2.000000E-2
Scans to average: 10
Electric dark correction enabled: true
Nonlinearity correction enabled: false
Boxcar width: 0
XAxis mode: Wavelengths
Number of Pixels in Spectrum: 2048
>>>>>Begin Spectral Data<<<<<
341.393	-7.66
341.776	-7.66
342.16	-7.66
342.543	-50.37
342.927	-60.31
343.31	-63.25
343.693	-76.13
344.077	-87.88
344.46	-38.16
344.843	-49.91
345.226	-35.23
345.61	-14.66
345.993	-14.66
346.376	-20.54
346.759	-7.66
347.142	14.49
347.525	36.64
347.908	72.34
348.291	78.9
348.674	101.72
349.057	103.98
349.44	122.74
349.823	146.69
350.206	178.1
350.588	251.77
350.971	252.9
351.354	274.6
351.737	268.5
352.119	298.78
352.502	324.99
352.884	316.18
353.267	330.42
353.65	342.39
354.032	365.67
354.414	381.94
354.797	366.8
355.179	353.69
355.562	368.15
355.944	372.67
356.326	399.57
356.709	411.99
357.091	407.7
357.473	422.62
357.855	429.4
358.238	407.93
358.62	423.97
359.002	423.29
359.384	417.64
359.766	402.05
360.148	416.29
360.53	416.97
360.912	388.49
361.294	424.2
361.676	418.1
362.057	407.48
362.439	417.42
362.821	417.19
363.203	419.45
363.584	417.42
363.966	415.61
364.348	411.77
364.729	421.94
365.111	420.36
365.493	415.61
365.874	433.92
366.256	418.77
366.637	423.29
367.019	428.49
367.4	411.54
367.781	431.88
368.163	425.1
368.544	432.33
368.925	455.84
369.306	451.99
369.688	451.32
370.069	444.54
370.45	441.6
370.831	452.9
371.212	442.05
371.593	464.87
371.974	461.49
372.355	459
372.736	465.1
373.117	445.67
373.498	487.47
373.879	459
374.26	454.93
374.641	448.15
375.021	470.98
375.402	448.83
375.783	484.54
376.163	500.81
376.544	505.55
376.925	501.26
377.305	500.81
377.686	507.36
378.066	522.5
378.447	520.69
378.827	531.09
379.208	543.97
379.588	539.9
379.968	529.51
380.349	544.65
380.729	564.76
381.109	557.08
381.489	572.67
381.87	579.45
382.25	581.03
382.63	576.51
383.01	573.12
383.39	586.45
383.77	605.89
384.15	602.72
384.53	616.96
384.91	604.08
385.29	613.35
385.67	618.32
386.049	607.92
386.429	650.86
386.809	650.86
387.189	637.53
387.568	667.81
387.948	687.24
388.328	681.37
388.707	689.05
389.087	682.95
389.466	704.64
389.846	688.37
390.225	703.06
390.605	740.35
390.984	720.24
391.363	705.09
391.743	733.57
392.122	763.85
392.501	760.91
392.881	787.58
393.26	799.56
393.639	819.67
394.018	815.83
394.397	826
394.776	819.44
395.155	817.18
395.534	854.92
395.913	854.47
396.292	860.8
396.671	892.21
397.05	896.28
397.429	893.34
397.808	892.43
398.186	902.83
398.565	930.4
398.944	922.49
399.323	937.18
399.701	919.1
400.08	960.91
400.458	964.75
400.837	985.99
401.215	985.54
401.594	1004.75
401.972	974.01
402.351	1007.69
402.729	1025.76
403.107	1045.65
403.486	1045.88
403.864	1068.93
404.242	1041.58
404.62	1098.98
404.999	1094.91
405.377	1103.05
405.755	1104.63
406.133	1147.79
406.511	1164.52
406.889	1189.15
407.267	1204.29
407.645	1210.39
408.023	1210.84
408.401	1259.2
408.779	1257.85
409.156	1284.06
409.534	1306.43
409.912	1319.99
410.29	1353.44
410.667	1357.73
411.045	1404.51
411.422	1401.35
411.8	1407.67
412.178	1437.05
412.555	1472.53
412.933	1459.65
413.31	1474.11
413.687	1523.6
414.065	1577.61
414.442	1555.69
414.819	1590.49
415.197	1585.07
415.574	1614.45
415.951	1623.26
416.328	1649.7
416.705	1673.88
417.082	1695.35
417.46	1707.1
417.837	1705.97
418.214	1758.85
418.591	1775.57
418.967	1797.72
419.344	1772.19
419.721	1845.86
420.098	1797.27
420.475	1877.94
420.852	1869.13
421.228	1906.42
421.605	1927.21
421.982	1960.65
422.358	1973.76
422.735	1994.33
423.111	1978.28
423.488	2029.58
423.864	2037.94
424.241	2096.02
424.617	2100.31
424.994	2127.66
425.37	2184.6
425.746	2169.46
426.123	2193.87
426.499	2224.83
426.875	2232.96
427.251	2309.12
427.627	2330.59
428.003	2372.62
428.379	2408.55
428.756	2411.72
429.132	2474.31
429.507	2511.37
429.883	2542.79
430.259	2576.91
430.635	2604.25
431.011	2614.87
431.387	2682.44
431.763	2744.14
432.138	2748.2
432.514	2803.8
432.89	2831.37
433.265	2885.15
433.641	2923.79
434.016	2930.57
434.392	3003.11
434.767	3069.33
435.143	3085.37
435.518	3123.56
435.894	3108.65
436.269	3224.8
436.644	3235.2
437.02	3281.98
437.395	3273.61
437.77	3353.39
438.145	3386.15
438.52	3395.19
438.895	3479.48
439.271	3485.81
439.646	3551.8
440.021	3584.79
440.395	3655.53
440.77	3599.71
441.145	3627.05
441.52	3680.38
441.895	3754.28
442.27	3767.39
442.645	3752.7
443.019	3835.41
443.394	3779.59
443.769	3862.75
444.143	3849.87
444.518	3948.17
444.892	3942.98
445.267	3995.63
445.641	4005.8
446.016	4043.54
446.39	4084.67
446.764	4126.47
447.139	4169.86
447.513	4179.13
447.887	4197.66
448.262	4226.36
448.636	4264.1
449.01	4334.38
449.384	4386.58
449.758	4425.22
450.132	4449.18
450.506	4459.8
450.88	4514.71
451.254	4535.28
451.628	4576.18
452.002	4618.44
452.376	4667.02
452.75	4785.44
453.123	4770.75
453.497	4918.99
453.871	4928.94
454.244	4985.43
454.618	5044.42
454.992	5104.53
455.365	5150.4
455.739	5297.52
456.112	5297.74
456.486	5372.09
456.859	5393.78
457.232	5533.22
457.606	5547.68
457.979	5614.57
458.352	5701.12
458.725	5861.12
459.099	5847.11
459.472	5953.54
459.845	6064.73
460.218	6090.04
460.591	6119.87
460.964	6183.37
461.337	6346.53
461.71	6426.3
462.083	6513.98
462.456	6493.42
462.829	6603.02
463.201	6656.8
463.574	6748.78
463.947	6880.3
464.32	6981.77
464.692	7021.54
465.065	7126.62
465.438	7232.38
465.81	7288.65
466.183	7323
466.555	7604.57
466.928	7642.09
467.3	7686.83
467.672	7812.93
468.045	8044.34
468.417	8026.71
468.789	8089.31
469.161	8166.82
469.534	8341.28
469.906	8598.22
470.278	8585.79
470.65	8631.21
471.022	8807.48
471.394	9018.55
471.766	9093.12
472.138	9207.24
472.51	9394.58
472.882	9620.79
473.253	9730.85
473.625	9794.35
473.997	10071.63
474.369	10128.35
474.74	10240.89
475.112	10434.56
475.484	10673.19
475.855	10770.82
476.227	10895.56
476.598	11200.19
476.97	11254.65
477.341	11626.39
477.713	11750.68
478.084	11855.08
478.455	12202.65
478.827	12281.06
479.198	12654.61
479.569	12765.12
479.94	13110.19
480.311	13236.97
480.682	13500.24
481.053	13774.36
481.424	14021.13
481.795	14101.13
482.166	14240.33
482.537	14549.93
482.908	14866.53
483.279	15053.19
483.65	15350.81
484.021	15630.58
484.391	15765.49
484.762	15936.33
485.133	16141.3
485.503	16329.54
485.874	16661.74
486.244	16943.99
486.615	17210.42
486.985	17441.6
487.356	17703.52
487.726	17911.2
488.097	18288.13
488.467	18374.91
488.837	18667.33
489.207	19015.35
489.578	19284.04
489.948	19440.2
490.318	19762.67
490.688	19814.2
491.058	20132.15
491.428	20431.81
491.798	20570.33
492.168	21013.49
492.538	21003.77
492.908	21280.15
493.278	21611.66
493.648	21625.67
494.017	21837.65
494.387	22149.05
494.757	22392.21
495.126	22638.3
495.496	22680.79
495.866	22820.9
496.235	23123.04
496.605	23382.69
496.974	23524.38
497.344	23709.69
497.713	23950.36
498.082	24112.84
498.452	24365.26
498.821	24473.96
499.19	24570.68
499.559	24946.94
499.928	25057.9
500.298	25186.71
500.667	25532.69
501.036	25463.54
501.405	25785.34
501.774	25782.85
502.143	26210.19
502.512	26228.49
502.88	26441.37
503.249	26527.47
503.618	26740.79
503.987	26766.1
504.356	27068.92
504.724	27158.18
505.093	27449.02
505.462	27495.8
505.83	27806.75
506.199	27973.53
506.567	28299.17
506.936	28387.3
507.304	28616.68
507.672	28814.19
508.041	28905.48
508.409	29143.67
508.777	29469.08
509.145	29731
509.514	29744.56
509.882	30099.35
510.25	30166.47
510.618	30384.99
510.986	30497.76
511.354	30823.62
511.722	31110.85
512.09	31543.38
512.458	31379.54
512.826	31665.86
513.193	31808.46
513.561	32106.98
513.929	32250.03
514.297	32610.02
514.664	32763.69
515.032	32985.15
515.4	33247.06
515.767	33361.18
516.135	33590.78
516.502	33383.11
516.869	34092.24
517.237	34127.27
517.604	34179.24
517.972	34545.79
518.339	34848.15
518.706	35015.15
519.073	35151.42
519.44	35410.17
519.808	35863.94
520.175	35871.85
520.542	36432.52
520.909	36680.19
521.276	36689.91
521.643	37232.72
522.009	37381.87
522.376	37750.67
522.743	37956.54
523.11	38243.32
523.477	38586.36
523.843	38742.06
524.21	39289.39
524.577	39570.97
524.943	39831.07
525.31	39889.6
525.676	40337.27
526.043	40453.43
526.409	40743.36
526.776	40972.28
527.142	41266.29
527.508	41362.78
527.874	41766.61
528.241	42032.37
528.607	41998.02
528.973	42479.36
529.339	42647.95
529.705	42945.11
530.071	43330.19
530.437	43415.84
530.803	43519.56
531.169	43866.45
531.535	43933.79
531.901	44140.79
532.267	44408.58
532.632	44738.06
532.998	44883.59
533.364	45181.67
533.73	45282.68
534.095	45755.21
534.461	45792.72
534.826	45903.91
535.192	46203.79
535.557	46481.29
535.923	46454.63
536.288	46684.45
536.653	46921.51
537.019	46844.9
537.384	47098
537.749	47277.2
538.114	47215.74
538.479	47412.11
538.845	47603.75
539.21	47643.3
539.575	47789.51
539.94	47744.99
540.305	48025.66
540.67	48127.8
541.034	48246.22
541.399	48448.25
541.764	48568.69
542.129	48649.37
542.494	48859.76
542.858	49000.55
543.223	49002.81
543.587	49278.05
543.952	49274.44
544.316	49499.07
544.681	49298.17
545.045	49709.68
545.41	49825.16
545.774	49911.03
546.138	50077.58
546.503	50261.76
546.867	50339.27
547.231	50650
547.595	50592.14
547.959	50808.41
548.324	50857
548.688	50991.46
549.052	51021.96
549.416	51092.92
549.779	51242.3
550.143	51344.67
550.507	51575.85
550.871	51691.55
551.235	51619.01
551.599	51957.31
551.962	52033.91
552.326	51946.23
552.689	52190.07
553.053	52120.24
553.417	52185.1
553.78	52581.7
554.143	52504.86
554.507	52731.75
554.87	52827.79
555.234	53094.9
555.597	52950.05
555.96	53134.9
556.323	53242.47
556.686	53272.98
557.05	53483.14
557.413	53543.93
557.776	53700.31
558.139	53872.06
558.502	54047.65
558.865	54119.74
559.228	54277.02
559.59	54330.35
559.953	54374.87
560.316	54716.33
560.679	54854.63
561.041	55032.25
561.404	55051.91
561.767	55317.22
562.129	55265.47
562.492	55481.28
562.854	55508.4
563.217	55566.25
563.579	55682.63
563.941	55851.89
564.304	55981.16
564.666	56137.08
565.028	56243.3
565.39	56304.08
565.753	56338.21
566.115	56474.7
566.477	56544.76
566.839	56627.69
567.201	56814.81
567.563	56851.19
567.925	57041.01
568.287	57048.47
568.648	57019.55
569.01	57201.46
569.372	57313.1
569.734	57261.57
570.095	57469.7
570.457	57507.67
570.819	57568.23
571.18	57641.68
571.542	57798.51
571.903	57800.99
572.265	57933.87
572.626	58011.84
572.987	58050.48
573.349	58209.35
573.71	58288.67
574.071	58314.88
574.432	58370.7
574.794	58504.93
575.155	58495.44
575.516	58504.25
575.877	58598.04
576.238	58629
576.599	58788.76
576.96	58816.11
577.32	58819.5
577.681	58911.25
578.042	58985.37
578.403	58955.99
578.763	58965.48
579.124	58995.77
579.485	59124.12
579.845	59203.9
580.206	59120.51
580.566	59110.34
580.927	59180.39
581.287	59254.74
581.648	59117.34
582.008	59179.49
582.368	59173.16
582.728	59216.78
583.089	59238.47
583.449	59218.58
583.809	59238.7
584.169	59286.83
584.529	59273.72
584.889	59415.19
585.249	59204.12
585.609	59094.52
585.969	59295.42
586.329	59153.28
586.688	59293.84
587.048	59284.8
587.408	59203.9
587.768	59288.19
588.127	59268.98
588.487	59242.99
588.846	59475.98
589.206	59274.85
589.565	59267.85
589.925	59387.85
590.284	59323.44
590.643	59421.74
591.003	59466.71
591.362	59536.77
591.721	59487.5
592.08	59475.07
592.44	59552.36
592.799	59600.95
593.158	59580.38
593.517	59501.51
593.876	59602.08
594.235	59491.57
594.593	59572.25
594.952	59606.82
595.311	59440.27
595.67	59545.81
596.029	59707.38
596.387	59696.76
596.746	59707.16
597.104	59513.04
597.463	59539.25
597.822	59579.93
598.18	59548.97
598.538	59555.3
598.897	59669.65
599.255	59495.87
599.613	59822.86
599.972	59651.12
600.33	59683.2
600.688	59590.33
601.046	59631.45
601.404	59850.43
601.762	59727.5
602.12	59790.77
602.478	59854.05
602.836	59815.63
603.194	59740.15
603.552	59715.75
603.91	59635.75
604.268	59867.61
604.625	59794.16
604.983	59978.11
605.341	59874.84
605.698	59988.73
606.056	60037.09
606.413	59982.86
606.771	60054.27
607.128	60125.68
607.485	60021.95
607.843	60069.86
608.2	60172.23
608.557	60254.04
608.914	60177.2
609.272	60348.27
609.629	60328.61
609.986	60415.84
610.343	60190.08
610.7	60436.86
611.057	60398.44
611.414	60388.04
611.771	60397.54
612.127	60488.38
612.484	60456.97
612.841	60519.79
613.198	60400.25
613.554	60451.09
613.911	60574.03
614.267	60509.17
614.624	60550.3
614.98	60568.83
615.337	60696.96
615.693	60582.62
616.05	60534.03
616.406	60705.55
616.762	60633.69
617.118	60600.24
617.475	60591.43
617.831	60653.35
618.187	60660.58
618.543	60640.47
618.899	60746.23
619.255	60774.02
619.611	60735.61
619.967	60792.1
620.323	60920.23
620.678	60741.71
621.034	60736.06
621.39	60770.41
621.746	60696.74
622.101	60955.71
622.457	60802.72
622.812	60854.7
623.168	60977.63
623.523	60845.66
623.879	60981.93
624.234	60838.2
624.589	60969.27
624.945	60873.68
625.3	60937.41
625.655	60944.19
626.01	60939.22
626.365	61021.02
626.72	60941.02
627.075	60844.98
627.43	60903.06
627.785	60818.54
628.14	60855.15
628.495	60867.81
628.85	60852.67
629.205	60771.99
629.559	60904.42
629.914	60801.14
630.269	60737.64
630.623	60699.22
630.978	60655.83
631.332	60717.98
631.687	60744.42
632.041	60604.31
632.396	60577.64
632.75	60532.45
633.104	60519.34
633.459	60460.13
633.813	60445.9
634.167	60381.27
634.521	60373.58
634.875	60440.7
635.229	60389.4
635.583	60253.36
635.937	60241.83
636.291	60216.75
636.645	60197.99
636.999	60179.24
637.352	60186.02
637.706	60038.22
638.06	60120.48
638.413	60043.2
638.767	60015.4
639.121	60009.07
639.474	59874.16
639.828	59886.36
640.181	59907.83
640.534	59901.73
640.888	59805.01
641.241	59720.49
641.594	59735.63
641.947	59824.67
642.301	59715.75
642.654	59742.41
643.007	59750.77
643.36	59813.6
643.713	59638.69
644.066	59713.71
644.419	59587.84
644.771	59454.96
645.124	59237.79
645.477	59148.53
645.83	58980.17
646.182	58914.19
646.535	58814.08
646.888	58894.07
647.24	58724.36
647.593	58854.3
647.945	58776.34
648.298	58593.29
648.65	58555.32
649.002	58514.87
649.355	58612.5
649.707	58472.39
650.059	58547.42
650.411	58918.25
650.763	58905.37
651.115	59173.39
651.467	59019.27
651.819	58980.17
652.171	58883.23
652.523	58840.74
652.875	58893.39
653.227	58757.35
653.578	58868.76
653.93	58825.6
654.282	58698.6
654.633	58647.3
654.985	58655.21
655.337	58626.28
655.688	58639.16
656.039	58692.27
656.391	58539.28
656.742	58519.85
657.094	58518.94
657.445	58629.67
657.796	58550.81
658.147	58476.46
658.498	58406.18
658.849	58555.78
659.2	58416.8
659.551	58376.12
659.902	58459.06
660.253	58448.21
660.604	58440.07
660.955	58343.13
661.306	58410.7
661.656	58402.11
662.007	58361.88
662.358	58376.8
662.708	58389.91
663.059	58278.27
663.409	58113.3
663.76	58337.48
664.11	58302.45
664.461	58250.7
664.811	58311.49
665.161	58233.98
665.511	58122.57
665.862	58182
666.212	58280.76
666.562	58275.11
666.912	58242.11
667.262	58165.5
667.612	58138.61
667.962	58185.84
668.312	58158.27
668.662	58193.07
669.011	58077.15
669.361	58015.23
669.711	58014.55
670.06	57956.92
670.41	57948.34
670.76	57812.75
671.109	57985.85
671.459	57924.83
671.808	57859.98
672.157	57831.73
672.507	57714.89
672.856	57712.64
673.205	57763.26
673.554	57758.74
673.904	57625.41
674.253	57848.68
674.602	57710.15
674.951	57302.02
675.3	57199.88
675.649	57629.47
675.998	57501.79
676.346	57573.43
676.695	57631.28
677.044	57390.84
677.393	57463.38
677.741	57502.7
678.09	57431.29
678.438	57333.89
678.787	57310.16
679.135	57407.33
679.484	57189.71
679.832	57337.28
680.181	57255.25
680.529	57216.6
680.877	57157.62
681.225	57121.69
681.573	57249.14
681.922	57070.17
682.27	57066.32
682.618	57017.51
682.966	56887.8
683.314	56964.63
683.661	56920.11
684.009	56699.33
684.357	56762.38
684.705	56658.65
685.053	56701.14
685.4	56636.05
685.748	56479.67
686.095	56454.36
686.443	56453.23
686.79	56347.93
687.138	56326.23
687.485	56347.47
687.832	56229.74
688.18	56240.58
688.527	56066.12
688.874	55958.1
689.221	55948.84
689.568	55881.27
689.915	55736.19
690.262	55801.27
690.609	55655.74
690.956	55597.21
691.303	55585.69
691.65	55499.13
691.997	55476.76
692.344	55243.55
692.69	55217.56
693.037	55215.98
693.383	55067.51
693.73	55119.48
694.077	54870.22
694.423	54882.43
694.769	54809.66
695.116	54748.87
695.462	54648.76
695.808	54598.14
696.155	54647.4
696.501	54482.21
696.847	54479.73
697.193	54123.8
697.539	54269.34
697.885	54052.62
698.231	54060.53
698.577	53970.81
698.923	53860.76
699.269	53780.54
699.614	53725.4
699.96	53624.83
700.306	53505.06
700.651	53359.53
700.997	53284.28
701.342	53218.06
701.688	53254.22
702.033	53111.63
702.379	53042.02
702.724	52953.44
703.069	53023.27
703.415	52652.66
703.76	52684.97
704.105	52609.94
704.45	52424.41
704.795	52388.03
705.14	52297.41
705.485	52193.91
705.83	52036.63
706.175	52056.74
706.52	51952.79
706.865	51938.32
707.209	51917.31
707.554	51777.2
707.899	51840.7
708.243	51684.77
708.588	51533.36
708.932	51330.2
709.277	51280.04
709.621	51337.44
709.966	51042.98
710.31	51120.27
710.654	50756.89
710.998	50936.32
711.342	50966.37
711.687	50779.94
712.031	50709.66
712.375	50505.82
712.719	50613.61
713.063	50540.62
713.407	50514.63
713.75	50295.43
714.094	50343.34
714.438	50112.83
714.782	50194.19
715.125	49875.55
715.469	50048.88
715.812	49832.16
716.156	49608.44
716.499	49595.33
716.843	49669
717.186	49348.11
717.53	49645.95
717.873	49560.98
718.216	49432.17
718.559	49303.14
718.902	49148.79
719.246	49078.51
719.589	49009.14
719.932	48870.16
720.275	48805.07
720.617	48747.22
720.96	48843.26
721.303	48699.31
721.646	48538.64
721.989	48345.88
722.331	48588.58
722.674	48406.44
723.016	48414.8
723.359	48308.36
723.701	48262.26
724.044	48018.88
724.386	47778.66
724.729	48010.52
725.071	47830.18
725.413	47886.68
725.755	47803.07
726.097	47518.1
726.439	47276.53
726.782	47399.23
727.124	47533.02
727.465	47263.64
727.807	47174.38
728.149	47159.24
728.491	47008.74
728.833	47076.76
729.175	46904.33
729.516	46707.73
729.858	46746.82
730.199	46827.95
730.541	46620.5
730.882	46606.26
731.224	46519.48
731.565	46260.51
731.906	46206.27
732.248	46308.87
732.589	46058.7
732.93	45900.29
733.271	45888.99
733.612	45967.86
733.953	46022.32
734.294	45733.74
734.635	45605.61
734.976	45799.28
735.317	45729.22
735.658	45620.98
735.999	45535.55
736.339	45427.99
736.68	45543.69
737.021	45301.44
737.361	45245.84
737.702	45286.52
738.042	45032.06
738.383	45050.6
738.723	45094.21
739.063	44817.61
739.404	44846.31
739.744	44837.72
740.084	44646.31
740.424	44697.61
740.764	44729.7
741.104	44806.08
741.444	44553.43
741.784	44421.69
742.124	44535.58
742.464	44321.8
742.804	44266.43
743.143	44199.54
743.483	44135.59
743.823	43827.35
744.162	43943.28
744.502	44051.75
744.841	43683.4
745.181	43787.35
745.52	43677.98
745.86	43645.43
746.199	43660.12
746.538	43385.78
746.877	43454.7
747.216	43440.92
747.556	43176.29
747.895	43444.76
748.234	43080.03
748.573	43000.25
748.911	42953.48
749.25	42954.15
749.589	42703.31
749.928	42687.04
750.267	42685.23
750.605	42568.63
750.944	42459.02
751.283	42314.62
751.621	42289.09
751.96	42154.17
752.298	42051.58
752.636	42050
752.975	41794.64
753.313	41684.36
753.651	41806.61
753.989	41526.39
754.327	41466.06
754.666	41090.02
755.004	41242.56
755.342	41305.61
755.679	41267.87
756.017	41045.95
756.355	40907.43
756.693	40695.23
757.031	40793.08
757.368	40555.57
757.706	40490.26
758.044	40234.45
758.381	40098.18
758.719	40228.58
759.056	40129.82
759.394	39995.13
759.731	39786.1
760.068	39607.12
760.405	39427.92
760.743	39457.75
761.08	39551.76
761.417	39166.23
761.754	39073.35
762.091	39001.71
762.428	38928.72
762.765	38758.33
763.102	38846.24
763.438	38747.94
763.775	38386.82
764.112	38399.92
764.449	38504.1
764.785	38318.34
765.122	38016.43
765.458	37854.85
765.795	37873.38
766.131	37794.74
766.467	37654.41
766.804	37422.32
767.14	37239.73
767.476	37271.59
767.812	37130.8
768.148	37101.65
768.485	36868.44
768.821	36718.16
769.157	36639.74
769.492	36546.86
769.828	36547.09
770.164	36159.53
770.5	36018.52
770.836	36168.57
771.171	35806.54
771.507	35775.58
771.842	35461.02
772.178	35528.36
772.513	35357.52
772.849	35236.84
773.184	35095.38
773.519	35074.59
773.855	34771.77
774.19	34738.55
774.525	34582.62
774.86	34466.47
775.195	34316.41
775.53	34289.07
775.865	34078.68
776.2	33751.01
776.535	33450.45
776.87	33531.58
777.205	33410
777.539	33211.13
777.874	33405.25
778.209	32992.38
778.543	32835.32
778.878	32746.51
779.212	32740.18
779.547	32592.84
779.881	32659.51
780.215	32396.01
780.55	32313.75
780.884	32113.99
781.218	32089.13
781.552	32025.17
781.886	31809.59
782.22	31592.19
782.554	31504.74
782.888	31241.47
783.222	31181.58
783.556	31026.56
783.889	31004.64
784.223	30778.65
784.557	30756.06
784.89	30849.61
785.224	30412.56
785.557	30337.31
785.891	30171.21
786.224	30236.3
786.558	30197.2
786.891	29921.28
787.224	29905.91
787.557	29784.78
787.891	29738.68
788.224	29636.31
788.557	29701.39
788.89	29462.98
789.223	29434.06
789.556	29142.09
789.888	29124.91
790.221	28937.12
790.554	28833.39
790.887	28834.52
791.219	28797.92
791.552	28733.96
791.884	28552.72
792.217	28400.19
792.549	28390.69
792.882	28207.42
793.214	28143.92
793.546	28082
793.879	27964.94
794.211	27868.67
794.543	27891.72
794.875	27684.05
795.207	27811.73
795.539	27564.28
795.871	27613.99
796.203	27249.03
796.535	27112.31
796.867	27156.15
797.198	27156.83
797.53	27074.34
797.862	26819.21
798.193	26891.75
798.525	26751.42
798.856	26703.96
799.188	26453.34
799.519	26398.88
799.85	26246.8
800.182	26330.64
800.513	26241.15
800.844	26040.47
801.175	26180.36
801.506	25960.93
801.837	25860.59
802.168	25743.31
802.499	25676.64
802.83	25478.91
803.161	25512.13
803.491	25405.91
803.822	25471.9
804.153	25155.07
804.483	25019.94
804.814	24851.8
805.145	24958.69
805.475	24884.57
805.805	24800.96
806.136	24887.06
806.466	24669.66
806.796	24597.8
807.126	24480.97
807.457	24301.08
807.787	24258.83
808.117	24303.8
808.447	24132.05
808.777	24218.15
809.107	24064.03
809.436	24005.72
809.766	23923.02
810.096	23900.19
810.426	23854.09
810.755	23790.14
811.085	23740.65
811.414	23575.45
811.744	23391.05
812.073	23357.15
812.403	23411.62
812.732	23186.54
813.061	23271.05
813.39	23144.96
813.719	23152.19
814.049	23207.78
814.378	22910.39
814.707	22982.7
815.036	22983.83
815.365	22858.64
815.693	22577.97
816.022	22621.81
816.351	22507.69
816.68	22568.25
817.008	22576.61
817.337	22314.7
817.665	22273.11
817.994	22501.13
818.322	22307.24
818.651	22180.91
818.979	22150.41
819.307	22289.39
819.636	22198.99
819.964	22006.91
820.292	22122.61
820.62	22125.55
820.948	21907.7
821.276	22025.66
821.604	21944.31
821.932	22059.11
822.259	21965.78
822.587	22000.13
822.915	21941.82
823.243	22029.73
823.57	21933.24
823.898	22081.03
824.225	21961.48
824.553	21977.3
824.88	22009.85
825.207	22030.18
825.535	21907.02
825.862	22024.31
826.189	21996.29
826.516	21944.08
826.843	22074.02
827.17	22076.51
827.497	22058.66
827.824	22034.93
828.151	22114.93
828.478	22013.69
828.805	22048.71
829.131	21986.79
829.458	21946.8
829.785	21851.43
830.111	21904.76
830.438	21887.14
830.764	21945.21
831.09	21824.09
831.417	21830.41
831.743	21836.52
832.069	21832
832.395	21644.2
832.722	21865.44
833.048	21733.69
833.374	21780.7
833.7	21599.46
834.026	21574.6
834.351	21720.81
834.677	21597.88
835.003	21720.36
835.329	21594.04
835.654	21583.87
835.98	21589.29
836.306	21394.49
836.631	21367.6
836.956	21393.14
837.282	21436.53
837.607	21294.38
837.932	21169.42
838.258	21105.24
838.583	21271.11
838.908	21093.48
839.233	21141.85
839.558	21073.82
839.883	20971.68
840.208	20874.28
840.533	20940.49
840.858	20930.33
841.182	20879.03
841.507	20869.76
841.832	20749.54
842.156	20762.65
842.481	20620.73
842.805	20627.73
843.13	20464.12
843.454	20514.07
843.778	20434.52
844.103	20394.97
844.427	20395.42
844.751	20401.75
845.075	20357.91
845.399	20309.1
845.723	20121.76
846.047	20234.98
846.371	20008.54
846.695	20033.17
847.019	19803.58
847.343	19810.58
847.666	19751.37
847.99	19490.36
848.313	19525.62
848.637	19558.16
848.96	19472.96
849.284	19394.09
849.607	19305.28
849.931	19207.43
850.254	19082.69
850.577	18942.81
850.9	18858.52
851.223	18826.2
851.546	18721.57
851.869	18622.59
852.192	18805.41
852.515	18623.27
852.838	18478.41
853.161	18552.76
853.483	18420.79
853.806	18511.18
854.129	18388.02
854.451	18340.79
854.774	18270.06
855.096	18240.9
855.419	18159.32
855.741	18173.34
856.063	18008.82
856.385	18061.02
856.708	17997.97
857.03	17878.65
857.352	17908.71
857.674	17853.12
857.996	17839.11
858.318	17767.47
858.64	17779.67
858.961	17755.49
859.283	17636.17
859.605	17582.16
859.926	17557.98
860.248	17489.29
860.57	17480.7
860.891	17476.4
861.212	17278.44
861.534	17214.94
861.855	17311.44
862.176	17382.85
862.498	17336.75
862.819	17235.73
863.14	17160.93
863.461	17138.33
863.782	17021.5
864.103	16965.01
864.424	17073.03
864.745	17093.59
865.065	16950.77
865.386	17038.45
865.707	16928.17
866.027	16941.05
866.348	16796.2
866.668	16918.91
866.989	16758.01
867.309	16708.74
867.63	16720.72
867.95	16677.33
868.27	16594.62
868.59	16574.51
868.91	16550.1
869.23	16484.11
869.55	16505.13
869.87	16495.64
870.19	16479.14
870.51	16459.26
870.83	16488.18
871.15	16359.15
871.469	16324.34
871.789	16385.81
872.109	16317.11
872.428	16237.12
872.748	16158.25
873.067	16276.89
873.386	16209.77
873.706	16264.23
874.025	16069.21
874.344	16157.12
874.663	16145.82
874.982	16073.5
875.301	16013.84
875.62	16088.42
875.939	15979.5
876.258	15951.47
876.577	15853.85
876.896	15848.43
877.214	15861.76
877.533	15933.39
877.852	15771.59
878.17	15828.99
878.489	15802.32
878.807	15784.7
879.125	15667.41
879.444	15690.01
879.762	15709.22
880.08	15671.93
880.398	15646.85
880.716	15618.37
881.034	15586.29
881.352	15612.95
881.67	15568.43
881.988	15596.68
882.306	15519.17
882.624	15516.91
882.941	15441.43
883.259	15345.16
883.577	15389
883.894	15288.21
884.212	15285.28
884.529	15292.28
884.846	15197.82
885.164	15254.54
885.481	15193.75
885.798	15229.91
886.115	15105.39
886.432	15123.02
886.75	15064.94
887.067	15105.17
887.383	15015.9
887.7	15027.88
888.017	14945.4
888.334	15000.31
888.651	14922.35
888.967	14905.4
889.284	14822.46
889.6	14852.52
889.917	14728.91
890.233	14809.58
890.55	14617.05
890.866	14743.6
891.182	14614.11
891.498	14629.25
891.815	14612.07
892.131	14522.13
892.447	14506.31
892.763	14420.89
893.079	14479.2
893.395	14384.06
893.71	14367.56
894.026	14253.89
894.342	14214.34
894.657	14190.84
894.973	14147.23
895.289	14225.42
895.604	14178.86
895.92	14053.22
896.235	13949.72
896.55	13985.42
896.865	13931.64
897.181	13949.72
897.496	13965.31
897.811	13800.57
898.126	13762.6
898.441	13709.95
898.756	13658.43
899.071	13683.96
899.386	13606.9
899.7	13497.53
900.015	13393.12
900.33	13431.31
900.644	13386.79
900.959	13344.08
901.273	13369.39
901.588	13229.06
901.902	13186.57
902.216	13173.24
902.531	13161.94
902.845	13139.57
903.159	12969.63
903.473	12914.04
903.787	12919.46
904.101	12803.31
904.415	12808.96
904.729	12733.25
905.042	12708.39
905.356	12730.99
905.67	12674.27
905.984	12608.96
906.297	12560.15
906.611	12439.48
906.924	12436.99
907.237	12347.95
907.551	12308.41
907.864	12327.61
908.177	12313.83
908.491	12232.02
908.804	12174.4
909.117	12100.05
909.43	12018.47
909.743	11999.26
910.056	11919.49
910.368	11960.17
910.681	11861.86
910.994	11845.59
911.307	11796.55
911.619	11620.51
911.932	11607.41
912.244	11626.16
912.557	11575.09
912.869	11479.5
913.181	11432.04
913.494	11440.41
913.806	11371.71
914.118	11321.54
914.43	11276.57
914.742	11288.32
915.054	11146.18
915.366	11200.64
915.678	11177.14
915.99	11060.08
916.302	11001.09
916.613	10954.54
916.925	11002.45
917.236	10889.69
917.548	10753.19
917.859	10809.46
918.171	10716.58
918.482	10711.16
918.794	10648.34
919.105	10614.44
919.416	10602.01
919.727	10562.01
920.038	10526.08
920.349	10464.39
920.66	10438.4
920.971	10470.94
921.282	10318.63
921.593	10298.74
921.903	10166.99
922.214	10230.27
922.525	10181
922.835	10179.42
923.146	10065.98
923.456	10052.87
923.767	10042.48
924.077	10037.5
924.387	10001.35
924.697	9928.35
925.008	9886.77
925.318	9791.41
925.628	9895.14
925.938	9783.27
926.248	9692.2
926.558	9616.05
926.867	9610.4
927.177	9632.09
927.487	9564.75
927.796	9464.19
928.106	9525.88
928.416	9418.99
928.725	9446.79
929.034	9369.5
929.344	9407.46
929.653	9288.6
929.962	9228.94
930.271	9271.87
930.581	9270.29
930.89	9147.81
931.199	9133.35
931.508	9050.86
931.817	9105.1
932.125	9110.52
932.434	9053.12
932.743	8986.01
933.051	8905.78
933.36	8859.68
933.669	8833.02
933.977	8767.26
934.286	8764.77
934.594	8747.14
934.902	8682.29
935.21	8659.46
935.519	8686.13
935.827	8660.14
936.135	8564.1
936.443	8519.58
936.751	8454.5
937.059	8479.81
937.367	8372.92
937.674	8392.8
937.982	8392.8
938.29	8259.92
938.597	8310.54
938.905	8188.51
939.213	8191.45
939.52	8133.83
939.827	8176.08
940.135	8078.91
940.442	8059.7
940.749	8076.88
941.056	8042.3
941.363	7967.28
941.67	7897.22
941.977	7885.47
942.284	7816.32
942.591	7827.62
942.898	7728.19
943.205	7753.27
943.511	7704.23
943.818	7651.13
944.125	7633.95
944.431	7592.82
944.738	7507.4
945.044	7500.85
945.35	7482.77
945.657	7393.73
945.963	7419.72
946.269	7400.51
946.575	7357.35
946.881	7339.95
947.187	7281.64
947.493	7263.34
947.799	7246.84
948.105	7183.79
948.41	7176.11
948.716	7178.6
949.022	7080.07
949.327	7052.5
949.633	7004.14
949.938	6975.44
950.244	7009.11
950.549	6904.03
950.854	6898.83
951.16	6845.72
951.465	6845.05
951.77	6788.32
952.075	6727.31
952.38	6726.41
952.685	6750.81
952.99	6616.35
953.294	6636.92
953.599	6583.58
953.904	6577.48
954.209	6498.84
954.513	6572.51
954.818	6485.06
955.122	6431.95
955.426	6417.94
955.731	6362.57
956.035	6383.36
956.339	6356.02
956.643	6352.18
956.948	6295.91
957.252	6228.34
957.556	6258.17
957.86	6249.58
958.163	6183.59
958.467	6180.43
958.771	6158.96
959.075	6177.27
959.378	6069.47
959.682	6056.14
959.985	6030.6
960.289	5995.35
960.592	5966.88
960.896	5941.79
961.199	5924.62
961.502	5939.99
961.805	5910.83
962.108	5883.72
962.411	5832.64
962.714	5770.5
963.017	5843.04
963.32	5750.84
963.623	5740.67
963.926	5735.7
964.228	5706.54
964.531	5684.17
964.833	5707
965.136	5594.91
965.438	5568.02
965.741	5616.15
966.043	5512.88
966.345	5544.06
966.648	5502.48
966.95	5514.01
967.252	5425.65
967.554	5420.68
967.856	5404.86
968.158	5338.87
968.46	5386.78
968.761	5334.35
969.063	5342.49
969.365	5318.53
969.666	5293
969.968	5253.68
970.269	5231.08
970.571	5216.84
970.872	5170.06
971.174	5144.75
971.475	5146.79
971.776	5138.88
972.077	5102.27
972.378	5095.49
972.679	5085.77
972.98	5024.98
973.281	5035.6
973.582	5038.31
973.883	5005.55
974.183	4953.12
974.484	4934.81
974.785	4888.94
975.085	4897.53
975.386	4952.21
975.686	4870.86
975.986	4845.55
976.287	4799.22
976.587	4820.47
976.887	4745.44
977.187	4761.26
977.487	4758.32
977.787	4694.59
978.087	4672.9
978.387	4643.52
978.687	4683.75
978.987	4674.03
979.286	4609.4
979.586	4549.06
979.885	4574.15
980.185	4491.21
980.484	4507.93
980.784	4449.85
981.083	4488.5
981.382	4506.58
981.682	4451.89
981.981	4421.83
982.28	4404.43
982.579	4352.46
982.878	4363.53
983.177	4311.55
983.475	4315.62
983.774	4270.2
984.073	4282.18
984.372	4291.21
984.67	4243.76
984.969	4243.98
985.267	4199.69
985.566	4156.08
985.864	4150.65
986.162	4101.62
986.461	4124.21
986.759	4085.12
987.057	4026.14
987.355	4021.62
987.653	4016.19
987.951	4024.33
988.249	3997.89
988.547	3961.73
988.844	3914.95
989.142	3914.5
989.44	3890.1
989.737	3896.2
990.035	3894.84
990.332	3863.66
990.63	3810.55
990.927	3801.51
991.224	3755.64
991.521	3775.97
991.819	3759.25
992.116	3707.95
992.413	3757.44
992.71	3689.42
993.006	3657.56
993.303	3636.54
993.6	3695.75
993.897	3665.92
994.193	3653.49
994.49	3605.81
994.787	3575.3
995.083	3592.02
995.379	3529.88
995.676	3500.28
995.972	3489.88
996.268	3491.69
996.565	3456.89
996.861	3478.13
997.157	3434.74
997.453	3424.8
997.749	3414.63
998.044	3359.71
998.34	3373.27
998.636	3316.33
998.932	3329.66
999.227	3296.44
999.523	3304.12
999.818	3283.78
1000.114	3271.81
1000.409	3243.56
1000.704	3208.31
1001	3179.61
1001.295	3180.28
1001.59	3190.9
1001.885	3115.88
1002.18	3106.84
1002.475	3134.41
1002.77	3102.09
1003.065	3029.55
1003.359	3039.5
1003.654	3053.96
1003.949	3032.26
1004.243	3004.92
1004.538	2979.84
1004.832	2986.16
1005.127	2995.88
1005.421	2963.79
1005.715	2900.29
1006.009	2925.6
1006.304	2912.72
1006.598	2872.95
1006.892	2881.31
1007.186	2835.21
1007.48	2838.37
1007.773	2790.92
1008.067	2802.89
1008.361	2799.95
1008.655	2758.6
1008.948	2745.27
1009.242	2740.07
1009.535	2683.8
1009.829	2675.66
1010.122	2698.94
1010.415	2640.86
1010.708	2640.18
1011.001	2661.65
1011.295	2576.68
1011.588	2597.02
1011.881	2609.45
1012.173	2573.52
1012.466	2558.38
1012.759	2565.84
1013.052	2541.66
1013.344	2515.22
1013.637	2491.94
1013.93	2476.57
1014.222	2461.43
1014.514	2433.18
1014.807	2429.34
1015.099	2413.75
1015.391	2433.64
1015.683	2415.11
1015.976	2399.29
1016.268	2386.86
1016.56	2369.23
1016.851	2348.44
1017.143	2341.44
1017.435	2290.82
1017.727	2304.15
1018.018	2274.54
1018.31	2243.36
1018.602	2261.66
1018.893	2225.73
1019.185	2244.71
1019.476	2213.98
1019.767	2145.28
1020.058	2197.26
1020.35	2146.41
1020.641	2150.03
1020.932	2129.24
1021.223	2131.72
1021.514	2107.77
1021.804	2070.93
1022.095	2093.31
1022.386	2035.23
1022.677	2022.8
1022.967	2016.02
1023.258	2022.35
1023.548	1989.81
1023.839	1971.28
1024.129	1993.2
1024.419	1948.9
1024.709	1933.54
1025	1943.03
1025.29	1906.42
1025.58	1893.76
1025.87	1875.91
1026.16	1873.88
1026.449	1881.56
1026.739	1849.25
1027.029	1832.52
1027.319	1804.95
1027.608	1810.83
1027.898	1807.66
1028.187	1773.99
1028.477	1756.82
1028.766	1750.72
1029.055	1745.29
1029.344	1744.62
1029.634	1693.32
1029.923	1675.46
1030.212	1705.29
1030.501	1683.83
1030.79	1685.18
1031.078	1644.96
1031.367	1626.65
1031.656	1619.87
1031.945	1589.59
1032.233	1611.51
1032.522	1591.4
1032.81	1585.07
1033.099	1574.22
1033.387	1568.57
1033.675	1556.82
1033.963	1516.37
1034.251	1558.41
1034.54	1510.72
1034.828	1489.93
1035.116	1480.67
1035.403	1468.69
1035.691	1450.39
1035.979	1442.25
1036.267	1455.58
1036.554	1477.5
1036.842	1428.24
1037.129	1406.32
1037.417	1432.08
1037.704	1409.48
1037.992	1395.02
1038.279	1367.45
1038.566	1374.68
1038.853	1374.68
1039.14	1374.68
