Data from aluminium_surface_pro_back_FLMS001491_00015.txt Node
Date: Wed Feb 08 15:33:41 GMT 2017
User: dcchb
Spectrometer: FLMS00149
Trigger mode: 0
Integration Time (sec): 2.000000E-2
Scans to average: 10
Electric dark correction enabled: true
Nonlinearity correction enabled: false
Boxcar width: 0
XAxis mode: Wavelengths
Number of Pixels in Spectrum: 2048
>>>>>Begin Spectral Data<<<<<
341.393	6.51
341.776	6.51
342.16	6.51
342.543	-63.09
342.927	-65.58
343.31	-87.05
343.693	-89.98
344.077	-58.35
344.46	-68.52
344.843	-54.96
345.226	-34.17
345.61	-27.16
345.993	-7.5
346.376	-4.34
346.759	29.56
347.142	52.61
347.525	63.01
347.908	44.93
348.291	63.91
348.674	79.28
349.057	98.71
349.44	130.58
349.823	162.44
350.206	192.95
350.588	226.17
350.971	233.62
351.354	257.13
351.737	249.22
352.119	260.52
352.502	278.82
352.884	297.35
353.267	298.93
353.65	318.37
354.032	322.89
354.414	338.48
354.797	344.81
355.179	352.26
355.562	338.03
355.944	353.39
356.326	361.08
356.709	372.83
357.091	369.67
357.473	381.87
357.855	375.77
358.238	394.52
358.62	397.91
359.002	375.77
359.384	379.38
359.766	369.21
360.148	382.32
360.53	381.19
360.912	379.16
361.294	381.64
361.676	362.89
362.057	379.83
362.439	390.23
362.821	374.41
363.203	379.38
363.584	371.02
363.966	387.74
364.348	371.47
364.729	373.51
365.111	384.58
365.493	363.79
365.874	359.72
366.256	387.07
366.637	378.7
367.019	375.77
367.4	387.29
367.781	395.2
368.163	371.25
368.544	372.6
368.925	375.99
369.306	367.41
369.688	386.61
370.069	350.91
370.45	387.97
370.831	375.99
371.212	376.67
371.593	386.39
371.974	381.64
372.355	391.13
372.736	395.65
373.117	403.79
373.498	405.82
373.879	371.47
374.26	395.65
374.641	392.49
375.021	403.56
375.402	373.51
375.783	409.21
376.163	440.4
376.544	427.97
376.925	405.6
377.305	401.08
377.686	422.32
378.066	399.04
378.447	420.96
378.827	427.29
379.208	444.47
379.588	418.03
379.968	439.95
380.349	434.52
380.729	438.82
381.109	446.27
381.489	451.47
381.87	458.93
382.25	453.05
382.63	466.39
383.01	473.84
383.39	462.77
383.77	474.97
384.15	463.67
384.53	496.89
384.91	478.82
385.29	488.08
385.67	488.98
386.049	499.15
386.429	497.35
386.809	525.14
387.189	519.27
387.568	531.24
387.948	529.44
388.328	547.29
388.707	538.25
389.087	542.77
389.466	523.33
389.846	530.34
390.225	577.34
390.605	586.16
390.984	567.63
391.363	553.62
391.743	585.03
392.122	576.67
392.501	585.48
392.881	608.98
393.26	590
393.639	589.77
394.018	597.23
394.397	606.04
394.776	626.61
395.155	630.9
395.534	634.74
395.913	635.42
396.292	673.16
396.671	675.65
397.05	691.24
397.429	680.84
397.808	673.84
398.186	671.35
398.565	683.56
398.944	689.66
399.323	709.77
399.701	705.7
400.08	722.42
400.458	719.03
400.837	729.66
401.215	757.9
401.594	754.97
401.972	762.65
402.351	771.46
402.729	772.14
403.107	788.86
403.486	791.58
403.864	807.85
404.242	820.05
404.62	816.89
404.999	836.32
405.377	859.82
405.755	849.65
406.133	873.61
406.511	886.71
406.889	868.18
407.267	874.06
407.645	922.87
408.023	930.1
408.401	910.89
408.779	946.15
409.156	947.28
409.534	953.38
409.912	961.06
410.29	999.25
410.667	1012.81
411.045	1032.7
411.422	1018.69
411.8	1041.51
412.178	1059.36
412.555	1077.9
412.933	1096.43
413.31	1082.87
413.687	1128.52
414.065	1121.06
414.442	1137.78
414.819	1154.96
415.197	1172.81
415.574	1180.49
415.951	1202.64
416.328	1189.98
416.705	1206.48
417.082	1215.52
417.46	1220.26
417.837	1256.42
418.214	1268.17
418.591	1263.2
418.967	1275.18
419.344	1283.77
419.721	1308.4
420.098	1328.06
420.475	1343.2
420.852	1373.93
421.228	1358.34
421.605	1374.38
421.982	1377.55
422.358	1398.11
422.735	1461.84
423.111	1416.64
423.488	1447.38
423.864	1435.63
424.241	1455.06
424.617	1518.56
424.994	1489.41
425.37	1526.02
425.746	1564.21
426.123	1541.39
426.499	1558.56
426.875	1595.85
427.251	1643.98
427.627	1652.57
428.003	1643.76
428.379	1693.92
428.756	1702.29
429.132	1722.85
429.507	1745.9
429.883	1754.49
430.259	1791.1
430.635	1799.68
431.011	1827.93
431.387	1893.02
431.763	1895.5
432.138	1929.4
432.514	1952
432.89	1947.25
433.265	2003.07
433.641	2017.98
434.016	2006.23
434.392	2079.45
434.767	2076.74
435.143	2120.58
435.518	2146.79
435.894	2169.39
436.269	2187.47
436.644	2254.59
437.02	2246.68
437.395	2284.19
437.77	2279.67
438.145	2321.93
438.52	2366.45
438.895	2384.53
439.271	2384.75
439.646	2404.19
440.021	2431.53
440.395	2466.11
440.77	2466.11
441.145	2494.58
441.52	2530.06
441.895	2505.65
442.27	2564.18
442.645	2553.56
443.019	2628.59
443.394	2627.69
443.769	2631.3
444.143	2605.09
444.518	2688.25
444.892	2681.7
445.267	2700.45
445.641	2696.84
446.016	2760.34
446.39	2788.81
446.764	2798.98
447.139	2803.95
447.513	2830.62
447.887	2862.03
448.262	2830.62
448.636	2864.97
449.01	2925.53
449.384	2915.36
449.758	2975.47
450.132	2995.81
450.506	3016.38
450.88	3076.03
451.254	3043.04
451.628	3110.16
452.002	3094.57
452.376	3171.4
452.75	3177.73
453.123	3170.72
453.497	3261.34
453.871	3269.48
454.244	3381.56
454.618	3412.07
454.992	3433.54
455.365	3438.74
455.739	3507.44
456.112	3534.55
456.486	3603.03
456.859	3582.69
457.232	3675.12
457.606	3689.13
457.979	3723.02
458.352	3833.76
458.725	3868.1
459.099	3848.22
459.472	4020.87
459.845	4033.98
460.218	4043.24
460.591	4108.32
460.964	4124.37
461.337	4189.9
461.71	4291.37
462.083	4324.36
462.456	4346.74
462.829	4409.11
463.201	4449.11
463.574	4497.24
463.947	4575.66
464.32	4631.93
464.692	4683.9
465.065	4692.94
465.438	4777.69
465.81	4920.28
466.183	4880.51
466.555	5042.99
466.928	5047.06
467.3	5041.63
467.672	5146.04
468.045	5292.02
468.417	5261.51
468.789	5294.96
469.161	5386.93
469.534	5464.9
469.906	5635.97
470.278	5648.4
470.65	5708.73
471.022	5825.12
471.394	5968.61
471.766	5988.5
472.138	6048.84
472.51	6177.65
472.882	6262.84
473.253	6292.45
473.625	6426.68
473.997	6553.46
474.369	6586.9
474.74	6667.35
475.112	6853.34
475.484	6951.41
475.855	7072.77
476.227	7107.12
476.598	7319.77
476.97	7440.89
477.341	7572.19
477.713	7736.7
478.084	7712.07
478.455	8010.82
478.827	8092.17
479.198	8229.57
479.569	8307.76
479.94	8457.14
480.311	8574.2
480.682	8865.04
481.053	8982.77
481.424	9156.33
481.795	9203.78
482.166	9331.69
482.537	9470.67
482.908	9709.31
483.279	9814.61
483.65	9956.53
484.021	10155.62
484.391	10306.81
484.762	10338.22
485.133	10497.99
485.503	10633.8
485.874	10937.3
486.244	10972.32
486.615	11209.83
486.985	11335.93
487.356	11549.03
487.726	11681.46
488.097	11919.87
488.467	11932.53
488.837	12257.71
489.207	12331.38
489.578	12494.09
489.948	12647.53
490.318	12878.72
490.688	12884.36
491.058	13123.45
491.428	13270.8
491.798	13494.74
492.168	13711.91
492.538	13815.19
492.908	13988.52
493.278	14185.57
493.648	14129.53
494.017	14366.81
494.387	14457.2
494.757	14625.34
495.126	14785.11
495.496	14847.48
495.866	14917.31
496.235	15108.71
496.605	15263.06
496.974	15420.12
497.344	15524.3
497.713	15568.14
498.082	15682.94
498.452	15835.93
498.821	16056.26
499.19	16033.89
499.559	16255.58
499.928	16390.26
500.298	16549.58
500.667	16714.32
501.036	16664.6
501.405	16953.18
501.774	16924.94
502.143	17122.22
502.512	17152.05
502.88	17336.9
503.249	17303.68
503.618	17594.3
503.987	17623.9
504.356	17717.91
504.724	17818.47
505.093	17962.2
505.462	17957.68
505.83	18227.27
506.199	18362.19
506.567	18546.59
506.936	18577.55
507.304	18798.79
507.672	18820.48
508.041	19063.41
508.409	19156.52
508.777	19321.03
509.145	19436.73
509.514	19536.17
509.882	19758.08
510.25	19709.5
510.618	20008.47
510.986	19977.96
511.354	20212.53
511.722	20419.08
512.09	20652.97
512.458	20568.68
512.826	20786.3
513.193	20928.9
513.561	21019.74
513.929	21213.19
514.297	21419.51
514.664	21617.02
515.032	21586.73
515.4	21854.3
515.767	21965.93
516.135	22218.58
516.502	22036.67
516.869	22562.3
517.237	22699.47
517.604	22639.81
517.972	22960.71
518.339	23076.19
518.706	23134.26
519.073	23238.44
519.44	23473.24
519.808	23766.34
520.175	23830.97
520.542	24018.76
520.909	24133.79
521.276	24358.41
521.643	24515.92
522.009	24834.33
522.376	24882.24
522.743	25117.26
523.11	25421.44
523.477	25651.71
523.843	25787.75
524.21	26041.31
524.577	26342.99
524.943	26393.16
525.31	26630.22
525.676	26851.45
526.043	27029.53
526.409	27213.48
526.776	27524.66
527.142	27645.11
527.508	27898.66
527.874	28126
528.241	28203.96
528.607	28446.22
528.973	28594.01
529.339	28652.31
529.705	28952.87
530.071	29309.92
530.437	29374.1
530.803	29466.98
531.169	29855.44
531.535	29680.76
531.901	29842.56
532.267	30078.49
532.632	30277.81
532.998	30464.02
533.364	30482.32
533.73	30730
534.095	30948.75
534.461	31121.17
534.826	31216.09
535.192	31287.72
535.557	31644.32
535.923	31581.73
536.288	31753.92
536.653	31824.43
537.019	31880.48
537.384	32019.45
537.749	32318.66
538.114	32363.4
538.479	32340.8
538.845	32564.3
539.21	32577.63
539.575	32616.73
539.94	32717.74
540.305	32966.55
540.67	32895.82
541.034	33109.6
541.399	33212.87
541.764	33292.42
542.129	33530.15
542.494	33582.13
542.858	33718.62
543.223	33753.65
543.587	33949.57
543.952	33894.66
544.316	34168.78
544.681	34034.09
545.045	34276.12
545.41	34605.38
545.774	34583.23
546.138	34594.08
546.503	34839.27
546.867	34738.25
547.231	35192.7
547.595	35171.24
547.959	35369.2
548.324	35367.84
548.688	35489.87
549.052	35599.02
549.416	35747.27
549.779	35866.81
550.143	35992.91
550.507	36280.13
550.871	36312.22
551.235	36366.23
551.599	36646.23
551.962	36540.69
552.326	36814.13
552.689	37152.88
553.053	36941.81
553.417	37036.27
553.78	37366.21
554.143	37257.51
554.507	37536.82
554.87	37800.55
555.234	37993.31
555.597	37968
555.96	38064.49
556.323	38398.72
556.686	38445.95
557.05	38565.05
557.413	38796.9
557.776	38875.32
558.139	39027.86
558.502	39075.99
558.865	39304.46
559.228	39574.51
559.59	39676.2
559.953	39722.08
560.316	40292.68
560.679	40297.66
561.041	40565.9
561.404	40785.1
561.767	40907.36
562.129	40926.11
562.492	41379.43
562.854	41353.9
563.217	41440.68
563.579	41525.65
563.941	41897.61
564.304	41991.17
564.666	42237.27
565.028	42329.01
565.39	42505.05
565.753	42766.74
566.115	42737.82
566.477	42924.7
566.839	43039.05
567.201	43418.25
567.563	43481.3
567.925	43671.13
568.287	43901.18
568.648	43870.89
569.01	44138.91
569.372	44538.67
569.734	44416.42
570.095	44861.6
570.457	45060.92
570.819	45043.29
571.18	45172.33
571.542	45406.9
571.903	45402.61
572.265	45518.76
572.626	45706.55
572.987	45795.14
573.349	45983.83
573.71	46189.7
574.071	46395.8
574.432	46448.68
574.794	46708.56
575.155	46671.5
575.516	46745.17
575.877	46829.69
576.238	47005.95
576.599	47087.08
576.96	47152.16
577.32	47090.02
577.681	47360.97
578.042	47457.69
578.403	47619.27
578.763	47567.07
579.124	47652.26
579.485	47863.78
579.845	48036.21
580.206	47878.7
580.566	47920.05
580.927	48082.99
581.287	48298.35
581.648	48112.14
582.008	48294.73
582.368	48174.28
582.728	48315.98
583.089	48188.97
583.449	48435.29
583.809	48448.85
584.169	48480.94
584.529	48375.86
584.889	48762.29
585.249	48536.53
585.609	48318.69
585.969	48649.07
586.329	48557.78
586.688	48613.37
587.048	48603.65
587.408	48520.72
587.768	48427.61
588.127	48405.92
588.487	48500.6
588.846	48745.57
589.206	48511.45
589.565	48669.41
589.925	48767.26
590.284	48514.16
590.643	48674.38
591.003	48776.08
591.362	48861.27
591.721	48897.2
592.08	48811.78
592.44	48817.43
592.799	48722.07
593.158	48676.19
593.517	48757.32
593.876	48814.27
594.235	48745.34
594.593	48827.15
594.952	48810.65
595.311	48721.84
595.67	48846.58
596.029	48978.78
596.387	48948.95
596.746	49036.18
597.104	48901.5
597.463	48942.63
597.822	49063.98
598.18	49012.45
598.538	48942.85
598.897	49218.78
599.255	48885
599.613	49438.21
599.972	49323.41
600.33	49356.85
600.688	49153.24
601.046	49294.03
601.404	49594.13
601.762	49492.44
602.12	49562.95
602.478	49590.29
602.836	49581.03
603.194	49473.91
603.552	49610.86
603.91	49489.28
604.268	49831.64
604.625	49707.8
604.983	49831.87
605.341	49763.17
605.698	50013.78
606.056	49996.61
606.413	49853.79
606.771	50096.04
607.128	50042.48
607.485	49998.19
607.843	50012.88
608.2	50189.82
608.557	50301.23
608.914	50169.49
609.272	50348.92
609.629	50321.12
609.986	50403.15
610.343	50236.15
610.7	50524.28
611.057	50321.8
611.414	50456.26
611.771	50400.89
612.127	50514.56
612.484	50538.97
612.841	50647.21
613.198	50578.74
613.554	50568.12
613.911	50839.07
614.267	50604.95
614.624	50705.07
614.98	50759.07
615.337	50962.46
615.693	50852.86
616.05	50934.21
616.406	51025.73
616.762	50891.5
617.118	50899.86
617.475	50878.17
617.831	50997.03
618.187	51001.78
618.543	51014.89
618.899	51235.22
619.255	51233.41
619.611	51071.61
619.967	51318.61
620.323	51501.43
620.678	51260.53
621.034	51190.02
621.39	51190.7
621.746	51070.03
622.101	51624.81
622.457	51227.99
622.812	51357.7
623.168	51448.1
623.523	51379.85
623.879	51545.49
624.234	51186.41
624.589	51393.63
624.945	51397.93
625.3	51481.32
625.655	51344.37
626.01	51418.49
626.365	51380.98
626.72	51407.87
627.075	51390.92
627.43	51339.4
627.785	51241.32
628.14	51291.72
628.495	51377.59
628.85	51404.03
629.205	51199.29
629.559	51333.07
629.914	51141.21
630.269	51220.53
630.623	51188.89
630.978	51095.56
631.332	51157.93
631.687	51183.47
632.041	51082
632.396	51131.49
632.75	50965.62
633.104	51119.29
633.459	51059.86
633.813	50999.97
634.167	50955
634.521	50998.16
634.875	50964.04
635.229	50985.28
635.583	50664.61
635.937	50715.69
636.291	50621.68
636.645	50669.81
636.999	50731.05
637.352	50723.37
637.706	50504.62
638.06	50650.38
638.413	50412.64
638.767	50326.77
639.121	50518.18
639.474	50117.06
639.828	50194.34
640.181	50205.87
640.534	50287
640.888	50164.29
641.241	50079.77
641.594	50109.83
641.947	50262.82
642.301	50027.79
642.654	50033.22
643.007	50064.63
643.36	50089.94
643.713	49851.53
644.066	49987.57
644.419	49781.93
644.771	49443.18
645.124	49101.49
645.477	49210.64
645.83	48829.18
646.182	48812.91
646.535	48644.33
646.888	48667.83
647.24	48412.7
647.593	48616.08
647.945	48621.05
648.298	48395.07
648.65	48382.19
649.002	48369.76
649.355	48445.69
649.707	48221.06
650.059	48345.35
650.411	48802.97
650.763	48737.89
651.115	49241.37
651.467	49015.17
651.819	48966.58
652.171	48948.5
652.523	48864.89
652.875	48859.01
653.227	48731.33
653.578	48857.66
653.93	48913.25
654.282	48584.44
654.633	48592.13
654.985	48623.99
655.337	48685.91
655.688	48638.45
656.039	48652.69
656.391	48374.05
656.742	48384.22
657.094	48411.34
657.445	48477.55
657.796	48417.22
658.147	48293.15
658.498	48315.3
658.849	48443.66
659.2	48352.81
659.551	48248.18
659.902	48301.06
660.253	48206.83
660.604	48338.57
660.955	48087.05
661.306	48174.06
661.656	48043.89
662.007	48095.42
662.358	48045.47
662.708	48022.65
663.059	48005.7
663.409	47907.62
663.76	48086.15
664.11	47992.37
664.461	48002.54
664.811	48042.99
665.161	48080.05
665.511	47877.12
665.862	47847.97
666.212	48000.05
666.562	47930.67
666.912	47811.13
667.262	47701.08
667.612	47735.43
667.962	47723
668.312	47533.62
668.662	47782.43
669.011	47625.15
669.361	47464.47
669.711	47499.95
670.06	47495.88
670.41	47389.45
670.76	47288.43
671.109	47292.73
671.459	47314.65
671.808	47215.67
672.157	47319.84
672.507	47098.15
672.856	47140.87
673.205	47247.3
673.554	47380.63
673.904	47111.49
674.253	47367.98
674.602	47079.17
674.951	46576.13
675.3	46278.97
675.649	46986.29
675.998	47067.42
676.346	47085.27
676.695	47164.59
677.044	46862.45
677.393	46890.02
677.741	46889.12
678.09	46823.13
678.438	46857.93
678.787	46816.13
679.135	46819.74
679.484	46659.97
679.832	46819.52
680.181	46479.19
680.529	46707.66
680.877	46558.06
681.225	46430.83
681.573	46688.45
681.922	46361.68
682.27	46130.72
682.618	46236.26
682.966	46072.19
683.314	46198.74
683.661	45987.9
684.009	45725.31
684.357	45745.87
684.705	45557.86
685.053	45788.58
685.4	45588.14
685.748	45470.4
686.095	45430.18
686.443	45268.15
686.79	45276.73
687.138	45341.59
687.485	45268.15
687.832	45038.55
688.18	45090.52
688.527	44924.65
688.874	44932.11
689.221	44876.29
689.568	44672.46
689.915	44585
690.262	44526.92
690.609	44317.21
690.956	44276.08
691.303	44281.96
691.65	44159.02
691.997	43887.17
692.344	43763.55
692.69	43599.72
693.037	43746.15
693.383	43440.85
693.73	43457.35
694.077	43167.64
694.423	43273.17
694.769	43045.15
695.116	43018.04
695.462	42927.19
695.808	42861.88
696.155	42868.89
696.501	42564.94
696.847	42489.69
697.193	42238.85
697.539	42393.42
697.885	42168.79
698.231	42021.9
698.577	41975.58
698.923	41880.44
699.269	41753.89
699.614	41570.16
699.96	41456.95
700.306	41587.79
700.651	41397.74
700.997	41184.86
701.342	41167.69
701.688	41135.15
702.033	41028.48
702.379	40735.61
702.724	40774.03
703.069	40893.12
703.415	40419.01
703.76	40496.07
704.105	40428.5
704.45	40406.8
704.795	40104.21
705.14	40066.47
705.485	40059.02
705.83	39741.74
706.175	39942.18
706.52	39866.48
706.865	39639.59
707.209	39422.2
707.554	39450.67
707.899	39482.99
708.243	39254.74
708.588	39255.42
708.932	38910.35
709.277	39021.3
709.621	39015.43
709.966	38689.56
710.31	38802.1
710.654	38446.63
710.998	38606.63
711.342	38393.07
711.687	38427.42
712.031	38187.43
712.375	38154.43
712.719	38222.23
713.063	38158.28
713.407	38261.55
713.75	37975.91
714.094	37918.96
714.438	37862.01
714.782	37788.57
715.125	37619.31
715.469	37734.33
715.812	37509.25
716.156	37318.3
716.499	37255.02
716.843	37480.78
717.186	37023.62
717.53	37294.57
717.873	37104.97
718.216	37004.86
718.559	36862.04
718.902	36734.36
719.246	36794.24
719.589	36660.01
719.932	36448.26
720.275	36530.97
720.617	36478.32
720.96	36370.98
721.303	36265.67
721.646	36293.92
721.989	36064.09
722.331	36151.55
722.674	36006.24
723.016	35886.7
723.359	35878.34
723.701	35807.38
724.044	35521.51
724.386	35490.1
724.729	35625.24
725.071	35453.71
725.413	35521.51
725.755	35355.64
726.097	35305.24
726.439	35021.86
726.782	35062.99
727.124	35139.37
727.465	34849.66
727.807	34937.12
728.149	34873.16
728.491	34773.28
728.833	34795.43
729.175	34658.48
729.516	34580.29
729.858	34500.52
730.199	34548.43
730.541	34387.08
730.882	34319.73
731.224	34546.39
731.565	34007.2
731.906	34062.34
732.248	34227.31
732.589	34018.5
732.93	33916.13
733.271	33992.06
733.612	33994.77
733.953	34026.86
734.294	33846.53
734.635	33675.91
734.976	33771.73
735.317	33459.19
735.658	33588.23
735.999	33556.14
736.339	33471.85
736.68	33634.33
737.021	33560.66
737.361	33366.99
737.702	33500.77
738.042	33314.11
738.383	33246.54
738.723	33222.36
739.063	33084.51
739.404	33129.71
739.744	33105.53
740.084	33100.1
740.424	32823.28
740.764	32770.4
741.104	32746.44
741.444	32721.36
741.784	32435.26
742.124	32687.23
742.464	32551.19
742.804	32477.75
743.143	32418.54
743.483	32448.37
743.823	32272.56
744.162	32184.42
744.502	32296.06
744.841	32099
745.181	32163.86
745.52	32027.82
745.86	32158.89
746.199	32047.48
746.538	31894.26
746.877	32000.25
747.216	31855.17
747.556	31832.57
747.895	31803.87
748.234	31692.01
748.573	31629.18
748.911	31509.86
749.25	31486.81
749.589	31440.03
749.928	31353.03
750.267	31345.57
750.605	31203.88
750.944	31236.88
751.283	31087.95
751.621	31267.84
751.96	30993.49
752.298	31032.81
752.636	30955.75
752.975	30872.14
753.313	30737.45
753.651	30896.55
753.989	30669.21
754.327	30492.26
754.666	30364.13
755.004	30589.21
755.342	30479.38
755.679	30423.11
756.017	30075.55
756.355	30101.99
756.693	29993.75
757.031	30082.56
757.368	29812.96
757.706	29703.36
758.044	29532.97
758.381	29748.33
758.719	29491.16
759.056	29478.73
759.394	29368
759.731	29226.76
760.068	29106.31
760.405	29123.94
760.743	28986.09
761.08	29103.83
761.417	28860.67
761.754	28685.98
762.091	28696.6
762.428	28640.56
762.765	28423.84
763.102	28462.71
763.438	28344.3
763.775	28264.07
764.112	28209.39
764.449	28205.09
764.785	28121.93
765.122	27961.48
765.458	27781.83
765.795	27792.67
766.131	27726.91
766.467	27688.72
766.804	27458.44
767.14	27334.83
767.476	27273.36
767.812	27210.99
768.148	27176.42
768.485	27034.05
768.821	26818.46
769.157	26861.17
769.492	26737.33
769.828	26730.1
770.164	26482.43
770.5	26436.1
770.836	26468.64
771.171	26300.96
771.507	26119.72
771.842	25942.33
772.178	26044.7
772.513	25889.22
772.849	25903.23
773.184	25666.4
773.519	25718.6
773.855	25498.04
774.19	25466.18
774.525	25297.15
774.86	25357.93
775.195	25202.68
775.53	25100.99
775.865	24926.99
776.2	24784.16
776.535	24636.37
776.87	24640.89
777.205	24487.68
777.539	24438.64
777.874	24427.11
778.209	24158.19
778.543	24142.37
778.878	24073.9
779.212	23984.19
779.547	23857.41
779.881	23977.63
780.215	23761.82
780.55	23852.89
780.884	23515.95
781.218	23494.71
781.552	23596.17
781.886	23361.38
782.22	23251.32
782.554	23262.17
782.888	22907.38
783.222	22906.25
783.556	22819.24
783.889	22781.28
784.223	22499.71
784.557	22640.72
784.89	22641.85
785.224	22430.1
785.557	22357.34
785.891	22323.21
786.224	22208.41
786.558	22129.55
786.891	21981.07
787.224	21894.07
787.557	21855.2
787.891	21690.23
788.224	21685.94
788.557	21721.87
788.89	21579.05
789.223	21504.93
789.556	21317.14
789.888	21361.66
790.221	21085.28
790.554	20936.13
790.887	21059.74
791.219	20910.14
791.552	20898.62
791.884	20765.06
792.217	20740.43
792.549	20624.5
792.882	20486.65
793.214	20385.41
793.546	20417.27
793.879	20400.33
794.211	20055.93
794.543	20185.87
794.875	20146.77
795.207	20174.57
795.539	19937.74
795.871	19980
796.203	19842.15
796.535	19783.62
796.867	19726.22
797.198	19691.64
797.53	19590.63
797.862	19513.57
798.193	19411.88
798.525	19444.64
798.856	19418.2
799.188	19222.05
799.519	19177.98
799.85	19109.29
800.182	19067.03
800.513	18964.66
800.844	18900.93
801.175	19009.18
801.506	18900.25
801.837	18835.17
802.168	18751.1
802.499	18763.98
802.83	18530.54
803.161	18494.39
803.491	18497.32
803.822	18380.94
804.153	18350.44
804.483	18265.69
804.814	18150.89
805.145	18144.79
805.475	18225.02
805.805	18107.05
806.136	18011.24
806.466	18064.57
806.796	17956.1
807.126	17884.01
807.457	17826.38
807.787	17777.57
808.117	17690.34
808.447	17702.09
808.777	17764.69
809.107	17601.08
809.436	17565.6
809.766	17464.13
810.096	17405.15
810.426	17435.43
810.755	17264.14
811.085	17277.24
811.414	17242.67
811.744	17149.56
812.073	17078.38
812.403	17010.58
812.732	16987.08
813.061	17025.5
813.39	16906.41
813.719	16894.88
814.049	16998.83
814.378	16962.45
814.707	16818.5
815.036	16760.65
815.365	16710.25
815.693	16570.82
816.022	16462.58
816.351	16509.58
816.68	16363.82
817.008	16439.3
817.337	16238.85
817.665	16299.64
817.994	16369.47
818.322	16272.98
818.651	16231.62
818.979	16166.09
819.307	16246.76
819.636	16159.31
819.964	16039.54
820.292	16085.86
820.62	16106.88
820.948	15990.05
821.276	16083.15
821.604	15927.67
821.932	15993.21
822.259	15927.22
822.587	15999.99
822.915	16001.34
823.243	16081.12
823.57	15959.31
823.898	15921.35
824.225	15956.37
824.553	15913.66
824.88	16001.34
825.207	15991.18
825.535	15999.76
825.862	16018.29
826.189	15823.72
826.516	16030.72
826.843	16048.35
827.17	16032.53
827.497	16015.36
827.824	16009.93
828.151	16021.46
828.478	15961.57
828.805	16018.75
829.131	16001.34
829.458	15905.98
829.785	15845.42
830.111	15872.53
830.438	16013.77
830.764	15897.84
831.09	15968.35
831.417	15792.99
831.743	15905.53
832.069	15811.07
832.395	15734.69
832.722	15790.95
833.048	15771.07
833.374	15885.87
833.7	15722.26
834.026	15820.78
834.351	15772.2
834.677	15716.15
835.003	15821.01
835.329	15731.3
835.654	15703.5
835.98	15534.69
836.306	15662.6
836.631	15561.58
836.956	15587.12
837.282	15581.02
837.607	15458.76
837.932	15489.27
838.258	15520.91
838.583	15480.45
838.908	15377.18
839.233	15357.29
839.558	15417.41
839.883	15263.51
840.208	15281.59
840.533	15239.1
840.858	15283.17
841.182	15320.23
841.507	15211.99
841.832	15137.86
842.156	15193
842.481	15038.43
842.805	15020.13
843.13	14968.83
843.454	14995.27
843.778	14828.95
844.103	14930.64
844.427	14854.93
844.751	14963.41
845.075	14799.79
845.399	14786.91
845.723	14739.91
846.047	14743.07
846.371	14626.47
846.695	14569.29
847.019	14492.46
847.343	14427.83
847.666	14437.32
847.99	14344.67
848.313	14383.53
848.637	14287.04
848.96	14288.17
849.284	14150.77
849.607	14125.24
849.931	14134.05
850.254	13914.17
850.577	13907.16
850.9	13826.03
851.223	13784.68
851.546	13768.86
851.869	13727.28
852.192	13744.45
852.515	13646.38
852.838	13589.88
853.161	13524.35
853.483	13509.21
853.806	13488.64
854.129	13395.54
854.451	13367.06
854.774	13355.99
855.096	13231.25
855.419	13257.91
855.741	13232.83
856.063	13113.74
856.385	13144.02
856.708	13133.17
857.03	13071.7
857.352	13023.57
857.674	12985.6
857.996	12894.31
858.318	12847.76
858.64	12914.87
858.961	12867.64
859.283	12846.63
859.605	12786.06
859.926	12783.8
860.248	12682.56
860.57	12682.34
860.891	12615.67
861.212	12611.15
861.534	12579.74
861.855	12483.47
862.176	12431.04
862.498	12488.44
862.819	12431.04
863.14	12476.92
863.461	12363.02
863.782	12433.3
864.103	12452.96
864.424	12366.86
864.745	12375.9
865.065	12313.53
865.386	12247.77
865.707	12252.52
866.027	12193.08
866.348	12214.1
866.668	12221.56
866.989	12139.53
867.309	12126.64
867.63	12125.51
867.95	12078.74
868.27	11980.21
868.59	12086.42
868.91	11987.21
869.23	11933.88
869.55	11879.42
869.87	12007.78
870.19	11979.08
870.51	11986.31
870.83	12065.18
871.15	11907.89
871.469	11917.16
871.789	11908.35
872.109	11841.68
872.428	11816.37
872.748	11878.06
873.067	11854.34
873.386	11850.72
873.706	11869.25
874.025	11802.81
874.344	11753.55
874.663	11718.29
874.982	11814.56
875.301	11736.6
875.62	11807.78
875.939	11749.03
876.258	11735.47
876.577	11671.97
876.896	11668.13
877.214	11624.06
877.533	11721.46
877.852	11683.27
878.17	11718.75
878.489	11661.12
878.807	11685.98
879.125	11618.86
879.444	11597.84
879.762	11582.48
880.08	11672.42
880.398	11510.16
880.716	11496.83
881.034	11504.29
881.352	11517.85
881.67	11501.58
881.988	11471.75
882.306	11405.99
882.624	11384.07
882.941	11340.68
883.259	11287.57
883.577	11330.96
883.894	11274.69
884.212	11340.45
884.529	11257.74
884.846	11268.14
885.164	11171.87
885.481	11180
885.798	11189.72
886.115	11096.62
886.432	11185.2
886.75	11138.65
887.067	11091.87
887.383	11107.91
887.7	11091.87
888.017	11116.95
888.334	11042.83
888.651	10974.36
888.967	11027.46
889.284	10932.33
889.6	10841.71
889.917	10793.35
890.233	10852.1
890.55	10713.12
890.866	10779.34
891.182	10806.45
891.498	10714.25
891.815	10689.17
892.131	10658.66
892.447	10703.86
892.763	10687.36
893.079	10615.05
893.395	10612.33
893.71	10503.18
894.026	10534.6
894.342	10483.3
894.657	10454.6
894.973	10376.86
895.289	10468.83
895.604	10388.39
895.92	10297.09
896.235	10215.06
896.55	10318.56
896.865	10288.95
897.181	10212.8
897.496	10207.82
897.811	10125.79
898.126	10079.69
898.441	10047.83
898.756	10081.27
899.071	9952.24
899.386	10036.3
899.7	9949.98
900.015	9963.76
900.33	9810.1
900.644	9874.73
900.959	9883.54
901.273	9784.33
901.588	9854.39
901.902	9700.49
902.216	9702.75
902.531	9705.69
902.845	9701.17
903.159	9570.55
903.473	9605.81
903.787	9554.96
904.101	9498.46
904.415	9521.06
904.729	9474.96
905.042	9417.34
905.356	9459.14
905.67	9416.43
905.984	9429.31
906.297	9344.57
906.611	9243.78
906.924	9337.79
907.237	9212.14
907.551	9170.56
907.864	9114.07
908.177	9129.21
908.491	9126.05
908.804	9022.09
909.117	9015.54
909.43	8986.84
909.743	8997.91
910.056	8991.13
910.368	8891.93
910.681	8875.43
910.994	8794.53
911.307	8743
911.619	8726.96
911.932	8755.66
912.244	8703.91
912.557	8664.81
912.869	8648.54
913.181	8603.35
913.494	8638.83
913.806	8580.75
914.118	8524.93
914.43	8515.89
914.742	8447.19
915.054	8399.51
915.366	8452.84
915.678	8369.23
915.99	8362.9
916.302	8315.22
916.613	8271.6
916.925	8262.34
917.236	8232.51
917.548	8152.51
917.859	8129.46
918.171	8072.29
918.482	8104.83
918.794	8048.11
919.105	8044.27
919.416	7981.44
919.727	7973.99
920.038	7916.81
920.349	7847.21
920.66	7912.52
920.971	7807.89
921.282	7795.01
921.593	7772.18
921.903	7750.04
922.214	7739.64
922.525	7719.75
922.835	7680.66
923.146	7619.87
923.456	7568.12
923.767	7507.78
924.077	7523.38
924.387	7484.73
924.697	7432.53
925.008	7386.2
925.318	7403.38
925.628	7365.64
925.938	7348.46
926.248	7244.96
926.558	7349.82
926.867	7255.81
927.177	7218.3
927.487	7218.75
927.796	7140.11
928.106	7129.94
928.416	7107.34
928.725	7078.19
929.034	7058.08
929.344	6992.77
929.653	7007.01
929.962	6948.93
930.271	6915.26
930.581	6847.46
930.89	6851.98
931.199	6835.26
931.508	6855.6
931.817	6828.48
932.125	6744.64
932.434	6696.28
932.743	6714.13
933.051	6686.56
933.36	6637.98
933.669	6610.41
933.977	6586
934.286	6566.56
934.594	6532.67
934.902	6572.21
935.21	6497.64
935.519	6492.89
935.827	6448.6
936.135	6447.92
936.443	6377.87
936.751	6375.16
937.059	6400.92
937.367	6303.52
937.674	6295.61
937.982	6327.02
938.29	6244.77
938.597	6231.21
938.905	6164.54
939.213	6119.8
939.52	6101.94
939.827	6172.68
940.135	6116.41
940.442	6075.96
940.749	6094.49
941.056	6062.62
941.363	6007.94
941.67	5947.15
941.977	5958.45
942.284	5884.55
942.591	5892.46
942.898	5842.97
943.205	5866.7
943.511	5802.97
943.818	5806.81
944.125	5779.01
944.431	5787.38
944.738	5774.04
945.044	5698.34
945.35	5715.29
945.657	5633.03
945.963	5645.23
946.269	5581.73
946.575	5548.29
946.881	5576.99
947.187	5605.91
947.493	5492.69
947.799	5532.92
948.105	5489.3
948.41	5442.98
948.716	5450.89
949.022	5413.15
949.327	5401.85
949.633	5321.63
949.938	5354.17
950.244	5367.05
950.549	5324.56
950.854	5283.89
951.16	5242.53
951.465	5243.44
951.77	5234.85
952.075	5233.94
952.38	5204.79
952.685	5141.74
952.99	5098.35
953.294	5096.55
953.599	5070.56
953.904	5112.82
954.209	5077.34
954.513	5049.09
954.818	4984.23
955.122	4991.01
955.426	4995.76
955.731	4928.42
956.035	4923.67
956.339	4920.51
956.643	4901.75
956.948	4881.19
957.252	4841.19
957.556	4826.27
957.86	4795.09
958.163	4831.69
958.467	4806.38
958.771	4793.05
959.075	4765.26
959.378	4705.82
959.682	4702.21
959.985	4660.4
960.289	4604.81
960.592	4604.58
960.896	4607.07
961.199	4589.44
961.502	4577.69
961.805	4520.97
962.108	4510.57
962.411	4484.13
962.714	4462.67
963.017	4495.88
963.32	4438.71
963.623	4374.53
963.926	4437.58
964.228	4422.89
964.531	4388.77
964.833	4382.67
965.136	4296.79
965.438	4306.96
965.741	4362.33
966.043	4258.6
966.345	4250.69
966.648	4244.37
966.95	4230.13
967.252	4218.6
967.554	4210.92
967.856	4189.23
968.158	4151.03
968.46	4130.24
968.761	4129.79
969.063	4137.25
969.365	4087.08
969.666	4099.06
969.968	4057.48
970.269	4105.61
970.571	4050.92
970.872	4014.77
971.174	4003.69
971.475	4025.39
971.776	3982.23
972.077	3987.2
972.378	3897.26
972.679	3942.23
972.98	3899.74
973.281	3892.28
973.582	3841.21
973.883	3841.66
974.183	3798.28
974.484	3800.31
974.785	3822
975.085	3779.52
975.386	3789.01
975.686	3793.53
975.986	3717.15
976.287	3715.11
976.587	3686.87
976.887	3686.19
977.187	3665.17
977.487	3666.08
977.787	3626.3
978.087	3600.99
978.387	3592.63
978.687	3629.01
978.987	3574.33
979.286	3570.71
979.586	3535.46
979.885	3543.82
980.185	3512.86
980.484	3505.63
980.784	3441.22
981.083	3462.24
981.382	3510.6
981.682	3429.7
981.981	3465.63
982.28	3409.59
982.579	3396.03
982.878	3382.24
983.177	3374.33
983.475	3318.06
983.774	3308.12
984.073	3325.52
984.372	3290.04
984.67	3322.36
984.969	3274.67
985.267	3288.46
985.566	3246.43
985.864	3277.84
986.162	3214.34
986.461	3169.82
986.759	3200.78
987.057	3185.41
987.355	3162.36
987.653	3143.83
987.951	3167.78
988.249	3161.23
988.547	3157.61
988.844	3139.54
989.142	3102.93
989.44	3103.83
989.737	3076.94
990.035	3059.54
990.332	3030.84
990.63	3001.46
990.927	3000.56
991.224	3017.05
991.521	2975.92
991.819	2984.06
992.116	2937.73
992.413	2941.35
992.71	2952.65
993.006	2908.58
993.303	2904.51
993.6	2888.47
993.897	2861.58
994.193	2826.55
994.49	2850.5
994.787	2800.56
995.083	2814.12
995.379	2839.88
995.676	2777.74
995.972	2776.38
996.268	2750.39
996.565	2771.41
996.861	2745.42
997.157	2689.6
997.453	2711.07
997.749	2671.3
998.044	2669.94
998.34	2655.48
998.636	2666.33
998.932	2658.64
999.227	2637.4
999.523	2614.8
999.818	2564.18
1000.114	2551.3
1000.409	2588.36
1000.704	2579.1
1001	2553.11
1001.295	2502.49
1001.59	2500.91
1001.885	2560.57
1002.18	2500.46
1002.475	2469.72
1002.77	2486.67
1003.065	2446.9
1003.359	2456.16
1003.654	2444.87
1003.949	2358.54
1004.243	2428.37
1004.538	2387.01
1004.832	2364.64
1005.127	2353.34
1005.421	2337.07
1005.715	2298.65
1006.009	2327.58
1006.304	2302.72
1006.598	2301.59
1006.892	2268.15
1007.186	2263.4
1007.48	2258.43
1007.773	2263.85
1008.067	2220.46
1008.361	2231.54
1008.655	2184.53
1008.948	2198.77
1009.242	2190.86
1009.535	2165.55
1009.829	2147.7
1010.122	2178.21
1010.415	2163.29
1010.708	2119.9
1011.001	2085.33
1011.295	2118.09
1011.588	2107.02
1011.881	2065.21
1012.173	2067.25
1012.466	2048.27
1012.759	2033.8
1013.052	2044.42
1013.344	2042.62
1013.637	2017.53
1013.93	1977.08
1014.222	1972.56
1014.514	1973.69
1014.807	1968.04
1015.099	1942.73
1015.391	1954.26
1015.683	1933.47
1015.976	1880.13
1016.268	1890.98
1016.56	1880.59
1016.851	1891.89
1017.143	1850.98
1017.435	1826.58
1017.727	1850.76
1018.018	1850.53
1018.31	1837.88
1018.602	1827.03
1018.893	1804.2
1019.185	1798.1
1019.476	1766.46
1019.767	1766.92
1020.058	1755.84
1020.35	1733.25
1020.641	1740.93
1020.932	1700.7
1021.223	1700.25
1021.514	1704.32
1021.804	1674.04
1022.095	1673.36
1022.386	1654.38
1022.677	1641.95
1022.967	1621.61
1023.258	1615.73
1023.548	1637.65
1023.839	1581.16
1024.129	1577.32
1024.419	1605.79
1024.709	1548.84
1025	1580.71
1025.29	1559.01
1025.58	1540.71
1025.87	1533.93
1026.16	1514.72
1026.449	1514.72
1026.739	1529.18
1027.029	1515.17
1027.319	1481.95
1027.608	1432.24
1027.898	1476.98
1028.187	1440.37
1028.477	1459.58
1028.766	1427.04
1029.055	1421.39
1029.344	1425.68
1029.634	1399.47
1029.923	1383.65
1030.212	1393.59
1030.501	1369.41
1030.79	1377.32
1031.078	1390.88
1031.367	1326.7
1031.656	1323.99
1031.945	1347.72
1032.233	1336.19
1032.522	1320.6
1032.81	1300.94
1033.099	1283.77
1033.387	1291.68
1033.675	1268.4
1033.963	1267.95
1034.251	1259.36
1034.54	1256.42
1034.828	1239.02
1035.116	1206.93
1035.403	1218.46
1035.691	1200.83
1035.979	1218.91
1036.267	1194.73
1036.554	1194.95
1036.842	1217.33
1037.129	1177.78
1037.417	1172.81
1037.704	1160.38
1037.992	1182.3
1038.279	1131.45
1038.566	1141.62
1038.853	1141.62
1039.14	1141.62
