Data from aluminium_macbook_case_FLMS001491_080.txt Node
Date: Tue Feb 07 10:44:12 GMT 2017
User: dcchb
Spectrometer: FLMS00149
Trigger mode: 0
Integration Time (sec): 2.000000E-2
Scans to average: 10
Electric dark correction enabled: true
Nonlinearity correction enabled: false
Boxcar width: 0
XAxis mode: Wavelengths
Number of Pixels in Spectrum: 2048
>>>>>Begin Spectral Data<<<<<
341.393	-22.19
341.776	-22.19
342.16	-22.19
342.543	-63.32
342.927	-50.89
343.31	-64.22
343.693	-76.2
344.077	-60.61
344.46	-68.74
344.843	-35.97
345.226	-44.33
345.61	-43.43
345.993	-29.65
346.376	-4.56
346.759	11.48
347.142	36.57
347.525	55.32
347.908	52.16
348.291	78.6
348.674	84.93
349.057	108.66
349.44	117.24
349.823	144.13
350.206	194.3
350.588	254.41
350.971	265.49
351.354	279.05
351.737	290.35
352.119	308.2
352.502	310.46
352.884	325.15
353.267	318.37
353.65	346.84
354.032	367.63
354.414	373.96
354.797	367.63
355.179	381.87
355.562	378.25
355.944	409.89
356.326	404.24
356.709	406.05
357.091	413.05
357.473	409.66
357.855	432.49
358.238	444.01
358.62	446.05
359.002	410.79
359.384	430.68
359.766	448.76
360.148	447.4
360.53	423.45
360.912	437.91
361.294	446.73
361.676	443.79
362.057	428.42
362.439	436.33
362.821	432.26
363.203	435.43
363.584	423.45
363.966	429.78
364.348	424.35
364.729	442.88
365.111	439.27
365.493	437.69
365.874	420.51
366.256	426.16
366.637	427.52
367.019	450.12
367.4	432.71
367.781	455.09
368.163	439.49
368.544	457.12
368.925	442.21
369.306	470.68
369.688	458.7
370.069	444.92
370.45	463
370.831	494.18
371.212	479.04
371.593	455.99
371.974	466.39
372.355	479.49
372.736	470.91
373.117	513.62
373.498	453.96
373.879	476.33
374.26	485.37
374.641	463
375.021	463.22
375.402	485.82
375.783	508.42
376.163	541.64
376.544	540.06
376.925	514.07
377.305	545.93
377.686	541.64
378.066	532.82
378.447	527.63
378.827	546.61
379.208	568.08
379.588	546.84
379.968	546.84
380.349	556.78
380.729	564.24
381.109	594.52
381.489	577.57
381.87	587.06
382.25	594.07
382.63	598.81
383.01	614.4
383.39	620.73
383.77	618.92
384.15	612.82
384.53	625.93
384.91	641.07
385.29	624.12
385.67	662.99
386.049	686.95
386.429	661.18
386.809	698.24
387.189	679.49
387.568	655.99
387.948	698.24
388.328	712.26
388.707	697.11
389.087	725.36
389.466	746.6
389.846	748.64
390.225	756.55
390.605	756.77
390.984	780.73
391.363	782.31
391.743	782.99
392.122	809.88
392.501	804
392.881	816.21
393.26	845.81
393.639	840.84
394.018	843.1
394.397	848.3
394.776	896.43
395.155	898.69
395.534	884
395.913	898.01
396.292	888.3
396.671	918.8
397.05	949.76
397.429	912.7
397.808	925.36
398.186	938.01
398.565	942.08
398.944	959.03
399.323	972.36
399.701	977.33
400.08	985.92
400.458	1023.66
400.837	1028.41
401.215	1050.78
401.594	1061.17
401.972	1086.93
402.351	1079.25
402.729	1074.73
403.107	1105.69
403.486	1090.32
403.864	1122.87
404.242	1163.77
404.62	1157.22
404.999	1157.22
405.377	1196.76
405.755	1200.6
406.133	1214.39
406.511	1216.87
406.889	1243.54
407.267	1249.64
407.645	1291.9
408.023	1294.61
408.401	1318.34
408.779	1344.1
409.156	1370.09
409.534	1385.23
409.912	1418
410.29	1427.26
410.667	1447.83
411.045	1505.68
411.422	1463.42
411.8	1495.96
412.178	1538
412.555	1544.78
412.933	1584.32
413.31	1589.29
413.687	1629.07
414.065	1638.56
414.442	1655.96
414.819	1663.64
415.197	1661.16
415.574	1728.5
415.951	1765.56
416.328	1752
416.705	1753.81
417.082	1812.34
417.46	1796.75
417.837	1875.39
418.214	1858.89
418.591	1900.02
418.967	1876.97
419.344	1865.45
419.721	1963.07
420.098	1937.99
420.475	1957.87
420.852	1998.78
421.228	1981.83
421.605	2028.38
421.982	2073.58
422.358	2076.06
422.735	2116.06
423.111	2139.11
423.488	2149.28
423.864	2170.75
424.241	2222.72
424.617	2238.77
424.994	2229.28
425.37	2269.28
425.746	2282.61
426.123	2323.29
426.499	2349.05
426.875	2399.89
427.251	2444.19
427.627	2486.22
428.003	2485.77
428.379	2530.74
428.756	2554.47
429.132	2604.86
429.507	2617.97
429.883	2699.32
430.259	2725.31
430.635	2764.18
431.011	2770.73
431.387	2845.76
431.763	2881.92
432.138	2917.17
432.514	2970.5
432.89	2959.65
433.265	3095.02
433.641	3056.83
434.016	3152.19
434.392	3181.57
434.767	3234.22
435.143	3250.49
435.518	3259.53
435.894	3292.98
436.269	3369.59
436.644	3401.9
437.02	3469.02
437.395	3512.18
437.77	3512.86
438.145	3591.73
438.52	3630.6
438.895	3667.66
439.271	3664.27
439.646	3764.38
440.021	3793.76
440.395	3819.74
440.77	3815.68
441.145	3859.07
441.52	3910.82
441.895	3934.09
442.27	3940.42
442.645	3978.61
443.019	4076.23
443.394	4039.63
443.769	4085.73
444.143	4078.27
444.518	4190.58
444.892	4162.79
445.267	4210.47
445.641	4215.44
446.016	4271.48
446.39	4332.5
446.764	4369.33
447.139	4386.28
447.513	4379.05
447.887	4421.31
448.262	4482.78
448.636	4535.21
449.01	4575.2
449.384	4614.53
449.758	4691.36
450.132	4708.76
450.506	4755.31
450.88	4781.98
451.254	4802.54
451.628	4934.07
452.002	4952.37
452.376	4981.07
452.75	5054.06
453.123	5079.6
453.497	5146.94
453.871	5216.77
454.244	5320.04
454.618	5295.86
454.992	5414.5
455.365	5406.6
455.739	5615.86
456.112	5577.89
456.486	5688.85
456.859	5722.75
457.232	5822.63
457.606	5873.7
457.979	5899.92
458.352	6075.28
458.725	6178.78
459.099	6191.43
459.472	6355.04
459.845	6352.33
460.218	6429.39
460.591	6502.16
460.964	6581.48
461.337	6729.72
461.71	6785.99
462.083	6900.79
462.456	6904.86
462.829	6934.92
463.201	7063.73
463.574	7063.73
463.947	7231.63
464.32	7377.84
464.692	7461
465.065	7549.59
465.438	7663.94
465.81	7738.74
466.183	7898.28
466.555	8001.78
466.928	8120.2
467.3	8117.03
467.672	8248.55
468.045	8483.12
468.417	8443.58
468.789	8543.01
469.161	8673.4
469.534	8910.01
469.906	9084.24
470.278	9107.97
470.65	9223.22
471.022	9386.83
471.394	9586.15
471.766	9666.14
472.138	9797.21
472.51	9992.24
472.882	10073.14
473.253	10251.89
473.625	10373.7
473.997	10641.03
474.369	10633.35
474.74	10843.06
475.112	10976.17
475.484	11254.12
475.855	11372.99
476.227	11528.47
476.598	11902.92
476.97	11943.15
477.341	12336.13
477.713	12496.58
478.084	12552.85
478.455	12883.23
478.827	13042.1
479.198	13457.68
479.569	13433.5
479.94	13869.2
480.311	14011.57
480.682	14337.21
481.053	14569.52
481.424	14801.15
481.795	14956.17
482.166	15260.57
482.537	15451.98
482.908	15691.75
483.279	15854.91
483.65	16168.12
484.021	16465.97
484.391	16699.86
484.762	16781.89
485.133	16928.33
485.503	17315.89
485.874	17771.24
486.244	17910.22
486.615	18219.59
486.985	18479.25
487.356	18737.32
487.726	18969.4
488.097	19417.98
488.467	19429.5
488.837	19852.54
489.207	20185.19
489.578	20409.14
489.948	20638.51
490.318	20942.46
490.688	20980.87
491.058	21337.25
491.428	21665.15
491.798	21811.81
492.168	22356.21
492.538	22298.58
492.908	22509.42
493.278	22877.32
493.648	22864.22
494.017	23250.65
494.387	23490.87
494.757	23707.81
495.126	23887.24
495.496	23962.04
495.866	24197.51
496.235	24479.54
496.605	24656.48
496.974	24760.66
497.344	25108.45
497.713	25263.47
498.082	25548.44
498.452	25777.36
498.821	25985.94
499.19	26085.83
499.559	26373.73
499.928	26510.9
500.298	26784.79
500.667	26914.05
501.036	27021.17
501.405	27290.31
501.774	27267.94
502.143	27720.58
502.512	27777.76
502.88	27970.3
503.249	28123.06
503.618	28293
503.987	28320.12
504.356	28642.37
504.724	28683.05
505.093	28927.33
505.462	29084.39
505.83	29314.67
506.199	29350.37
506.567	29819.96
506.936	29951.71
507.304	30213.63
507.672	30354.87
508.041	30593.5
508.409	30885.47
508.777	31120.04
509.145	31310.09
509.514	31383.09
509.882	31760.7
510.25	31982.85
510.618	32228.71
510.986	32339.67
511.354	32633.68
511.722	32980.56
512.09	33301.45
512.458	33227.78
512.826	33689.24
513.193	33685.85
513.561	33760.2
513.929	34251.71
514.297	34528.09
514.664	34653.06
515.032	34864.58
515.4	35126.49
515.767	35206.72
516.135	35528.74
516.502	35283.1
516.869	36095.96
517.237	36120.59
517.604	36040.82
517.972	36546.79
518.339	36917.86
518.706	36912.21
519.073	37121.47
519.44	37388.58
519.808	37885.97
520.175	37763.71
520.542	38436.01
520.909	38624.7
521.276	38715.78
521.643	38965.49
522.009	39516.66
522.376	39878.23
522.743	40014.72
523.11	40353.92
523.477	40888.15
523.843	41034.58
524.21	41372.43
524.577	41725.87
524.943	41997.5
525.31	42195.91
525.676	42620.76
526.043	42851.71
526.409	42959.05
526.776	43356.78
527.142	43403.11
527.508	43709.54
527.874	44076.09
528.241	44299.58
528.607	44296.65
528.973	44834.48
529.339	44707.93
529.705	45214.59
530.071	45386.79
530.437	45780.67
530.803	45947.22
531.169	46259.08
531.535	46283.03
531.901	46409.58
532.267	46489.58
532.632	46912.17
532.998	47073.97
533.364	47297.92
533.73	47579.05
534.095	47699.27
534.461	47866.27
534.826	48039.37
535.192	48409.76
535.557	48706.02
535.923	48594.39
536.288	48855.17
536.653	48982.85
537.019	48840.03
537.384	49297.19
537.749	49498.09
538.114	49461.93
538.479	49514.14
538.845	49829.83
539.21	49694.7
539.575	49968.81
539.94	50039.55
540.305	50241.57
540.67	50241.57
541.034	50325.64
541.399	50442.47
541.764	50571.74
542.129	50698.29
542.494	50761.11
542.858	50929.69
543.223	51014.89
543.587	51177.14
543.952	51160.87
544.316	51366.74
544.681	51342.34
545.045	51580.52
545.41	51747.52
545.774	51856.9
546.138	51950.91
546.503	52116.78
546.867	52112.71
547.231	52438.58
547.595	52405.59
547.959	52592.7
548.324	52634.28
548.688	52708.18
549.052	52940.71
549.416	52976.64
549.779	53016.42
550.143	53159.69
550.507	53307.26
550.871	53505.22
551.235	53453.02
551.599	53694.37
551.962	53788.37
552.326	53846.23
552.689	53938.43
553.053	53889.61
553.417	53984.53
553.78	54331.18
554.143	54226.78
554.507	54394.23
554.87	54461.58
555.234	54742.25
555.597	54601.23
555.96	54729.14
556.323	54914.45
556.686	54929.59
557.05	55167.55
557.413	55165.06
557.776	55335.68
558.139	55485.05
558.502	55573.19
558.865	55644.6
559.228	55876.68
559.59	55876.45
559.953	55985.38
560.316	56245.03
560.679	56272.15
561.041	56422.2
561.404	56572.71
561.767	56781.97
562.129	56703.33
562.492	57079.13
562.854	57066.93
563.217	57140.6
563.579	57202.3
563.941	57317.55
564.304	57468.5
564.666	57587.14
565.028	57602.74
565.39	57715.05
565.753	57860.58
566.115	57977.19
566.477	57987.36
566.839	58075.72
567.201	58247.92
567.563	58287.92
567.925	58454.24
568.287	58536.95
568.648	58514.58
569.01	58632.09
569.372	58830.28
569.734	58732.65
570.095	58937.84
570.457	59006.77
570.819	59052.87
571.18	59056.03
571.542	59244.95
571.903	59200.21
572.265	59321.79
572.626	59413.08
572.987	59468.9
573.349	59502.57
573.71	59631.16
574.071	59695.11
574.432	59784.15
574.794	59915.9
575.155	59923.13
575.516	59834.99
575.877	59946.4
576.238	60070.69
576.599	60105.5
576.96	60155.21
577.32	60181.65
577.681	60224.36
578.042	60379.39
578.403	60373.96
578.763	60396.11
579.124	60385.26
579.485	60494.86
579.845	60545.94
580.206	60489.44
580.566	60533.73
580.927	60547.52
581.287	60642.2
581.648	60571.47
582.008	60709.32
582.368	60607.4
582.728	60650.34
583.089	60594.97
583.449	60570.12
583.809	60629.78
584.169	60651.47
584.529	60580.51
584.889	60794.07
585.249	60610.79
585.609	60575.77
585.969	60744.8
586.329	60628.87
586.688	60714.07
587.048	60701.86
587.408	60670.45
587.768	60704.8
588.127	60624.8
588.487	60674.75
588.846	60864.8
589.206	60689.66
589.565	60710.68
589.925	60763.78
590.284	60799.49
590.643	60814.18
591.003	60929.2
591.362	60924.91
591.721	60888.75
592.08	60864.12
592.44	60950.45
592.799	60894.63
593.158	60863.22
593.517	60910.9
593.876	60930.56
594.235	60914.29
594.593	60933.72
594.952	61029.54
595.311	60903.89
595.67	60929.88
596.029	61083.55
596.387	61006.26
596.746	61076.09
597.104	60948.41
597.463	60955.64
597.822	61045.13
598.18	60910.67
598.538	60979.82
598.897	61087.39
599.255	60814.63
599.613	61247.39
599.972	61065.24
600.33	61127.84
600.688	61020.05
601.046	61135.75
601.404	61158.58
601.762	61112.48
602.12	61200.83
602.478	61193.83
602.836	61213.94
603.194	61105.92
603.552	61163.55
603.91	61100.27
604.268	61181.17
604.625	61145.92
604.983	61281.28
605.341	61145.69
605.698	61382.3
606.056	61411.22
606.413	61375.52
606.771	61420.26
607.128	61508.4
607.485	61390.66
607.843	61503.2
608.2	61586.36
608.557	61618.9
608.914	61582.75
609.272	61712.46
609.629	61671.1
609.986	61804.21
610.343	61696.64
610.7	61825.68
611.057	61820.03
611.414	61791.1
611.771	61756.07
612.127	61899.8
612.484	61876.97
612.841	61865.9
613.198	61808.95
613.554	61821.83
613.911	61929.63
614.267	61964.43
614.624	61859.8
614.98	61890.99
615.337	62029.51
615.693	61984.32
616.05	61891.66
616.406	62103.86
616.762	61940.7
617.118	61986.35
617.475	62014.6
617.831	62032.9
618.187	62021.15
618.543	62075.39
618.899	62158.55
619.255	62100.25
619.611	62105.22
619.967	62138.44
620.323	62177.08
620.678	62110.64
621.034	62080.36
621.39	62130.08
621.746	62065.44
622.101	62351.99
622.457	62113.35
622.812	62161.49
623.168	62215.95
623.523	62197.64
623.879	62272.67
624.234	62155.61
624.589	62270.41
624.945	62223.41
625.3	62336.4
625.655	62308.15
626.01	62312.22
626.365	62329.17
626.72	62245.78
627.075	62273.8
627.43	62239
627.785	62199
628.14	62216.85
628.495	62277.42
628.85	62258.66
629.205	62116.52
629.559	62257.08
629.914	62093.47
630.269	62107.93
630.623	62010.08
630.978	61975.05
631.332	62096.4
631.687	62126.46
632.041	61963.53
632.396	61999.46
632.75	61894.6
633.104	61894.6
633.459	61761.05
633.813	61732.12
634.167	61793.36
634.521	61776.19
634.875	61690.31
635.229	61709.97
635.583	61607.38
635.937	61616.64
636.291	61540.71
636.645	61569.64
636.999	61461.17
637.352	61536.64
637.706	61404.44
638.06	61486.93
638.413	61366.48
638.767	61332.81
639.121	61352.92
639.474	61251.23
639.828	61264.79
640.181	61275.18
640.534	61296.2
640.888	61222.3
641.241	61051.01
641.594	61123.32
641.947	61197.22
642.301	61108.41
642.654	61143.66
643.007	61084.45
643.36	61140.5
643.713	61081.97
644.066	61135.07
644.419	60999.94
644.771	60897.11
645.124	60677.91
645.477	60625.71
645.83	60484.02
646.182	60384.81
646.535	60306.17
646.888	60323.8
647.24	60186.17
647.593	60284.02
647.945	60185.27
648.298	60032.73
648.65	59987.31
649.002	60007.19
649.355	60039.06
649.707	59970.81
650.059	60060.53
650.411	60328.54
650.763	60293.51
651.115	60557.24
651.467	60440.4
651.819	60406.28
652.171	60309.11
652.523	60311.37
652.875	60280.41
653.227	60210.58
653.578	60253.97
653.93	60208.54
654.282	60032.5
654.633	60020.07
654.985	60107.76
655.337	60059.62
655.688	60026.4
656.039	60066.63
656.391	59872.73
656.742	59921.32
657.094	59898.27
657.445	59942.34
657.796	59909.12
658.147	59846.52
658.498	59890.13
658.849	59894.2
659.2	59901.66
659.551	59888.55
659.902	59909.12
660.253	59870.93
660.604	59887.65
660.955	59744.15
661.306	59925.39
661.656	59825.96
662.007	59778.5
662.358	59840.64
662.708	59801.1
663.059	59837.71
663.409	59674.55
663.76	59866.63
664.11	59793.64
664.461	59782.34
664.811	59749.35
665.161	59764.49
665.511	59712.96
665.862	59726.75
666.212	59784.6
666.562	59782.57
666.912	59723.81
667.262	59609.24
667.612	59641.1
667.962	59613.08
668.312	59547.09
668.662	59711.16
669.011	59613.76
669.361	59496.25
669.711	59508.68
670.06	59495.34
670.41	59413.31
670.76	59325.63
671.109	59347.1
671.459	59324.27
671.808	59308.68
672.157	59295.12
672.507	59103.94
672.856	59142.36
673.205	59190.27
673.554	59212.19
673.904	59122.47
674.253	59256.48
674.602	59101.68
674.951	58798.64
675.3	58658.53
675.649	59032.76
675.998	58939.42
676.346	58997.5
676.695	59096.71
677.044	58839.09
677.393	58856.94
677.741	59018.29
678.09	58908.24
678.438	58822.14
678.787	58927.9
679.135	58859.2
679.484	58743.72
679.832	58766.1
680.181	58642.03
680.529	58796.83
680.877	58669.38
681.225	58663.27
681.573	58776.04
681.922	58579.21
682.27	58563.84
682.618	58572.88
682.966	58447.01
683.314	58521.36
683.661	58468.48
684.009	58367.01
684.357	58338.31
684.705	58251.31
685.053	58212.89
685.4	58226.22
685.748	58180.35
686.095	58141.93
686.443	58018.55
686.79	58043.18
687.138	57979.45
687.485	57990.52
687.832	57881.83
688.18	57885.89
688.527	57746.01
688.874	57713.47
689.221	57637.54
689.568	57565
689.915	57510.99
690.262	57472.8
690.609	57392.35
690.956	57329.3
691.303	57318.9
691.65	57033.71
691.997	57026.03
692.344	56832.81
692.69	56831.68
693.037	56767.05
693.383	56657.68
693.73	56706.49
694.077	56445.03
694.423	56500.17
694.769	56328.42
695.116	56288.42
695.462	56249.1
695.808	56136.56
696.155	56185.82
696.501	56010.69
696.847	56018.82
697.193	55770.69
697.539	55905.61
697.885	55702.45
698.231	55602.79
698.577	55569.8
698.923	55571.38
699.269	55332.74
699.614	55282.35
699.96	55195.79
700.306	55258.39
700.651	55097.04
700.997	55063.82
701.342	55015.69
701.688	54994.67
702.033	54877.16
702.379	54860.44
702.724	54801.23
703.069	54935.01
703.415	54505.64
703.76	54520.78
704.105	54596.49
704.45	54427.91
704.795	54355.14
705.14	54204.63
705.485	54233.33
705.83	54191.53
706.175	54178.65
706.52	54047.12
706.865	54022.49
707.209	53940.91
707.554	53800.8
707.899	53885.09
708.243	53730.75
708.588	53660.24
708.932	53508.83
709.277	53503.64
709.621	53443.3
709.966	53125.79
710.31	53323.08
710.654	52998.11
710.998	53088.96
711.342	52974.84
711.687	52985.01
712.031	52796.08
712.375	52526.94
712.719	52727.38
713.063	52508.86
713.407	52658.69
713.75	52366.49
714.094	52279.94
714.438	52192.26
714.782	52179.15
715.125	51956.33
715.469	51991.58
715.812	51873.17
716.156	51588.43
716.499	51826.39
716.843	51675.44
717.186	51566.29
717.53	51584.14
717.873	51577.36
718.216	51408.55
718.559	51321.09
718.902	51021.44
719.246	51101.21
719.589	51064.6
719.932	50830.03
720.275	50850.37
720.617	50866.42
720.96	50768.79
721.303	50818.51
721.646	50762.46
721.989	50525.86
722.331	50557.72
722.674	50465.3
723.016	50547.1
723.359	50401.12
723.701	50454
724.044	50249.03
724.386	50009.49
724.729	50216.26
725.071	50082.93
725.413	49960.9
725.755	50055.82
726.097	49957.74
726.439	49790.96
726.782	49795.94
727.124	49948.93
727.465	49819.21
727.807	49753
728.149	49733.34
728.491	49609.05
728.833	49653.79
729.175	49527.47
729.516	49449.05
729.858	49357.08
730.199	49366.8
730.541	49199.79
730.882	49159.34
731.224	49226.91
731.565	48965
731.906	49138.55
732.248	49024.88
732.589	48776.08
732.93	48785.57
733.271	48666.02
733.612	48695.4
733.953	48632.13
734.294	48542.18
734.635	48464.22
734.976	48424.9
735.317	48175.19
735.658	48202.31
735.999	48061.29
736.339	48003.22
736.68	48022.2
737.021	47746.27
737.361	47750.11
737.702	47847.74
738.042	47807.06
738.383	47466.28
738.723	47487.52
739.063	47326.17
739.404	47429.44
739.744	47201.2
740.084	47150.58
740.424	47076.46
740.764	46902.45
741.104	47061.77
741.444	46880.98
741.784	46741.1
742.124	46648.67
742.464	46593.53
742.804	46560.32
743.143	46308.34
743.483	46417.27
743.823	46159.65
744.162	46078.29
744.502	46175.24
744.841	45782.48
745.181	46078.07
745.52	45901.58
745.86	45998.52
746.199	45760.79
746.538	45749.94
746.877	45609.61
747.216	45656.16
747.556	45598.76
747.895	45652.32
748.234	45354.47
748.573	45406.67
748.911	45230.41
749.25	45100.92
749.589	45048.49
749.928	45178.66
750.267	45153.8
750.605	45073.35
750.944	44982.5
751.283	44842.62
751.621	44975.27
751.96	44650.54
752.298	44698.44
752.636	44739.57
752.975	44425.46
753.313	44487.15
753.651	44487.15
753.989	44296.19
754.327	44143.88
754.666	43916.99
755.004	44017.33
755.342	44091.91
755.679	43919.71
756.017	43638.81
756.355	43840.61
756.693	43358.59
757.031	43613.27
757.368	43260.29
757.706	43088.77
758.044	43165.15
758.381	43104.59
758.719	42855.78
759.056	42891.26
759.394	42754.09
759.731	42333.53
760.068	42370.82
760.405	42166.31
760.743	42066.65
761.08	42196.81
761.417	41787.11
761.754	41886.77
762.091	41801.8
762.428	41498.3
762.765	41280.45
763.102	41249.72
763.438	40910.52
763.775	40850.63
764.112	40735.16
764.449	40717.08
764.785	40549.17
765.122	40220.14
765.458	40114.16
765.795	40151.22
766.131	40023.76
766.467	39811.11
766.804	39640.05
767.14	39496.32
767.476	39369.77
767.812	39114.86
768.148	39129.78
768.485	39020.17
768.821	38673.97
769.157	38593.07
769.492	38606.17
769.828	38414.99
770.164	38053.65
770.5	38006.19
770.836	38028.34
771.171	37798.96
771.507	37625.18
771.842	37380.44
772.178	37422.93
772.513	37353.1
772.849	37146.33
773.184	37002.83
773.519	36991.08
773.855	36744.3
774.19	36599.9
774.525	36687.58
774.86	36519.22
775.195	36388.38
775.53	36307.48
775.865	36051.89
776.2	35796.08
776.535	35608.06
776.87	35797.66
777.205	35671.11
777.539	35481.06
777.874	35548.85
778.209	35265.02
778.543	35199.48
778.878	35047.4
779.212	34849.66
779.547	34844.01
779.881	34912.71
780.215	34646.05
780.55	34701.42
780.884	34513.17
781.218	34371.48
781.552	34345.27
781.886	34108.44
782.22	33976.69
782.554	33970.36
782.888	33463.26
783.222	33429.36
783.556	33275.47
783.889	33194.11
784.223	33077.96
784.557	33002.48
784.89	33119.76
785.224	32727.68
785.557	32739.89
785.891	32653.34
786.224	32575.37
786.558	32461.25
786.891	32113.01
787.224	32064.88
787.557	31924.09
787.891	31868.5
788.224	31718.22
788.557	31722.97
788.89	31654.49
789.223	31442.75
789.556	31247.5
789.888	31082.08
790.221	30984.45
790.554	30816.1
790.887	30773.39
791.219	30649.55
791.552	30485.48
791.884	30332.04
792.217	30294.3
792.549	30103.8
792.882	29885.5
793.214	29811.83
793.546	29714.2
793.879	29535
794.211	29401.22
794.543	29505.62
794.875	29362.35
795.207	29371.16
795.539	29081.45
795.871	29096.37
796.203	28719.65
796.535	28689.82
796.867	28654.35
797.198	28533.44
797.53	28440.57
797.862	28242.38
798.193	28270.17
798.525	28019.79
798.856	28071.08
799.188	27837.87
799.519	27656.41
799.85	27545.9
800.182	27647.82
800.513	27620.47
800.844	27277.66
801.175	27549.06
801.506	27464.09
801.837	27245.79
802.168	27227.49
802.499	27196.98
802.83	27004.45
803.161	26909.53
803.491	26854.84
803.822	26928.06
804.153	26675.19
804.483	26549.99
804.814	26425.48
805.145	26550.22
805.475	26624.34
805.805	26366.04
806.136	26402.65
806.466	26327.4
806.796	26340.28
807.126	26241.3
807.457	26143.9
807.787	26160.63
808.117	26072.04
808.447	25955.89
808.777	26007.18
809.107	25849.22
809.436	25796.79
809.766	25762.67
810.096	25614.88
810.426	25576.69
810.755	25618.04
811.085	25529.46
811.414	25522
811.744	25244.49
812.073	25284.94
812.403	25322.23
812.732	25117.94
813.061	25101.67
813.39	25015.35
813.719	25027.32
814.049	25038.62
814.378	24875.46
814.707	24955.91
815.036	24760.44
815.365	24566.54
815.693	24520.22
816.022	24458.07
816.351	24383.27
816.68	24256.72
817.008	24313.67
817.337	24014.24
817.665	24056.05
817.994	24063.73
818.322	24018.99
818.651	23833.23
818.979	23767.47
819.307	23910.06
819.636	23815.6
819.964	23616.74
820.292	23646.79
820.62	23561.15
820.948	23498.1
821.276	23569.96
821.604	23426.69
821.932	23425.1
822.259	23432.11
822.587	23453.35
822.915	23293.58
823.243	23421.94
823.57	23281.15
823.898	23390.3
824.225	23247.71
824.553	23212.91
824.88	23234.83
825.207	23282.74
825.535	23238.22
825.862	23338.78
826.189	23171.78
826.516	23206.35
826.843	23330.19
827.17	23182.62
827.497	23293.36
827.824	23256.52
828.151	23149.18
828.478	23035.06
828.805	23180.37
829.131	23129.29
829.458	23022.86
829.785	22913.93
830.111	23058.56
830.438	23077.32
830.764	23083.87
831.09	23022.86
831.417	23006.36
831.743	23004.78
832.069	22976.75
832.395	22942.63
832.722	23047.26
833.048	22858.34
833.374	22966.13
833.7	22846.36
834.026	22918.9
834.351	22893.14
834.677	22874.38
835.003	22943.76
835.329	22978.11
835.654	22806.14
835.98	22828.74
836.306	22898.11
836.631	22760.26
836.956	22853.59
837.282	22902.41
837.607	22722.98
837.932	22693.82
838.258	22733.6
838.583	22708.74
838.908	22652.7
839.233	22826.25
839.558	22736.31
839.883	22631.45
840.208	22559.14
840.533	22565.47
840.858	22605.01
841.182	22570.89
841.507	22621.28
841.832	22477.33
842.156	22462.42
842.481	22358.47
842.805	22405.02
843.13	22299.94
843.454	22404.57
843.778	22128.64
844.103	22291.57
844.427	21989.89
844.751	22068.53
845.075	22071.69
845.399	21971.36
845.723	21855.2
846.047	21868.99
846.371	21641.65
846.695	21747.41
847.019	21458.6
847.343	21303.58
847.666	21205.95
847.99	21223.35
848.313	21210.02
848.637	21040.31
848.96	20926.41
849.284	21027.43
849.607	20869.47
849.931	20821.33
850.254	20666.08
850.577	20566.42
850.9	20370.5
851.223	20423.83
851.546	20234.45
851.869	20044.4
852.192	20184.29
852.515	19938.64
852.838	19987
853.161	19966.44
853.483	19777.52
853.806	19681.25
854.129	19670.63
854.451	19594.24
854.774	19454.14
855.096	19384.31
855.419	19349.28
855.741	19397.87
856.063	19150.87
856.385	19171.2
856.708	19121.04
857.03	19024.09
857.352	18978.44
857.674	18883.08
857.996	18863.19
858.318	18730.99
858.64	18718.11
858.961	18610.54
859.283	18532.13
859.605	18433.37
859.926	18472.47
860.248	18422.75
860.57	18363.77
860.891	18349.31
861.212	18373.26
861.534	18274.73
861.855	18240.83
862.176	18218.69
862.498	18096.43
862.819	18110.22
863.14	18010.33
863.461	18054.85
863.782	17945.7
864.103	17952.48
864.424	17908.64
864.745	17928.98
865.065	17861.86
865.386	17797
865.707	17851.47
866.027	17742.09
866.348	17780.96
866.668	17882.2
866.989	17754.97
867.309	17613.73
867.63	17727.18
867.95	17783.9
868.27	17612.15
868.59	17727.63
868.91	17700.06
869.23	17766.5
869.55	17640.62
869.87	17629.1
870.19	17498.93
870.51	17560.4
870.83	17659.38
871.15	17508.42
871.469	17517.69
871.789	17584.35
872.109	17465.71
872.428	17354.3
872.748	17514.53
873.067	17452.38
873.386	17507.75
873.706	17455.09
874.025	17331.03
874.344	17322.67
874.663	17374.64
874.982	17400.86
875.301	17400.63
875.62	17331.25
875.939	17253.29
876.258	17326.96
876.577	17164.25
876.896	17274.31
877.214	17142.78
877.533	17149.79
877.852	17249
878.17	17180.3
878.489	17134.42
878.807	17089.45
879.125	17148.43
879.444	17039.96
879.762	17000.64
880.08	16999.28
880.398	16913.41
880.716	16912.06
881.034	16856.46
881.352	16969.91
881.67	16830.93
881.988	16826.18
882.306	16734.43
882.624	16790.7
882.941	16702.34
883.259	16677.26
883.577	16606.07
883.894	16599.3
884.212	16516.59
884.529	16561.56
884.846	16380.32
885.164	16452.63
885.481	16472.52
885.798	16414.22
886.115	16277.04
886.432	16320.21
886.75	16341.67
887.067	16084.73
887.383	16086.54
887.7	16088.35
888.017	15964.06
888.334	16081.57
888.651	15991.4
888.967	15893.1
889.284	15834.34
889.6	15819.88
889.917	15661.24
890.233	15770.39
890.55	15599.1
890.866	15651.75
891.182	15608.13
891.498	15555.25
891.815	15564.29
892.131	15419.67
892.447	15340.8
892.763	15230.07
893.079	15229.84
893.395	15201.14
893.71	15120.46
894.026	15129.96
894.342	15021.26
894.657	15030.07
894.973	14962.5
895.289	14995.5
895.604	14916.63
895.92	14858.1
896.235	14743.3
896.55	14792.79
896.865	14741.49
897.181	14722.28
897.496	14687.48
897.811	14543.53
898.126	14564.77
898.441	14489.75
898.756	14360.26
899.071	14224.44
899.386	14363.87
899.7	14178.12
900.015	14101.06
900.33	14037.33
900.644	14043.43
900.959	14113.71
901.273	14029.19
901.588	13903.55
901.902	13841.4
902.216	13926.15
902.531	13918.46
902.845	13900.84
903.159	13762.99
903.473	13725.92
903.787	13663.55
904.101	13628.98
904.415	13587.17
904.729	13564.12
905.042	13415.65
905.356	13559.38
905.67	13470.79
905.984	13443.45
906.297	13350.12
906.611	13224.69
906.924	13269.44
907.237	13170.23
907.551	13175.43
907.864	13097.24
908.177	13137.47
908.491	13040.52
908.804	12963.68
909.117	12959.39
909.43	12921.43
909.743	12881.88
910.056	12865.83
910.368	12813.41
910.681	12787.19
910.994	12734.99
911.307	12651.6
911.619	12517.37
911.932	12622.22
912.244	12558.27
912.557	12557.82
912.869	12418.61
913.181	12420.2
913.494	12423.59
913.806	12337.94
914.118	12293.19
914.43	12250.26
914.742	12162.12
915.054	12146.08
915.366	12112.63
915.678	12014.11
915.99	12065.86
916.302	11943.6
916.613	11895.01
916.925	11808.23
917.236	11876.93
917.548	11774.11
917.859	11803.94
918.171	11716.94
918.482	11657.73
918.794	11559.43
919.105	11588.81
919.416	11497.06
919.727	11380.45
920.038	11309.94
920.349	11359.88
920.66	11269.27
920.971	11244.18
921.282	11172.09
921.593	11214.35
921.903	11066.33
922.214	10995.37
922.525	10936.17
922.835	10963.29
923.146	10840.58
923.456	10864.76
923.767	10887.13
924.077	10703.86
924.387	10728.72
924.697	10673.58
925.008	10690.52
925.318	10564.65
925.628	10509.74
925.938	10543.41
926.248	10358.1
926.558	10399.46
926.867	10304.55
927.177	10246.47
927.487	10186.58
927.796	10199.46
928.106	10205.34
928.416	10080.14
928.725	10090.09
929.034	9990.43
929.344	9982.52
929.653	9844.44
929.962	9874.05
930.271	9885.57
930.581	9756.99
930.89	9693.26
931.199	9680.83
931.508	9702.75
931.817	9644.45
932.125	9619.82
932.434	9569.42
932.743	9477.67
933.051	9406.49
933.36	9388.41
933.669	9280.17
933.977	9289.43
934.286	9262.76
934.594	9227.29
934.902	9172.82
935.21	9132.37
935.519	9097.8
935.827	8964.24
936.135	8949.55
936.443	8921.76
936.751	8888.31
937.059	8860.29
937.367	8869.33
937.674	8826.17
937.982	8822.1
938.29	8724.93
938.597	8729.45
938.905	8591.14
939.213	8659.39
939.52	8569.9
939.827	8593.4
940.135	8481.99
940.442	8491.71
940.749	8451.03
941.056	8477.25
941.363	8356.57
941.67	8367.42
941.977	8339.17
942.284	8251.49
942.591	8266.86
942.898	8223.92
943.205	8265.05
943.511	8196.58
943.818	8156.13
944.125	8060.08
944.431	8032.29
944.738	8060.76
945.044	8001.1
945.35	8004.94
945.657	7918.17
945.963	7882.46
946.269	7838.17
946.575	7863.48
946.881	7907.09
947.187	7790.26
947.493	7820.09
947.799	7753.88
948.105	7713.88
948.41	7685.41
948.716	7634.11
949.022	7597.05
949.327	7592.07
949.633	7520.89
949.938	7542.13
950.244	7577.16
950.549	7438.18
950.854	7357.5
951.16	7357.5
951.465	7363.15
951.77	7306.88
952.075	7272.53
952.38	7222.82
952.685	7277.05
952.99	7190.95
953.294	7174.68
953.599	7156.83
953.904	7084.74
954.209	7103.27
954.513	7051.3
954.818	6974.46
955.122	7019.21
955.426	7016.04
955.731	6934.92
956.035	6910.96
956.339	6864.86
956.643	6940.34
956.948	6861.92
957.252	6837.07
957.556	6777.63
957.86	6742.15
958.163	6719.1
958.467	6742.15
958.771	6680.23
959.075	6679.1
959.378	6577.64
959.682	6586
959.985	6555.72
960.289	6534.7
960.592	6451.99
960.896	6432.1
961.199	6349.62
961.502	6395.95
961.805	6370.19
962.108	6277.98
962.411	6373.12
962.714	6259.23
963.017	6248.83
963.32	6243.64
963.623	6180.59
963.926	6174.71
964.228	6155.05
964.531	6138.78
964.833	6111.66
965.136	6085.67
965.438	6012.68
965.741	5953.7
966.043	5970.65
966.345	5895.4
966.648	5900.14
966.95	5866.7
967.252	5835.28
967.554	5793.25
967.856	5836.19
968.158	5728.39
968.46	5789.41
968.761	5707.83
969.063	5710.54
969.365	5633.26
969.666	5637.78
969.968	5616.53
970.269	5558.91
970.571	5632.13
970.872	5519.13
971.174	5536.54
971.475	5462.86
971.776	5471.9
972.077	5424.67
972.378	5393.71
972.679	5381.96
972.98	5395.52
973.281	5333.15
973.582	5278.69
973.883	5299.48
974.183	5271.23
974.484	5188.52
974.785	5198.01
975.085	5165.92
975.386	5163.89
975.686	5136.09
975.986	5115.76
976.287	5088.86
976.587	5007.06
976.887	5035.31
977.187	5006.38
977.487	4975.19
977.787	4916.89
978.087	4935.87
978.387	4920.51
978.687	4911.47
978.987	4854.29
979.286	4773.39
979.586	4835.08
979.885	4794.18
980.185	4755.99
980.484	4765.48
980.784	4717.8
981.083	4725.71
981.382	4704.47
981.682	4692.04
981.981	4612.27
982.28	4608.88
982.579	4621.08
982.878	4579.5
983.177	4544.47
983.475	4589.89
983.774	4516.45
984.073	4501.08
984.372	4504.47
984.67	4443.91
984.969	4453.4
985.267	4403.68
985.566	4425.15
985.864	4346.06
986.162	4375.21
986.461	4369.79
986.759	4299.51
987.057	4267.19
987.355	4300.18
987.653	4234.2
987.951	4225.61
988.249	4265.83
988.547	4233.74
988.844	4200.98
989.142	4207.98
989.44	4173.86
989.737	4120.98
990.035	4112.17
990.332	4119.62
990.63	4104.03
990.927	4109.45
991.224	4078.49
991.521	4036.91
991.819	4032.17
992.116	4027.87
992.413	4020.64
992.71	3984.71
993.006	3914.88
993.303	3998.27
993.6	3917.37
993.897	3923.7
994.193	3875.11
994.49	3852.29
994.787	3851.83
995.083	3812.51
995.379	3792.85
995.676	3786.3
995.972	3749.46
996.268	3763.25
996.565	3753.31
996.861	3732.51
997.157	3675.79
997.453	3648.45
997.749	3658.84
998.044	3658.62
998.34	3606.87
998.636	3593.31
998.932	3616.81
999.227	3577.04
999.523	3574.78
999.818	3501.79
1000.114	3519.64
1000.409	3498.62
1000.704	3490.94
1001	3476.7
1001.295	3443.71
1001.59	3456.59
1001.885	3391.05
1002.18	3430.15
1002.475	3345.86
1002.77	3354.9
1003.065	3328.46
1003.359	3322.81
1003.654	3296.14
1003.949	3233.54
1004.243	3216.37
1004.538	3219.53
1004.832	3246.65
1005.127	3205.07
1005.421	3155.58
1005.715	3124.17
1006.009	3171.63
1006.304	3104.96
1006.598	3090.72
1006.892	3059.31
1007.186	3059.54
1007.48	3054.11
1007.773	3050.27
1008.067	3035.58
1008.361	2999.65
1008.655	2964.17
1008.948	2926.21
1009.242	2927.11
1009.535	2859.32
1009.829	2901.8
1010.122	2866.55
1010.415	2839.88
1010.708	2836.95
1011.001	2831.52
1011.295	2778.87
1011.588	2798.75
1011.881	2765.99
1012.173	2775.25
1012.466	2756.72
1012.759	2685.76
1013.052	2716.95
1013.344	2677.4
1013.637	2681.47
1013.93	2652.32
1014.222	2638.31
1014.514	2619.32
1014.807	2615.48
1015.099	2551.75
1015.391	2565.54
1015.683	2566.67
1015.976	2517.18
1016.268	2525.31
1016.56	2472.43
1016.851	2467.46
1017.143	2453.68
1017.435	2450.97
1017.727	2405.54
1018.018	2404.41
1018.31	2350.4
1018.602	2395.15
1018.893	2337.75
1019.185	2298.65
1019.476	2302.5
1019.767	2296.39
1020.058	2295.04
1020.35	2269.95
1020.641	2228.15
1020.932	2220.01
1021.223	2263.85
1021.514	2188.37
1021.804	2178.21
1022.095	2149.73
1022.386	2135.04
1022.677	2144.76
1022.967	2120.58
1023.258	2109.05
1023.548	2093.91
1023.839	2094.82
1024.129	2077.87
1024.419	2043.97
1024.709	2034.25
1025	2038.55
1025.29	1977.31
1025.58	1967.82
1025.87	1995.61
1026.16	1970.53
1026.449	1943.64
1026.739	1954.93
1027.029	1933.69
1027.319	1895.28
1027.608	1886.91
1027.898	1868.61
1028.187	1851.21
1028.477	1858.89
1028.766	1860.02
1029.055	1813.92
1029.344	1781.61
1029.634	1767.14
1029.923	1815.5
1030.212	1763.3
1030.501	1765.11
1030.79	1748.16
1031.078	1704.55
1031.367	1697.77
1031.656	1701.61
1031.945	1714.94
1032.233	1661.61
1032.522	1665.68
1032.81	1663.19
1033.099	1653.02
1033.387	1642.4
1033.675	1637.2
1033.963	1608.05
1034.251	1599.69
1034.54	1586.81
1034.828	1554.04
1035.116	1565.34
1035.403	1552.91
1035.691	1541.39
1035.979	1540.71
1036.267	1518.56
1036.554	1530.76
1036.842	1478.79
1037.129	1483.53
1037.417	1483.99
1037.704	1466.81
1037.992	1456.87
1038.279	1459.13
1038.566	1418.9
1038.853	1418.9
1039.14	1418.9
