Data from aluminium_macbook_case_FLMS001491_005.txt Node
Date: Tue Feb 07 10:43:06 GMT 2017
User: dcchb
Spectrometer: FLMS00149
Trigger mode: 0
Integration Time (sec): 2.000000E-2
Scans to average: 10
Electric dark correction enabled: true
Nonlinearity correction enabled: false
Boxcar width: 0
XAxis mode: Wavelengths
Number of Pixels in Spectrum: 2048
>>>>>Begin Spectral Data<<<<<
341.393	-1.74
341.776	-1.74
342.16	-1.74
342.543	-53.04
342.927	-72.92
343.31	-71.11
343.693	-63.88
344.077	-68.18
344.46	-51.45
344.843	-53.04
345.226	-39.48
345.61	-44.22
345.993	-41.51
346.376	-3.55
346.759	13.4
347.142	41.88
347.525	50.69
347.908	54.08
348.291	83.68
348.674	75.55
349.057	117.13
349.44	141.08
349.823	130.01
350.206	177.69
350.588	231.02
350.971	264.7
351.354	269.44
351.737	271.25
352.119	300.18
352.502	321.64
352.884	333.4
353.267	349.44
353.65	336.56
354.032	363.45
354.414	388.99
354.797	373.17
355.179	358.25
355.562	396.67
355.944	364.81
356.326	393.28
356.709	387.18
357.091	415.88
357.473	417.91
357.855	406.84
358.238	412.04
358.62	421.75
359.002	396.9
359.384	421.3
359.766	414.07
360.148	412.26
360.53	417.91
360.912	438.25
361.294	423.79
361.676	429.89
362.057	416.78
362.439	412.94
362.821	430.12
363.203	435.77
363.584	464.47
363.966	416.78
364.348	420.62
364.729	428.76
365.111	421.3
365.493	445.71
365.874	419.72
366.256	433.28
366.637	411.59
367.019	432.83
367.4	426.27
367.781	409.78
368.163	430.79
368.544	428.08
368.925	435.54
369.306	446.84
369.688	444.58
370.069	454.07
370.45	460.4
370.831	463.79
371.212	479.83
371.593	467.4
371.974	467.4
372.355	471.24
372.736	451.81
373.117	464.24
373.498	473.28
373.879	461.3
374.26	480.06
374.641	446.39
375.021	454.97
375.402	486.84
375.783	499.27
376.163	523.9
376.544	540.85
376.925	529.32
377.305	524.8
377.686	520.96
378.066	514.63
378.447	532.03
378.827	541.07
379.208	528.64
379.588	542.88
379.968	549.43
380.349	558.25
380.729	543.33
381.109	594.63
381.489	575.87
381.87	590.56
382.25	581.75
382.63	588.98
383.01	588.3
383.39	630.11
383.77	603.44
384.15	612.48
384.53	640.28
384.91	626.72
385.29	623.56
385.67	654.06
386.049	668.53
386.429	663.33
386.809	660.84
387.189	671.01
387.568	673.5
387.948	696.55
388.328	714.85
388.707	712.14
389.087	706.04
389.466	749.43
389.846	729.54
390.225	755.53
390.605	736.1
390.984	751.24
391.363	770.22
391.743	760.28
392.122	801.86
392.501	798.02
392.881	810.22
393.26	822.42
393.639	808.86
394.018	808.86
394.397	850.44
394.776	873.27
395.155	852.03
395.534	867.17
395.913	883.89
396.292	896.77
396.671	906.26
397.05	934.06
397.429	919.37
397.808	926.37
398.186	950.78
398.565	944.45
398.944	979.71
399.323	969.99
399.701	989.65
400.08	979.25
400.458	1011.12
400.837	980.16
401.215	1006.82
401.594	1048.4
401.972	1045.01
402.351	1064.45
402.729	1082.08
403.107	1075.97
403.486	1089.99
403.864	1101.51
404.242	1109.87
404.62	1154.84
404.999	1165.01
405.377	1158.91
405.755	1196.42
406.133	1207.04
406.511	1209.98
406.889	1214.73
407.267	1267.38
407.645	1290.21
408.023	1309.41
408.401	1316.65
408.779	1327.49
409.156	1366.81
409.534	1390.77
409.912	1392.35
410.29	1421.28
410.667	1413.59
411.045	1422.63
411.422	1461.05
411.8	1464.66
412.178	1503.31
412.555	1556.64
412.933	1553.7
413.31	1572.23
413.687	1579.01
414.065	1613.59
414.442	1632.57
414.819	1660.59
415.197	1659.46
415.574	1709.63
415.951	1741.72
416.328	1773.36
416.705	1756.41
417.082	1801.83
417.46	1804.77
417.837	1806.58
418.214	1821.27
418.591	1831.66
418.967	1884.99
419.344	1904.2
419.721	1940.81
420.098	1960.25
420.475	1959.12
420.852	1993.46
421.228	1992.33
421.605	2038.21
421.982	2028.27
422.358	2083.86
422.735	2133.57
423.111	2111.43
423.488	2146.68
423.864	2158.43
424.241	2202.72
424.617	2216.51
424.994	2251.08
425.37	2292.89
425.746	2293.57
426.123	2332.66
426.499	2361.59
426.875	2406.11
427.251	2476.62
427.627	2459.89
428.003	2494.69
428.379	2516.84
428.756	2554.81
429.132	2630.28
429.507	2654.46
429.883	2720.45
430.259	2715.48
430.635	2772.65
431.011	2798.19
431.387	2902.59
431.763	2908.92
432.138	2973.55
432.514	2987.56
432.89	2972.42
433.265	3067.11
433.641	3136.03
434.016	3140.1
434.392	3170.38
434.767	3262.36
435.143	3247.44
435.518	3315.92
435.894	3349.36
436.269	3397.5
436.644	3425.52
437.02	3447.66
437.395	3470.71
437.77	3517.49
438.145	3603.82
438.52	3613.31
438.895	3681.56
439.271	3720.2
439.646	3794.32
440.021	3834.77
440.395	3831.83
440.77	3819.18
441.145	3882.68
441.52	3971.49
441.895	3917.03
442.27	3999.06
442.645	3958.16
443.019	4084.26
443.394	4084.71
443.769	4178.49
444.143	4069.79
444.518	4196.12
444.892	4137.14
445.267	4229.34
445.641	4273.4
446.016	4310.69
446.39	4322.89
446.764	4382.55
447.139	4335.78
447.513	4490.57
447.887	4477.47
448.262	4505.26
448.636	4564.92
449.01	4628.2
449.384	4647.63
449.758	4673.85
450.132	4736.44
450.506	4760.4
450.88	4815.54
451.254	4832.03
451.628	4890.11
452.002	4983.67
452.376	5042.2
452.75	5024.35
453.123	5083.55
453.497	5185.47
453.871	5209.43
454.244	5339.14
454.618	5346.37
454.992	5418.91
455.365	5470.44
455.739	5609.41
456.112	5663.65
456.486	5744.55
456.859	5783.65
457.232	5906.58
457.606	5905.9
457.979	6024.32
458.352	6168.27
458.725	6257.76
459.099	6277.65
459.472	6379.34
459.845	6502.95
460.218	6521.03
460.591	6546.79
460.964	6646.22
461.337	6784.98
461.71	6877.18
462.083	6951.53
462.456	6980.9
462.829	6994.69
463.201	7132.31
463.574	7209.15
463.947	7284.85
464.32	7500.66
464.692	7510.16
465.065	7643.94
465.438	7720.32
465.81	7810.49
466.183	7933.65
466.555	8111.04
466.928	8180.42
467.3	8232.85
467.672	8388.55
468.045	8651.82
468.417	8683.91
468.789	8716
469.161	8917.35
469.534	9052.49
469.906	9217.46
470.278	9240.73
470.65	9399.82
471.022	9506.26
471.394	9686.14
471.766	9798.68
472.138	9945.12
472.51	10121.84
472.882	10315.73
473.253	10390.08
473.625	10571.54
473.997	10828.03
474.369	10854.02
474.74	11012.44
475.112	11151.64
475.484	11389.15
475.855	11588.01
476.227	11746.65
476.598	12007.89
476.97	12219.64
477.341	12528.78
477.713	12721.77
478.084	12837.47
478.455	13161.98
478.827	13309.33
479.198	13639.49
479.569	13739.14
479.94	14119.25
480.311	14135.29
480.682	14568.73
481.053	14916.29
481.424	15098.66
481.795	15286
482.166	15472.88
482.537	15744.52
482.908	16043.72
483.279	16194.9
483.65	16556.02
484.021	16829.68
484.391	17069.23
484.762	17171.6
485.133	17318.71
485.503	17560.96
485.874	17970.45
486.244	18250.44
486.615	18459.25
486.985	18775.17
487.356	19191.2
487.726	19354.14
488.097	19811.98
488.467	19901.92
488.837	20333.32
489.207	20524.95
489.578	20873.87
489.948	21090.14
490.318	21400.41
490.688	21359.51
491.058	21812.6
491.428	22129.88
491.798	22376.21
492.168	22794.95
492.538	22834.5
492.908	23111.78
493.278	23423.64
493.648	23393.35
494.017	23679.22
494.387	23908.82
494.757	24142.49
495.126	24418.19
495.496	24323.27
495.866	24632.64
496.235	24903.82
496.605	25083.48
496.974	25242.57
497.344	25592.39
497.713	25785.38
498.082	26110.34
498.452	26375.87
498.821	26455.65
499.19	26604.34
499.559	26970.66
499.928	27226.25
500.298	27384.89
500.667	27589.85
501.036	27611.32
501.405	27932.44
501.774	28011.31
502.143	28259.89
502.512	28395.03
502.88	28672.54
503.249	28768.13
503.618	29022.58
503.987	29059.87
504.356	29318.4
504.724	29348.45
505.093	29405.63
505.462	29576.92
505.83	29903.92
506.199	30096.91
506.567	30468.65
506.936	30612.6
507.304	30868.41
507.672	31065.92
508.041	31100.72
508.409	31477.66
508.777	31790.42
509.145	32052.11
509.514	32123.75
509.882	32540.01
510.25	32545.2
510.618	32930.96
510.986	33021.12
511.354	33416.37
511.722	33626.08
512.09	34061.1
512.458	34100.64
512.826	34387.87
513.193	34591.25
513.561	34727.29
513.929	35037.79
514.297	35246.83
514.664	35556.65
515.032	35720.71
515.4	35980.59
515.767	35920.26
516.135	36405.44
516.502	36261.26
516.869	36757.97
517.237	36886.33
517.604	36930.85
517.972	37369.71
518.339	37602.7
518.706	37756.82
519.073	37882.24
519.44	38275.45
519.808	38687.87
520.175	38587.53
520.542	39217.57
520.909	39514.29
521.276	39539.82
521.643	40038.57
522.009	40325.79
522.376	40637.87
522.743	40954.02
523.11	41344.52
523.477	41859.99
523.843	42066.99
524.21	42330.71
524.577	42663.36
524.943	42867.42
525.31	43296.56
525.676	43640.28
526.043	43784.91
526.409	43978.58
526.776	44409.07
527.142	44392.58
527.508	44753.47
527.874	44941.71
528.241	45275.49
528.607	45402.04
528.973	45575.14
529.339	45793.67
529.705	46122.47
530.071	46296.93
530.437	46518.4
530.803	46718.62
531.169	46923.58
531.535	46961.1
531.901	47246.06
532.267	47270.69
532.632	47702.09
532.998	47839.26
533.364	48124.45
533.73	48349.76
534.095	48679.47
534.461	48744.55
534.826	49016.63
535.192	49152.9
535.557	49584.53
535.923	49502.27
536.288	49756.28
536.653	49840.57
537.019	49953.79
537.384	50172.08
537.749	50290.73
538.114	50430.83
538.479	50518.29
538.845	50706.08
539.21	50696.36
539.575	50907.43
539.94	50989.01
540.305	51186.97
540.67	51015
541.034	51196.69
541.399	51365.05
541.764	51379.96
542.129	51514.65
542.494	51561.65
542.858	51717.81
543.223	51675.77
543.587	51920.29
543.952	51839.84
544.316	52030.79
544.681	52050
545.045	52314.63
545.41	52384.68
545.774	52479.59
546.138	52494.74
546.503	52709.65
546.867	52729.53
547.231	53028.05
547.595	53139.01
547.959	53289.06
548.324	53345.33
548.688	53521.83
549.052	53562.73
549.416	53704.87
549.779	53719.56
550.143	53877.3
550.507	54181.7
550.871	54219.89
551.235	54244.75
551.599	54463.05
551.962	54590.27
552.326	54613.55
552.689	54755.69
553.053	54775.35
553.417	54764.28
553.78	55065.06
554.143	54967.44
554.507	55150.26
554.87	55152.97
555.234	55517.71
555.597	55289.01
555.96	55430.48
556.323	55501.89
556.686	55559.74
557.05	55778.27
557.413	55752.05
557.776	55805.83
558.139	55999.05
558.502	56075.88
558.865	56157.69
559.228	56337.12
559.59	56440.85
559.953	56553.84
560.316	56855.98
560.679	56866.6
561.041	56971.45
561.404	57100.26
561.767	57283.31
562.129	57139.36
562.492	57500.03
562.854	57550.87
563.217	57621.38
563.579	57767.59
563.941	57933.91
564.304	58093.91
564.666	58204.19
565.028	58277.63
565.39	58389.72
565.753	58487.8
566.115	58689.83
566.477	58715.14
566.839	58798.3
567.201	58938.63
567.563	58962.81
567.925	59130.49
568.287	59048.01
568.648	59124.39
569.01	59316.48
569.372	59430.15
569.734	59309.7
570.095	59499.75
570.457	59550.37
570.819	59574.55
571.18	59574.78
571.542	59731.38
571.903	59735.22
572.265	59841.89
572.626	59863.81
572.987	59852.28
573.349	59940.87
573.71	60030.81
574.071	60087.53
574.432	60202.78
574.794	60336.11
575.155	60300.63
575.516	60285.04
575.877	60371.36
576.238	60513.28
576.599	60580.85
576.96	60592.15
577.32	60690.23
577.681	60776.33
578.042	60825.82
578.403	60846.83
578.763	60892.03
579.124	60916.43
579.485	61047.28
579.845	61144.45
580.206	61115.3
580.566	61127.05
580.927	61108.97
581.287	61237.33
581.648	61092.93
582.008	61261.06
582.368	61328.4
582.728	61292.7
583.089	61213.15
583.449	61204.34
583.809	61235.97
584.169	61226.26
584.529	61111.01
584.889	61355.07
585.249	61121.85
585.609	61112.81
585.969	61226.94
586.329	61079.82
586.688	61151.91
587.048	61136.32
587.408	61031.46
587.768	61097.45
588.127	61065.58
588.487	60993.04
588.846	61192.36
589.206	61003.66
589.565	61062.19
589.925	61197.78
590.284	61084.34
590.643	61157.33
591.003	61241.85
591.362	61357.78
591.721	61243.43
592.08	61274.84
592.44	61360.94
592.799	61351.45
593.158	61349.87
593.517	61376.54
593.876	61430.09
594.235	61377.89
594.593	61370.89
594.952	61536.31
595.311	61436.65
595.67	61553.03
596.029	61634.83
596.387	61619.69
596.746	61697.88
597.104	61541.96
597.463	61588.96
597.822	61646.36
598.18	61590.09
598.538	61569.75
598.897	61759.12
599.255	61502.63
599.613	61818.78
599.972	61665.79
600.33	61693.36
600.688	61511.22
601.046	61642.29
601.404	61684.55
601.762	61617.43
602.12	61748.05
602.478	61719.8
602.836	61686.13
603.194	61567.72
603.552	61585.34
603.91	61493.59
604.268	61616.08
604.625	61548.96
604.983	61678.67
605.341	61497.21
605.698	61665.34
606.056	61700.82
606.413	61735.62
606.771	61760.03
607.128	61839.12
607.485	61750.31
607.843	61828.73
608.2	61911.21
608.557	61994.6
608.914	61946.46
609.272	62092.22
609.629	62094.26
609.986	62214.93
610.343	62133.13
610.7	62302.16
611.057	62312.1
611.414	62310.97
611.771	62312.1
612.127	62378.54
612.484	62413.12
612.841	62484.08
613.198	62453.57
613.554	62451.99
613.911	62588.71
614.267	62550.06
614.624	62525.21
614.98	62544.41
615.337	62626.9
615.693	62496.05
616.05	62569.5
616.406	62690.17
616.762	62564.08
617.118	62561.36
617.475	62513
617.831	62559.78
618.187	62592.1
618.543	62600.91
618.899	62705.77
619.255	62616.05
619.611	62609.95
619.967	62605.88
620.323	62689.04
620.678	62551.42
621.034	62488.82
621.39	62428.26
621.746	62470.52
622.101	62706.44
622.457	62444.53
622.812	62494.25
623.168	62614.92
623.523	62574.47
623.879	62658.08
624.234	62465.77
624.589	62630.06
624.945	62606.79
625.3	62628.48
625.655	62677.07
626.01	62746.9
626.365	62738.53
626.72	62731.53
627.075	62688.59
627.43	62709.38
627.785	62619.89
628.14	62716.84
628.495	62720.46
628.85	62732.43
629.205	62676.39
629.559	62809.72
629.914	62655.82
630.269	62779.44
630.623	62663.96
630.978	62621.02
631.332	62710.06
631.687	62699.21
632.041	62657.86
632.396	62732.43
632.75	62565.88
633.104	62550.74
633.459	62411.54
633.813	62398.88
634.167	62365.66
634.521	62343.52
634.875	62355.04
635.229	62335.83
635.583	62237.08
635.937	62198.44
636.291	62173.58
636.645	62152.56
636.999	62029.4
637.352	62092.68
637.706	61952.11
638.06	62000.25
638.413	61905.11
638.767	61807.71
639.121	61916.41
639.474	61691.56
639.828	61743.76
640.181	61691.78
640.534	61711.44
640.888	61580.82
641.241	61513.03
641.594	61590.09
641.947	61556.64
642.301	61514.61
642.654	61612.46
643.007	61567.27
643.36	61485.69
643.713	61506.48
644.066	61562.75
644.419	61433.94
644.771	61293.37
645.124	61147.39
645.477	61040.95
645.83	60899.49
646.182	60830.11
646.535	60800.51
646.888	60804.57
647.24	60725.93
647.593	60841.18
647.945	60759.6
648.298	60665.59
648.65	60682.54
649.002	60618.82
649.355	60679.38
649.707	60629.66
650.059	60715.54
650.411	60932.03
650.763	61003.89
651.115	61237.33
651.467	61119.14
651.819	61105.81
652.171	61038.69
652.523	61002.99
652.875	60874.4
653.227	60869.66
653.578	61008.41
653.93	60884.35
654.282	60691.36
654.633	60743.33
654.985	60682.54
655.337	60688.64
655.688	60666.72
656.039	60688.42
656.391	60508.31
656.742	60426.73
657.094	60454.75
657.445	60501.08
657.796	60449.55
658.147	60327.98
658.498	60356
658.849	60377.01
659.2	60376.79
659.551	60259.05
659.902	60351.7
660.253	60292.27
660.604	60380.86
660.955	60158.94
661.306	60271.48
661.656	60229
662.007	60217.02
662.358	60252.72
662.708	60191.71
663.059	60267.86
663.409	60141.54
663.76	60282.78
664.11	60234.42
664.461	60216.34
664.811	60277.36
665.161	60266.06
665.511	60203.46
665.862	60225.15
666.212	60261.99
666.562	60358.94
666.912	60273.74
667.262	60311.48
667.612	60263.34
667.962	60302.67
668.312	60204.82
668.662	60339.5
669.011	60266.51
669.361	60219.5
669.711	60173.63
670.06	60178.6
670.41	60137.02
670.76	60085.95
671.109	60115.55
671.459	60083.24
671.808	59980.41
672.157	60112.16
672.507	59923.47
672.856	59892.73
673.205	59886.18
673.554	59929.57
673.904	59839.85
674.253	60007.98
674.602	59888.44
674.951	59464.95
675.3	59346.53
675.649	59711.04
675.998	59644.15
676.346	59672.4
676.695	59707.43
677.044	59440.54
677.393	59563.25
677.741	59578.84
678.09	59449.58
678.438	59390.15
678.787	59417.04
679.135	59388.34
679.484	59175.24
679.832	59278.29
680.181	59121.45
680.529	59203.03
680.877	59043.94
681.225	58981.34
681.573	59157.84
681.922	59031.96
682.27	58985.19
682.618	58962.81
682.966	58854.79
683.314	58916.71
683.661	58933.89
684.009	58816.15
684.357	58749.26
684.705	58780.22
685.053	58824.96
685.4	58826.32
685.748	58658.42
686.095	58681.01
686.443	58596.95
686.79	58545.2
687.138	58603.95
687.485	58487.57
687.832	58479.21
688.18	58541.13
688.527	58339.55
688.874	58383.17
689.221	58301.81
689.568	58254.13
689.915	58181.82
690.262	58170.07
690.609	58156.73
690.956	58082.39
691.303	57934.37
691.65	57848.27
691.997	57790.87
692.344	57752.22
692.69	57682.4
693.037	57626.35
693.383	57426.13
693.73	57563.98
694.077	57284.67
694.423	57377.32
694.769	57303.65
695.116	57141.62
695.462	57096.87
695.808	57002.41
696.155	57034.28
696.501	56807.84
696.847	56727.39
697.193	56534.18
697.539	56685.36
697.885	56435.87
698.231	56296.67
698.577	56299.16
698.923	56183.23
699.269	56102.32
699.614	55939.84
699.96	55816.91
700.306	55886.06
700.651	55726.97
700.997	55610.13
701.342	55533.53
701.688	55509.12
702.033	55374.89
702.379	55467.09
702.724	55273.42
703.069	55338.95
703.415	55027.55
703.76	55082.69
704.105	54996.82
704.45	54872.07
704.795	54791.17
705.14	54662.59
705.485	54763.38
705.83	54516.38
706.175	54630.72
706.52	54461.01
706.865	54436.61
707.209	54445.64
707.554	54307.12
707.899	54445.42
708.243	54197.52
708.588	54246.1
708.932	54104.41
709.277	54020.35
709.621	54072.1
709.966	53773.57
710.31	53952.32
710.654	53666.68
710.998	53764.76
711.342	53793.01
711.687	53760.01
712.031	53580.13
712.375	53468.95
712.719	53638.21
713.063	53440.25
713.407	53574.26
713.75	53431.21
714.094	53355.05
714.438	53140.14
714.782	53215.17
715.125	53090.88
715.469	53038.45
715.812	52894.05
716.156	52725.46
716.499	52731.57
716.843	52854.27
717.186	52600.27
717.53	52645.92
717.873	52557.11
718.216	52468.75
718.559	52346.94
718.902	52053.62
719.246	52083.45
719.589	51935.65
719.932	51830.12
720.275	51865.6
720.617	51782.89
720.96	51700.86
721.303	51641.2
721.646	51584.48
721.989	51425.84
722.331	51430.13
722.674	51130.25
723.016	51239.4
723.359	51163.25
723.701	51069.69
724.044	50818.62
724.386	50718.74
724.729	50825.85
725.071	50740.66
725.413	50671.96
725.755	50567.33
726.097	50445.98
726.439	50214.8
726.782	50283.27
727.124	50394.68
727.465	50174.8
727.807	50254.12
728.149	50063.39
728.491	50007.34
728.833	50106.55
729.175	50008.7
729.516	49985.87
729.858	49888.93
730.199	49929.61
730.541	49785.2
730.882	49663.17
731.224	49775.94
731.565	49540.01
731.906	49603.06
732.248	49600.35
732.589	49474.7
732.93	49325.55
733.271	49472.67
733.612	49385.89
733.953	49509.05
734.294	49337.3
734.635	49318.32
734.976	49327.36
735.317	49137.99
735.658	49245.78
735.999	49109.97
736.339	49116.29
736.68	49156.74
737.021	49081.49
737.361	49007.37
737.702	49112
738.042	48878.33
738.383	48837.43
738.723	48844.89
739.063	48763.76
739.404	48692.12
739.744	48534.61
740.084	48313.15
740.424	48529.42
740.764	48319.03
741.104	48306.37
741.444	48133.04
741.784	48053.72
742.124	47978.7
742.464	47818.93
742.804	47649.44
743.143	47726.5
743.483	47706.39
743.823	47363.35
744.162	47341.2
744.502	47390.91
744.841	47153.18
745.181	47241.31
745.52	47146.18
745.86	47052.84
746.199	46872.96
746.538	46772.4
746.877	46849.69
747.216	46713.19
747.556	46522.69
747.895	46403.82
748.234	46288.57
748.573	46096.03
748.911	46067.56
749.25	46125.86
749.589	45832.09
749.928	45910.28
750.267	45761.81
750.605	45618.76
750.944	45638.64
751.283	45424.41
751.621	45434.13
751.96	45130.64
752.298	45101.71
752.636	45214.25
752.975	45035.95
753.313	44865.78
753.651	44960.24
753.989	44812.9
754.327	44652.68
754.666	44462.4
755.004	44577.2
755.342	44547.37
755.679	44430.31
756.017	44283.2
756.355	44434.61
756.693	44299.02
757.031	44253.82
757.368	44111.45
757.706	43864.45
758.044	43804.12
758.381	43744.46
758.719	43825.13
759.056	43682.76
759.394	43598.47
759.731	43425.37
760.068	43246.17
760.405	43029.67
760.743	42934.53
761.08	43119.39
761.417	42734.09
761.754	42833.07
762.091	42762.56
762.428	42687.08
762.765	42367.32
763.102	42627.65
763.438	42235.12
763.775	42091.85
764.112	42066.08
764.449	42033.32
764.785	41950.61
765.122	41682.82
765.458	41588.58
765.795	41437.17
766.131	41234.69
766.467	41169.38
766.804	41057.97
767.14	40820.01
767.476	40814.36
767.812	40657.31
768.148	40652.56
768.485	40246.02
768.821	40021.17
769.157	40020.04
769.492	39868.17
769.828	39734.62
770.164	39384.12
770.5	39299.6
770.836	39222.09
771.171	38967.41
771.507	38958.82
771.842	38618.04
772.178	38505.5
772.513	38334.88
772.849	38229.12
773.184	38002.69
773.519	37928.34
773.855	37781
774.19	37658.74
774.525	37423.04
774.86	37503.94
775.195	37324.96
775.53	36990.96
775.865	36864.86
776.2	36479.34
776.535	36376.74
776.87	36457.42
777.205	36154.6
777.539	35907.38
777.874	35964.32
778.209	35657.44
778.543	35560.27
778.878	35350.1
779.212	35477.33
779.547	35209.54
779.881	35345.81
780.215	35080.05
780.55	35071.01
780.884	34838.25
781.218	34874.86
781.552	34761.19
781.886	34660.4
782.22	34424.93
782.554	34288.21
782.888	34031.27
783.222	33894.77
783.556	33842.8
783.889	33722.12
784.223	33616.14
784.557	33514.9
784.89	33570.94
785.224	33348.35
785.557	33224.06
785.891	33090.27
786.224	33126.88
786.558	32954.01
786.891	32796.5
787.224	32669.72
787.557	32709.72
787.891	32652.09
788.224	32486.9
788.557	32554.69
788.89	32429.73
789.223	32398.54
789.556	32076.29
789.888	32086.23
790.221	31903.41
790.554	31659.8
790.887	31764.43
791.219	31570.31
791.552	31446.7
791.884	31340.94
792.217	31231.57
792.549	31248.74
792.882	30986.15
793.214	30881.74
793.546	30864.8
793.879	30698.25
794.211	30569.66
794.543	30592.49
794.875	30285.6
795.207	30470.91
795.539	30214.64
795.871	30056.23
796.203	29802.68
796.535	29724.26
796.867	29698.95
797.198	29602.46
797.53	29624.38
797.862	29317.04
798.193	29288.79
798.525	29257.61
798.856	29223.48
799.188	28843.15
799.519	28573.1
799.85	28561.58
800.182	28487.91
800.513	28586.89
800.844	28296.05
801.175	28364.97
801.506	28238.65
801.837	28207.92
802.168	27940.58
802.499	27677.31
802.83	27695.16
803.161	27541.72
803.491	27631.66
803.822	27390.08
804.153	27294.49
804.483	27119.36
804.814	27053.82
805.145	27070.09
805.475	26980.15
805.805	26791.46
806.136	26909.19
806.466	26925.92
806.796	26652.7
807.126	26508.98
807.457	26406.16
807.787	26553.72
808.117	26369.32
808.447	26251.58
808.777	26272.15
809.107	26186.95
809.436	26001.65
809.766	26079.38
810.096	25935.89
810.426	25770.92
810.755	25900.86
811.085	25824.02
811.414	25784.7
811.744	25505.16
812.073	25626.52
812.403	25351.04
812.732	25328.22
813.061	25437.37
813.39	25227.88
813.719	25228.79
814.049	25349.01
814.378	25177.94
814.707	25068.79
815.036	24991.05
815.365	24935.46
815.693	24840.1
816.022	24962.13
816.351	24853.88
816.68	24634.9
817.008	24765.75
817.337	24518.07
817.665	24619.76
817.994	24644.85
818.322	24590.84
818.651	24354.91
818.979	24372.09
819.307	24451.41
819.636	24457.05
819.964	24257.74
820.292	24380.22
820.62	24285.31
820.948	24276.49
821.276	24429.03
821.604	24258.19
821.932	24366.89
822.259	24424.74
822.587	24212.09
822.915	24243.5
823.243	24396.72
823.57	24204.41
823.898	24283.73
824.225	24112.2
824.553	24159.89
824.88	24161.47
825.207	24351.29
825.535	24084.41
825.862	24197.4
826.189	24106.33
826.516	24175.03
826.843	24217.29
827.17	24129.15
827.497	24171.41
827.824	24007.12
828.151	24144.75
828.478	24032.89
828.805	24084.86
829.131	23951.53
829.458	23971.19
829.785	23823.62
830.111	23810.07
830.438	23984.52
830.764	23912.66
831.09	23883.74
831.417	23841.48
831.743	23741.59
832.069	23841.48
832.395	23623.86
832.722	23669.05
833.048	23681.48
833.374	23579.11
833.7	23472.22
834.026	23561.94
834.351	23576.63
834.677	23504.54
835.003	23591.77
835.329	23307.71
835.654	23356.97
835.98	23241.04
836.306	23369.63
836.631	23237.65
836.956	23430.87
837.282	23415.5
837.607	23210.53
837.932	23114.04
838.258	23030.43
838.583	22878.79
838.908	22844.44
839.233	22935.29
839.558	22958.34
839.883	22808.74
840.208	22688.29
840.533	22669.76
840.858	22713.37
841.182	22745.01
841.507	22663.66
841.832	22591.79
842.156	22496.2
842.481	22573.04
842.805	22474.73
843.13	22428.41
843.454	22457.33
843.778	22325.81
844.103	22305.47
844.427	22265.02
844.751	22266.15
845.075	22223.67
845.399	22051.92
845.723	22121.97
846.047	22100.96
846.371	21895.77
846.695	21946.16
847.019	21802.89
847.343	21721.31
847.666	21719.05
847.99	21461.65
848.313	21604.25
848.637	21443.8
848.96	21467.53
849.284	21320.41
849.607	21290.58
849.931	21117.71
850.254	21119.97
850.577	21012.85
850.9	20938.5
851.223	20833.87
851.546	20709.36
851.869	20588.91
852.192	20732.18
852.515	20637.04
852.838	20533.77
853.161	20643.82
853.483	20402.92
853.806	20424.39
854.129	20375.81
854.451	20329.93
854.774	20257.84
855.096	20227.79
855.419	20157.73
855.741	20057.4
856.063	19949.83
856.385	19893.78
856.708	19798.87
857.03	19755.94
857.352	19710.06
857.674	19622.83
857.996	19558.65
858.318	19491.54
858.64	19492.21
858.961	19409.96
859.283	19391.2
859.605	19181.04
859.926	19267.36
860.248	19254.48
860.57	19148.95
860.891	19086.57
861.212	19037.76
861.534	18947.14
861.855	18998.22
862.176	18976.97
862.498	18985.79
862.819	18937.65
863.14	18873.7
863.461	18811.78
863.782	18611.56
864.103	18716.41
864.424	18520.94
864.745	18558.45
865.065	18501.05
865.386	18446.37
865.707	18458.79
866.027	18363.88
866.348	18297.44
866.668	18357.78
866.989	18241.17
867.309	18158.92
867.63	18152.81
867.95	18090.89
868.27	17946.04
868.59	18017.45
868.91	17959.6
869.23	17967.28
869.55	17898.13
869.87	18101.74
870.19	17843.9
870.51	17852.26
870.83	17930.22
871.15	17761.41
871.469	17748.08
871.789	17766.61
872.109	17757.57
872.428	17653.39
872.748	17661.75
873.067	17675.31
873.386	17635.99
873.706	17592.15
874.025	17532.04
874.344	17505.37
874.663	17491.36
874.982	17484.58
875.301	17526.84
875.62	17409.1
875.939	17392.38
876.258	17464.47
876.577	17369.11
876.896	17476
877.214	17294.53
877.533	17358.94
877.852	17367.52
878.17	17337.69
878.489	17301.54
878.807	17302.67
879.125	17249.11
879.444	17296.11
879.762	17233.52
880.08	17193.74
880.398	17129.79
880.716	17130.92
881.034	17103.35
881.352	17128.21
881.67	17154.87
881.988	17114.65
882.306	17013.18
882.624	16969.12
882.941	16931.6
883.259	16953.3
883.577	16966.18
883.894	16904.94
884.212	16918.95
884.529	16815.22
884.846	16851.15
885.164	16775.45
885.481	16763.47
885.798	16798.5
886.115	16788.33
886.432	16791.49
886.75	16626.53
887.067	16672.4
887.383	16555.12
887.7	16682.57
888.017	16454.33
888.334	16625.4
888.651	16490.48
888.967	16431.28
889.284	16449.13
889.6	16446.64
889.917	16193.09
890.233	16373.65
890.55	16226.31
890.866	16316.03
891.182	16210.72
891.498	16151.06
891.815	15992.87
892.131	15948.35
892.447	16068.57
892.763	15933.44
893.079	15917.62
893.395	15885.75
893.71	15866.09
894.026	15858.41
894.342	15706.32
894.657	15595.14
894.973	15635.14
895.289	15576.38
895.604	15552.2
895.92	15403.06
896.235	15409.83
896.55	15476.73
896.865	15309.05
897.181	15166.23
897.496	15285.77
897.811	15035.61
898.126	15035.38
898.441	14939.11
898.756	14991.77
899.071	14825.67
899.386	14919.23
899.7	14735.28
900.015	14707.93
900.33	14631.32
900.644	14567.82
900.959	14637.43
901.273	14559.69
901.588	14323.54
901.902	14346.81
902.216	14359.69
902.531	14279.02
902.845	14265.68
903.159	14085.35
903.473	14088.29
903.787	14023.66
904.101	13961.29
904.415	13944.79
904.729	13810.78
905.042	13754.06
905.356	13778.69
905.67	13742.53
905.984	13639.03
906.297	13679.26
906.611	13534.4
906.924	13434.07
907.237	13501.64
907.551	13399.72
907.864	13363.79
908.177	13358.59
908.491	13270
908.804	13187.07
909.117	13155.2
909.43	12992.5
909.743	12999.28
910.056	12933.06
910.368	12869.34
910.681	12829.34
910.994	12795.44
911.307	12759.28
911.619	12588.67
911.932	12717.25
912.244	12640.87
912.557	12577.37
912.869	12507.99
913.181	12487.88
913.494	12503.47
913.806	12333.98
914.118	12383.47
914.43	12359.97
914.742	12372.4
915.054	12232.29
915.366	12134.89
915.678	12156.59
915.99	12167.43
916.302	12040.43
916.613	11941.68
916.925	11982.35
917.236	11986.42
917.548	11918.85
917.859	11903.26
918.171	11762.7
918.482	11733.32
918.794	11673.89
919.105	11790.04
919.416	11660.78
919.727	11639.99
920.038	11739.65
920.349	11594.57
920.66	11476.38
920.971	11459.66
921.282	11446.32
921.593	11385.08
921.903	11275.93
922.214	11223.28
922.525	11265.54
922.835	11221.24
923.146	11172.21
923.456	11183.73
923.767	11072.1
924.077	11042.72
924.387	11016.05
924.697	11005.88
925.008	10947.13
925.318	10934.7
925.628	10905.77
925.938	10863.29
926.248	10706.91
926.558	10761.82
926.867	10800.01
927.177	10649.96
927.487	10591.43
927.796	10532.45
928.106	10557.99
928.416	10457.2
928.725	10550.98
929.034	10442.51
929.344	10395.96
929.653	10375.84
929.962	10257.88
930.271	10209.97
930.581	10225.34
930.89	10127.49
931.199	10072.12
931.508	10079.13
931.817	9977.89
932.125	10016.98
932.434	9948.06
932.743	9870.32
933.051	9828.51
933.36	9774.05
933.669	9750.32
933.977	9746.26
934.286	9617.9
934.594	9715.07
934.902	9599.14
935.21	9540.61
935.519	9477.79
935.827	9474.4
936.135	9410.67
936.443	9300.84
936.751	9276.89
937.059	9255.19
937.367	9166.84
937.674	9152.6
937.982	9197.57
938.29	9096.55
938.597	9054.3
938.905	8946.28
939.213	8914.64
939.52	8948.99
939.827	8915.09
940.135	8856.79
940.442	8743.57
940.749	8756.9
941.056	8716
941.363	8581.54
941.67	8595.78
941.977	8602.33
942.284	8473.52
942.591	8472.62
942.898	8445.72
943.205	8458.38
943.511	8348.33
943.818	8343.81
944.125	8302
944.431	8280.98
944.738	8270.36
945.044	8200.76
945.35	8127.99
945.657	8082.12
945.963	8087.77
946.269	8027.43
946.575	7980.88
946.881	7967.77
947.187	7958.96
947.493	7902.69
947.799	7906.08
948.105	7821.56
948.41	7728
948.716	7729.36
949.022	7689.81
949.327	7711.28
949.633	7576.59
949.938	7568.01
950.244	7598.06
950.549	7462.7
950.854	7508.57
951.16	7387
951.465	7374.57
951.77	7368.01
952.075	7326.66
952.38	7285.53
952.685	7293.89
952.99	7249.37
953.294	7241.91
953.599	7178.41
953.904	7148.58
954.209	7070.17
954.513	7107.91
954.818	7002.82
955.122	7021.13
955.426	7054.8
955.731	7027.46
956.035	6940.91
956.339	6987.01
956.643	6974.12
956.948	6865.65
957.252	6831.08
957.556	6896.39
957.86	6855.94
958.163	6796.28
958.467	6711.76
958.771	6713.79
959.075	6691.87
959.378	6708.59
959.682	6652.1
959.985	6591.76
960.289	6522.61
960.592	6606
960.896	6563.51
961.199	6532.78
961.502	6514.02
961.805	6470.63
962.108	6497.75
962.411	6443.97
962.714	6390.19
963.017	6399
963.32	6350.19
963.623	6355.38
963.926	6322.62
964.228	6281.49
964.531	6321.94
964.833	6311.32
965.136	6221.15
965.438	6210.75
965.741	6134.15
966.043	6183.41
966.345	6107.25
966.648	6129.4
966.95	6075.62
967.252	6036.97
967.554	6046.69
967.856	6092.34
968.158	5916.07
968.46	6034.49
968.761	5921.5
969.063	5927.6
969.365	5900.03
969.666	5825.23
969.968	5798.11
970.269	5821.84
970.571	5813.25
970.872	5782.97
971.174	5718.79
971.475	5729.19
971.776	5637.66
972.077	5632.46
972.378	5662.29
972.679	5587.49
972.98	5615.74
973.281	5534.16
973.582	5536.87
973.883	5485.35
974.183	5453.49
974.484	5472.47
974.785	5454.62
975.085	5395.18
975.386	5412.81
975.686	5364.68
975.986	5320.38
976.287	5321.06
976.587	5245.81
976.887	5229.31
977.187	5172.59
977.487	5234.96
977.787	5142.99
978.087	5162.87
978.387	5124.23
978.687	5086.94
978.987	5087.85
979.286	5075.64
979.586	5033.16
979.885	5036.55
980.185	4989.77
980.484	4914.52
980.784	4975.53
981.083	4882.43
981.382	4893.95
981.682	4837.46
981.981	4847.4
982.28	4783.22
982.579	4720.17
982.878	4755.2
983.177	4653.51
983.475	4739.61
983.774	4725.6
984.073	4652.15
984.372	4647.63
984.67	4567.86
984.969	4566.28
985.267	4536.9
985.566	4493.06
985.864	4480.18
986.162	4494.87
986.461	4407.86
986.759	4410.35
987.057	4381.65
987.355	4376.45
987.653	4389.33
987.951	4354.08
988.249	4301.65
988.547	4338.26
988.844	4298.71
989.142	4298.49
989.44	4230.92
989.737	4220.07
990.035	4143.69
990.332	4174.2
990.63	4169.45
990.927	4115.44
991.224	4130.58
991.521	4092.62
991.819	4064.6
992.116	4049.91
992.413	4053.52
992.71	3997.71
993.006	3990.25
993.303	3987.99
993.6	3925.62
993.897	3962.68
994.193	3959.51
994.49	3894.21
994.787	3869.12
995.083	3830.93
995.379	3815.34
995.676	3808.78
995.972	3792.74
996.268	3787.54
996.565	3770.14
996.861	3756.58
997.157	3736.92
997.453	3671.61
997.749	3702.8
998.044	3625.29
998.34	3653.99
998.636	3625.51
998.932	3625.06
999.227	3600.88
999.523	3625.74
999.818	3543.48
1000.114	3559.98
1000.409	3523.14
1000.704	3520.43
1001	3501.67
1001.295	3485.18
1001.59	3499.41
1001.885	3416.7
1002.18	3434.78
1002.475	3370.6
1002.77	3398.63
1003.065	3324.95
1003.359	3369.47
1003.654	3347.33
1003.949	3312.53
1004.243	3310.27
1004.538	3253.77
1004.832	3242.02
1005.127	3242.02
1005.421	3203.83
1005.715	3200.66
1006.009	3206.99
1006.304	3174.9
1006.598	3174
1006.892	3149.82
1007.186	3136.71
1007.48	3119.99
1007.773	3103.27
1008.067	3047.45
1008.361	3044.06
1008.655	2980.11
1008.948	3046.77
1009.242	3020.1
1009.535	3023.72
1009.829	2961.57
1010.122	2938.52
1010.415	2985.08
1010.708	2932.42
1011.001	2920.22
1011.295	2882.25
1011.588	2854.23
1011.881	2870.73
1012.173	2840
1012.466	2846.78
1012.759	2825.31
1013.052	2799.55
1013.344	2790.28
1013.637	2768.13
1013.93	2736.95
1014.222	2693.33
1014.514	2708.93
1014.807	2704.63
1015.099	2680.9
1015.391	2659.21
1015.683	2627.35
1015.976	2609.95
1016.268	2563.85
1016.56	2570.17
1016.851	2567.46
1017.143	2540.79
1017.435	2554.81
1017.727	2524.98
1018.018	2500.34
1018.31	2467.12
1018.602	2478.42
1018.893	2477.97
1019.185	2431.87
1019.476	2363.17
1019.767	2427.58
1020.058	2391.19
1020.35	2355.04
1020.641	2352.33
1020.932	2312.33
1021.223	2319.33
1021.514	2293.57
1021.804	2268.49
1022.095	2250.86
1022.386	2253.12
1022.677	2222.84
1022.967	2240.24
1023.258	2198.88
1023.548	2189.39
1023.839	2179.9
1024.129	2169.96
1024.419	2150.3
1024.709	2086.34
1025	2133.8
1025.29	2086.57
1025.58	2056.97
1025.87	2073.24
1026.16	2040.47
1026.449	2011.77
1026.739	2017.19
1027.029	1995.72
1027.319	1988.94
1027.608	1926.8
1027.898	1932.22
1028.187	1920.92
1028.477	1905.78
1028.766	1918.89
1029.055	1850.87
1029.344	1872.79
1029.634	1845.9
1029.923	1840.02
1030.212	1849.74
1030.501	1828.27
1030.79	1798.67
1031.078	1790.76
1031.367	1750.53
1031.656	1750.53
1031.945	1726.58
1032.233	1726.58
1032.522	1731.1
1032.81	1692.68
1033.099	1678.22
1033.387	1695.39
1033.675	1678.9
1033.963	1633.93
1034.251	1625.56
1034.54	1645.9
1034.828	1615.62
1035.116	1571.78
1035.403	1581.95
1035.691	1589.63
1035.979	1565
1036.267	1544.44
1036.554	1544.44
1036.842	1524.1
1037.129	1500.37
1037.417	1495.4
1037.704	1499.69
1037.992	1489.07
1038.279	1471.67
1038.566	1465.34
1038.853	1465.34
1039.14	1465.34
