Data from aluminium_macbook_case_FLMS001491_098.txt Node
Date: Tue Feb 07 10:44:28 GMT 2017
User: dcchb
Spectrometer: FLMS00149
Trigger mode: 0
Integration Time (sec): 2.000000E-2
Scans to average: 10
Electric dark correction enabled: true
Nonlinearity correction enabled: false
Boxcar width: 0
XAxis mode: Wavelengths
Number of Pixels in Spectrum: 2048
>>>>>Begin Spectral Data<<<<<
341.393	-14.15
341.776	-14.15
342.16	-14.15
342.543	-53.7
342.927	-49.86
343.31	-64.09
343.693	-79.69
344.077	-50.76
344.46	-42.85
344.843	-55.06
345.226	-36.98
345.61	-24.1
345.993	-3.76
346.376	-5.34
346.759	15.23
347.142	23.13
347.525	16.81
347.908	48.67
348.291	71.5
348.674	87.31
349.057	99.97
349.44	130.93
349.823	151.95
350.206	181.32
350.588	231.94
350.971	260.64
351.354	289.79
351.737	299.96
352.119	328.44
352.502	310.13
352.884	343.13
353.267	349.23
353.65	336.12
354.032	361.43
354.414	356.91
354.797	364.82
355.179	350.36
355.562	384.93
355.944	376.57
356.326	400.07
356.709	403.69
357.091	400.07
357.473	411.15
357.855	412.05
358.238	405.05
358.62	424.48
359.002	427.87
359.384	421.99
359.766	417.7
360.148	415.22
360.53	405.5
360.912	389.68
361.294	424.71
361.676	406.4
362.057	428.77
362.439	437.81
362.821	420.41
363.203	415.67
363.584	411.15
363.966	413.63
364.348	433.52
364.729	426.29
365.111	442.78
365.493	431.71
365.874	444.14
366.256	434.2
366.637	410.47
367.019	427.87
367.4	447.08
367.781	435.1
368.163	455.67
368.544	439.85
368.925	436.91
369.306	417.7
369.688	433.07
370.069	439.4
370.45	433.29
370.831	454.31
371.212	459.28
371.593	480.07
371.974	466.51
372.355	443.46
372.736	470.35
373.117	478.04
373.498	478.49
373.879	469.68
374.26	493.86
374.641	443.01
375.021	458.38
375.402	468.32
375.783	489.79
376.163	530.47
376.544	530.92
376.925	497.7
377.305	471.94
377.686	527.08
378.066	490.92
378.447	506.51
378.827	544.93
379.208	525.27
379.588	529.79
379.968	528.66
380.349	537.47
380.729	536.12
381.109	553.97
381.489	567.53
381.87	568.43
382.25	564.82
382.63	574.98
383.01	590.13
383.39	584.02
383.77	580.63
384.15	593.74
384.53	625.38
384.91	625.83
385.29	621.76
385.67	632.61
386.049	629.9
386.429	638.26
386.809	660.63
387.189	680.97
387.568	668.09
387.948	666.96
388.328	685.26
388.707	675.32
389.087	711.48
389.466	716.45
389.846	697.24
390.225	754.64
390.605	744.02
390.984	761.87
391.363	720.97
391.743	749.22
392.122	775.43
392.501	773.4
392.881	783.57
393.26	790.12
393.639	808.65
394.018	794.64
394.397	795.09
394.776	835.99
395.155	860.63
395.534	856.11
395.913	847.07
396.292	881.87
396.671	868.99
397.05	873.28
397.429	884.36
397.808	904.92
398.186	906.95
398.565	932.26
398.944	915.31
399.323	955.09
399.701	947.63
400.08	927.74
400.458	970
400.837	984.01
401.215	969.55
401.594	980.17
401.972	1012.94
402.351	1018.14
402.729	1040.06
403.107	1027.63
403.486	1053.62
403.864	1072.15
404.242	1077.34
404.62	1095.2
404.999	1110.79
405.377	1137.23
405.755	1143.33
406.133	1156.89
406.511	1173.61
406.889	1184.23
407.267	1220.84
407.645	1220.62
408.023	1239.37
408.401	1247.28
408.779	1257
409.156	1304.23
409.534	1291.58
409.912	1316.89
410.29	1379.94
410.667	1377.45
411.045	1394.17
411.422	1405.02
411.8	1433.04
412.178	1434.17
412.555	1481.63
412.933	1494.28
413.31	1509.42
413.687	1542.42
414.065	1540.61
414.442	1542.64
414.819	1583.09
415.197	1618.35
415.574	1627.39
415.951	1653.83
416.328	1654.28
416.705	1690.21
417.082	1696.09
417.46	1698.35
417.837	1715.75
418.214	1752.58
418.591	1767.5
418.967	1784.9
419.344	1789.87
419.721	1856.99
420.098	1855.86
420.475	1849.3
420.852	1907.61
421.228	1902.63
421.605	1947.38
421.982	1969.52
422.358	1976.76
422.735	2008.39
423.111	2013.59
423.488	2053.82
423.864	2078.9
424.241	2092.01
424.617	2129.07
424.994	2140.59
425.37	2153.02
425.746	2201.83
426.123	2228.05
426.499	2208.84
426.875	2255.84
427.251	2348.05
427.627	2350.53
428.003	2371.1
428.379	2391.43
428.756	2447.7
429.132	2459.23
429.507	2510.53
429.883	2542.84
430.259	2592.11
430.635	2606.12
431.011	2630.52
431.387	2713.91
431.763	2746.45
432.138	2768.37
432.514	2799.79
432.89	2830.07
433.265	2904.64
433.641	2940.57
434.016	2927.47
434.392	3010.4
434.767	3060.12
435.143	3058.76
435.518	3101.7
435.894	3164.52
436.269	3178.31
436.644	3191.41
437.02	3281.81
437.395	3288.59
437.77	3319.09
438.145	3364.29
438.52	3393.44
438.895	3481.8
439.271	3443.61
439.646	3579.88
440.021	3557.73
440.395	3618.97
440.77	3598.18
441.145	3679.08
441.52	3717.28
441.895	3706.43
442.27	3788.69
442.645	3741.91
443.019	3846.54
443.394	3809.02
443.769	3899.64
444.143	3849.48
444.518	3931.51
444.892	3927.89
445.267	3992.97
445.641	4053.31
446.016	4051.73
446.39	4072.97
446.764	4132.41
447.139	4124.27
447.513	4167.88
447.887	4232.52
448.262	4230.03
448.636	4244.94
449.01	4324.72
449.384	4363.13
449.758	4399.74
450.132	4430.48
450.506	4503.24
450.88	4510.02
451.254	4556.35
451.628	4616.91
452.002	4682.9
452.376	4694.88
452.75	4777.36
453.123	4838.15
453.497	4857.58
453.871	4923.12
454.244	4994.3
454.618	5003.79
454.992	5119.5
455.365	5146.39
455.739	5263.22
456.112	5307.74
456.486	5355.88
456.859	5436.1
457.232	5529.88
457.606	5520.62
457.979	5630.45
458.352	5696.66
458.725	5804.23
459.099	5840.84
459.472	6015.07
459.845	6020.94
460.218	6086.93
460.591	6125.35
460.964	6213.25
461.337	6314.27
461.71	6462.74
462.083	6523.08
462.456	6505.45
462.829	6555.62
463.201	6699.8
463.574	6766.69
463.947	6866.8
464.32	6980.01
464.692	7056.85
465.065	7149.05
465.438	7210.97
465.81	7351.08
466.183	7466.1
466.555	7608.47
466.928	7594.24
467.3	7654.8
467.672	7852.76
468.045	7981.57
468.417	8036.71
468.789	8121.45
469.161	8258.62
469.534	8304.05
469.906	8578.62
470.278	8626.07
470.65	8727.09
471.022	8885.95
471.394	9008.66
471.766	9146.51
472.138	9190.58
472.51	9439.84
472.882	9623.33
473.253	9685.93
473.625	9850.22
473.997	9979.94
474.369	10114.4
474.74	10284.79
475.112	10433.71
475.484	10616.08
475.855	10840.7
476.227	10926.8
476.598	11267.59
476.97	11303.97
477.341	11603.4
477.713	11722.49
478.084	11917.29
478.455	12277.28
478.827	12300.33
479.198	12745.51
479.569	12750.71
479.94	13148.67
480.311	13203.35
480.682	13513.85
481.053	13759.72
481.424	14017.34
481.795	14183.21
482.166	14339.14
482.537	14608.97
482.908	14917.88
483.279	15031.1
483.65	15273.81
484.021	15701.37
484.391	15790.4
484.762	15988.59
485.133	16100.9
485.503	16360.33
485.874	16825.63
486.244	17058.17
486.615	17302.23
486.985	17482.34
487.356	17886.39
487.726	18006.16
488.097	18379.71
488.467	18485.93
488.837	18847.72
489.207	19122.29
489.578	19397.09
489.948	19509.18
490.318	19941.71
490.688	19848.15
491.058	20167.01
491.428	20498.08
491.798	20692.87
492.168	20990.49
492.538	21199.53
492.908	21362.46
493.278	21676.8
493.648	21561.55
494.017	22030.69
494.387	22177.58
494.757	22393.62
495.126	22718.58
495.496	22862.08
495.866	22911.35
496.235	23145.46
496.605	23483.54
496.974	23706.13
497.344	23766.24
497.713	24026.57
498.082	24309.28
498.452	24526.9
498.821	24622.71
499.19	24743.61
499.559	25061.12
499.928	25288.46
500.298	25433.54
500.667	25539.3
501.036	25631.73
501.405	25798.5
501.774	25976.8
502.143	26211.15
502.512	26290.47
502.88	26620.4
503.249	26626.73
503.618	26752.15
503.987	26859.27
504.356	27159.82
504.724	27330.89
505.093	27360.5
505.462	27505.12
505.83	27768.62
506.199	28011.78
506.567	28458.09
506.936	28444.53
507.304	28684.98
507.672	29005.42
508.041	29040.68
508.409	29383.04
508.777	29570.38
509.145	29979.64
509.514	29910.48
509.882	30280.87
510.25	30364.94
510.618	30667.53
510.986	30736.45
511.354	31095.54
511.722	31237
512.09	31612.13
512.458	31690.32
512.826	31847.16
513.193	32012.35
513.561	32205.79
513.929	32478.55
514.297	32714.7
514.664	32885.77
515.032	33036.28
515.4	33302.49
515.767	33452.31
516.135	33738.86
516.502	33474.68
516.869	34192.63
517.237	34344.72
517.604	34389.69
517.972	34655.44
518.339	34990.13
518.706	35057.24
519.073	35356.9
519.44	35693.38
519.808	36096.31
520.175	36102.41
520.542	36560.93
520.909	36840.25
521.276	36961.15
521.643	37389.16
522.009	37579.66
522.376	37934.45
522.743	38140.32
523.11	38546.87
523.477	38910.02
523.843	39224.14
524.21	39524.24
524.577	39594.07
524.943	39888.75
525.31	39981.63
525.676	40512.24
526.043	40743.42
526.409	40846.02
526.776	41252.33
527.142	41377.53
527.508	41688.48
527.874	41947.46
528.241	42188.58
528.607	42318.75
528.973	42604.16
529.339	42636.7
529.705	43147.65
530.071	43370.24
530.437	43518.71
530.803	43773.85
531.169	44199.6
531.535	44212.93
531.901	44470.78
532.267	44652.24
532.632	44838.91
532.998	45000.71
533.364	45329.06
533.73	45517.31
534.095	45868.71
534.461	46108.02
534.826	46171.3
535.192	46370.39
535.557	46716.6
535.923	46703.04
536.288	46787.33
536.653	47079.75
537.019	46998.17
537.384	47232.52
537.749	47381.89
538.114	47569.46
538.479	47652.84
538.845	47870.69
539.21	47786.85
539.575	48085.15
539.94	47991.14
540.305	48278.82
540.67	48229.33
541.034	48536.44
541.399	48668.41
541.764	48735.53
542.129	48993.82
542.494	49002.41
542.858	49111.56
543.223	49246.7
543.587	49514.04
543.952	49509.07
544.316	49680.36
544.681	49710.19
545.045	49849.62
545.41	50048.49
545.774	50102.5
546.138	50152.89
546.503	50231.08
546.867	50312.66
547.231	50689.37
547.595	50781.35
547.959	50911.06
548.324	50948.58
548.688	51144.05
549.052	51232.41
549.416	51308.57
549.779	51432.4
550.143	51449.13
550.507	51793.07
550.871	51860.87
551.235	51798.27
551.599	52213.85
551.962	52114.65
552.326	52184.7
552.689	52429.89
553.053	52348.76
553.417	52452.72
553.78	52777
554.143	52673.5
554.507	52842.09
554.87	52953.72
555.234	53218.12
555.597	53114.85
555.96	53261.51
556.323	53466.48
556.686	53469.19
557.05	53651.1
557.413	53758.9
557.776	53865.79
558.139	54034.14
558.502	54148.27
558.865	54246.34
559.228	54451.76
559.59	54525.66
559.953	54537.18
560.316	54851.07
560.679	54855.59
561.041	55137.17
561.404	55198.18
561.767	55422.81
562.129	55318.63
562.492	55644.05
562.854	55635.68
563.217	55669.58
563.579	55809.92
563.941	55972.4
564.304	56111.38
564.666	56267.53
565.028	56313.18
565.39	56376
565.753	56502.33
566.115	56608.54
566.477	56770.8
566.839	56846.5
567.201	57004.24
567.563	56974.41
567.925	57129.2
568.287	57173.5
568.648	57269.99
569.01	57430.67
569.372	57543.43
569.734	57495.07
570.095	57648.06
570.457	57686.48
570.819	57804.67
571.18	57767.83
571.542	57915.85
571.903	57988.62
572.265	58087.37
572.626	58193.13
572.987	58246.69
573.349	58284.88
573.71	58352.67
574.071	58462.95
574.432	58433.58
574.794	58728.26
575.155	58710.63
575.516	58609.39
575.877	58733.68
576.238	58710.18
576.599	58847.8
576.96	58881.25
577.32	58891.87
577.681	59005.99
578.042	59029.49
578.403	59048.7
578.763	59102.26
579.124	59155.59
579.485	59246.66
579.845	59292.99
580.206	59260.45
580.566	59271.97
580.927	59303.38
581.287	59414.12
581.648	59291.63
582.008	59453.21
582.368	59352.65
582.728	59372.99
583.089	59460.22
583.449	59429.03
583.809	59429.03
584.169	59459.76
584.529	59428.35
584.889	59563.94
585.249	59404.17
585.609	59410.95
585.969	59555.58
586.329	59493.21
586.688	59525.75
587.048	59469.26
587.408	59461.12
587.768	59521.68
588.127	59492.31
588.487	59487.79
588.846	59573.21
589.206	59391.52
589.565	59417.96
589.925	59535.47
590.284	59508.58
590.643	59541.12
591.003	59591.96
591.362	59619.31
591.721	59557.39
592.08	59545.19
592.44	59617.73
592.799	59639.87
593.158	59657.73
593.517	59613.21
593.876	59674.67
594.235	59585.41
594.593	59687.1
594.952	59707.44
595.311	59581.34
595.67	59631.96
596.029	59795.57
596.387	59849.81
596.746	59762.58
597.104	59659.08
597.463	59680.55
597.822	59809.81
598.18	59688.91
598.538	59652.53
598.897	59878.74
599.255	59633.32
599.613	60020.2
599.972	59827.89
600.33	59883.93
600.688	59718.97
601.046	59872.41
601.404	59981.33
601.762	59928.9
602.12	60057.71
602.478	60078.28
602.836	60047.09
603.194	59947.44
603.552	60001.67
603.91	60012.07
604.268	60116.47
604.625	59939.75
604.983	60100.65
605.341	59995.12
605.698	60070.14
606.056	60176.58
606.413	60120.09
606.771	60217.03
607.128	60205.96
607.485	60109.46
607.843	60133.87
608.2	60277.14
608.557	60301.1
608.914	60267.65
609.272	60354.43
609.629	60348.55
609.986	60416.58
610.343	60388.33
610.7	60527.53
611.057	60559.4
611.414	60477.82
611.771	60461.55
612.127	60586.51
612.484	60603.24
612.841	60680.98
613.198	60622.9
613.554	60614.76
613.911	60704.48
614.267	60739.05
614.624	60609.56
614.98	60700.86
615.337	60807.3
615.693	60739.73
616.05	60667.19
616.406	60913.29
616.762	60822.44
617.118	60785.83
617.475	60902.89
617.831	60920.74
618.187	60925.94
618.543	60994.64
618.899	61043
619.255	60983.34
619.611	61016.79
619.967	61080.06
620.323	61100.17
620.678	61040.06
621.034	60900.86
621.39	60961.87
621.746	60916
622.101	61115.31
622.457	60943.34
622.812	60999.61
623.168	61024.47
623.523	60966.17
623.879	61094.75
624.234	60888.2
624.589	61026.73
624.945	61060.4
625.3	61007.75
625.655	60964.13
626.01	61023.11
626.365	61011.36
626.72	60902.21
627.075	60935.88
627.43	60952.15
627.785	60835.1
628.14	60918.03
628.495	60908.99
628.85	60938.37
629.205	60803.01
629.559	60886.39
629.914	60760.3
630.269	60813.4
630.623	60793.97
630.978	60759.62
631.332	60843.91
631.687	60848.43
632.041	60698.83
632.396	60767.3
632.75	60664.7
633.104	60694.76
633.459	60541.54
633.813	60552.84
634.167	60619.06
634.521	60505.16
634.875	60583.35
635.229	60560.75
635.583	60473.75
635.937	60491.38
636.291	60443.92
636.645	60457.03
636.999	60341.77
637.352	60407.99
637.706	60303.58
638.06	60339.74
638.413	60376.58
638.767	60244.6
639.121	60259.52
639.474	60100.43
639.828	60113.53
640.181	60115.79
640.534	60052.97
640.888	59963.71
641.241	59857.72
641.594	59890.26
641.947	59947.66
642.301	59895.23
642.654	59896.14
643.007	59825.4
643.36	59775.91
643.713	59767.78
644.066	59842.35
644.419	59651.85
644.771	59507.67
645.124	59290.05
645.477	59264.74
645.83	59063.62
646.182	58972.77
646.535	58882.83
646.888	58927.12
647.24	58719.9
647.593	58863.62
647.945	58795.37
648.298	58628.15
648.65	58619.79
649.002	58501.15
649.355	58748.37
649.707	58639.22
650.059	58662.05
650.411	58962.15
650.763	59020.68
651.115	59206.66
651.467	59158.3
651.819	59134.12
652.171	59099.32
652.523	59107.46
652.875	59027.69
653.227	58911.3
653.578	59046.44
653.93	58959.44
654.282	58869.5
654.633	58810.29
654.985	58916.73
655.337	58851.19
655.688	58911.3
656.039	58927.8
656.391	58710.18
656.742	58775.94
657.094	58780.91
657.445	58879.89
657.796	58818.43
658.147	58712.21
658.498	58766.45
658.849	58813.45
659.2	58652.1
659.551	58566.68
659.902	58722.38
660.253	58631.09
660.604	58586.34
660.955	58431.99
661.306	58509.73
661.656	58464.54
662.007	58508.15
662.358	58438.55
662.708	58437.64
663.059	58429.51
663.409	58222.06
663.76	58382.05
664.11	58404.88
664.461	58323.75
664.811	58306.35
665.161	58333.24
665.511	58239.01
665.862	58288.72
666.212	58357.87
666.562	58326.69
666.912	58177.99
667.262	58212.34
667.612	58199.46
667.962	58206.24
668.312	58221.6
668.662	58252.79
669.011	58166.92
669.361	58092.34
669.711	58119.91
670.06	58058.9
670.41	58023.19
670.76	57971.44
671.109	58047.37
671.459	58003.98
671.808	58003.76
672.157	57978.67
672.507	57819.81
672.856	57847.83
673.205	57900.26
673.554	57860.71
673.904	57828.39
674.253	57947.04
674.602	57903.65
674.951	57547.05
675.3	57380.04
675.649	57825.23
675.998	57785.91
676.346	57802.41
676.695	57863.42
677.044	57634.73
677.393	57710.66
677.741	57770.32
678.09	57661.85
678.438	57659.36
678.787	57637.67
679.135	57654.39
679.484	57389.54
679.832	57538.46
680.181	57366.03
680.529	57444
680.877	57373.27
681.225	57366.94
681.573	57468.4
681.922	57258.47
682.27	57128.07
682.618	57215.53
682.966	57112.93
683.314	57064.57
683.661	57078.13
684.009	56853.05
684.357	56795.2
684.705	56754.98
685.053	56714.98
685.4	56789.1
685.748	56612.83
686.095	56611.25
686.443	56436.34
686.79	56388.43
687.138	56452.39
687.485	56448.54
687.832	56264.82
688.18	56359.05
688.527	56228.89
688.874	56133.75
689.221	56022.11
689.568	55998.16
689.915	55929.69
690.262	55915.68
690.609	55835.45
690.956	55705.06
691.303	55748.22
691.65	55528.12
691.997	55535.35
692.344	55375.8
692.69	55476.82
693.037	55421.68
693.383	55158.18
693.73	55242.25
694.077	55056.94
694.423	55121.57
694.769	55079.54
695.116	55003.38
695.462	54943.5
695.808	54867.12
696.155	54967.23
696.501	54676.16
696.847	54634.81
697.193	54485.66
697.539	54549.38
697.885	54345.55
698.231	54365.66
698.577	54305.55
698.923	54169.28
699.269	53988.72
699.614	53772.46
699.96	53835.51
700.306	53850.65
700.651	53714.6
700.997	53586.7
701.342	53577.89
701.688	53514.61
702.033	53397.1
702.379	53372.69
702.724	53310.1
703.069	53301.73
703.415	52938.35
703.76	52892.25
704.105	52931.8
704.45	52858.81
704.795	52673.28
705.14	52454.98
705.485	52499.04
705.83	52406.16
706.175	52376.79
706.52	52263.57
706.865	52100.41
707.209	52030.13
707.554	51794.2
707.899	51863.35
708.243	51752.4
708.588	51701.55
708.932	51423.14
709.277	51424.04
709.621	51404.61
709.966	51143.6
710.31	51277.15
710.654	51043.71
710.998	51070.38
711.342	50982.93
711.687	50938.63
712.031	50671.29
712.375	50651.63
712.719	50758.98
713.063	50586.33
713.407	50775.7
713.75	50496.84
714.094	50523.95
714.438	50282.83
714.782	50448.93
715.125	50180.69
715.469	50227.69
715.812	49995.38
716.156	49894.37
716.499	50025.89
716.843	49922.61
717.186	49700.47
717.53	49826.35
717.873	49807.14
718.216	49664.09
718.559	49479.91
718.902	49347.04
719.246	49476.52
719.589	49346.13
719.932	49284.66
720.275	49203.99
720.617	49068.17
720.96	48941.4
721.303	49070.88
721.646	48986.82
721.989	48798.58
722.331	48911.34
722.674	48712.7
723.016	48751.35
723.359	48657.56
723.701	48643.1
724.044	48296.89
724.386	48236.1
724.729	48402.43
725.071	48212.38
725.413	48158.59
725.755	48100.29
726.097	47958.37
726.439	47729
726.782	47689.23
727.124	47925.15
727.465	47604.26
727.807	47527.42
728.149	47464.15
728.491	47314.77
728.833	47401.55
729.175	47175.34
729.516	46966.08
729.858	46898.74
730.199	46968.57
730.541	46933.77
730.882	46800.44
731.224	46891.06
731.565	46495.81
731.906	46587.56
732.248	46602.93
732.589	46247.46
732.93	46151.41
733.271	46303.27
733.612	46369.94
733.953	46379.2
734.294	45957.07
734.635	45891.53
734.976	45954.13
735.317	45629.62
735.658	45736.28
735.999	45666.91
736.339	45517.31
736.68	45738.54
737.021	45478.44
737.361	45371.77
737.702	45537.19
738.042	45320.25
738.383	45331.1
738.723	45343.75
739.063	45115.28
739.404	45169.07
739.744	45053.59
740.084	44934.27
740.424	44913.71
740.764	44967.94
741.104	45017.66
741.444	44706.25
741.784	44677.33
742.124	44589.87
742.464	44627.39
742.804	44513.04
743.143	44471.91
743.483	44507.16
743.823	44160.51
744.162	44190.56
744.502	44280.95
744.841	44097.46
745.181	44195.31
745.52	43939.72
745.86	44112.82
746.199	43967.29
746.538	43814.75
746.877	43969.32
747.216	43851.59
747.556	43843.23
747.895	43711.93
748.234	43493.86
748.573	43464.03
748.911	43411.82
749.25	43302.45
749.589	43019.29
749.928	43166.18
750.267	43048.67
750.605	42950.82
750.944	42742.92
751.283	42676.02
751.621	42769.36
751.96	42472.41
752.298	42376.15
752.636	42443.49
752.975	42199.2
753.313	41824.07
753.651	42021.35
753.989	41803.96
754.327	41828.36
754.666	41568.26
755.004	41557.41
755.342	41585.66
755.679	41370.52
756.017	41040.36
756.355	41185.89
756.693	40848.5
757.031	41083.75
757.368	40671.78
757.706	40670.43
758.044	40561.5
758.381	40601.73
758.719	40326.93
759.056	40234.73
759.394	40195.41
759.731	39786.38
760.068	39786.61
760.405	39616.9
760.743	39536.45
761.08	39559.27
761.417	39350.69
761.754	39284.25
762.091	39244.02
762.428	39115.67
762.765	38846.97
763.102	38992.28
763.438	38698.28
763.775	38634.78
764.112	38621.89
764.449	38592.06
764.785	38364.5
765.122	38226.88
765.458	37996.6
765.795	37933.1
766.131	37893.78
766.467	37697.62
766.804	37574.69
767.14	37652.43
767.476	37398.2
767.812	37236.62
768.148	37419.67
768.485	37040.92
768.821	36927.02
769.157	36875.05
769.492	36938.1
769.828	36836.18
770.164	36382.63
770.5	36474.15
770.836	36424.21
771.171	36164.78
771.507	36053.6
771.842	35718.47
772.178	35821.97
772.513	35667.4
772.849	35581.75
773.184	35292.94
773.519	35400.28
773.855	35197.13
774.19	35089.78
774.525	35041.88
774.86	35118.48
775.195	34944.7
775.53	34680.3
775.865	34499.74
776.2	34311.5
776.535	34193.99
776.87	33962.81
777.205	33857.27
777.539	33749.93
777.874	33852.53
778.209	33459.32
778.543	33317.63
778.878	33148.82
779.212	33067.01
779.547	32881.71
779.881	32860.46
780.215	32667.93
780.55	32791.76
780.884	32437.65
781.218	32431.77
781.552	32244.43
781.886	32113.59
782.22	31863.65
782.554	31636.32
782.888	31441.52
783.222	31407.17
783.556	31240.85
783.889	31263.44
784.223	30886.5
784.557	30829.56
784.89	30915.66
785.224	30628.43
785.557	30453.3
785.891	30365.16
786.224	30228.44
786.558	30065.73
786.891	29886.98
787.224	29926.53
787.557	29828.9
787.891	29837.94
788.224	29675.91
788.557	29676.37
788.89	29549.59
789.223	29433.89
789.556	29293.78
789.888	29275.02
790.221	29264.4
790.554	28931.75
790.887	28909.61
791.219	28894.69
791.552	28753.68
791.884	28739.67
792.217	28610.63
792.549	28460.35
792.882	28364.31
793.214	28092.45
793.546	28260.13
793.879	28117.99
794.211	27855.62
794.543	28159.34
794.875	27829.86
795.207	28015.85
795.539	27835.96
795.871	27746.47
796.203	27560.49
796.535	27446.82
796.867	27311.68
797.198	27290.89
797.53	27249.09
797.862	27093.16
798.193	27181.97
798.525	26867.17
798.856	26955.76
799.188	26775.43
799.519	26640.06
799.85	26432.38
800.182	26432.61
800.513	26497.24
800.844	26273.74
801.175	26327.98
801.506	26375.44
801.837	26121.43
802.168	26110.81
802.499	26087.31
802.83	25998.72
803.161	25776.36
803.491	25743.36
803.822	25846.64
804.153	25530.26
804.483	25316.26
804.814	25329.81
805.145	25238.97
805.475	25210.72
805.805	24972.99
806.136	24995.59
806.466	25102.02
806.796	24964.63
807.126	24721.24
807.457	24650.96
807.787	24606.9
808.117	24497.07
808.447	24434.02
808.777	24513.56
809.107	24331.65
809.436	24172.78
809.766	24133.46
810.096	23959
810.426	23968.27
810.755	23962.84
811.085	23776.86
811.414	23750.19
811.744	23489.64
812.073	23488.05
812.403	23539.13
812.732	23387.27
813.061	23354.72
813.39	23121.96
813.719	23151.34
814.049	23168.97
814.378	23181.85
814.707	23055.75
815.036	22972.36
815.365	22862.31
815.693	22630
816.022	22722.88
816.351	22654.4
816.68	22554.07
817.008	22582.54
817.337	22481.08
817.665	22376.22
817.994	22420.51
818.322	22406.28
818.651	22303
818.979	22233.62
819.307	22363.79
819.636	22191.14
819.964	22096
820.292	22157.69
820.62	22161.31
820.948	22138.26
821.276	22153.17
821.604	22188.2
821.932	22243.79
822.259	22254.87
822.587	22095.77
822.915	22079.5
823.243	22164.47
823.57	22011.71
823.898	22225.04
824.225	22109.11
824.553	22065.72
824.88	22101.42
825.207	22186.39
825.535	22088.77
825.862	22228.65
826.189	22167.86
826.516	22333.96
826.843	22251.48
827.17	22230.69
827.497	22217.35
827.824	22212.83
828.151	22312.04
828.478	22244.02
828.805	22297.13
829.131	22110.46
829.458	22177.13
829.785	22041.77
830.111	22075.66
830.438	22201.99
830.764	22178.48
831.09	22026.17
831.417	22109.11
831.743	22152.04
832.069	22179.16
832.395	22144.59
832.722	22172.16
833.048	22001.09
833.374	22086.74
833.7	21813.97
834.026	21912.5
834.351	21904.59
834.677	21941.2
835.003	21933.75
835.329	21812.84
835.654	21852.62
835.98	21637.71
836.306	21726.07
836.631	21589.57
836.956	21676.8
837.282	21597.26
837.607	21505.96
837.932	21401.78
838.258	21497.15
838.583	21432.97
838.908	21350.71
839.233	21250.83
839.558	21291.95
839.883	21225.52
840.208	21081.56
840.533	20983.49
840.858	21063.26
841.182	20933.77
841.507	20977.61
841.832	20937.16
842.156	20903.49
842.481	20834.79
842.805	20825.3
843.13	20716.83
843.454	20574.01
843.778	20575.81
844.103	20513.67
844.427	20445.2
844.751	20452.43
845.075	20422.37
845.399	20375.37
845.723	20210.85
846.047	20246.78
846.371	20160.01
846.695	20212.89
847.019	19922.72
847.343	19793.24
847.666	19822.61
847.99	19678.66
848.313	19682.73
848.637	19630.3
848.96	19558.44
849.284	19521.83
849.607	19355.06
849.931	19356.64
850.254	19319.35
850.577	19222.18
850.9	19087.04
851.223	19029.87
851.546	18966.37
851.869	18818.12
852.192	18957.33
852.515	18727.5
852.838	18693.6
853.161	18614.51
853.483	18649.76
853.806	18525.93
854.129	18520.73
854.451	18470.79
854.774	18428.3
855.096	18332.71
855.419	18335.2
855.741	18150.34
856.063	18143.79
856.385	18174.97
856.708	18111.25
857.03	18093.85
857.352	18098.14
857.674	17961.19
857.996	17994.87
858.318	17875.55
858.64	17957.13
858.961	17854.98
859.283	17826.73
859.605	17701.54
859.926	17783.8
860.248	17672.16
860.57	17669.68
860.891	17653.41
861.212	17690.69
861.534	17556.23
861.855	17472.17
862.176	17573.86
862.498	17527.76
862.819	17491.6
863.14	17394.43
863.461	17367.54
863.782	17329.12
864.103	17299.29
864.424	17233.98
864.745	17247.09
865.065	17126.41
865.386	17159.18
865.707	17119.18
866.027	17173.64
866.348	17036.02
866.668	17071.5
866.989	16939.53
867.309	16807.78
867.63	16878.96
867.95	16890.71
868.27	16751.28
868.59	16823.6
868.91	16837.16
869.23	16729.81
869.55	16603.04
869.87	16754.45
870.19	16641
870.51	16636.71
870.83	16666.54
871.15	16440.56
871.469	16648.91
871.789	16535.02
872.109	16572.08
872.428	16403.04
872.748	16433.1
873.067	16558.52
873.386	16506.09
873.706	16442.82
874.025	16325.98
874.344	16241.47
874.663	16254.12
874.982	16231.97
875.301	16196.72
875.62	16164.86
875.939	16226.32
876.258	16079.44
876.577	16082.37
876.896	16056.16
877.214	16016.16
877.533	15988.59
877.852	16004.41
878.17	16024.3
878.489	15992.88
878.807	15928.71
879.125	15910.17
879.444	15822.49
879.762	15859.33
880.08	15776.85
880.398	15706.79
880.716	15751.76
881.034	15644.19
881.352	15667.7
881.67	15636.51
881.988	15684.64
882.306	15608.26
882.624	15567.36
882.941	15494.59
883.259	15429.06
883.577	15470.64
883.894	15389.74
884.212	15415.27
884.529	15383.41
884.846	15416.85
885.164	15447.36
885.481	15340.02
885.798	15427.7
886.115	15185.9
886.432	15241.72
886.75	15184.54
887.067	15119.24
887.383	15176.18
887.7	15150.42
888.017	15056.19
888.334	15128.95
888.651	15110.65
888.967	14998.33
889.284	14948.62
889.6	15029.29
889.917	14875.85
890.233	14926.47
890.55	14851.22
890.866	14863.87
891.182	14799.02
891.498	14797.89
891.815	14755.4
892.131	14711.56
892.447	14721.96
892.763	14625.69
893.079	14528.29
893.395	14519.7
893.71	14552.02
894.026	14509.31
894.342	14483.32
894.657	14384.57
894.973	14407.16
895.289	14355.19
895.604	14266.83
895.92	14260.05
896.235	14135.31
896.55	14226.15
896.865	14164.68
897.181	14096.44
897.496	14089.66
897.811	13969.21
898.126	13844.69
898.441	13818.03
898.756	13875.43
899.071	13734.64
899.386	13807.63
899.7	13696.45
900.015	13676.34
900.33	13488.77
900.644	13600.18
900.959	13579.39
901.273	13459.84
901.588	13463.91
901.902	13369.22
902.216	13347.76
902.531	13243.8
902.845	13254.65
903.159	13181.89
903.473	13112.96
903.787	13122
904.101	12982.34
904.415	13007.2
904.729	12876.81
905.042	12888.79
905.356	12858.05
905.67	12781.44
905.984	12862.35
906.297	12809.69
906.611	12605.85
906.924	12589.58
907.237	12549.59
907.551	12573.31
907.864	12530.6
908.177	12474.33
908.491	12423.49
908.804	12305.3
909.117	12259.2
909.43	12208.58
909.743	12144.17
910.056	12048.13
910.368	12092.2
910.681	11882.48
910.994	11958.87
911.307	11991.18
911.619	11824.18
911.932	11748.02
912.244	11695.14
912.557	11651.3
912.869	11604.98
913.181	11467.81
913.494	11547.58
913.806	11402.5
914.118	11462.61
914.43	11446.11
914.742	11400.24
915.054	11249.73
915.366	11341.93
915.678	11276.85
915.99	11202.5
916.302	11101.94
916.613	11098.78
916.925	10990.98
917.236	11032.34
917.548	10840.48
917.859	11031.43
918.171	10876.41
918.482	10771.78
918.794	10754.38
919.105	10695.85
919.416	10608.85
919.727	10654.95
920.038	10633.03
920.349	10586.25
920.66	10567.94
920.971	10565.91
921.282	10491.79
921.593	10408.85
921.903	10362.3
922.214	10287.05
922.525	10315.75
922.835	10215.64
923.146	10190.1
923.456	10203.21
923.767	10149.42
924.077	10089.31
924.387	10107.62
924.697	10008.18
925.008	9993.49
925.318	9999.37
925.628	9908.98
925.938	9894.29
926.248	9867.62
926.558	9781.97
926.867	9697.46
927.177	9708.76
927.487	9578.36
927.796	9525.94
928.106	9562.77
928.416	9547.4
928.725	9555.31
929.034	9477.35
929.344	9551.47
929.653	9500.63
929.962	9418.37
930.271	9359.84
930.581	9341.08
930.89	9326.85
931.199	9269.22
931.508	9241.2
931.817	9156
932.125	9139.05
932.434	9147.64
932.743	8990.36
933.051	8953.3
933.36	8990.58
933.669	8889.57
933.977	8902.68
934.286	8884.6
934.594	8885.95
934.902	8782.23
935.21	8804.6
935.519	8727.54
935.827	8766.86
936.135	8703.13
936.443	8638.5
936.751	8629.69
937.059	8601.44
937.367	8530.93
937.674	8480.09
937.982	8457.49
938.29	8448.68
938.597	8483.48
938.905	8329.36
939.213	8332.97
939.52	8202.13
939.827	8244.84
940.135	8162.36
940.442	8110.15
940.749	8116.03
941.056	8123.04
941.363	8073.09
941.67	8061.12
941.977	7990.38
942.284	7952.19
942.591	7939.31
942.898	7903.83
943.205	7861.12
943.511	7802.59
943.818	7791.97
944.125	7742.25
944.431	7672.2
944.738	7618.19
945.044	7619.32
945.35	7627.23
945.657	7529.15
945.963	7509.49
946.269	7498.87
946.575	7462.04
946.881	7413
947.187	7387.24
947.493	7373.45
947.799	7329.16
948.105	7292.55
948.41	7206.9
948.716	7215.94
949.022	7131.87
949.327	7126.45
949.633	7126.9
949.938	7093.01
950.244	7056.85
950.549	6991.77
950.854	6983.4
951.16	6951.99
951.465	6854.82
951.77	6916.97
952.075	6853.46
952.38	6805.33
952.685	6795.39
952.99	6818.44
953.294	6680.36
953.599	6682.17
953.904	6635.84
954.209	6595.17
954.513	6612.11
954.818	6552.45
955.122	6537.09
955.426	6561.95
955.731	6454.83
956.035	6432.01
956.339	6398.11
956.643	6448.73
956.948	6375.06
957.252	6319.47
957.556	6325.12
957.86	6304.1
958.163	6305.91
958.467	6179.81
958.771	6187.04
959.075	6222.52
959.378	6135.52
959.682	6149.75
959.985	6119.02
960.289	6094.61
960.592	6036.54
960.896	5982.98
961.199	5997.67
961.502	5993.83
961.805	5939.59
962.108	5908.18
962.411	5915.41
962.714	5864.56
963.017	5889.87
963.32	5848.74
963.623	5795.64
963.926	5778.01
964.228	5741.63
964.531	5690.33
964.833	5692.59
965.136	5716.32
965.438	5632.48
965.741	5639.03
966.043	5600.39
966.345	5543.67
966.648	5568.3
966.95	5511.13
967.252	5501.64
967.554	5557.9
967.856	5500.73
968.158	5460.51
968.46	5476.55
968.761	5412.82
969.063	5391.81
969.365	5416.44
969.666	5343
969.968	5325.82
970.269	5324.92
970.571	5317.69
970.872	5317.46
971.174	5206.28
971.475	5234.75
971.776	5211.25
972.077	5202.66
972.378	5163.56
972.679	5098.03
972.98	5134.64
973.281	5103.45
973.582	5104.81
973.883	5065.71
974.183	5051.7
974.484	5029.11
974.785	5006.96
975.085	5022.78
975.386	5038.37
975.686	4993.85
975.986	4952.27
976.287	4903.68
976.587	4797.25
976.887	4883.8
977.187	4883.57
977.487	4808.77
977.787	4768.09
978.087	4753.63
978.387	4770.13
978.687	4698.72
978.987	4677.25
979.286	4652.39
979.586	4669.11
979.885	4639.96
980.185	4636.8
980.484	4556.58
980.784	4581.89
981.083	4537.59
981.382	4548.21
981.682	4569.91
981.981	4487.42
982.28	4453.75
982.579	4413.98
982.878	4430.7
983.177	4452.4
983.475	4388.44
983.774	4389.35
984.073	4362.68
984.372	4318.16
984.67	4287.2
984.969	4329.24
985.267	4280.88
985.566	4263.48
985.864	4264.61
986.162	4213.53
986.461	4190.94
986.759	4203.59
987.057	4143.7
987.355	4109.58
987.653	4111.84
987.951	4041.79
988.249	4063.48
988.547	4028.91
988.844	4037.49
989.142	4013.99
989.44	3950.04
989.737	3960.66
990.035	3960.88
990.332	3911.17
990.63	3886.31
990.927	3889.47
991.224	3831.85
991.521	3872.98
991.819	3829.36
992.116	3842.92
992.413	3792.08
992.71	3804.73
993.006	3731.29
993.303	3729.7
993.6	3710.5
993.897	3682.25
994.193	3661.46
994.49	3636.83
994.787	3665.98
995.083	3562.25
995.379	3595.7
995.676	3549.14
995.972	3545.08
996.268	3524.51
996.565	3463.72
996.861	3499.2
997.157	3531.52
997.453	3450.39
997.749	3395.93
998.044	3380.56
998.34	3424.63
998.636	3399.09
998.932	3388.47
999.227	3296.5
999.523	3373.1
999.818	3329.26
1000.114	3289.72
1000.409	3288.81
1000.704	3247.91
1001	3235.25
1001.295	3199.55
1001.59	3224.63
1001.885	3210.4
1002.18	3148.7
1002.475	3142.15
1002.77	3107.57
1003.065	3101.92
1003.359	3094.47
1003.654	3078.65
1003.949	3018.08
1004.243	3058.76
1004.538	3001.59
1004.832	3028.25
1005.127	2993.45
1005.421	2986.45
1005.715	2964.75
1006.009	2917.75
1006.304	2939.22
1006.598	2912.55
1006.892	2896.05
1007.186	2868.26
1007.48	2858.09
1007.773	2841.82
1008.067	2815.15
1008.361	2772.44
1008.655	2773.57
1008.948	2803.4
1009.242	2782.61
1009.535	2713.46
1009.829	2719.34
1010.122	2713.23
1010.415	2719.34
1010.708	2693.8
1011.001	2647.92
1011.295	2668.26
1011.588	2660.13
1011.881	2596.85
1012.173	2610.41
1012.466	2595.95
1012.759	2587.36
1013.052	2577.87
1013.344	2536.97
1013.637	2535.61
1013.93	2514.59
1014.222	2524.31
1014.514	2470.75
1014.807	2492.9
1015.099	2452
1015.391	2434.37
1015.683	2427.37
1015.976	2422.17
1016.268	2408.16
1016.56	2374.03
1016.851	2383.75
1017.143	2372.68
1017.435	2335.16
1017.727	2355.73
1018.018	2305.33
1018.31	2283.41
1018.602	2291.55
1018.893	2290.65
1019.185	2249.07
1019.476	2237.77
1019.767	2248.39
1020.058	2197.32
1020.35	2201.61
1020.641	2207.48
1020.932	2148.5
1021.223	2145.57
1021.514	2120.71
1021.804	2099.69
1022.095	2111.22
1022.386	2075.51
1022.677	2040.26
1022.967	2077.32
1023.258	2023.99
1023.548	2010.2
1023.839	2004.55
1024.129	2001.39
1024.419	1976.98
1024.709	1979.92
1025	1959.36
1025.29	1945.57
1025.58	1906.93
1025.87	1887.49
1026.16	1899.02
1026.449	1873.71
1026.739	1878.45
1027.029	1874.16
1027.319	1858.57
1027.608	1825.12
1027.898	1812.47
1028.187	1823.77
1028.477	1765.46
1028.766	1798.46
1029.055	1776.99
1029.344	1763.2
1029.634	1744.22
1029.923	1727.72
1030.212	1706.25
1030.501	1707.16
1030.79	1686.59
1031.078	1661.28
1031.367	1625.35
1031.656	1636.88
1031.945	1649.08
1032.233	1643.43
1032.522	1650.21
1032.81	1614.28
1033.099	1593.72
1033.387	1589.65
1033.675	1587.61
1033.963	1561.63
1034.251	1547.39
1034.54	1535.41
1034.828	1510.1
1035.116	1512.81
1035.403	1526.15
1035.691	1493.83
1035.979	1503.77
1036.267	1475.3
1036.554	1475.75
1036.842	1477.11
1037.129	1453.15
1037.417	1424.45
1037.704	1418.8
1037.992	1419.26
1038.279	1412.03
1038.566	1373.16
1038.853	1373.16
1039.14	1373.16
