Data from aluminium_surface_pro_back_FLMS001491_00079.txt Node
Date: Wed Feb 08 15:34:32 GMT 2017
User: dcchb
Spectrometer: FLMS00149
Trigger mode: 0
Integration Time (sec): 2.000000E-2
Scans to average: 10
Electric dark correction enabled: true
Nonlinearity correction enabled: false
Boxcar width: 0
XAxis mode: Wavelengths
Number of Pixels in Spectrum: 2048
>>>>>Begin Spectral Data<<<<<
341.393	9.34
341.776	9.34
342.16	9.34
342.543	-47.61
342.927	-65.46
343.31	-74.96
343.693	-80.83
344.077	-65.92
344.46	-62.3
344.843	-59.14
345.226	-65.01
345.61	-36.31
345.993	-18.01
346.376	18.6
346.759	28.77
347.142	35.78
347.525	52.27
347.908	41.88
348.291	91.37
348.674	85.49
349.057	108.32
349.44	145.38
349.823	141.31
350.206	160.29
350.588	228.99
350.971	229.67
351.354	257.01
351.737	264.7
352.119	268.76
352.502	275.77
352.884	305.15
353.267	330.91
353.65	315.54
354.032	338.82
354.414	339.5
354.797	363.45
355.179	354.41
355.562	358.48
355.944	365.94
356.326	371.59
356.709	361.19
357.091	380.4
357.473	370.68
357.855	398.93
358.238	382.21
358.62	377.01
359.002	391.92
359.384	394.41
359.766	370.68
360.148	371.13
360.53	377.69
360.912	355.99
361.294	377.69
361.676	400.74
362.057	374.75
362.439	371.36
362.821	372.49
363.203	383.34
363.584	378.59
363.966	368.87
364.348	364.13
364.729	377.91
365.111	362.09
365.493	384.69
365.874	359.84
366.256	374.98
366.637	362.09
367.019	381.08
367.4	356.45
367.781	361.64
368.163	373.39
368.544	368.42
368.925	374.75
369.306	375.43
369.688	365.48
370.069	380.63
370.45	384.02
370.831	367.07
371.212	393.51
371.593	381.53
371.974	377.46
372.355	386.05
372.736	398.03
373.117	393.51
373.498	404.13
373.879	388.99
374.26	406.39
374.641	388.99
375.021	398.25
375.402	375.2
375.783	410.91
376.163	429.44
376.544	415.43
376.925	414.3
377.305	412.72
377.686	408.87
378.066	417.46
378.447	423.11
378.827	411.36
379.208	444.13
379.588	445.48
379.968	446.39
380.349	440.29
380.729	445.93
381.109	456.78
381.489	457.23
381.87	452.04
382.25	452.94
382.63	458.14
383.01	477.12
383.39	471.24
383.77	487.29
384.15	497.91
384.53	493.62
384.91	477.8
385.29	503.79
385.67	489.1
386.049	521.41
386.429	520.28
386.809	490.45
387.189	519.6
387.568	532.03
387.948	522.32
388.328	528.19
388.707	545.37
389.087	545.14
389.466	531.13
389.846	571.58
390.225	559.83
390.605	559.83
390.984	569.1
391.363	561.64
391.743	580.62
392.122	602.77
392.501	620.17
392.881	623.56
393.26	607.06
393.639	624.23
394.018	627.85
394.397	650.67
394.776	648.87
395.155	640.05
395.534	667.62
395.913	667.17
396.292	674.63
396.671	701.52
397.05	698.13
397.429	717.11
397.808	711.69
398.186	710.56
398.565	696.78
398.944	714.85
399.323	722.99
399.701	719.6
400.08	766.15
400.458	772.25
400.837	741.97
401.215	736.77
401.594	770.45
401.972	796.89
402.351	775.87
402.729	813.38
403.107	817
403.486	829.43
403.864	811.12
404.242	846.83
404.62	829.65
404.999	834.4
405.377	868.07
405.755	880.95
406.133	878.01
406.511	922.31
406.889	893.15
407.267	908.97
407.645	944.9
408.023	976.54
408.401	969.31
408.779	967.28
409.156	963.44
409.534	1025.13
409.912	1006.6
410.29	1038.46
410.667	1012.25
411.045	1070.32
411.422	1068.29
411.8	1071.45
412.178	1070.78
412.555	1105.58
412.933	1106.26
413.31	1143.32
413.687	1136.31
414.065	1206.59
414.442	1169.53
414.819	1191.9
415.197	1202.75
415.574	1195.29
415.951	1224.45
416.328	1262.64
416.705	1233.71
417.082	1264.9
417.46	1273.26
417.837	1298.34
418.214	1313.03
418.591	1307.15
418.967	1317.32
419.344	1348.28
419.721	1342.41
420.098	1337.89
420.475	1382.18
420.852	1406.36
421.228	1397.1
421.605	1439.35
421.982	1449.52
422.358	1471.22
422.735	1459.47
423.111	1483.87
423.488	1494.49
423.864	1497.88
424.241	1542.18
424.617	1552.35
424.994	1552.57
425.37	1574.04
425.746	1568.62
426.123	1617.2
426.499	1621.95
426.875	1659.69
427.251	1674.6
427.627	1692.23
428.003	1709.4
428.379	1735.84
428.756	1766.35
429.132	1773.81
429.507	1832.34
429.883	1838.44
430.259	1893.58
430.635	1889.74
431.011	1870.53
431.387	1952.56
431.763	1993.01
432.138	1990.53
432.514	2010.41
432.89	2050.64
433.265	2059.23
433.641	2125.89
434.016	2089.51
434.392	2127.47
434.767	2203.4
435.143	2190.97
435.518	2242.72
435.894	2223.06
436.269	2279.78
436.644	2284.53
437.02	2294.7
437.395	2327.47
437.77	2369.5
438.145	2384.41
438.52	2446.56
438.895	2430.29
439.271	2481.81
439.646	2522.26
440.021	2526.33
440.395	2545.31
440.77	2536.05
441.145	2523.62
441.52	2650.4
441.895	2613.56
442.27	2662.15
442.645	2643.62
443.019	2687.68
443.394	2717.97
443.769	2682.94
444.143	2711.64
444.518	2797.51
444.892	2755.93
445.267	2801.58
445.641	2836.83
446.016	2833.89
446.39	2865.76
446.764	2867.57
447.139	2866.66
447.513	2922.25
447.887	2915.47
448.262	2935.81
448.636	2924.51
449.01	3000.9
449.384	3036.37
449.758	3032.08
450.132	3094.9
450.506	3117.95
450.88	3114.11
451.254	3135.81
451.628	3201.57
452.002	3215.81
452.376	3269.59
452.75	3253.77
453.123	3323.6
453.497	3378.51
453.871	3356.37
454.244	3451.96
454.618	3481.11
454.992	3534.89
455.365	3514.33
455.739	3609.47
456.112	3641.1
456.486	3762.68
456.859	3725.17
457.232	3818.28
457.606	3780.54
457.979	3878.84
458.352	3929.01
458.725	3997.93
459.099	4027.76
459.472	4100.53
459.845	4165.84
460.218	4174.88
460.591	4182.56
460.964	4224.82
461.337	4348.2
461.71	4437.47
462.083	4466.39
462.456	4488.09
462.829	4548.2
463.201	4564.47
463.574	4583.9
463.947	4671.59
464.32	4769.66
464.692	4798.81
465.065	4850.56
465.438	4895.76
465.81	4941.64
466.183	5043.55
466.555	5169.2
466.928	5177.34
467.3	5166.71
467.672	5262.08
468.045	5386.37
468.417	5373.26
468.789	5463.66
469.161	5502.52
469.534	5603.31
469.906	5713.37
470.278	5812.12
470.65	5878.11
471.022	5948.39
471.394	6065
471.766	6180.25
472.138	6215.95
472.51	6333.46
472.882	6448.94
473.253	6535.94
473.625	6644.87
473.997	6749.72
474.369	6797.63
474.74	6836.5
475.112	7021.58
475.484	7105.19
475.855	7293.66
476.227	7300.9
476.598	7517.61
476.97	7584.5
477.341	7755.35
477.713	7877.38
478.084	7963.48
478.455	8188.33
478.827	8219.52
479.198	8429.23
479.569	8510.36
479.94	8802.78
480.311	8815.66
480.682	9072.83
481.053	9207.29
481.424	9341.29
481.795	9460.61
482.166	9586.49
482.537	9727.27
482.908	9949.19
483.279	10024.89
483.65	10260.82
484.021	10421.27
484.391	10592.79
484.762	10698.32
485.133	10738.55
485.503	10922.95
485.874	11161.81
486.244	11289.04
486.615	11511.63
486.985	11617.84
487.356	11815.58
487.726	11950.72
488.097	12236.36
488.467	12254.21
488.837	12509.8
489.207	12648.33
489.578	12815.1
489.948	12942.56
490.318	13197.01
490.688	13234.52
491.058	13300.51
491.428	13559.04
491.798	13702.54
492.168	14051.9
492.538	14045.13
492.908	14194.5
493.278	14448.5
493.648	14455.51
494.017	14635.84
494.387	14778.89
494.757	14930.53
495.126	15100.69
495.496	15149.95
495.866	15355.83
496.235	15439.44
496.605	15598.53
496.974	15738.87
497.344	15834.91
497.713	15968.46
498.082	16102.02
498.452	16367.1
498.821	16410.03
499.19	16354.89
499.559	16629.69
499.928	16788.1
500.298	16897.48
500.667	17084.59
501.036	17104.03
501.405	17301.54
501.774	17374.08
502.143	17517.58
502.512	17599.61
502.88	17753.73
503.249	17791.47
503.618	17971.12
503.987	18054.29
504.356	18136.32
504.724	18381.28
505.093	18403.88
505.462	18549.19
505.83	18628.51
506.199	18901.04
506.567	19045.67
506.936	19010.19
507.304	19252.22
507.672	19342.84
508.041	19455.6
508.409	19654.92
508.777	19875.03
509.145	19964.74
509.514	19981.92
509.882	20175.59
510.25	20200.22
510.618	20503.71
510.986	20496.71
511.354	20677.49
511.722	20923.81
512.09	21113.19
512.458	21166.97
512.826	21263.92
513.193	21410.81
513.561	21603.34
513.929	21888.76
514.297	22098.02
514.664	22141.18
515.032	22259.15
515.4	22498.91
515.767	22611.68
516.135	22767.61
516.502	22709.53
516.869	23163.98
517.237	23215.05
517.604	23328.5
517.972	23587.7
518.339	23703.4
518.706	23833.34
519.073	24063.39
519.44	24250.28
519.808	24519.43
520.175	24518.3
520.542	24924.16
520.909	24993.09
521.276	25005.74
521.643	25367.77
522.009	25421.1
522.376	25692.73
522.743	25898.6
523.11	26231.02
523.477	26463.56
523.843	26499.71
524.21	26892.92
524.577	27013.15
524.943	27156.87
525.31	27352.12
525.676	27641.15
526.043	27826.91
526.409	27901.94
526.776	28378.53
527.142	28358.42
527.508	28567.46
527.874	28830.5
528.241	28949.14
528.607	29032.53
528.973	29277.94
529.339	29274.1
529.705	29621.66
530.071	29914.31
530.437	30004.25
530.803	30155.89
531.169	30414.19
531.535	30315.43
531.901	30574.18
532.267	30724.91
532.632	30878.81
532.998	31054.17
533.364	31243.09
533.73	31330.09
534.095	31542.07
534.461	31664.1
534.826	31865.67
535.192	32036.74
535.557	32228.15
535.923	32224.31
536.288	32298.43
536.653	32669.04
537.019	32570.51
537.384	32832.65
537.749	32932.31
538.114	33104.74
538.479	33137.05
538.845	33393.09
539.21	33269.25
539.575	33517.61
539.94	33658.17
540.305	33761.22
540.67	33768.45
541.034	33969.35
541.399	34178.38
541.764	34177.48
542.129	34519.61
542.494	34509.22
542.858	34490.92
543.223	34562.55
543.587	34914.41
543.952	34782.66
544.316	34983.56
544.681	34923.22
545.045	35279.14
545.41	35366.82
545.774	35584.45
546.138	35538.57
546.503	35612.02
546.867	35789.64
547.231	36122.96
547.595	36126.13
547.959	36331.54
548.324	36353.24
548.688	36300.13
549.052	36560.24
549.416	36691.54
549.779	36721.82
550.143	36856.73
550.507	37082.49
550.871	37113.9
551.235	37202.26
551.599	37633.21
551.962	37639.98
552.326	37626.88
552.689	37953.65
553.053	37764.73
553.417	37907.32
553.78	38357.93
554.143	38296.01
554.507	38374.88
554.87	38507.98
555.234	39034.52
555.597	38870.24
555.96	39044.02
556.323	39159.04
556.686	39218.02
557.05	39566.49
557.413	39635.86
557.776	39829.98
558.139	40034.72
558.502	40056.87
558.865	40279.46
559.228	40646.46
559.59	40828.15
559.953	41067.01
560.316	41295.93
560.679	41360.79
561.041	41537.06
561.404	41780.44
561.767	42012.75
562.129	41848.69
562.492	42349.92
562.854	42383.14
563.217	42497.94
563.579	42706.74
563.941	42901.99
564.304	43148.09
564.666	43559.83
565.028	43526.61
565.39	43682.09
565.753	44012.47
566.115	44119.59
566.477	44330.88
566.839	44406.81
567.201	44677.54
567.563	44796.41
567.925	45065.33
568.287	45102.61
568.648	45271.42
569.01	45531.98
569.372	45708.25
569.734	45644.29
570.095	46048.8
570.457	46220.78
570.819	46383.71
571.18	46471.84
571.542	46590.26
571.903	46763.59
572.265	46989.8
572.626	46972.17
572.987	47168.55
573.349	47406.96
573.71	47463.91
574.071	47548.2
574.432	47741.41
574.794	47939.83
575.155	48026.15
575.516	47926.49
575.877	48165.13
576.238	48202.87
576.599	48417.33
576.96	48341.17
577.32	48457.55
577.681	48712.01
578.042	48645.8
578.403	48740.94
578.763	48873.36
579.124	48903.19
579.485	49202.62
579.845	49192.22
580.206	49212.34
580.566	49280.58
580.927	49367.36
581.287	49458.21
581.648	49424.31
582.008	49560.35
582.368	49489.84
582.728	49647.58
583.089	49650.06
583.449	49523.97
583.809	49631.08
584.169	49777.29
584.529	49613.23
584.889	50009.38
585.249	49776.16
585.609	49692.78
585.969	49906.55
586.329	49718.09
586.688	49875.82
587.048	49787.01
587.408	49821.36
587.768	49792.89
588.127	49781.81
588.487	49747.69
588.846	50177.06
589.206	49793.56
589.565	49928.25
589.925	50001.47
590.284	49926.89
590.643	50000.11
591.003	50004.41
591.362	50214.12
591.721	50031.52
592.08	50111.97
592.44	50250.73
592.799	50226.09
593.158	50158.98
593.517	50206.21
593.876	50175.7
594.235	50157.17
594.593	50183.16
594.952	50343.38
595.311	50267
595.67	50312.65
596.029	50507.44
596.387	50479.65
596.746	50570.94
597.104	50304.28
597.463	50366.88
597.822	50576.59
598.18	50311.97
598.538	50406.88
598.897	50612.3
599.255	50358.29
599.613	50784.05
599.972	50583.6
600.33	50768.91
600.688	50567.1
601.046	50791.96
601.404	50746.98
601.762	50801.22
602.12	50868.79
602.478	51034.66
602.836	50948.34
603.194	50823.14
603.552	50818.85
603.91	50896.36
604.268	50982.91
604.625	50878.51
604.983	51084.15
605.341	50870.37
605.698	51014.1
606.056	51182.45
606.413	51071.5
606.771	51236.24
607.128	51214.77
607.485	51002.35
607.843	51155.11
608.2	51325.95
608.557	51402.56
608.914	51253.86
609.272	51513.07
609.629	51570.69
609.986	51620.86
610.343	51386.52
610.7	51644.59
611.057	51487.53
611.414	51542.44
611.771	51643.01
612.127	51682.55
612.484	51694.08
612.841	51763.91
613.198	51628.54
613.554	51579.73
613.911	51780.63
614.267	51830.12
614.624	51716
614.98	51885.94
615.337	51919.61
615.693	51888.2
616.05	51941.3
616.406	52084.35
616.762	51848.88
617.118	51916.9
617.475	51905.15
617.831	52031.24
618.187	52068.76
618.543	52065.82
618.899	52267.17
619.255	52215.19
619.611	52241.18
619.967	52262.88
620.323	52341.07
620.678	52224.01
621.034	52239.38
621.39	52216.1
621.746	52202.09
622.101	52526.6
622.457	52259.26
622.812	52334.51
623.168	52372.93
623.523	52302.42
623.879	52517.33
624.234	52279.6
624.589	52349.88
624.945	52424.91
625.3	52418.35
625.655	52335.19
626.01	52329.54
626.365	52428.75
626.72	52495.87
627.075	52342.2
627.43	52323.67
627.785	52388.52
628.14	52306.72
628.495	52396.43
628.85	52316.89
629.205	52205.03
629.559	52411.12
629.914	52280.05
630.269	52352.37
630.623	52162.77
630.978	52130.23
631.332	52265.59
631.687	52351.91
632.041	52220.84
632.396	52226.49
632.75	52083.45
633.104	52212.03
633.459	51988.53
633.813	52011.36
634.167	51954.86
634.521	51953.73
634.875	51887.07
635.229	52015.2
635.583	51705.6
635.937	51796.45
636.291	51783.57
636.645	51601.65
636.999	51533.18
637.352	51726.85
637.706	51518.94
638.06	51599.62
638.413	51587.19
638.767	51519.39
639.121	51614.98
639.474	51318.72
639.828	51277.59
640.181	51264.94
640.534	51403.01
640.888	51146.07
641.241	51117.14
641.594	51122.57
641.947	51200.98
642.301	51083.47
642.654	51103.81
643.007	51017.26
643.36	51022.46
643.713	50947.66
644.066	51193.07
644.419	50785.18
644.771	50554
645.124	50323.95
645.477	50211.18
645.83	50006.89
646.182	49878.53
646.535	49764.64
646.888	49885.31
647.24	49547.69
647.593	49769.16
647.945	49779.78
648.298	49548.37
648.65	49319.45
649.002	49305.44
649.355	49302.96
649.707	49322.39
650.059	49435.38
650.411	49863.84
650.763	49882.83
651.115	50249.6
651.467	50005.76
651.819	50071.52
652.171	49974.8
652.523	49988.36
652.875	49994.24
653.227	49831.08
653.578	50050.96
653.93	49931.64
654.282	49767.35
654.633	49748.82
654.985	49706.33
655.337	49740.68
655.688	49671.31
656.039	49876.05
656.391	49515.6
656.742	49481.03
657.094	49524.64
657.445	49670.4
657.796	49530.29
658.147	49385.89
658.498	49387.25
658.849	49424.53
659.2	49220.47
659.551	49267.7
659.902	49233.58
660.253	49320.13
660.604	49371.88
660.955	49206.01
661.306	49247.36
661.656	49188.16
662.007	49089.4
662.358	49225.22
662.708	49180.47
663.059	49183.41
663.409	48930.08
663.76	49290.75
664.11	49231.32
664.461	49269.74
664.811	49141.6
665.161	49042.62
665.511	49114.26
665.862	49097.99
666.212	49143.86
666.562	49056.41
666.912	48993.58
667.262	48816.19
667.612	48896.19
667.962	48920.14
668.312	48822.97
668.662	49087.14
669.011	48922.63
669.361	48764.21
669.711	48755.4
670.06	48693.03
670.41	48668.17
670.76	48664.55
671.109	48877.88
671.459	48702.97
671.808	48610.32
672.157	48785.45
672.507	48375.75
672.856	48369.65
673.205	48505.91
673.554	48554.95
673.904	48462.98
674.253	48558.34
674.602	48508.17
674.951	47968.07
675.3	47739.15
675.649	48280.16
675.998	48255.52
676.346	48291
676.695	48244.9
677.044	47960.39
677.393	48032.71
677.741	48047.62
678.09	48082.65
678.438	47886.72
678.787	48006.49
679.135	47971.69
679.484	47557.69
679.832	47823.67
680.181	47620.51
680.529	47665.03
680.877	47490.57
681.225	47489.67
681.573	47716.56
681.922	47397.69
682.27	47239.28
682.618	47469.56
682.966	47202.22
683.314	47367.19
683.661	47133.75
684.009	46949.8
684.357	46938.95
684.705	46834.09
685.053	46832.96
685.4	46793.19
685.748	46581.22
686.095	46461.22
686.443	46450.37
686.79	46382.35
687.138	46370.83
687.485	46462.8
687.832	46176.03
688.18	46200.66
688.527	45857.85
688.874	46060.1
689.221	45993.89
689.568	45837.28
689.915	45700.56
690.262	45708.02
690.609	45669.15
690.956	45430.74
691.303	45332.66
691.65	45274.13
691.997	45282.72
692.344	44765.45
692.69	44906.23
693.037	44941.94
693.383	44561.38
693.73	44584.44
694.077	44337.66
694.423	44336.98
694.769	44162.98
695.116	44092.24
695.462	44174.95
695.808	43897.9
696.155	43878.92
696.501	43711.24
696.847	43716.21
697.193	43331.59
697.539	43538.13
697.885	43217.24
698.231	43140.63
698.577	43201.19
698.923	43139.5
699.269	42954.87
699.614	42725.95
699.96	42576.58
700.306	42636.69
700.651	42344.72
700.997	42240.09
701.342	42285.06
701.688	42186.53
702.033	42001.45
702.379	41974.79
702.724	41744.06
703.069	41878.97
703.415	41452.31
703.76	41464.29
704.105	41332.77
704.45	41254.58
704.795	41044.87
705.14	40977.98
705.485	40952.67
705.83	40729.17
706.175	40806.91
706.52	40640.36
706.865	40540.93
707.209	40406.47
707.554	40256.41
707.899	40290.54
708.243	40124.89
708.588	39959.02
708.932	39736.88
709.277	39776.65
709.621	39812.81
709.966	39477.22
710.31	39524.46
710.654	39190.45
710.998	39401.97
711.342	39337.34
711.687	39016.22
712.031	39045.6
712.375	38936
712.719	38931.93
713.063	38792.72
713.407	39034.3
713.75	38689
714.094	38741.65
714.438	38564.25
714.782	38554.54
715.125	38475.22
715.469	38545.95
715.812	38311.38
716.156	38103.48
716.499	38027.09
716.843	38046.75
717.186	37938.28
717.53	38032.74
717.873	37979.64
718.216	37778.51
718.559	37616.48
718.902	37472.98
719.246	37605.64
719.589	37314.57
719.932	37259.66
720.275	37189.83
720.617	37048.81
720.96	37192.54
721.303	37030.28
721.646	37038.19
721.989	36855.6
722.331	36985.54
722.674	36925.88
723.016	36840.01
723.359	36771.08
723.701	36565.21
724.044	36509.85
724.386	36480.69
724.729	36614.02
725.071	36432.78
725.413	36325.22
725.755	36398.44
726.097	36250.87
726.439	36253.58
726.782	36077.99
727.124	36387.36
727.465	36095.39
727.807	36045.22
728.149	35908.28
728.491	35883.19
728.833	35912.35
729.175	35799.58
729.516	35648.62
729.858	35553.94
730.199	35533.83
730.541	35480.04
730.882	35419.48
731.224	35454.51
731.565	35236.88
731.906	35256.32
732.248	35331.12
732.589	35044.8
732.93	34846.61
733.271	34950.56
733.612	34922.77
733.953	34953.5
734.294	34692.49
734.635	34537.47
734.976	34647.75
735.317	34490.69
735.658	34385.61
735.999	34389.45
736.339	34343.57
736.68	34448.2
737.021	34287.08
737.361	34248.21
737.702	34122.11
738.042	34109.91
738.383	34027.42
738.723	33987.65
739.063	33773.65
739.404	33953.53
739.744	33907.43
740.084	33612.29
740.424	33781.1
740.764	33553.09
741.104	33629.92
741.444	33429.93
741.784	33431.96
742.124	33406.42
742.464	33357.61
742.804	33293.88
743.143	33355.13
743.483	33278.07
743.823	33057.96
744.162	33087.34
744.502	33029.94
744.841	32913.1
745.181	32952.65
745.52	32894.12
745.86	32940.45
746.199	32748.81
746.538	32709.72
746.877	32768.25
747.216	32676.05
747.556	32368.49
747.895	32446.9
748.234	32327.81
748.573	32204.42
748.911	32229.28
749.25	32233.8
749.589	32119.68
749.928	32107.7
750.267	32022.96
750.605	32008.49
750.944	31855.96
751.283	31773.25
751.621	31931.21
751.96	31626.81
752.298	31570.54
752.636	31426.59
752.975	31424.56
753.313	31283.54
753.651	31298.23
753.989	31188.86
754.327	31012.14
754.666	30786.61
755.004	30962.87
755.342	30923.1
755.679	30830.22
756.017	30607.18
756.355	30716.33
756.693	30514.97
757.031	30666.16
757.368	30358.59
757.706	30253.51
758.044	30219.39
758.381	30270.91
758.719	30107.53
759.056	30027.76
759.394	30109.56
759.731	29820.08
760.068	29665.05
760.405	29643.81
760.743	29572.17
761.08	29677.48
761.417	29401.56
761.754	29401.11
762.091	29303.25
762.428	29127.44
762.765	29027.1
763.102	29060.78
763.438	28853.1
763.775	28877.73
764.112	28794.57
764.449	28817.62
764.785	28590.28
765.122	28477.74
765.458	28414.01
765.795	28378.99
766.131	28223.06
766.467	28176.05
766.804	28034.59
767.14	27992.55
767.476	27911.88
767.812	27773.58
768.148	27729.29
768.485	27552.11
768.821	27388.73
769.157	27455.85
769.492	27313.7
769.828	27299.01
770.164	27051.34
770.5	26979.47
770.836	26904.67
771.171	26795.52
771.507	26648.86
771.842	26498.13
772.178	26432.82
772.513	26349.66
772.849	26260.17
773.184	26185.37
773.519	26149.21
773.855	25902.89
774.19	25906.73
774.525	25843.01
774.86	25756.91
775.195	25763.24
775.53	25607.31
775.865	25353.08
776.2	25295
776.535	25055.23
776.87	25060.88
777.205	24961.9
777.539	24819.76
777.874	24764.39
778.209	24517.17
778.543	24662.02
778.878	24579.09
779.212	24410.05
779.547	24429.48
779.881	24284.63
780.215	23990.17
780.55	24206.67
780.884	23913.34
781.218	23907.01
781.552	23829.73
781.886	23746.56
782.22	23540.69
782.554	23610.52
782.888	23313.58
783.222	23294.15
783.556	23222.06
783.889	23139.12
784.223	23015.74
784.557	22926.02
784.89	22993.36
785.224	22888.06
785.557	22679.25
785.891	22699.13
786.224	22634.05
786.558	22531
786.891	22356.77
787.224	22327.85
787.557	22215.53
787.891	22116.55
788.224	22176.89
788.557	22168.08
788.89	22055.54
789.223	22026.61
789.556	21774.64
789.888	21668.65
790.221	21645.6
790.554	21526.96
790.887	21660.29
791.219	21408.77
791.552	21331.04
791.884	21152.51
792.217	21070.48
792.549	21053.3
792.882	20870.03
793.214	20782.35
793.546	20868.22
793.879	20681.11
794.211	20650.6
794.543	20684.05
794.875	20572.64
795.207	20570.6
795.539	20399.53
795.871	20408.12
796.203	20216.04
796.535	20115.02
796.867	20087
797.198	20140.11
797.53	19974.69
797.862	19870.73
798.193	19733.11
798.525	19703.06
798.856	19755.71
799.188	19455.6
799.519	19466
799.85	19465.1
800.182	19314.82
800.513	19386
800.844	19211.09
801.175	19223.97
801.506	19223.29
801.837	19055.61
802.168	19027.37
802.499	19031.89
802.83	18835.06
803.161	18757.09
803.491	18843.19
803.822	18868.95
804.153	18756.41
804.483	18619.24
804.814	18557.55
805.145	18474.39
805.475	18475.74
805.805	18397.78
806.136	18457.21
806.466	18309.19
806.796	18312.58
807.126	18144.68
807.457	18024.68
807.787	18216.09
808.117	18023.55
808.447	18016.77
808.777	18000.05
809.107	18097.67
809.436	17936.77
809.766	17893.61
810.096	17835.08
810.426	17712.6
810.755	17685.71
811.085	17741.07
811.414	17612.04
811.744	17462.44
812.073	17471.25
812.403	17548.99
812.732	17380.18
813.061	17305.6
813.39	17322.1
813.719	17214.76
814.049	17269.9
814.378	17176.34
814.707	17081.43
815.036	17127.53
815.365	16844.37
815.693	16766.86
816.022	16885.95
816.351	16705.62
816.68	16584.49
817.008	16705.39
817.337	16579.07
817.665	16441.67
817.994	16504.5
818.322	16495
818.651	16431.5
818.979	16299.3
819.307	16368.91
819.636	16383.59
819.964	16189.93
820.292	16291.85
820.62	16239.64
820.948	16160.55
821.276	16269.47
821.604	16223.15
821.932	16200.77
822.259	16290.72
822.587	16241.23
822.915	16156.93
823.243	16287.33
823.57	16140.66
823.898	16172.53
824.225	16162.58
824.553	16138.86
824.88	16143.83
825.207	16130.95
825.535	16085.52
825.862	16195.58
826.189	16074.22
826.516	16236.93
826.843	16240.1
827.17	16203.03
827.497	16104.28
827.824	16206.42
828.151	16208.46
828.478	16106.99
828.805	16149.93
829.131	16123.94
829.458	16107.22
829.785	15991.97
830.111	16052.08
830.438	16115.58
830.764	16139.08
831.09	16143.6
831.417	16098.63
831.743	16151.51
832.069	16027.9
832.395	16002.36
832.722	16072.42
833.048	16008.46
833.374	15977.73
833.7	15904.74
834.026	15996.71
834.351	15949.93
834.677	15997.62
835.003	16010.72
835.329	16018.18
835.654	15915.58
835.98	15812.54
836.306	15839.65
836.631	15762.14
836.956	15833.55
837.282	15902.48
837.607	15718.3
837.932	15669.49
838.258	15746.78
838.583	15592.65
838.908	15577.74
839.233	15580.23
839.558	15568.02
839.883	15577.06
840.208	15498.87
840.533	15473.34
840.858	15409.38
841.182	15445.54
841.507	15428.14
841.832	15337.75
842.156	15325.32
842.481	15142.27
842.805	15249.61
843.13	15256.39
843.454	15245.77
843.778	15140.24
844.103	15126.68
844.427	15078.54
844.751	15067.25
845.075	15121.03
845.399	15029.96
845.723	14975.04
846.047	14992.22
846.371	14705.45
846.695	14823.86
847.019	14702.28
847.343	14624.32
847.666	14629.06
847.99	14487.83
848.313	14564.21
848.637	14536.64
848.96	14450.54
849.284	14477.88
849.607	14329.86
849.931	14296.19
850.254	14197.44
850.577	14072.02
850.9	14091.9
851.223	14066.14
851.546	13941.4
851.869	13831.35
852.192	13972.36
852.515	13774.4
852.838	13738.47
853.161	13718.13
853.483	13700.95
853.806	13602.65
854.129	13642.88
854.451	13549.32
854.774	13525.14
855.096	13401.53
855.419	13475.42
855.741	13378.93
856.063	13289.44
856.385	13298.7
856.708	13225.71
857.03	13079.73
857.352	13137.58
857.674	13107.3
857.996	13117.47
858.318	12866.85
858.64	13082.66
858.961	12989.33
859.283	12895.32
859.605	12862.78
859.926	12884.93
860.248	12806.74
860.57	12846.51
860.891	12897.13
861.212	12813.07
861.534	12731.71
861.855	12726.29
862.176	12726.97
862.498	12751.6
862.819	12727.65
863.14	12612.17
863.461	12694.88
863.782	12643.35
864.103	12698.49
864.424	12658.04
864.745	12740.07
865.065	12573.07
865.386	12533.53
865.707	12478.61
866.027	12513.41
866.348	12561.1
866.668	12537.37
866.989	12429.57
867.309	12358.62
867.63	12424.15
867.95	12445.85
868.27	12374.89
868.59	12359.52
868.91	12270.03
869.23	12261.67
869.55	12256.02
869.87	12248.79
870.19	12230.26
870.51	12226.42
870.83	12211.95
871.15	12148.9
871.469	12153.2
871.789	12178.73
872.109	12132.86
872.428	12026.2
872.748	12160.43
873.067	12110.03
873.386	12100.54
873.706	12011.96
874.025	12078.62
874.344	11987.55
874.663	12028
874.982	11969.93
875.301	11997.04
875.62	11969.02
875.939	11881.34
876.258	11929.02
876.577	11896.25
876.896	11837.95
877.214	11860.32
877.533	11905.07
877.852	11853.09
878.17	11784.62
878.489	11829.82
878.807	11777.16
879.125	11745.07
879.444	11757.95
879.762	11724.28
880.08	11789.82
880.398	11671.4
880.716	11713.43
881.034	11675.47
881.352	11741.23
881.67	11587.34
881.988	11653.78
882.306	11602.48
882.624	11550.28
882.941	11524.29
883.259	11449.04
883.577	11505.76
883.894	11435.7
884.212	11438.41
884.529	11475.25
884.846	11411.07
885.164	11387.12
885.481	11329.26
885.798	11269.38
886.115	11308.47
886.432	11261.7
886.75	11225.09
887.067	11166.78
887.383	11218.98
887.7	11162.26
888.017	11100.8
888.334	11202.71
888.651	11108.48
888.967	10987.35
889.284	11067.8
889.6	10971.53
889.917	10955.94
890.233	10965.88
890.55	10921.59
890.866	10855.38
891.182	10864.19
891.498	10845.21
891.815	10791.43
892.131	10829.39
892.447	10841.82
892.763	10753.01
893.079	10701.26
893.395	10702.39
893.71	10557.08
894.026	10635.95
894.342	10594.82
894.657	10497.87
894.973	10529.06
895.289	10439.12
895.604	10524.99
895.92	10459.46
896.235	10425.33
896.55	10416.07
896.865	10334.49
897.181	10299.69
897.496	10320.48
897.811	10259.91
898.126	10203.64
898.441	10227.6
898.756	10138.34
899.071	10173.81
899.386	10141.5
899.7	10007.94
900.015	10042.97
900.33	9941.28
900.644	9960.71
900.959	10033.93
901.273	9908.51
901.588	9876.42
901.902	9876.65
902.216	9831.45
902.531	9745.8
902.845	9756.2
903.159	9778.57
903.473	9710.1
903.787	9659.25
904.101	9627.39
904.415	9628.52
904.729	9584.45
905.042	9520.95
905.356	9523.66
905.67	9555.98
905.984	9517.11
906.297	9446.38
906.611	9379.03
906.924	9383.55
907.237	9342.65
907.551	9351.46
907.864	9251.8
908.177	9271.92
908.491	9268.75
908.804	9207.96
909.117	9160.28
909.43	9127.97
909.743	9071.7
910.056	9099.94
910.368	9075.09
910.681	8960.51
910.994	8943.79
911.307	8911.25
911.619	8844.36
911.932	8868.76
912.244	8754.19
912.557	8830.12
912.869	8768.43
913.181	8677.36
913.494	8642.33
913.806	8588.09
914.118	8634.19
914.43	8489.79
914.742	8532.95
915.054	8523.46
915.366	8439.17
915.678	8456.35
915.99	8460.87
916.302	8435.33
916.613	8404.14
916.925	8397.82
917.236	8287.31
917.548	8252.06
917.859	8282.11
918.171	8201.66
918.482	8170.7
918.794	8069.91
919.105	8110.82
919.416	8072.4
919.727	8043.25
920.038	8031.95
920.349	8016.81
920.66	7969.58
920.971	7935.46
921.282	7844.16
921.593	7852.97
921.903	7819.53
922.214	7811.39
922.525	7796.7
922.835	7740.21
923.146	7669.25
923.456	7649.81
923.767	7637.16
924.077	7629.93
924.387	7626.31
924.697	7563.71
925.008	7488.01
925.318	7505.41
925.628	7442.81
925.938	7471.51
926.248	7370.95
926.558	7347.22
926.867	7375.02
927.177	7346.32
927.487	7332.76
927.796	7252.08
928.106	7229.26
928.416	7260.44
928.725	7202.37
929.034	7120.11
929.344	7159.43
929.653	7071.3
929.962	7063.61
930.271	7025.42
930.581	7028.59
930.89	6973.45
931.199	6925.09
931.508	6923.96
931.817	6935.93
932.125	6894.58
932.434	6967.35
932.743	6825.43
933.051	6816.39
933.36	6756.28
933.669	6763.51
933.977	6751.76
934.286	6701.36
934.594	6619.11
934.902	6663.4
935.21	6585.21
935.519	6567.13
935.827	6620.69
936.135	6541.59
936.443	6528.71
936.751	6507.02
937.059	6453.01
937.367	6437.19
937.674	6475.61
937.982	6403.97
938.29	6314.25
938.597	6367.81
938.905	6333.69
939.213	6308.15
939.52	6202.62
939.827	6250.75
940.135	6247.59
940.442	6181.15
940.749	6165.78
941.056	6117.65
941.363	6078.78
941.67	6062.96
941.977	6055.5
942.284	5979.57
942.591	5973.92
942.898	5965.34
943.205	5977.77
943.511	5911.55
943.818	5875.62
944.125	5870.88
944.431	5834.27
944.738	5812.12
945.044	5848.96
945.35	5797.21
945.657	5755.17
945.963	5737.09
946.269	5727.6
946.575	5671.56
946.881	5630.21
947.187	5653.03
947.493	5624.78
947.799	5551.34
948.105	5592.92
948.41	5531
948.716	5537.33
949.022	5511.56
949.327	5471.11
949.633	5435.63
949.938	5411.91
950.244	5423.66
950.549	5426.59
950.854	5342.98
951.16	5361.29
951.465	5300.95
951.77	5285.58
952.075	5232.93
952.38	5260.95
952.685	5222.76
952.99	5152.03
953.294	5190.44
953.599	5063.21
953.904	5071.58
954.209	5031.58
954.513	5073.61
954.818	5078.36
955.122	5054.63
955.426	5042.2
955.731	5025.48
956.035	4956.1
956.339	4987.06
956.643	4965.14
956.948	4897.57
957.252	4881.75
957.556	4865.25
957.86	4920.17
958.163	4863.22
958.467	4812.6
958.771	4790
959.075	4773.5
959.378	4738.48
959.682	4782.32
959.985	4715.43
960.289	4681.98
960.592	4667.07
960.896	4688.08
961.199	4634.53
961.502	4655.32
961.805	4631.81
962.108	4575.09
962.411	4549.56
962.714	4592.94
963.017	4572.15
963.32	4547.07
963.623	4479.27
963.926	4484.92
964.228	4498.94
964.531	4432.95
964.833	4448.32
965.136	4394.76
965.438	4372.84
965.741	4386.17
966.043	4359.73
966.345	4358.83
966.648	4362.22
966.95	4362.44
967.252	4290.58
967.554	4270.01
967.856	4258.94
968.158	4225.5
968.46	4209.9
968.761	4178.72
969.063	4196.57
969.365	4148.21
969.666	4107.76
969.968	4086.52
970.269	4116.8
970.571	4097.14
970.872	4049.91
971.174	4009.23
971.475	4030.7
971.776	4006.07
972.077	3978.27
972.378	3971.72
972.679	3948.67
972.98	3970.59
973.281	3921.78
973.582	3889.69
973.883	3920.87
974.183	3849.91
974.484	3871.61
974.785	3851.27
975.085	3887.88
975.386	3840.2
975.686	3834.09
975.986	3778.73
976.287	3739.63
976.587	3734.89
976.887	3718.16
977.187	3677.04
977.487	3713.87
977.787	3685.4
978.087	3611.73
978.387	3610.37
978.687	3646.3
978.987	3640.88
979.286	3575.57
979.586	3568.34
979.885	3590.26
980.185	3550.94
980.484	3527.66
980.784	3495.12
981.083	3512.75
981.382	3468
981.682	3478.85
981.981	3438.85
982.28	3451.73
982.579	3438.4
982.878	3382.81
983.177	3379.19
983.475	3385.74
983.774	3346.65
984.073	3376.93
984.372	3363.37
984.67	3329.93
984.969	3331.06
985.267	3296.03
985.566	3311.85
985.864	3289.02
986.162	3279.31
986.461	3241.12
986.759	3250.83
987.057	3179.65
987.355	3190.72
987.653	3162.7
987.951	3174.22
988.249	3142.59
988.547	3163.15
988.844	3138.97
989.142	3109.37
989.44	3083.83
989.737	3109.82
990.035	3076.83
990.332	3056.71
990.63	3045.87
990.927	3035.7
991.224	3001.12
991.521	3021.69
991.819	3008.81
992.116	2966.32
992.413	2940.56
992.71	2969.03
993.006	2939.43
993.303	2930.39
993.6	2924.51
993.897	2870.73
994.193	2897.62
994.49	2864.63
994.787	2859.43
995.083	2821.24
995.379	2820.34
995.676	2810.62
995.972	2793.9
996.268	2777.17
996.565	2795.48
996.861	2751.64
997.157	2756.38
997.453	2761.13
997.749	2691.07
998.044	2658.31
998.34	2671.41
998.636	2674.8
998.932	2677.29
999.227	2652.2
999.523	2613.11
999.818	2628.48
1000.114	2592.32
1000.409	2597.06
1000.704	2581.92
1001	2529.95
1001.295	2532.89
1001.59	2545.99
1001.885	2519.78
1002.18	2501.25
1002.475	2495.15
1002.77	2457.63
1003.065	2475.26
1003.359	2470.74
1003.654	2442.04
1003.949	2442.49
1004.243	2406.34
1004.538	2389.16
1004.832	2372.66
1005.127	2367.92
1005.421	2345.32
1005.715	2363.62
1006.009	2347.35
1006.304	2324.98
1006.598	2331.08
1006.892	2283.17
1007.186	2278.43
1007.48	2279.33
1007.773	2240.01
1008.067	2248.37
1008.361	2199.56
1008.655	2243.63
1008.948	2201.37
1009.242	2175.15
1009.535	2153.91
1009.829	2187.13
1010.122	2190.07
1010.415	2180.13
1010.708	2092.9
1011.001	2133.35
1011.295	2099.22
1011.588	2083.63
1011.881	2087.7
1012.173	2070.52
1012.466	2080.24
1012.759	2041.15
1013.052	2057.42
1013.344	2026.68
1013.637	2023.97
1013.93	2007.48
1014.222	1997.53
1014.514	1967.25
1014.807	1990.75
1015.099	1970.19
1015.391	1949.85
1015.683	1898.33
1015.976	1927.03
1016.268	1910.75
1016.56	1891.09
1016.851	1897.87
1017.143	1875.95
1017.435	1887.25
1017.727	1853.58
1018.018	1830.3
1018.31	1803.86
1018.602	1800.93
1018.893	1823.07
1019.185	1813.81
1019.476	1788.95
1019.767	1784.66
1020.058	1748.27
1020.35	1751.66
1020.641	1751.66
1020.932	1731.78
1021.223	1711.21
1021.514	1688.84
1021.804	1679.8
1022.095	1673.47
1022.386	1649.07
1022.677	1692
1022.967	1646.13
1023.258	1636.41
1023.548	1599.58
1023.839	1634.6
1024.129	1643.87
1024.419	1617.66
1024.709	1582.18
1025	1590.31
1025.29	1571.55
1025.58	1529.07
1025.87	1533.36
1026.16	1515.96
1026.449	1539.47
1026.739	1515.29
1027.029	1489.3
1027.319	1490.43
1027.608	1482.74
1027.898	1468.05
1028.187	1485.68
1028.477	1443.42
1028.766	1440.94
1029.055	1451.78
1029.344	1428.96
1029.634	1416.08
1029.923	1385.12
1030.212	1408.17
1030.501	1370.2
1030.79	1393.93
1031.078	1392.12
1031.367	1347.15
1031.656	1337.44
1031.945	1331.79
1032.233	1341.96
1032.522	1312.58
1032.81	1301.73
1033.099	1313.93
1033.387	1286.36
1033.675	1298.34
1033.963	1279.58
1034.251	1272.35
1034.54	1259.02
1034.828	1239.81
1035.116	1249.3
1035.403	1228.51
1035.691	1187.38
1035.979	1209.53
1036.267	1180.83
1036.554	1198.68
1036.842	1187.61
1037.129	1171.79
1037.417	1174.95
1037.704	1158.46
1037.992	1148.06
1038.279	1167.72
1038.566	1137.44
1038.853	1137.44
1039.14	1137.44
