Data from aluminium_surface_pro_back_FLMS001491_00003.txt Node
Date: Wed Feb 08 15:33:29 GMT 2017
User: dcchb
Spectrometer: FLMS00149
Trigger mode: 0
Integration Time (sec): 2.000000E-2
Scans to average: 10
Electric dark correction enabled: true
Nonlinearity correction enabled: false
Boxcar width: 0
XAxis mode: Wavelengths
Number of Pixels in Spectrum: 2048
>>>>>Begin Spectral Data<<<<<
341.393	-10.8
341.776	-10.8
342.16	-10.8
342.543	-55.78
342.927	-76.34
343.31	-75.44
343.693	-54.87
344.077	-60.52
344.46	-47.87
344.843	-65.27
345.226	-48.77
345.61	-24.59
345.993	-4.7
346.376	-5.61
346.759	6.14
347.142	22.19
347.525	32.13
347.908	63.32
348.291	73.71
348.674	78.01
349.057	112.13
349.44	134.05
349.823	153.71
350.206	183.99
350.588	205.01
350.971	237.1
351.354	252.01
351.737	270.77
352.119	285.68
352.502	293.37
352.884	305.57
353.267	323.2
353.65	325.01
354.032	354.16
354.414	344.44
354.797	361.39
355.179	359.81
355.562	369.98
355.944	363.2
356.326	391.22
356.709	391.44
357.091	355.06
357.473	344.89
357.855	354.16
358.238	365.46
358.62	380.6
359.002	368.39
359.384	369.98
359.766	368.17
360.148	374.95
360.53	379.02
360.912	359.58
361.294	367.49
361.676	371.11
362.057	382.41
362.439	379.47
362.821	362.97
363.203	389.41
363.584	386.25
363.966	369.98
364.348	370.2
364.729	380.82
365.111	366.81
365.493	373.82
365.874	386.7
366.256	367.72
366.637	371.11
367.019	377.43
367.4	384.44
367.781	374.27
368.163	381.73
368.544	381.28
368.925	389.64
369.306	398.22
369.688	403.87
370.069	368.17
370.45	382.18
370.831	381.28
371.212	390.99
371.593	391.67
371.974	369.3
372.355	381.73
372.736	401.61
373.117	380.15
373.498	371.11
373.879	389.64
374.26	385.57
374.641	396.87
375.021	390.99
375.402	388.51
375.783	429.41
376.163	419.47
376.544	431.44
376.925	413.59
377.305	408.62
377.686	416.08
378.066	432.12
378.447	428.73
378.827	430.99
379.208	433.03
379.588	468.5
379.968	440.26
380.349	437.32
380.729	447.26
381.109	461.05
381.489	433.03
381.87	440.93
382.25	455.85
382.63	455.62
383.01	469.63
383.39	480.93
383.77	495.62
384.15	465.11
384.53	482.74
384.91	492.23
385.29	479.13
385.67	471.89
386.049	474.15
386.429	526.13
386.809	498.79
387.189	520.71
387.568	504.44
387.948	521.61
388.328	535.85
388.707	550.31
389.087	568.61
389.466	572.23
389.846	526.81
390.225	569.07
390.605	599.57
390.984	557.77
391.363	553.02
391.743	584.66
392.122	591.89
392.501	597.99
392.881	601.16
393.26	605
393.639	628.27
394.018	616.52
394.397	629.63
394.776	635.96
395.155	619.91
395.534	647.71
395.913	652.23
396.292	652.91
396.671	633.47
397.05	666.47
397.429	663.08
397.808	676.86
398.186	697.43
398.565	733.58
398.944	689.97
399.323	705.33
399.701	724.77
400.08	726.35
400.458	722.51
400.837	737.42
401.215	745.11
401.594	778.33
401.972	764.77
402.351	780.13
402.729	780.36
403.107	783.3
403.486	802.51
403.864	825.78
404.242	838.44
404.62	810.87
404.999	829.63
405.377	847.25
405.755	850.87
406.133	880.02
406.511	859
406.889	886.35
407.267	891.32
407.645	922.73
408.023	945.33
408.401	962.95
408.779	937.87
409.156	984.42
409.534	1000.92
409.912	990.07
410.29	997.76
410.667	987.36
411.045	1018.09
411.422	1011.54
411.8	1036.17
412.178	1083.18
412.555	1095.15
412.933	1108.94
413.31	1107.13
413.687	1126.57
414.065	1146.45
414.442	1146
414.819	1160.24
415.197	1195.72
415.574	1209.05
415.951	1213.12
416.328	1212.89
416.705	1230.52
417.082	1240.91
417.46	1238.65
417.837	1282.27
418.214	1272.55
418.591	1306.9
418.967	1305.77
419.344	1306.67
419.721	1323.17
420.098	1336.5
420.475	1372.66
420.852	1360.01
421.228	1397.07
421.605	1411.53
421.982	1418.54
422.358	1448.59
422.735	1452.66
423.111	1460.57
423.488	1484.75
423.864	1509.38
424.241	1515.48
424.617	1541.24
424.994	1520.23
425.37	1555.48
425.746	1577.85
426.123	1557.29
426.499	1602.26
426.875	1631.64
427.251	1657.4
427.627	1695.59
428.003	1706.21
428.379	1729.71
428.756	1735.59
429.132	1759.32
429.507	1812.88
429.883	1808.36
430.259	1878.19
430.635	1867.11
431.011	1887.9
431.387	1888.81
431.763	1957.96
432.138	1950.05
432.514	1999.76
432.89	2010.38
433.265	2027.56
433.641	2088.35
434.016	2076.82
434.392	2136.94
434.767	2138.97
435.143	2126.99
435.518	2171.06
435.894	2233.88
436.269	2282.02
436.644	2253.99
437.02	2300.77
437.395	2294.9
437.77	2328.57
438.145	2364.73
438.52	2393.65
438.895	2402.69
439.271	2428.45
439.646	2491.05
440.021	2487.21
440.395	2514.55
440.77	2521.78
441.145	2517.04
441.52	2614.89
441.895	2578.05
442.27	2611.95
442.645	2564.95
443.019	2686.53
443.394	2661.67
443.769	2739.18
444.143	2683.36
444.518	2744.38
444.892	2727.88
445.267	2772.85
445.641	2762.23
446.016	2824.37
446.39	2830.93
446.764	2849.91
447.139	2837.48
447.513	2903.02
447.887	2916.8
448.262	2911.6
448.636	2966.07
449.01	2984.37
449.384	3011.04
449.758	3021.88
450.132	3088.1
450.506	3098.72
450.88	3102.11
451.254	3126.29
451.628	3165.16
452.002	3211.94
452.376	3291.26
452.75	3281.76
453.123	3269.11
453.497	3352.72
453.871	3382.33
454.244	3457.35
454.618	3452.38
454.992	3500.97
455.365	3486.05
455.739	3632.26
456.112	3659.61
456.486	3715.65
456.859	3732.6
457.232	3821.18
457.606	3814.18
457.979	3881.75
458.352	3918.36
458.725	4008.52
459.099	4023.21
459.472	4074.74
459.845	4099.82
460.218	4173.49
460.591	4218.24
460.964	4264.34
461.337	4330.55
461.71	4404.9
462.083	4453.94
462.456	4461.17
462.829	4486.48
463.201	4627.94
463.574	4609.41
463.947	4660.71
464.32	4765.11
464.692	4784.55
465.065	4892.12
465.438	4938.44
465.81	4980.25
466.183	5102.28
466.555	5167.36
466.928	5169.17
467.3	5170.08
467.672	5277.19
468.045	5400.58
468.417	5414.82
468.789	5460.46
469.161	5557.41
469.534	5644.41
469.906	5780.23
470.278	5796.27
470.65	5878.76
471.022	5994.24
471.394	6054.12
471.766	6170.28
472.138	6243.27
472.51	6331.4
472.882	6444.39
473.253	6552.19
473.625	6657.72
473.997	6760.09
474.369	6825.63
474.74	6841.67
475.112	7007.77
475.484	7175.45
475.855	7311.94
476.227	7334.54
476.598	7560.3
476.97	7619.5
477.341	7829.44
477.713	7919.83
478.084	7976.56
478.455	8198.47
478.827	8344
479.198	8510.78
479.569	8543.32
479.94	8839.58
480.311	8923.2
480.682	9103.31
481.053	9285
481.424	9428.72
481.795	9544.2
482.166	9568.83
482.537	9767.02
482.908	10027.35
483.279	10119.55
483.65	10275.93
484.021	10481.35
484.391	10543.95
484.762	10734
485.133	10765.64
485.503	10936.7
485.874	11199.07
486.244	11329.91
486.615	11609
486.985	11724.71
487.356	11907.07
487.726	11927.86
488.097	12192.49
488.467	12281.53
488.837	12572.82
489.207	12740.72
489.578	12853.72
489.948	12931.91
490.318	13180.26
490.688	13250.99
491.058	13460.48
491.428	13644.66
491.798	13786.8
492.168	13995.83
492.538	14125.77
492.908	14365.99
493.278	14497.74
493.648	14537.97
494.017	14772.99
494.387	14860.89
494.757	14953.55
495.126	15163.49
495.496	15213.65
495.866	15426.3
496.235	15517.83
496.605	15684.83
496.974	15783.13
497.344	15959.4
497.713	16075.55
498.082	16187.41
498.452	16406.16
498.821	16498.14
499.19	16552.6
499.559	16718.92
499.928	16859.94
500.298	17018.58
500.667	17182.64
501.036	17128.86
501.405	17347.61
501.774	17389.42
502.143	17499.92
502.512	17653.14
502.88	17797.77
503.249	17792.57
503.618	17943.75
503.987	18040.25
504.356	18140.58
504.724	18274.59
505.093	18335.15
505.462	18579.89
505.83	18582.38
506.199	18870.73
506.567	19159.09
506.936	19068.47
507.304	19401.11
507.672	19267.33
508.041	19576.7
508.409	19691.73
508.777	19872.97
509.145	20135.56
509.514	20080.42
509.882	20312.5
510.25	20275.22
510.618	20516.11
510.986	20631.14
511.354	20863.45
511.722	21054.86
512.09	21178.47
512.458	21131.24
512.826	21449.87
513.193	21642.64
513.561	21745.91
513.929	21802.41
514.297	22068.16
514.664	22240.59
515.032	22353.58
515.4	22578.21
515.767	22670.41
516.135	22760.8
516.502	22718.09
516.869	23227.45
517.237	23265.65
517.604	23215.25
517.972	23517.39
518.339	23745.86
518.706	23766.65
519.073	23935.68
519.44	24086.87
519.808	24401.21
520.175	24418.84
520.542	24734.53
520.909	24872.61
521.276	24902.44
521.643	25310.56
522.009	25496.32
522.376	25594.62
522.743	25692.25
523.11	25957.1
523.477	26271.67
523.843	26465.79
524.21	26702.17
524.577	27000.24
524.943	27207.69
525.31	27218.31
525.676	27537.85
526.043	27711.63
526.409	27854
526.776	28214.89
527.142	28281.11
527.508	28452.4
527.874	28714.77
528.241	28903.69
528.607	28993.18
528.973	29347.52
529.339	29355.65
529.705	29690.79
530.071	29909.31
530.437	29894.17
530.803	30191.11
531.169	30368.74
531.535	30447.6
531.901	30665.22
532.267	30600.59
532.632	30963.75
532.998	31016.85
533.364	31104.76
533.73	31377.52
534.095	31482.6
534.461	31621.13
534.826	31866.32
535.192	31961.69
535.557	32326.42
535.923	32171.85
536.288	32431.51
536.653	32553.08
537.019	32583.59
537.384	32817.26
537.749	32902.91
538.114	33048.21
538.479	33141.09
538.845	33267.87
539.21	33280.3
539.575	33510.8
539.94	33638.03
540.305	33770.91
540.67	33867.17
541.034	33926.83
541.399	34127.73
541.764	34168.41
542.129	34444.11
542.494	34382.19
542.858	34610.88
543.223	34627.83
543.587	34842.74
543.952	34932.46
544.316	34953.47
544.681	35019.46
545.045	35214.48
545.41	35461.93
545.774	35483.86
546.138	35526.79
546.503	35700.57
546.867	35734.02
547.231	36058.08
547.595	36048.81
547.959	36305.53
548.324	36289.94
548.688	36231.18
549.052	36588.01
549.416	36595.46
549.779	36546.2
550.143	36771.28
550.507	37059.41
550.871	37133.98
551.235	37075.45
551.599	37507.3
551.962	37498.49
552.326	37573.52
552.689	37675.44
553.053	37734.64
553.417	37902.32
553.78	38363.55
554.143	38214.63
554.507	38453.27
554.87	38408.75
555.234	38759.48
555.597	38649.65
555.96	39016.64
556.323	39123.08
556.686	39238.11
557.05	39494.6
557.413	39551.09
557.776	39620.24
558.139	39960.35
558.502	40014.58
558.865	40103.17
559.228	40376.83
559.59	40657.5
559.953	40876.03
560.316	41117.61
560.679	41238.73
561.041	41417.48
561.404	41793.07
561.767	41891.6
562.129	41758.94
562.492	42149.44
562.854	42254.75
563.217	42301.53
563.579	42476.89
563.941	42827.39
564.304	43112.81
564.666	43322.75
565.028	43411.1
565.39	43464.66
565.753	43801.15
566.115	44043.4
566.477	44287.47
566.839	44385.09
567.201	44647.68
567.563	44559.55
567.925	44780.33
568.287	44869.82
568.648	44985.07
569.01	45330.83
569.372	45565.62
569.734	45361.34
570.095	45802.91
570.457	45904.15
570.819	46037.48
571.18	46021.66
571.542	46290.12
571.903	46436.34
572.265	46594.52
572.626	46684.69
572.987	46827.06
573.349	47011.46
573.71	47244.22
574.071	47406.25
574.432	47473.37
574.794	47804.44
575.155	47700.94
575.516	47495.74
575.877	47823.19
576.238	47882.85
576.599	48126.01
576.96	48147.48
577.32	48234.03
577.681	48363.29
578.042	48404.87
578.403	48483.29
578.763	48566.45
579.124	48699.78
579.485	48867.46
579.845	49010.51
580.206	48846.89
580.566	48865.65
580.927	49106.77
581.287	49179.99
581.648	49034.23
582.008	49228.35
582.368	49207.79
582.728	49309.71
583.089	49250.27
583.449	49419.99
583.809	49269.48
584.169	49445.75
584.529	49368.46
584.889	49698.4
585.249	49413.43
585.609	49323.94
585.969	49593.99
586.329	49443.94
586.688	49506.31
587.048	49410.49
587.408	49316.26
587.768	49419.08
588.127	49412.3
588.487	49425.64
588.846	49659.3
589.206	49424.28
589.565	49568
589.925	49747.89
590.284	49706.98
590.643	49754.44
591.003	49748.56
591.362	49866.98
591.721	49782.69
592.08	49773.42
592.44	49888.9
592.799	49869.92
593.158	49866.08
593.517	49782.46
593.876	49862.23
594.235	49805.96
594.593	49858.39
594.952	50055.22
595.311	49868.79
595.67	49931.38
596.029	50129.35
596.387	50119.4
596.746	50214.09
597.104	49963.25
597.463	50028.56
597.822	50156.92
598.18	50095.22
598.538	50150.36
598.897	50308.1
599.255	49925.51
599.613	50502.44
599.972	50279.4
600.33	50387.64
600.688	50243.69
601.046	50383.8
601.404	50558.49
601.762	50483.69
602.12	50675.32
602.478	50603.46
602.836	50679.39
603.194	50457.02
603.552	50591.03
603.91	50457.92
604.268	50706.73
604.625	50523.69
604.983	50803
605.341	50556.45
605.698	50848.2
606.056	50764.81
606.413	50765.49
606.771	50904.24
607.128	50837.35
607.485	50809.55
607.843	50748.31
608.2	51041.64
608.557	51014.97
608.914	51031.47
609.272	51040.51
609.629	51078.47
609.986	51327.51
610.343	51018.14
610.7	51429.2
611.057	51271.01
611.414	51303.33
611.771	51248.86
612.127	51305.13
612.484	51198.7
612.841	51377.45
613.198	51255.87
613.554	51500.16
613.911	51630.1
614.267	51512.59
614.624	51516.43
614.98	51547.39
615.337	51708.29
615.693	51723.43
616.05	51695.41
616.406	51877.32
616.762	51780.6
617.118	51727.72
617.475	51741.28
617.831	51892.92
618.187	51841.62
618.543	51877.55
618.899	52036.19
619.255	52062.85
619.611	51999.58
619.967	52032.35
620.323	52186.47
620.678	52030.09
621.034	51916.87
621.39	51958.9
621.746	51908.28
622.101	52301.49
622.457	51977.43
622.812	52025.34
623.168	52022.63
623.523	52076.41
623.879	52148.05
624.234	51864.44
624.589	52039.58
624.945	52126.36
625.3	52087.71
625.655	52092.46
626.01	52028.5
626.365	51970.43
626.72	52007.71
627.075	51983.99
627.43	51968.39
627.785	51905.34
628.14	51930.2
628.495	51927.49
628.85	51951.44
629.205	51821.28
629.559	52031.44
629.914	51925.91
630.269	52052.46
630.623	51933.59
630.978	51902.86
631.332	52064.21
631.687	51981.73
632.041	51866.7
632.396	51841.62
632.75	51769.98
633.104	51752.81
633.459	51649.31
633.813	51662.19
634.167	51567.73
634.521	51561.4
634.875	51628.74
635.229	51546.94
635.583	51396.88
635.937	51245.7
636.291	51277.56
636.645	51441.4
636.999	51223.55
637.352	51345.13
637.706	51164.57
638.06	51300.16
638.413	51111.69
638.767	51076.21
639.121	51192.82
639.474	50843.68
639.828	51010.68
640.181	51092.71
640.534	50965.71
640.888	50828.99
641.241	50661.54
641.594	50761.87
641.947	50739.27
642.301	50647.98
642.654	50768.88
643.007	50659.95
643.36	50576.79
643.713	50589.22
644.066	50738.14
644.419	50498.83
644.771	50213.86
645.124	49860.65
645.477	49934.32
645.83	49647.32
646.182	49524.39
646.535	49432.19
646.888	49461.57
647.24	49244.4
647.593	49455.47
647.945	49324.62
648.298	49198.3
648.65	49031.07
649.002	48983.61
649.355	49176.6
649.707	49011.41
650.059	49309.93
650.411	49648.68
650.763	49739.98
651.115	50164.83
651.467	49866.08
651.819	49864.04
652.171	49861.1
652.523	49787.43
652.875	49739.53
653.227	49667.89
653.578	49791.95
653.93	49616.82
654.282	49439.19
654.633	49354.22
654.985	49454.79
655.337	49418.63
655.688	49366.43
656.039	49489.81
656.391	49175.7
656.742	49335.92
657.094	49204.62
657.445	49334.56
657.796	49266.54
658.147	49122.59
658.498	49147.22
658.849	49231.06
659.2	48988.13
659.551	48987.91
659.902	49151.29
660.253	49033.78
660.604	49082.37
660.955	48825.2
661.306	49109.26
661.656	48995.59
662.007	48939.32
662.358	48892.99
662.708	48867.23
663.059	48811.19
663.409	48566.45
663.76	48846.44
664.11	48873.56
664.461	48721.7
664.811	48753.11
665.161	48721.7
665.511	48544.98
665.862	48604.19
666.212	48808.02
666.562	48723.51
666.912	48535.94
667.262	48478.54
667.612	48385.44
667.962	48449.39
668.312	48340.01
668.662	48510.18
669.011	48445.32
669.361	48382.5
669.711	48336.17
670.06	48246.68
670.41	48231.09
670.76	48177.08
671.109	48226.34
671.459	48212.11
671.808	48132.56
672.157	48289.62
672.507	48083.52
672.856	48075.16
673.205	48050.3
673.554	48267.47
673.904	48059.8
674.253	48268.15
674.602	48141.6
674.951	47471.79
675.3	47373.71
675.649	48074.03
675.998	47908.61
676.346	47955.84
676.695	48005.11
677.044	47744.32
677.393	47754.72
677.741	47835.85
678.09	47656.19
678.438	47502.07
678.787	47583.88
679.135	47606.93
679.484	47244.22
679.832	47421.62
680.181	47264.56
680.529	47426.59
680.877	47203.55
681.225	47114.28
681.573	47447.83
681.922	47032.93
682.27	47049.43
682.618	47159.93
682.966	46966.04
683.314	47106.37
683.661	46905.25
684.009	46641.08
684.357	46654.41
684.705	46615.99
685.053	46667.74
685.4	46388.2
685.748	46451.7
686.095	46242.89
686.443	46163.57
686.79	46134.87
687.138	46107.53
687.485	46205.83
687.832	45956.57
688.18	45920.87
688.527	45784.38
688.874	45775.34
689.221	45594.32
689.568	45570.14
689.915	45444.05
690.262	45482.24
690.609	45271.17
690.956	45156.37
691.303	45266.87
691.65	44879.77
691.997	44985.07
692.344	44581.47
692.69	44697.62
693.037	44609.94
693.383	44329.5
693.73	44435.48
694.077	44295.83
694.423	44289.05
694.769	44153.68
695.116	44099.9
695.462	43963.41
695.808	43790.98
696.155	43744.65
696.501	43579.01
696.847	43551.67
697.193	43205.69
697.539	43377.88
697.885	42953.04
698.231	42929.76
698.577	42915.75
698.923	42842.08
699.269	42715.3
699.614	42412.49
699.96	42276.22
700.306	42427.4
700.651	42052.72
700.997	42017.69
701.342	42116.45
701.688	42003.46
702.033	41897.02
702.379	41641.21
702.724	41580.19
703.069	41683.69
703.415	41332.97
703.76	41325.51
704.105	41198.28
704.45	41163.48
704.795	40860.21
705.14	40741.12
705.485	40623.83
705.83	40598.97
706.175	40516.27
706.52	40571.4
706.865	40360.79
707.209	40203.51
707.554	40022.04
707.899	40242.6
708.243	39918.99
708.588	39836.74
708.932	39636.06
709.277	39689.85
709.621	39630.64
709.966	39272.91
710.31	39452.79
710.654	39179.58
710.998	39109.97
711.342	39081.27
711.687	38981.62
712.031	38875.86
712.375	38653.26
712.719	38721.06
713.063	38623.21
713.407	38606.94
713.75	38477.45
714.094	38472.25
714.438	38387.73
714.782	38233.16
715.125	38074.75
715.469	38168.3
715.812	37941.42
716.156	37733.29
716.499	37846.28
716.843	37929.89
717.186	37662.78
717.53	37850.12
717.873	37872.72
718.216	37557.47
718.559	37451.04
718.902	37277.71
719.246	37380.3
719.589	37139.4
719.932	37034.1
720.275	37030.71
720.617	36903.48
720.96	36910.48
721.303	36790.04
721.646	36912.07
721.989	36603.83
722.331	36649.25
722.674	36523.6
723.016	36585.97
723.359	36409.71
723.701	36588.68
724.044	36309.82
724.386	36173.33
724.729	36268.02
725.071	36242.48
725.413	36197.28
725.755	36000.9
726.097	35936.27
726.439	35762.94
726.782	35840.91
727.124	35913.9
727.465	35637.07
727.807	35552.33
728.149	35597.3
728.491	35428.04
728.833	35489.05
729.175	35410.18
729.516	35334.48
729.858	35160.02
730.199	35298.78
730.541	35182.17
730.882	35272.79
731.224	35169.29
731.565	34940.59
731.906	34942.85
732.248	34805.68
732.589	34742.18
732.93	34568.17
733.271	34466.03
733.612	34652.46
733.953	34594.84
734.294	34338.12
734.635	34315.3
734.976	34491.11
735.317	34145.36
735.658	34152.14
735.999	34171.57
736.339	34150.56
736.68	34147.39
737.021	33860.39
737.361	33970.22
737.702	34035.98
738.042	33803.45
738.383	33737.23
738.723	33801.41
739.063	33686.16
739.404	33803
739.744	33715.09
740.084	33457.69
740.424	33542.21
740.764	33432.16
741.104	33547.86
741.444	33213.63
741.784	33235.33
742.124	33252.5
742.464	33238.72
742.804	33126.63
743.143	33007.99
743.483	33112.84
743.823	32804.38
744.162	32855.9
744.502	32803.02
744.841	32681.22
745.181	32905.17
745.52	32711.05
745.86	32794.89
746.199	32600.32
746.538	32453.2
746.877	32464.5
747.216	32509.92
747.556	32315.8
747.895	32294.33
748.234	32163.72
748.573	32030.16
748.911	32013.66
749.25	31950.61
749.589	31768.02
749.928	31889.6
750.267	31922.14
750.605	31670.62
750.944	31614.8
751.283	31461.81
751.621	31657.29
751.96	31396.05
752.298	31396.05
752.636	31245.32
752.975	31223.85
753.313	31029.06
753.651	31168.26
753.989	30939.12
754.327	30842.62
754.666	30727.82
755.004	30809.63
755.342	30750.65
755.679	30721.49
756.017	30573.25
756.355	30492.35
756.693	30549.52
757.031	30487.38
757.368	30179.36
757.706	30289.42
758.044	30067.27
758.381	30166.48
758.719	29923.1
759.056	29970.55
759.394	29864.57
759.731	29585.03
760.068	29589.55
760.405	29506.61
760.743	29283.79
761.08	29471.58
761.417	29370.12
761.754	29160.18
762.091	29138.49
762.428	28978.04
762.765	28774.2
763.102	28929.45
763.438	28820.53
763.775	28461.89
764.112	28575.79
764.449	28472.97
764.785	28491.27
765.122	28257.15
765.458	28104.39
765.795	28050.6
766.131	28003.15
766.467	27906.2
766.804	27790.05
767.14	27730.84
767.476	27776.94
767.812	27585.76
768.148	27557.51
768.485	27360.68
768.821	27282.49
769.157	27123.62
769.492	27126.11
769.828	27077.07
770.164	26836.4
770.5	26779.68
770.836	26804.08
771.171	26559.34
771.507	26542.85
771.842	26299.46
772.178	26284.1
772.513	26245.68
772.849	26101.28
773.184	26028.74
773.519	26102.86
773.855	25861.74
774.19	25727.95
774.525	25698.12
774.86	25588.52
775.195	25655.86
775.53	25369.54
775.865	25305.14
776.2	25233.28
776.535	24928.2
776.87	25022.66
777.205	24799.16
777.539	24759.39
777.874	24826.28
778.209	24549.45
778.543	24606.4
778.878	24379.06
779.212	24414.99
779.547	24223.13
779.881	24268.56
780.215	24105.85
780.55	24130.48
780.884	23882.8
781.218	23935.23
781.552	23811.62
781.886	23816.14
782.22	23472.65
782.554	23514.68
782.888	23323.72
783.222	23224.74
783.556	23241.01
783.889	23057.29
784.223	22969.83
784.557	22927.12
784.89	22947.01
785.224	22786.56
785.557	22656.4
785.891	22730.52
786.224	22606.23
786.558	22615.27
786.891	22346.12
787.224	22233.36
787.557	22195.16
787.891	22196.97
788.224	22133.92
788.557	22125.79
788.89	21992.46
789.223	21903.87
789.556	21904.33
789.888	21713.37
790.221	21631.79
790.554	21494.39
790.887	21453.26
791.219	21399.93
791.552	21375.3
791.884	21227.28
792.217	21230.22
792.549	21062.31
792.882	20895.76
793.214	20818.48
793.546	20879.49
793.879	20758.82
794.211	20632.95
794.543	20648.09
794.875	20526.28
795.207	20593.4
795.539	20443.35
795.871	20457.13
796.203	20159.29
796.535	20271.6
796.867	20153.18
797.198	20076.58
797.53	20073.19
797.862	19815.11
798.193	19916.58
798.525	19786.19
798.856	19829.35
799.188	19634.33
799.519	19526.99
799.85	19475.46
800.182	19418.51
800.513	19350.95
800.844	19145.53
801.175	19221.68
801.506	19245.86
801.837	19139.43
802.168	19112.99
802.499	19093.1
802.83	18998.41
803.161	18856.95
803.491	18894.23
803.822	18850.17
804.153	18723.39
804.483	18535.15
804.814	18529.72
805.145	18521.14
805.475	18520.69
805.805	18489.05
806.136	18359.11
806.466	18411.99
806.796	18334.7
807.126	18159.56
807.457	18181.94
807.787	18129.06
808.117	18084.99
808.447	18000.7
808.777	17976.74
809.107	18012.45
809.436	17893.58
809.766	17999.12
810.096	17820.14
810.426	17780.14
810.755	17746.92
811.085	17764.1
811.414	17603.87
811.744	17470.09
812.073	17462.63
812.403	17498.57
812.732	17451.79
813.061	17402.07
813.39	17291.57
813.719	17277.1
814.049	17326.37
814.378	17203.88
814.707	17204.56
815.036	17057.22
815.365	17045.47
815.693	16784.23
816.022	16863.78
816.351	16880.73
816.68	16697.46
817.008	16751.01
817.337	16669.66
817.665	16603
817.994	16610.68
818.322	16620.17
818.651	16574.52
818.979	16515.09
819.307	16517.12
819.636	16479.16
819.964	16298.6
820.292	16400.97
820.62	16405.49
820.948	16299.5
821.276	16276
821.604	16240.07
821.932	16305.83
822.259	16394.87
822.587	16339.73
822.915	16243.68
823.243	16318.71
823.57	16194.64
823.898	16341.76
824.225	16268.32
824.553	16182.22
824.88	16185.83
825.207	16276
825.535	16273.74
825.862	16282.1
826.189	16244.36
826.516	16285.26
826.843	16390.57
827.17	16253.63
827.497	16239.16
827.824	16316.9
828.151	16374.3
828.478	16276
828.805	16286.17
829.131	16210.69
829.458	16211.59
829.785	16226.28
830.111	16276
830.438	16297.24
830.764	16188.09
831.09	16232.38
831.417	16171.14
831.743	16141.31
832.069	16185.83
832.395	16026.74
832.722	16158.04
833.048	16110.35
833.374	16099.96
833.7	15966.4
834.026	16070.58
834.351	16138.6
834.677	16102.22
835.003	16051.6
835.329	15929.57
835.654	16029.68
835.98	15986.06
836.306	15937.25
836.631	15852.51
836.956	15942.9
837.282	15906.29
837.607	15826.74
837.932	15709.69
838.258	15701.1
838.583	15742
838.908	15581.78
839.233	15625.39
839.558	15556.47
839.883	15463.59
840.208	15589.24
840.533	15542.68
840.858	15509.69
841.182	15522.35
841.507	15368.9
841.832	15354.44
842.156	15338.4
842.481	15413.65
842.805	15334.55
843.13	15288.23
843.454	15251.17
843.778	15233.09
844.103	15174.11
844.427	15137.5
844.751	15126.42
845.075	15066.76
845.399	15051.4
845.723	14993.32
846.047	15059.99
846.371	14871.74
846.695	14901.57
847.019	14819.77
847.343	14733.21
847.666	14737.96
847.99	14643.73
848.313	14615.7
848.637	14502.94
848.96	14521.92
849.284	14610.73
849.607	14388.36
849.931	14387.01
850.254	14329.16
850.577	14212.78
850.9	14068.6
851.223	14110.18
851.546	14027.92
851.869	13949.51
852.192	14044.64
852.515	13900.92
852.838	13855.27
853.161	13883.52
853.483	13777.99
853.806	13737.99
854.129	13709.29
854.451	13652.79
854.774	13479.91
855.096	13492.34
855.419	13485.79
855.741	13474.49
856.063	13404.21
856.385	13277.89
856.708	13232.46
857.03	13269.98
857.352	13226.36
857.674	13279.02
857.996	13189.98
858.318	13143.88
858.64	13095.74
858.961	12983.88
859.283	13018.46
859.605	12955.63
859.926	12961.74
860.248	12973.03
860.57	12914.51
860.891	12940.95
861.212	12885.35
861.534	12803.77
861.855	12779.82
862.176	12796.99
862.498	12780.95
862.819	12738.24
863.14	12758.12
863.461	12756.77
863.782	12664.34
864.103	12605.36
864.424	12643.78
864.745	12683.55
865.065	12582.76
865.386	12575.76
865.707	12515.19
866.027	12542.99
866.348	12481.3
866.668	12502.76
866.989	12449.88
867.309	12418.02
867.63	12469.77
867.95	12448.53
868.27	12373.95
868.59	12371.69
868.91	12343.45
869.23	12271.58
869.55	12332.15
869.87	12340.96
870.19	12283.11
870.51	12309.55
870.83	12328.98
871.15	12248.31
871.469	12345.48
871.789	12234.52
872.109	12210.34
872.428	12177.58
872.748	12159.5
873.067	12185.48
873.386	12138.03
873.706	12201.53
874.025	12098.71
874.344	12046.28
874.663	12088.76
874.982	12044.02
875.301	12051.48
875.62	12019.61
875.939	11999.5
876.258	12005.38
876.577	11994.98
876.896	11971.48
877.214	11934.42
877.533	12001.99
877.852	11948.43
878.17	11964.47
878.489	11931.25
878.807	11895.77
879.125	11871.82
879.444	11886.51
879.762	11830.69
880.08	11832.05
880.398	11806.96
880.716	11862.33
881.034	11752.05
881.352	11838.83
881.67	11751.82
881.988	11703.24
882.306	11745.5
882.624	11710.02
882.941	11608.1
883.259	11583.01
883.577	11608.1
883.894	11625.5
884.212	11482.68
884.529	11513.19
884.846	11573.07
885.164	11473.86
885.481	11460.76
885.798	11402.91
886.115	11348.44
886.432	11356.58
886.75	11362
887.067	11345.28
887.383	11257.15
887.7	11290.59
888.017	11261.67
888.334	11260.09
888.651	11180.09
888.967	11179.86
889.284	11073.88
889.6	11091.05
889.917	11037.27
890.233	11068.9
890.55	11041.33
890.866	11028.23
891.182	10996.36
891.498	10959.3
891.815	10982.35
892.131	10869.14
892.447	10862.58
892.763	10897.61
893.079	10799.98
893.395	10834.33
893.71	10740.78
894.026	10739.65
894.342	10678.18
894.657	10635.24
894.973	10641.12
895.289	10591.18
895.604	10615.13
895.92	10525.87
896.235	10502.37
896.55	10531.29
896.865	10457.39
897.181	10356.83
897.496	10397.06
897.811	10341.47
898.126	10295.59
898.441	10400.9
898.756	10269.38
899.071	10302.37
899.386	10289.04
899.7	10170.4
900.015	10231.19
900.33	10104.86
900.644	10107.8
900.959	10085.43
901.273	10080
901.588	10029.84
901.902	10032.32
902.216	10001.36
902.531	9968.82
902.845	9957.75
903.159	9873.91
903.473	9863.51
903.787	9853.12
904.101	9771.54
904.415	9781.48
904.729	9791.65
905.042	9680.92
905.356	9697.64
905.67	9664.65
905.984	9644.53
906.297	9582.84
906.611	9537.87
906.924	9560.69
907.237	9573.35
907.551	9485.22
907.864	9434.6
908.177	9414.03
908.491	9391.66
908.804	9309.4
909.117	9287.48
909.43	9199.35
909.743	9242.29
910.056	9243.64
910.368	9129.29
910.681	9110.09
910.994	9104.66
911.307	9043.65
911.619	8937.66
911.932	9013.36
912.244	8980.82
912.557	8991.44
912.869	8855.63
913.181	8822.86
913.494	8830.32
913.806	8748.96
914.118	8776.31
914.43	8662.64
914.742	8708.06
915.054	8631.91
915.366	8672.36
915.678	8564.79
915.99	8559.37
916.302	8473.27
916.613	8508.52
916.925	8476.66
917.236	8465.36
917.548	8411.8
917.859	8421.29
918.171	8309.65
918.482	8295.64
918.794	8251.12
919.105	8184.69
919.416	8164.35
919.727	8181.52
920.038	8142.88
920.349	8003.67
920.66	8011.13
920.971	8076.67
921.282	8000.74
921.593	7965.71
921.903	7911.02
922.214	7901.98
922.525	7848.88
922.835	7831.47
923.146	7798.93
923.456	7798.93
923.767	7717.35
924.077	7700.4
924.387	7681.2
924.697	7620.41
925.008	7647.07
925.318	7561.88
925.628	7555.78
925.938	7513.29
926.248	7498.83
926.558	7432.62
926.867	7473.97
927.177	7405.27
927.487	7399.62
927.796	7342.9
928.106	7311.71
928.416	7336.57
928.725	7306.29
929.034	7210.02
929.344	7214.09
929.653	7264.48
929.962	7125.28
930.271	7063.13
930.581	7054.09
930.89	7075.56
931.199	7034.66
931.508	7004.38
931.817	6954.89
932.125	6937.26
932.434	6974.32
932.743	6924.61
933.051	6831.28
933.36	6831.73
933.669	6803.03
933.977	6731.62
934.286	6774.55
934.594	6672.86
934.902	6655.69
935.21	6630.15
935.519	6662.47
935.827	6625.86
936.135	6634.9
936.443	6530.72
936.751	6512.64
937.059	6554.45
937.367	6468.35
937.674	6445.52
937.982	6417.95
938.29	6358.29
938.597	6458.18
938.905	6290.72
939.213	6301.57
939.52	6249.37
939.827	6256.83
940.135	6219.31
940.442	6164.4
940.749	6203.5
941.056	6229.71
941.363	6109.26
941.67	6121.46
941.977	6048.47
942.284	6040.56
942.591	5990.85
942.898	5968.02
943.205	5962.15
943.511	5926.44
943.818	5887.35
944.125	5872.88
944.431	5888.93
944.738	5882.37
945.044	5858.19
945.35	5841.7
945.657	5789.49
945.963	5750.17
946.269	5728.71
946.575	5735.03
946.881	5711.08
947.187	5666.33
947.493	5654.13
947.799	5599.44
948.105	5601.7
948.41	5515.15
948.716	5557.41
949.022	5462.05
949.327	5513.57
949.633	5482.84
949.938	5441.93
950.244	5466.79
950.549	5389.05
950.854	5399.45
951.16	5401.03
951.465	5359.9
951.77	5269.28
952.075	5295.5
952.38	5260.24
952.685	5283.97
952.99	5222.05
953.294	5240.81
953.599	5169.85
953.904	5203.07
954.209	5158.78
954.513	5150.64
954.818	5082.39
955.122	5112.9
955.426	5051.21
955.731	5063.41
956.035	5002.62
956.339	4989.74
956.643	4978.67
956.948	4941.16
957.252	4933.47
957.556	4925.11
957.86	4871.1
958.163	4891.89
958.467	4876.75
958.771	4837.66
959.075	4840.82
959.378	4793.81
959.682	4790.65
959.985	4714.49
960.289	4743.65
960.592	4708.17
960.896	4680.82
961.199	4669.98
961.502	4651.22
961.805	4671.78
962.108	4609.64
962.411	4605.12
962.714	4575.29
963.017	4543.2
963.32	4567.83
963.623	4531.45
963.926	4510.43
964.228	4441.28
964.531	4443.77
964.833	4483.09
965.136	4428.4
965.438	4392.24
965.741	4357.44
966.043	4418.68
966.345	4357.44
966.648	4333.26
966.95	4363.32
967.252	4258.69
967.554	4284.45
967.856	4234.06
968.158	4228.63
968.46	4189.76
968.761	4193.6
969.063	4182.53
969.365	4181.85
969.666	4184.34
969.968	4143.44
970.269	4128.75
970.571	4155.19
970.872	4087.17
971.174	4062.76
971.475	4077.45
971.776	4004.23
972.077	4067.73
972.378	4020.28
972.679	3989.32
972.98	3973.27
973.281	3992.93
973.582	3927.85
973.883	3916.55
974.183	3906.83
974.484	3900.05
974.785	3859.15
975.085	3874.06
975.386	3863.67
975.686	3841.75
975.986	3821.64
976.287	3847.4
976.587	3789.1
976.887	3775.99
977.187	3761.53
977.487	3738.02
977.787	3692.15
978.087	3682.21
978.387	3710
978.687	3698.02
978.987	3675.65
979.286	3627.52
979.586	3649.21
979.885	3587.07
980.185	3619.83
980.484	3603.34
980.784	3546.84
981.083	3558.14
981.382	3525.83
981.682	3569.89
981.981	3538.25
982.28	3502.55
982.579	3441.31
982.878	3458.03
983.177	3501.65
983.475	3463.91
983.774	3437.69
984.073	3380.29
984.372	3404.47
984.67	3369.22
984.969	3392.5
985.267	3356.34
985.566	3347.98
985.864	3321.31
986.162	3318.83
986.461	3268.21
986.759	3274.08
987.057	3267.08
987.355	3198.6
987.653	3234.53
987.951	3224.59
988.249	3208.09
988.547	3204.03
988.844	3183.01
989.142	3204.25
989.44	3154.54
989.737	3100.98
990.035	3125.84
990.332	3109.57
990.63	3053.3
990.927	3069.11
991.224	3008.55
991.521	3001.09
991.819	3003.58
992.116	3043.13
992.413	3025.73
992.71	2954.09
993.006	2951.6
993.303	2925.84
993.6	2954.77
993.897	2901.21
994.193	2943.02
994.49	2893.53
994.787	2895.79
995.083	2877.93
995.379	2823.02
995.676	2795.22
995.972	2813.3
996.268	2861.21
996.565	2804.26
996.861	2814.21
997.157	2824.15
997.453	2760.87
997.749	2757.71
998.044	2732.4
998.34	2742.57
998.636	2744.15
998.932	2676.36
999.227	2679.07
999.523	2705.73
999.818	2669.35
1000.114	2623.48
1000.409	2631.16
1000.704	2647.2
1001	2618.5
1001.295	2592.52
1001.59	2554.55
1001.885	2578.96
1002.18	2556.13
1002.475	2546.42
1002.77	2529.02
1003.065	2528.34
1003.359	2462.35
1003.654	2484.04
1003.949	2452.86
1004.243	2471.84
1004.538	2443.82
1004.832	2422.8
1005.127	2409.92
1005.421	2389.13
1005.715	2364.05
1006.009	2344.39
1006.304	2375.8
1006.598	2322.69
1006.892	2343.48
1007.186	2311.39
1007.48	2307.78
1007.773	2286.76
1008.067	2260.77
1008.361	2258.74
1008.655	2245.63
1008.948	2235.92
1009.242	2232.53
1009.535	2236.14
1009.829	2244.05
1010.122	2163.83
1010.415	2196.59
1010.708	2141.91
1011.001	2142.36
1011.295	2165.64
1011.588	2131.51
1011.881	2116.14
1012.173	2083.6
1012.466	2094
1012.759	2121.34
1013.052	2100.55
1013.344	2041.57
1013.637	2051.29
1013.93	2030.27
1014.222	2031.4
1014.514	1994.11
1014.807	2004.28
1015.099	1959.76
1015.391	1995.02
1015.683	1963.38
1015.976	2000.44
1016.268	1948.92
1016.56	1923.16
1016.851	1920.22
1017.143	1905.98
1017.435	1911.18
1017.727	1881.8
1018.018	1901.46
1018.31	1873.89
1018.602	1837.96
1018.893	1827.79
1019.185	1814.01
1019.476	1795.48
1019.767	1790.28
1020.058	1778.98
1020.35	1780.11
1020.641	1770.17
1020.932	1731.75
1021.223	1713.22
1021.514	1699.21
1021.804	1724.29
1022.095	1691.98
1022.386	1706.21
1022.677	1708.02
1022.967	1710.73
1023.258	1665.76
1023.548	1635.25
1023.839	1625.99
1024.129	1628.93
1024.419	1601.36
1024.709	1640.45
1025	1613.11
1025.29	1557.52
1025.58	1573.11
1025.87	1555.26
1026.16	1561.13
1026.449	1526.1
1026.739	1509.16
1027.029	1531.08
1027.319	1524.3
1027.608	1487.46
1027.898	1512.77
1028.187	1481.36
1028.477	1474.81
1028.766	1444.75
1029.055	1478.42
1029.344	1442.49
1029.634	1448.37
1029.923	1438.2
1030.212	1412.66
1030.501	1422.15
1030.79	1393.45
1031.078	1384.41
1031.367	1384.41
1031.656	1338.76
1031.945	1349.61
1032.233	1361.36
1032.522	1341.02
1032.81	1313.45
1033.099	1339.22
1033.387	1294.7
1033.675	1291.31
1033.963	1296.73
1034.251	1271.65
1034.54	1270.07
1034.828	1250.63
1035.116	1236.39
1035.403	1262.16
1035.691	1211.54
1035.979	1221.71
1036.267	1232.55
1036.554	1201.37
1036.842	1195.04
1037.129	1186
1037.417	1183.51
1037.704	1169.5
1037.992	1169.73
1038.279	1146.23
1038.566	1184.64
1038.853	1184.64
1039.14	1184.64
