Data from aluminium_macbook_case_FLMS001491_053.txt Node
Date: Tue Feb 07 10:43:49 GMT 2017
User: dcchb
Spectrometer: FLMS00149
Trigger mode: 0
Integration Time (sec): 2.000000E-2
Scans to average: 10
Electric dark correction enabled: true
Nonlinearity correction enabled: false
Boxcar width: 0
XAxis mode: Wavelengths
Number of Pixels in Spectrum: 2048
>>>>>Begin Spectral Data<<<<<
341.393	-21.98
341.776	-21.98
342.16	-21.98
342.543	-56.78
342.927	-62.43
343.31	-69.89
343.693	-75.53
344.077	-62.43
344.46	-42.32
344.843	-55.2
345.226	-38.02
345.61	-40.28
345.993	-7.97
346.376	-2.54
346.759	21.86
347.142	13.5
347.525	32.94
347.908	46.72
348.291	76.55
348.674	91.47
349.057	111.13
349.44	116.55
349.823	158.36
350.206	165.14
350.588	227.51
350.971	258.24
351.354	270.9
351.737	289.65
352.119	312.7
352.502	306.6
352.884	312.03
353.267	366.26
353.65	357.22
354.032	352.02
354.414	354.28
354.797	374.62
355.179	380.05
355.562	398.58
355.944	398.58
356.326	404.68
356.709	408.07
357.091	387.28
357.473	409.88
357.855	416.2
358.238	425.47
358.62	404
359.002	424.79
359.384	434.06
359.766	410.1
360.148	438.35
360.53	427.05
360.912	437.22
361.294	421.18
361.676	433.38
362.057	440.38
362.439	430.67
362.821	437.45
363.203	423.89
363.584	424.57
363.966	414.17
364.348	430.44
364.729	430.67
365.111	427.28
365.493	436.77
365.874	424.34
366.256	431.8
366.637	411.23
367.019	459.82
367.4	417.33
367.781	410.55
368.163	449.65
368.544	450.78
368.925	437.9
369.306	467.5
369.688	433.15
370.069	475.19
370.45	465.69
370.831	452.59
371.212	463.89
371.593	465.92
371.974	467.28
372.355	475.41
372.736	476.77
373.117	488.07
373.498	480.16
373.879	490.55
374.26	462.98
374.641	482.87
375.021	476.32
375.402	496.2
375.783	501.85
376.163	551.79
376.544	521.06
376.925	558.35
377.305	541.4
377.686	530.1
378.066	533.04
378.447	559.93
378.827	537.1
379.208	543.88
379.588	547.5
379.968	540.95
380.349	570.32
380.729	576.65
381.109	570.1
381.489	580.49
381.87	585.24
382.25	577.56
382.63	606.48
383.01	595.86
383.39	619.14
383.77	599.25
384.15	645.12
384.53	624.33
384.91	645.12
385.29	676.31
385.67	641.51
386.049	656.88
386.429	698.46
386.809	690.77
387.189	682.86
387.568	698.46
387.948	702.75
388.328	676.54
388.707	713.6
389.087	742.07
389.466	750.21
389.846	773.26
390.225	780.71
390.605	766.03
390.984	755.63
391.363	776.42
391.743	773.93
392.122	789.3
392.501	806.93
392.881	829.75
393.26	827.49
393.639	839.02
394.018	855.29
394.397	870.66
394.776	905.46
395.155	880.15
395.534	902.52
395.913	889.64
396.292	911.56
396.671	941.61
397.05	930.09
397.429	950.2
397.808	941.61
398.186	980.03
398.565	955.85
398.944	969.64
399.323	990.43
399.701	1003.31
400.08	1025.91
400.458	1026.36
400.837	1061.16
401.215	1068.39
401.594	1061.16
401.972	1061.38
402.351	1083.3
402.729	1070.65
403.107	1118.78
403.486	1126.92
403.864	1155.62
404.242	1154.49
404.62	1157.88
404.999	1189.06
405.377	1202.62
405.755	1217.54
406.133	1234.94
406.511	1206.24
406.889	1244.2
407.267	1293.69
407.645	1291.89
408.023	1338.44
408.401	1336.41
408.779	1374.82
409.156	1375.05
409.534	1379.12
409.912	1435.16
410.29	1445.78
410.667	1450.53
411.045	1465.89
411.422	1502.5
411.8	1526.68
412.178	1549.06
412.555	1567.13
412.933	1591.31
413.31	1615.04
413.687	1629.73
414.065	1645.32
414.442	1686.68
414.819	1700.92
415.197	1726.68
415.574	1741.14
415.951	1769.39
416.328	1763.06
416.705	1812.78
417.082	1841.25
417.46	1869.05
417.837	1921.25
418.214	1884.19
418.591	1893.68
418.967	1891.19
419.344	1983.85
419.721	1978.65
420.098	1942.04
420.475	2012.77
420.852	2030.85
421.228	2088.7
421.605	2069.27
421.982	2134.58
422.358	2116.5
422.735	2191.07
423.111	2172.09
423.488	2201.69
423.864	2227.23
424.241	2251.64
424.617	2306.78
424.994	2313.1
425.37	2319.2
425.746	2373.21
426.123	2388.81
426.499	2396.04
426.875	2446.43
427.251	2488.01
427.627	2555.81
428.003	2576.82
428.379	2617.28
428.756	2649.14
429.132	2664.73
429.507	2738.4
429.883	2726.43
430.259	2820.21
430.635	2815.24
431.011	2865.86
431.387	2993.54
431.763	2996.47
432.138	3017.49
432.514	3076.25
432.89	3099.52
433.265	3171.61
433.641	3233.76
434.016	3226.3
434.392	3268.11
434.767	3347.88
435.143	3342.91
435.518	3372.51
435.894	3449.34
436.269	3518.04
436.644	3513.3
437.02	3579.06
437.395	3567.31
437.77	3681.43
438.145	3706.29
438.52	3719.39
438.895	3803.46
439.271	3820.41
439.646	3907.19
440.021	3947.18
440.395	3952.38
440.77	3933.63
441.145	3967.07
441.52	4058.37
441.895	4061.31
442.27	4144.92
442.645	4171.13
443.019	4135.43
443.394	4177.69
443.769	4276.22
444.143	4253.84
444.518	4355.08
444.892	4308.53
445.267	4363.9
445.641	4384.69
446.016	4452.93
446.39	4496.1
446.764	4507.85
447.139	4474.18
447.513	4604.12
447.887	4614.51
448.262	4658.13
448.636	4670.33
449.01	4735.19
449.384	4808.63
449.758	4845.01
450.132	4870.32
450.506	4956.65
450.88	4972.92
451.254	5021.05
451.628	5065.12
452.002	5099.92
452.376	5194.61
452.75	5226.47
453.123	5249.97
453.497	5340.37
453.871	5441.61
454.244	5539.23
454.618	5560.48
454.992	5597.54
455.365	5673.69
455.739	5785.33
456.112	5811.09
456.486	5947.13
456.859	6022.38
457.232	6141.48
457.606	6136.05
457.979	6187.35
458.352	6377.4
458.725	6444.52
459.099	6444.29
459.472	6580.56
459.845	6703.27
460.218	6777.84
460.591	6787.79
460.964	6836.6
461.337	6988.46
461.71	7093.54
462.083	7213.09
462.456	7186.42
462.829	7270.03
463.201	7369.47
463.574	7467.32
463.947	7575.79
464.32	7700.53
464.692	7829.12
465.065	7919.74
465.438	8009.9
465.81	8128.77
466.183	8203.34
466.555	8419.38
466.928	8400.17
467.3	8510.91
467.672	8676.33
468.045	8890.56
468.417	8886.72
468.789	8994.51
469.161	9088.29
469.534	9291.22
469.906	9472.69
470.278	9556.08
470.65	9629.75
471.022	9826.58
471.394	10047.81
471.766	10095.05
472.138	10214.82
472.51	10425.43
472.882	10606.67
473.253	10751.98
473.625	10933.89
473.997	11197.62
474.369	11203.26
474.74	11403.71
475.112	11633.08
475.484	11801.67
475.855	12071.04
476.227	12174.76
476.598	12480.52
476.97	12632.15
477.341	12931.58
477.713	13109.43
478.084	13212.48
478.455	13583.99
478.827	13729.98
479.198	14169.74
479.569	14063.08
479.94	14571.31
480.311	14670.97
480.682	14974.92
481.053	15234.12
481.424	15524.96
481.795	15678.4
482.166	16021.22
482.537	16228.22
482.908	16550.92
483.279	16772.38
483.65	17019.83
484.021	17331.92
484.391	17542.99
484.762	17796.31
485.133	17917.21
485.503	18249.41
485.874	18668.83
486.244	18770.3
486.615	19206.67
486.985	19517.4
487.356	19822.02
487.726	19947.67
488.097	20324.38
488.467	20432.17
488.837	20956.23
489.207	21142.89
489.578	21555.99
489.948	21654.97
490.318	22184.67
490.688	22113.49
491.058	22399.35
491.428	22745.33
491.798	23040.24
492.168	23356.84
492.538	23454.92
492.908	23816.49
493.278	24024.85
493.648	24066.43
494.017	24446.31
494.387	24723.36
494.757	24901.66
495.126	25125.16
495.496	25335.55
495.866	25590.68
496.235	25855.08
496.605	26113.83
496.974	26345.01
497.344	26545.01
497.713	26794.72
498.082	26978.44
498.452	27310.64
498.821	27304.08
499.19	27574.13
499.559	27819.78
499.928	28090.5
500.298	28242.36
500.667	28433.32
501.036	28419.54
501.405	28753.31
501.774	28877.15
502.143	29090.7
502.512	29306.74
502.88	29535.21
503.249	29518.04
503.618	29831.02
503.987	30028.53
504.356	30119.15
504.724	30317.56
505.093	30340.61
505.462	30550.1
505.83	30935.18
506.199	31236.18
506.567	31659.45
506.936	31483.18
507.304	32094.69
507.672	32202.49
508.041	32366.78
508.409	32777.39
508.777	32909.81
509.145	33118.85
509.514	33255.57
509.882	33428.9
510.25	33677.02
510.618	33934.87
510.986	34158.37
511.354	34441.52
511.722	34745.47
512.09	35013.71
512.458	35029.76
512.826	35440.37
513.193	35572.79
513.561	35617.54
513.929	36004.42
514.297	36187.01
514.664	36528.25
515.032	36714.91
515.4	36954
515.767	37154.67
516.135	37351.05
516.502	37204.39
516.869	38011.37
517.237	38131.14
517.604	38131.6
517.972	38519.61
518.339	38860.62
518.706	38998.47
519.073	39365.01
519.44	39615.17
519.808	39895.84
520.175	39900.36
520.542	40590.06
520.909	40800.23
521.276	40883.16
521.643	41448.8
522.009	41676.81
522.376	42026.18
522.743	42015.34
523.11	42543.68
523.477	42941.87
523.843	43300.27
524.21	43670.21
524.577	44048.73
524.943	44179.12
525.31	44286.91
525.676	44646.45
526.043	44983.62
526.409	45252.76
526.776	45694.34
527.142	45733.88
527.508	45892.52
527.874	46405.05
528.241	46495.9
528.607	46540.41
528.973	46980.18
529.339	46991.7
529.705	47416.32
530.071	47609.54
530.437	47881.4
530.803	48136.08
531.169	48456.75
531.535	48448.16
531.901	48519.12
532.267	48850.18
532.632	49106.67
532.998	49195.03
533.364	49553.89
533.73	49651.97
534.095	49830.72
534.461	49997.05
534.826	50265.29
535.192	50365.85
535.557	50661.21
535.923	50684.26
536.288	50895.55
536.653	51152.5
537.019	50978.49
537.384	51240.4
537.749	51211.48
538.114	51458.03
538.479	51486.95
538.845	51681.75
539.21	51589.1
539.575	51796.77
539.94	51916.77
540.305	52185.69
540.67	52049.42
541.034	52159.02
541.399	52337.32
541.764	52289.64
542.129	52552.69
542.494	52592.91
542.858	52772.12
543.223	52840.81
543.587	53027.25
543.952	53077.64
544.316	53127.36
544.681	53161.26
545.045	53458.2
545.41	53547.24
545.774	53656.84
546.138	53623.17
546.503	53828.13
546.867	53909.03
547.231	54083.72
547.595	54141.34
547.959	54225.18
548.324	54320.55
548.688	54499.08
549.052	54579.07
549.416	54668.79
549.779	54684.61
550.143	54826.3
550.507	55027.65
550.871	55100.87
551.235	55138.38
551.599	55413.4
551.962	55369.11
552.326	55448.66
552.689	55620.18
553.053	55500.63
553.417	55558.48
553.78	56037.34
554.143	55817.46
554.507	55981.75
554.87	56052.48
555.234	56207.51
555.597	56075.53
555.96	56317.56
556.323	56441.17
556.686	56450.89
557.05	56662.18
557.413	56690.43
557.776	56734.27
558.139	56917.99
558.502	56942.85
558.865	57148.95
559.228	57269.85
559.59	57426.68
559.953	57436.63
560.316	57804.98
560.679	57811.3
561.041	57939.44
561.404	58009.94
561.767	58189.37
562.129	58161.8
562.492	58392.08
562.854	58375.36
563.217	58490.38
563.579	58580.55
563.941	58727.44
564.304	58879.98
564.666	59009.92
565.028	58983.7
565.39	59141.44
565.753	59296.69
566.115	59369.46
566.477	59523.8
566.839	59576.23
567.201	59659.84
567.563	59657.58
567.925	59856.9
568.287	59863.91
568.648	59929.44
569.01	59978.03
569.372	60175.54
569.734	60043.11
570.095	60214.63
570.457	60397
570.819	60350.45
571.18	60365.59
571.542	60551.35
571.903	60536.43
572.265	60626.37
572.626	60746.59
572.987	60846.48
573.349	60882.86
573.71	60932.13
574.071	61022.52
574.432	61136.19
574.794	61272
575.155	61210.09
575.516	61247.37
575.877	61363.08
576.238	61366.92
576.599	61473.58
576.96	61528.04
577.32	61489.85
577.681	61579.34
578.042	61673.8
578.403	61647.36
578.763	61748.15
579.124	61773.91
579.485	61837.87
579.845	61867.24
580.206	61826.34
580.566	61795.61
580.927	61871.54
581.287	61991.53
581.648	61873.57
582.008	62008.26
582.368	61996.05
582.728	62034.24
583.089	61921.25
583.449	61988.14
583.809	62021.82
584.169	62068.59
584.529	61965.32
584.889	62120.57
585.249	62002.16
585.609	61907.69
585.969	62053
586.329	61976.62
586.688	61939.56
587.048	61963.51
587.408	61960.35
587.768	61999.67
588.127	62020.23
588.487	61932.78
588.846	62085.99
589.206	61947.69
589.565	62028.14
589.925	62143.85
590.284	62046.9
590.643	62090.51
591.003	62171.42
591.362	62189.49
591.721	62185.88
592.08	62148.59
592.44	62198.53
592.799	62192.66
593.158	62187.46
593.517	62234.69
593.876	62259.1
594.235	62183.62
594.593	62214.35
594.952	62298.64
595.311	62134.13
595.67	62275.59
596.029	62399.66
596.387	62409.83
596.746	62380
597.104	62291.64
597.463	62352.43
597.822	62475.36
598.18	62351.75
598.538	62309.94
598.897	62472.65
599.255	62280.79
599.613	62568.47
599.972	62396.04
600.33	62473.1
600.688	62275.59
601.046	62407.12
601.404	62522.37
601.762	62457.74
602.12	62538.86
602.478	62521.92
602.836	62543.38
603.194	62392.88
603.552	62457.51
603.91	62347.68
604.268	62531.86
604.625	62425.19
604.983	62569.37
605.341	62450.05
605.698	62620.9
606.056	62714
606.413	62717.62
606.771	62708.13
607.128	62752.87
607.485	62671.52
607.843	62674
608.2	62818.18
608.557	62794.9
608.914	62785.64
609.272	62931.4
609.629	62989.25
609.986	63078.96
610.343	62952.19
610.7	63123.71
611.057	63045.07
611.414	63064.95
611.771	63090.04
612.127	63178.17
612.484	63139.53
612.841	63179.07
613.198	63108.57
613.554	63137.04
613.911	63191.73
614.267	63183.14
614.624	63174.55
614.98	63178.85
615.337	63191.73
615.693	63191.73
616.05	63189.69
616.406	63191.73
616.762	63191.05
617.118	63191.73
617.475	63191.73
617.831	63191.73
618.187	63191.73
618.543	63191.73
618.899	63191.73
619.255	63191.73
619.611	63191.73
619.967	63191.73
620.323	63191.73
620.678	63191.73
621.034	63185.4
621.39	63191.73
621.746	63191.73
622.101	63191.73
622.457	63191.73
622.812	63191.73
623.168	63191.73
623.523	63191.73
623.879	63191.73
624.234	63191.73
624.589	63191.73
624.945	63191.73
625.3	63191.73
625.655	63191.73
626.01	63191.73
626.365	63191.73
626.72	63191.73
627.075	63191.73
627.43	63191.73
627.785	63191.73
628.14	63191.73
628.495	63191.73
628.85	63191.73
629.205	63191.73
629.559	63191.73
629.914	63191.73
630.269	63191.73
630.623	63191.73
630.978	63190.15
631.332	63191.73
631.687	63191.73
632.041	63191.73
632.396	63181.56
632.75	63183.14
633.104	63189.92
633.459	63156.02
633.813	63168.23
634.167	63142.24
634.521	63069.02
634.875	63062.24
635.229	63047.55
635.583	62937.5
635.937	62935.92
636.291	62916.93
636.645	62933.66
636.999	62883.94
637.352	62882.58
637.706	62694.79
638.06	62839.2
638.413	62724.62
638.767	62631.97
639.121	62740.21
639.474	62538.19
639.828	62550.84
640.181	62547.45
640.534	62601.46
640.888	62549.94
641.241	62485.53
641.594	62475.81
641.947	62522.14
642.301	62410.28
642.654	62466.55
643.007	62420.68
643.36	62413.44
643.713	62359.66
644.066	62464.29
644.419	62291.19
644.771	62136.39
645.124	61956.05
645.477	61954.47
645.83	61787.02
646.182	61676.06
646.535	61575.95
646.888	61515.84
647.24	61422.06
647.593	61608.27
647.945	61529.63
648.298	61405.11
648.65	61325.56
649.002	61271.78
649.355	61440.81
649.707	61372.79
650.059	61460.47
650.411	61786.79
650.763	61799.45
651.115	61949.73
651.467	61876.73
651.819	61870.41
652.171	61777.75
652.523	61702.05
652.875	61729.39
653.227	61552.45
653.578	61693.91
653.93	61639
654.282	61508.83
654.633	61472.45
654.985	61525.78
655.337	61455.95
655.688	61447.82
656.039	61472.23
656.391	61208.28
656.742	61317.2
657.094	61250.08
657.445	61375.96
657.796	61275.62
658.147	61243.08
658.498	61186.81
658.849	61169.41
659.2	61175.51
659.551	61151.1
659.902	61215.96
660.253	61183.42
660.604	61224.77
660.955	61096.19
661.306	61170.09
661.656	61156.53
662.007	61184.78
662.358	61131.22
662.708	61169.86
663.059	61139.8
663.409	61016.19
663.76	61155.4
664.11	61101.39
664.461	61166.92
664.811	61177.54
665.161	61142.06
665.511	61060.26
665.862	61018.45
666.212	61088.51
666.562	61103.2
666.912	61047.38
667.262	60974.39
667.612	61004.67
667.962	60966.93
668.312	60925.12
668.662	61036.3
669.011	60917.21
669.361	60960.83
669.711	60903.43
670.06	60892.58
670.41	60827.72
670.76	60832.24
671.109	60876.99
671.459	60797.21
671.808	60788.63
672.157	60799.7
672.507	60663.89
672.856	60665.24
673.205	60703.66
673.554	60688.29
673.904	60579.59
674.253	60711.79
674.602	60547.73
674.951	60168.3
675.3	60001.76
675.649	60433.83
675.998	60373.72
676.346	60309.09
676.695	60459.14
677.044	60219.6
677.393	60275.65
677.741	60324.23
678.09	60195.87
678.438	60143.9
678.787	60302.09
679.135	60180.96
679.484	60083.79
679.832	60150
680.181	60018.03
680.529	60062.77
680.877	60058.93
681.225	60003.56
681.573	60188.64
681.922	60004.92
682.27	59941.64
682.618	59941.64
682.966	59938.48
683.314	59952.04
683.661	59851.48
684.009	59739.16
684.357	59704.36
684.705	59725.6
685.053	59732.84
685.4	59628.21
685.748	59528.32
686.095	59583.46
686.443	59467.53
686.79	59411.49
687.138	59472.05
687.485	59395.9
687.832	59347.99
688.18	59360.64
688.527	59222.34
688.874	59162
689.221	59213.3
689.568	59105.28
689.915	58989.8
690.262	58979.64
690.609	58938.73
690.956	58837.94
691.303	58795.23
691.65	58585.3
691.997	58617.84
692.344	58475.24
692.69	58450.61
693.037	58467.11
693.383	58240.22
693.73	58328.35
694.077	58118.19
694.423	58128.58
694.769	58083.84
695.116	57890.85
695.462	57896.73
695.808	57721.36
696.155	57673.23
696.501	57508.04
696.847	57505.55
697.193	57323.86
697.539	57437.76
697.885	57239.79
698.231	57076.41
698.577	57089.29
698.923	57122.74
699.269	56943.31
699.614	56814.49
699.96	56753.93
700.306	56803.2
700.651	56668.74
700.997	56509.87
701.342	56565.24
701.688	56503.09
702.033	56424.9
702.379	56386.03
702.724	56314.17
703.069	56463.32
703.415	56075.98
703.76	56083.44
704.105	56112.14
704.45	56117.34
704.795	55906.5
705.14	55941.98
705.485	55923.22
705.83	55743.56
706.175	55798.48
706.52	55690.46
706.865	55574.98
707.209	55591.48
707.554	55415.66
707.899	55585.6
708.243	55426.28
708.588	55301.31
708.932	55167.76
709.277	55132.05
709.621	55005.28
709.966	54897.48
710.31	54881.44
710.654	54733.65
710.998	54717.37
711.342	54765.96
711.687	54663.14
712.031	54587.89
712.375	54499.75
712.719	54579.75
713.063	54455.46
713.407	54459.08
713.75	54286.43
714.094	54255.01
714.438	54079.65
714.782	54124.4
715.125	53947.23
715.469	53997.62
715.812	53902.71
716.156	53765.08
716.499	53588.59
716.843	53687.35
717.186	53457.29
717.53	53618.19
717.873	53498.65
718.216	53435.15
718.559	53218.43
718.902	53106.34
719.246	53108.38
719.589	52926.91
719.932	52866.58
720.275	52787.71
720.617	52820.02
720.96	52743.64
721.303	52669.52
721.646	52572.57
721.989	52376.42
722.331	52483.08
722.674	52399.24
723.016	52378.68
723.359	52246.71
723.701	52256.42
724.044	51976.2
724.386	51894.62
724.729	52181.85
725.071	51995.86
725.413	51948.86
725.755	51834.29
726.097	51771.69
726.439	51656.21
726.782	51640.85
727.124	51865.47
727.465	51707.06
727.807	51579.6
728.149	51610.79
728.491	51641.75
728.833	51625.7
729.175	51464.8
729.516	51341.87
729.858	51291.7
730.199	51256.45
730.541	51213.29
730.882	51267.52
731.224	51320.4
731.565	50984.82
731.906	51057.36
732.248	51064.59
732.589	50931.49
732.93	50834.09
733.271	50843.13
733.612	50752.28
733.953	50885.84
734.294	50615.79
734.635	50544.6
734.976	50700.53
735.317	50455.11
735.658	50537.82
735.999	50540.99
736.339	50346.87
736.68	50419.18
737.021	50103.48
737.361	49975.8
737.702	50171.51
738.042	49994.11
738.383	49841.8
738.723	49990.95
739.063	49740.56
739.404	49826.66
739.744	49597.96
740.084	49484.52
740.424	49485.87
740.764	49402.26
741.104	49456.72
741.444	49239.78
741.784	49075.94
742.124	49173.79
742.464	49120.23
742.804	48802.73
743.143	48683.18
743.483	48842.73
743.823	48694.26
744.162	48524.77
744.502	48608.16
744.841	48247.04
745.181	48440.48
745.52	48242.97
745.86	48275.28
746.199	48091.79
746.538	47980.83
746.877	48078.23
747.216	48000.04
747.556	47830.1
747.895	47811.34
748.234	47653.15
748.573	47706.26
748.911	47628.97
749.25	47488.19
749.589	47408.64
749.928	47426.04
750.267	47380.84
750.605	47332.94
750.944	47127.97
751.283	47202.09
751.621	47217.69
751.96	46901.08
752.298	46894.53
752.636	46999.84
752.975	46671.03
753.313	46683.01
753.651	46933.85
753.989	46633.07
754.327	46591.03
754.666	46444.15
755.004	46511.26
755.342	46420.87
755.679	46354.43
756.017	46222.68
756.355	46189.46
756.693	45950.15
757.031	46015.46
757.368	45782.92
757.706	45568.01
758.044	45598.29
758.381	45585.19
758.719	45310.84
759.056	45389.71
759.394	45325.53
759.731	44969.16
760.068	44829.27
760.405	44798.54
760.743	44538.21
761.08	44567.59
761.417	44392.67
761.754	44328.72
762.091	44166.92
762.428	44133.92
762.765	43841.95
763.102	44075.62
763.438	43656.2
763.775	43524.9
764.112	43381.85
764.449	43417.56
764.785	43224.12
765.122	42867.97
765.458	42703.68
765.795	42676.79
766.131	42619.61
766.467	42461.65
766.804	42085.62
767.14	41863.93
767.476	41905.06
767.812	41726.53
768.148	41826.19
768.485	41389.36
768.821	41241.57
769.157	41107.11
769.492	40880.22
769.828	40877.06
770.164	40385.55
770.5	40371.09
770.836	40470.07
771.171	40143.97
771.507	40078.21
771.842	39799.8
772.178	39842.06
772.513	39615.85
772.849	39549.64
773.184	39306.25
773.519	39103.55
773.855	38990.56
774.19	38839.37
774.525	38812.26
774.86	38725.7
775.195	38370.46
775.53	38382.66
775.865	38076
776.2	37892.96
776.535	37808.89
776.87	37710.59
777.205	37680.31
777.539	37550.59
777.874	37619.29
778.209	37310.6
778.543	37196.25
778.878	37123.26
779.212	36984.96
779.547	36860.67
779.881	36960.55
780.215	36634.46
780.55	36882.14
780.884	36605.53
781.218	36490.51
781.552	36392.88
781.886	36116.96
782.22	35987.92
782.554	36110.18
782.888	35737.76
783.222	35631.55
783.556	35645.56
783.889	35316.08
784.223	35195.4
784.557	35252.8
784.89	35218.45
785.224	34829.08
785.557	34838.58
785.891	34658.24
786.224	34545.02
786.558	34514.74
786.891	34289.21
787.224	34092.83
787.557	34024.36
787.891	34126.5
788.224	33847.19
788.557	33709.34
788.89	33646.52
789.223	33586.63
789.556	33289.24
789.888	33315.68
790.221	33092.18
790.554	32941.45
790.887	32904.16
791.219	32770.38
791.552	32629.82
791.884	32404.29
792.217	32314.35
792.549	32125.2
792.882	31973.34
793.214	31767.7
793.546	31907.81
793.879	31754.14
794.211	31431.43
794.543	31543.97
794.875	31259.01
795.207	31409.06
795.539	31126.36
795.871	31235.51
796.203	30769.98
796.535	30586.26
796.867	30600.27
797.198	30404.79
797.53	30391.23
797.862	30110.79
798.193	30186.72
798.525	29951.02
798.856	30012.71
799.188	29649.11
799.519	29551.48
799.85	29411.6
800.182	29483.46
800.513	29363.24
800.844	29109.91
801.175	29240.53
801.506	29173.19
801.837	28984.72
802.168	28953.76
802.499	28828.56
802.83	28753.76
803.161	28450.49
803.491	28605.52
803.822	28586.08
804.153	28342.25
804.483	28166.21
804.814	28066.55
805.145	28160.33
805.475	28097.74
805.805	27987.23
806.136	28005.31
806.466	27976.16
806.796	27954.69
807.126	27763.06
807.457	27781.81
807.787	27721.25
808.117	27573
808.447	27473.57
808.777	27578.43
809.107	27423.63
809.436	27294.14
809.766	27303.63
810.096	27242.39
810.426	27164.43
810.755	27198.78
811.085	27032.68
811.414	27070.87
811.744	26911.55
812.073	26873.81
812.403	26797.88
812.732	26658.68
813.061	26687.6
813.39	26573.93
813.719	26550.43
814.049	26754.27
814.378	26469.98
814.707	26438.34
815.036	26208.07
815.365	26153.83
815.693	26004.46
816.022	26085.36
816.351	25930.56
816.68	25837.23
817.008	25862.99
817.337	25618.93
817.665	25523.57
817.994	25636.56
818.322	25683.56
818.651	25491.48
818.979	25404.47
819.307	25514.75
819.636	25315.66
819.964	25260.3
820.292	25261.43
820.62	25259.39
820.948	25189.34
821.276	25238.15
821.604	25155.67
821.932	25127.64
822.259	25133.29
822.587	25040.19
822.915	24990.7
823.243	25117.48
823.57	24901.66
823.898	24893.07
824.225	24854.66
824.553	24777.15
824.88	24829.35
825.207	24929.23
825.535	24798.61
825.862	24860.98
826.189	24807.43
826.516	24712.06
826.843	24680.2
827.17	24790.48
827.497	24922.23
827.824	24781.66
828.151	24723.14
828.478	24777.15
828.805	24840.42
829.131	24644.27
829.458	24656.24
829.785	24407.89
830.111	24546.42
830.438	24619.18
830.764	24581.9
831.09	24510.26
831.417	24486.08
831.743	24538.06
832.069	24503.03
832.395	24293.32
832.722	24544.38
833.048	24347.55
833.374	24411.96
833.7	24253.77
834.026	24300.1
834.351	24338.74
834.677	24239.53
835.003	24245.63
835.329	24214.22
835.654	24295.58
835.98	24139.2
836.306	24135.81
836.631	24148.46
836.956	24185.3
837.282	24118.63
837.607	24002.7
837.932	24101.23
838.258	24130.16
838.583	24116.82
838.908	23932.2
839.233	24048.35
839.558	23900.33
839.883	23972.42
840.208	23895.13
840.533	23908.92
840.858	23893.78
841.182	23961.57
841.507	23919.54
841.832	23854.23
842.156	23882.25
842.481	23828.92
842.805	23741.47
843.13	23832.54
843.454	23713.67
843.778	23643.62
844.103	23575.14
844.427	23441.81
844.751	23587.57
845.075	23405.66
845.399	23505.31
845.723	23294.25
846.047	23305.32
846.371	23032.78
846.695	23078.43
847.019	23065.33
847.343	22887.7
847.666	22726.35
847.99	22625.11
848.313	22728.16
848.637	22509.63
848.96	22452.69
849.284	22460.82
849.607	22241.62
849.931	22216.31
850.254	21986.03
850.577	21945.36
850.9	21759.82
851.223	21818.13
851.546	21749.88
851.869	21523.67
852.192	21736.1
852.515	21512.6
852.838	21417.46
853.161	21391.25
853.483	21339.95
853.806	21086.85
854.129	21143.12
854.451	20985.83
854.774	20918.94
855.096	20749.45
855.419	20790.13
855.741	20689.57
856.063	20633.98
856.385	20581.55
856.708	20438.5
857.03	20407.32
857.352	20332.97
857.674	20214.55
857.996	20216.59
858.318	20164.39
858.64	20098.4
858.961	20006.65
859.283	19851.17
859.605	19745.64
859.926	19923.26
860.248	19765.53
860.57	19642.14
860.891	19581.35
861.212	19504.29
861.534	19463.39
861.855	19386.55
862.176	19449.15
862.498	19332.09
862.819	19328.7
863.14	19187.24
863.461	19251.87
863.782	19130.74
864.103	19188.14
864.424	19107.01
864.745	19061.14
865.065	18964.64
865.386	18922.61
865.707	18888.71
866.027	18931.88
866.348	18955.15
866.668	18913.34
866.989	18841.93
867.309	18588.83
867.63	18714.25
867.95	18598.78
868.27	18587.7
868.59	18623.18
868.91	18601.26
869.23	18667.7
869.55	18537.31
869.87	18670.87
870.19	18537.76
870.51	18582.05
870.83	18632.45
871.15	18569.17
871.469	18554.94
871.789	18592.67
872.109	18517.42
872.428	18420.02
872.748	18499.8
873.067	18478.1
873.386	18447.59
873.706	18531.89
874.025	18453.02
874.344	18387.71
874.663	18464.99
874.982	18358.56
875.301	18334.38
875.62	18322.63
875.939	18358.78
876.258	18279.46
876.577	18167.38
876.896	18303.87
877.214	18255.73
877.533	18356.75
877.852	18282.17
878.17	18317.65
878.489	18278.56
878.807	18255.51
879.125	18220.48
879.444	18331.21
879.762	18151.78
880.08	18140.71
880.398	18057.1
880.716	18058
881.034	18068.62
881.352	18109.3
881.67	17969.41
881.988	18033.59
882.306	18048.51
882.624	17963.99
882.941	17752.7
883.259	17853.94
883.577	17888.29
883.894	17789.31
884.212	17819.59
884.529	17728.97
884.846	17720.83
885.164	17632.7
885.481	17507.96
885.798	17706.37
886.115	17487.62
886.432	17528.52
886.75	17443.55
887.067	17377.11
887.383	17288.98
887.7	17305.7
888.017	17176.89
888.334	17191.36
888.651	17140.06
888.967	17088.31
889.284	17017.35
889.6	16993.62
889.917	16925.6
890.233	16968.08
890.55	16809.45
890.866	16887.86
891.182	16733.29
891.498	16719.96
891.815	16648.55
892.131	16577.13
892.447	16528.55
892.763	16476.12
893.079	16410.13
893.395	16319.06
893.71	16295.56
894.026	16237.71
894.342	16247.88
894.657	16024.61
894.973	16002.01
895.289	16006.98
895.604	15971.5
895.92	15838.4
896.235	15668.01
896.55	15869.58
896.865	15605.63
897.181	15582.13
897.496	15551.62
897.811	15520.89
898.126	15465.75
898.441	15350.27
898.756	15370.84
899.071	15238.41
899.386	15240.22
899.7	15097.85
900.015	15064.86
900.33	14916.16
900.644	14931.08
900.959	14994.35
901.273	14941.92
901.588	14821.7
901.902	14679.33
902.216	14723.4
902.531	14725.43
902.845	14614.02
903.159	14494.25
903.473	14435.72
903.787	14366.35
904.101	14411.99
904.415	14426.68
904.729	14344.88
905.042	14251.77
905.356	14175.39
905.67	14225.78
905.984	14130.87
906.297	14195.73
906.611	14053.13
906.924	14021.5
907.237	13969.97
907.551	13926.13
907.864	13918.45
908.177	13858.79
908.491	13734.05
908.804	13807.72
909.117	13691.33
909.43	13771.56
909.743	13579.7
910.056	13583.99
910.368	13514.84
910.681	13511.23
910.994	13413.15
911.307	13394.62
911.619	13291.35
911.932	13279.14
912.244	13249.54
912.557	13270.56
912.869	13162.54
913.181	13162.31
913.494	13153.72
913.806	13076.44
914.118	12952.37
914.43	12922.32
914.742	12909.66
915.054	12853.16
915.366	12807.06
915.678	12806.61
915.99	12738.59
916.302	12711.25
916.613	12728.2
916.925	12659.95
917.236	12711.7
917.548	12617.01
917.859	12634.87
918.171	12437.81
918.482	12414.08
918.794	12367.98
919.105	12356.45
919.416	12252.5
919.727	12239.85
920.038	12178.83
920.349	12156.91
920.66	12113.07
920.971	12083.69
921.282	12051.38
921.593	11875.11
921.903	11982.91
922.214	11825.85
922.525	11876.47
922.835	11739.75
923.146	11729.58
923.456	11618.17
923.767	11601.67
924.077	11559.64
924.387	11548.34
924.697	11480.32
925.008	11401.9
925.318	11293.43
925.628	11346.09
925.938	11279.87
926.248	11210.04
926.558	11091.63
926.867	11119.43
927.177	10979.54
927.487	10996.26
927.796	10883.73
928.106	10994
928.416	10908.58
928.725	10802.6
929.034	10744.75
929.344	10729.83
929.653	10679.21
929.962	10591.98
930.271	10550.17
930.581	10410.07
930.89	10531.87
931.199	10391.53
931.508	10284.87
931.817	10309.05
932.125	10229.51
932.434	10210.52
932.743	10144.99
933.051	10058.44
933.36	9928.95
933.669	9958.33
933.977	9900.47
934.286	9871.55
934.594	9877.2
934.902	9759.91
935.21	9771.21
935.519	9753.36
935.827	9603.31
936.135	9625.91
936.443	9478.79
936.751	9438.11
937.059	9427.49
937.367	9460.03
937.674	9399.24
937.982	9288.96
938.29	9267.27
938.597	9254.62
938.905	9112.02
939.213	9129.19
939.52	9089.2
939.827	9074.51
940.135	9094.17
940.442	8987.5
940.749	8993.15
941.056	8960.84
941.363	8872.03
941.67	8821.18
941.977	8794.97
942.284	8769.66
942.591	8712.03
942.898	8681.75
943.205	8686.72
943.511	8632.03
943.818	8593.84
944.125	8465.26
944.431	8462.32
944.738	8435.88
945.044	8477.01
945.35	8401.3
945.657	8303.91
945.963	8333.74
946.269	8214.19
946.575	8305.04
946.881	8194.98
947.187	8206.06
947.493	8154.98
947.799	8135.1
948.105	8065.27
948.41	8036.34
948.716	8059.17
949.022	8006.51
949.327	8001.54
949.633	7921.09
949.938	7950.92
950.244	7886.97
950.549	7866.86
950.854	7747.31
951.16	7851.49
951.465	7766.52
951.77	7720.64
952.075	7756.35
952.38	7667.76
952.685	7636.13
952.99	7601.33
953.294	7690.14
953.599	7605.39
953.904	7589.12
954.209	7527.66
954.513	7545.51
954.818	7487.66
955.122	7453.76
955.426	7420.54
955.731	7352.74
956.035	7323.82
956.339	7290.15
956.643	7335.12
956.948	7200.21
957.252	7227.1
957.556	7184.39
957.86	7190.71
958.163	7175.57
958.467	7094.67
958.771	7123.82
959.075	7077.72
959.378	7013.32
959.682	6979.87
959.985	6959.31
960.289	6888.12
960.592	6864.17
960.896	6849.03
961.199	6876.6
961.502	6802.02
961.805	6799.76
962.108	6738.75
962.411	6684.97
962.714	6688.58
963.017	6693.55
963.32	6675.7
963.623	6638.41
963.926	6603.16
964.228	6597.74
964.531	6570.84
964.833	6456.95
965.136	6464.86
965.438	6416.72
965.741	6440.9
966.043	6444.29
966.345	6342.38
966.648	6291.53
966.95	6366.1
967.252	6306.44
967.554	6289.27
967.856	6196.84
968.158	6194.13
968.46	6173.57
968.761	6109.84
969.063	6122.49
969.365	6106.68
969.666	6061.48
969.968	6011.08
970.269	5976.06
970.571	5988.26
970.872	5936.96
971.174	5909.39
971.475	5833.91
971.776	5811.09
972.077	5821.94
972.378	5764.76
972.679	5746.23
972.98	5703.75
973.281	5671.66
973.582	5666.46
973.883	5655.84
974.183	5630.3
974.484	5573.58
974.785	5589.85
975.085	5560.7
975.386	5549.18
975.686	5468.27
975.986	5381.27
976.287	5416.52
976.587	5333.59
976.887	5311.67
977.187	5285.91
977.487	5341.5
977.787	5291.56
978.087	5260.37
978.387	5228.73
978.687	5159.13
978.987	5148.96
979.286	5100.83
979.586	5195.29
979.885	5113.26
980.185	5065.12
980.484	5033.71
980.784	5034.39
981.083	5008.63
981.382	4926.59
981.682	4957.33
981.981	4992.13
982.28	4915.75
982.579	4853.83
982.878	4864.45
983.177	4807.27
983.475	4762.08
983.774	4746.26
984.073	4736.99
984.372	4736.99
984.67	4704
984.969	4667.39
985.267	4678.01
985.566	4691.8
985.864	4630.56
986.162	4624.68
986.461	4541.52
986.759	4593.95
987.057	4561.18
987.355	4507.4
987.653	4504.91
987.951	4489.09
988.249	4467.62
988.547	4445.48
988.844	4399.6
989.142	4428.53
989.44	4401.18
989.737	4378.36
990.035	4300.17
990.332	4285.03
990.63	4295.42
990.927	4304.46
991.224	4234.86
991.521	4212.94
991.819	4191.02
992.116	4211.58
992.413	4203.67
992.71	4125.71
993.006	4217.23
993.303	4122.55
993.6	4125.94
993.897	4098.82
994.193	4085.94
994.49	4096.11
994.787	4057.01
995.083	3986.73
995.379	3993.28
995.676	3995.32
995.972	3974.75
996.268	3961.2
996.565	3919.61
996.861	3915.09
997.157	3908.99
997.453	3866.51
997.749	3883.46
998.044	3846.17
998.34	3825.15
998.636	3820.41
998.932	3787.41
999.227	3781.54
999.523	3751.71
999.818	3753.52
1000.114	3707.87
1000.409	3666.06
1000.704	3676.91
1001	3670.58
1001.295	3631.49
1001.59	3638.27
1001.885	3602.56
1002.18	3607.98
1002.475	3543.35
1002.77	3537.7
1003.065	3523.47
1003.359	3487.08
1003.654	3490.93
1003.949	3498.16
1004.243	3413.41
1004.538	3423.36
1004.832	3404.6
1005.127	3373.41
1005.421	3384.49
1005.715	3346.3
1006.009	3350.14
1006.304	3299.07
1006.598	3291.83
1006.892	3278.05
1007.186	3237.82
1007.48	3259.07
1007.773	3212.06
1008.067	3220.2
1008.361	3157.83
1008.655	3146.3
1008.948	3141.78
1009.242	3109.01
1009.535	3180.2
1009.829	3087.32
1010.122	3076.92
1010.415	3047.32
1010.708	3034.21
1011.001	3013.2
1011.295	3022.91
1011.588	2932.3
1011.881	2946.53
1012.173	2982.69
1012.466	2903.82
1012.759	2868.34
1013.052	2890.26
1013.344	2862.24
1013.637	2860.89
1013.93	2803.49
1014.222	2800.1
1014.514	2798.29
1014.807	2747.22
1015.099	2711.28
1015.391	2708.12
1015.683	2714.22
1015.976	2693.43
1016.268	2679.65
1016.56	2659.99
1016.851	2612.08
1017.143	2595.58
1017.435	2601.23
1017.727	2574.11
1018.018	2592.42
1018.31	2528.69
1018.602	2523.04
1018.893	2528.46
1019.185	2480.56
1019.476	2456.38
1019.767	2429.48
1020.058	2390.39
1020.35	2396.49
1020.641	2389.03
1020.932	2325.31
1021.223	2350.16
1021.514	2328.92
1021.804	2307.68
1022.095	2266.32
1022.386	2258.42
1022.677	2277.62
1022.967	2247.34
1023.258	2210.73
1023.548	2229.26
1023.839	2191.75
1024.129	2175.93
1024.419	2173.22
1024.709	2129.15
1025	2151.07
1025.29	2135.03
1025.58	2096.61
1025.87	2088.02
1026.16	2063.39
1026.449	2082.6
1026.739	2044.64
1027.029	2027.01
1027.319	1968.48
1027.608	1962.83
1027.898	1958.99
1028.187	1970.74
1028.477	1949.72
1028.766	1941.36
1029.055	1901.36
1029.344	1877.63
1029.634	1914.47
1029.923	1846.9
1030.212	1880.35
1030.501	1834.7
1030.79	1852.32
1031.078	1818.2
1031.367	1815.26
1031.656	1784.3
1031.945	1798.09
1032.233	1770.29
1032.522	1709.73
1032.81	1710.41
1033.099	1735.27
1033.387	1697.07
1033.675	1700.69
1033.963	1688.71
1034.251	1662.72
1034.54	1657.53
1034.828	1643.52
1035.116	1634.02
1035.403	1641.03
1035.691	1594.48
1035.979	1620.69
1036.267	1599.45
1036.554	1590.64
1036.842	1566
1037.129	1533.24
1037.417	1551.09
1037.704	1540.02
1037.992	1519.9
1038.279	1525.78
1038.566	1510.86
1038.853	1510.86
1039.14	1510.86
