Data from aluminium_macbook_case_FLMS001491_100.txt Node
Date: Tue Feb 07 10:44:28 GMT 2017
User: dcchb
Spectrometer: FLMS00149
Trigger mode: 0
Integration Time (sec): 2.000000E-2
Scans to average: 10
Electric dark correction enabled: true
Nonlinearity correction enabled: false
Boxcar width: 0
XAxis mode: Wavelengths
Number of Pixels in Spectrum: 2048
>>>>>Begin Spectral Data<<<<<
341.393	-33.61
341.776	-33.61
342.16	-33.61
342.543	-59.83
342.927	-63.67
343.31	-72.26
343.693	-74.29
344.077	-57.8
344.46	-65.25
344.843	-48.08
345.226	-36.1
345.61	-40.17
345.993	6.16
346.376	-8.98
346.759	13.39
347.142	32.82
347.525	44.12
347.908	46.16
348.291	72.37
348.674	88.87
349.057	99.04
349.44	134.29
349.823	148.3
350.206	175.19
350.588	246.15
350.971	254.97
351.354	239.82
351.737	276.21
352.119	289.77
352.502	314.62
352.884	318.92
353.267	328.64
353.65	342.19
354.032	357.34
354.414	362.08
354.797	381.06
355.179	353.72
355.562	410.89
355.944	381.74
356.326	379.93
356.709	395.75
357.091	378.8
357.473	419.48
357.855	415.86
358.238	401.63
358.62	400.72
359.002	407.05
359.384	390.55
359.766	408.63
360.148	390.33
360.53	415.86
360.912	402.08
361.294	424.68
361.676	399.14
362.057	427.16
362.439	409.54
362.821	387.84
363.203	414.96
363.584	403.66
363.966	425.36
364.348	424.23
364.729	429.88
365.111	399.37
365.493	439.14
365.874	411.57
366.256	410.22
366.637	437.79
367.019	424.68
367.4	426.49
367.781	406.15
368.163	435.53
368.544	429.88
368.925	425.36
369.306	435.53
369.688	446.15
370.069	437.56
370.45	452.25
370.831	445.92
371.212	447.5
371.593	440.27
371.974	450.67
372.355	459.25
372.736	459.48
373.117	452.47
373.498	448.18
373.879	431.68
374.26	464
374.641	461.51
375.021	467.39
375.402	471.46
375.783	505.81
376.163	535.18
376.544	508.07
376.925	521.4
377.305	495.18
377.686	527.05
378.066	509.87
378.447	510.78
378.827	528.86
379.208	528.63
379.588	532.02
379.968	536.31
380.349	524.56
380.729	551
381.109	539.48
381.489	580.38
381.87	564.79
382.25	572.02
382.63	552.58
383.01	562.98
383.39	575.86
383.77	591.91
384.15	602.98
384.53	603.88
384.91	585.35
385.29	615.86
385.67	645.24
386.049	629.19
386.429	649.76
386.809	640.27
387.189	641.4
387.568	647.5
387.948	648.63
388.328	686.37
388.707	679.81
389.087	711
389.466	695.18
389.846	712.58
390.225	714.39
390.605	737.66
390.984	719.36
391.363	710.55
391.743	734.27
392.122	750.77
392.501	762.75
392.881	783.76
393.26	796.65
393.639	770.88
394.018	799.36
394.397	818.11
394.776	816.31
395.155	831.67
395.534	838
395.913	823.99
396.292	870.77
396.671	856.31
397.05	861.73
397.429	876.42
397.808	897.43
398.186	869.86
398.565	911.44
398.944	917.09
399.323	933.37
399.701	961.16
400.08	934.5
400.458	941.27
400.837	975.17
401.215	986.92
401.594	995.06
401.972	1003.87
402.351	1015.4
402.729	1019.92
403.107	1056.07
403.486	1034.38
403.864	1051.78
404.242	1053.59
404.62	1100.82
404.999	1084.55
405.377	1127.94
405.755	1128.84
406.133	1148.5
406.511	1160.7
406.889	1176.3
407.267	1199.8
407.645	1213.36
408.023	1228.05
408.401	1247.71
408.779	1228.27
409.156	1281.38
409.534	1293.58
409.912	1335.61
410.29	1358.89
410.667	1346.46
411.045	1383.97
411.422	1384.65
411.8	1420.13
412.178	1412.67
412.555	1470.98
412.933	1438.66
413.31	1509.4
413.687	1522.05
414.065	1515.95
414.442	1555.04
414.819	1609.73
415.197	1583.29
415.574	1605.66
415.951	1616.51
416.328	1657.19
416.705	1657.87
417.082	1663.74
417.46	1701.25
417.837	1749.39
418.214	1724.08
418.591	1781.48
418.967	1772.21
419.344	1799.33
419.721	1821.93
420.098	1826.9
420.475	1859.22
420.852	1873.91
421.228	1890.18
421.605	1919.55
421.982	1912.77
422.358	1977.86
422.735	2004.52
423.111	2035.71
423.488	2029.83
423.864	2050.17
424.241	2069.15
424.617	2106.89
424.994	2093.33
425.37	2089.27
425.746	2158.87
426.123	2184.63
426.499	2242.03
426.875	2235.25
427.251	2289.94
427.627	2317.51
428.003	2375.36
428.379	2401.35
428.756	2415.13
429.132	2466.88
429.507	2521.57
429.883	2524.96
430.259	2561.8
430.635	2587.11
431.011	2626.43
431.387	2700.55
431.763	2738.97
432.138	2698.29
432.514	2791.4
432.89	2812.86
433.265	2885.63
433.641	2919.98
434.016	2950.94
434.392	2969.92
434.767	3082.91
435.143	3041.78
435.518	3061.67
435.894	3143.02
436.269	3163.82
436.644	3232.29
437.02	3255.56
437.395	3286.98
437.77	3336.01
438.145	3361.78
438.52	3430.93
438.895	3466.63
439.271	3465.5
439.646	3538.95
440.021	3563.35
440.395	3604.93
440.77	3567.87
441.145	3632.28
441.52	3692.39
441.895	3694.65
442.27	3757.02
442.645	3710.02
443.019	3807.64
443.394	3798.83
443.769	3860.75
444.143	3817.81
444.518	3934.42
444.892	3917.47
445.267	3912.72
445.641	3997.92
446.016	4017.35
446.39	4044.7
446.764	4086.5
447.139	4073.17
447.513	4169.66
447.887	4178.03
448.262	4254.41
448.636	4260.51
449.01	4311.36
449.384	4376.21
449.758	4390.68
450.132	4422.31
450.506	4476.32
450.88	4476.32
451.254	4531.91
451.628	4582.76
452.002	4671.8
452.376	4672.25
452.75	4757.45
453.123	4740.04
453.497	4837.9
453.871	4905.92
454.244	4940.94
454.618	5045.8
454.992	5124.89
455.365	5116.53
455.739	5272.01
456.112	5309.97
456.486	5363.98
456.859	5365.34
457.232	5522.17
457.606	5545.9
457.979	5637.42
458.352	5776.85
458.725	5810.3
459.099	5834.25
459.472	5990.18
459.845	6050.74
460.218	6091.87
460.591	6156.05
460.964	6166
461.337	6299.1
461.71	6393.33
462.083	6508.13
462.456	6518.53
462.829	6580.67
463.201	6695.7
463.574	6674.01
463.947	6839.88
464.32	6951.06
464.692	7007.1
465.065	7093.43
465.438	7179.75
465.81	7318.51
466.183	7436.25
466.555	7594.66
466.928	7676.24
467.3	7637.14
467.672	7826.29
468.045	8035.1
468.417	8012.95
468.789	8142.22
469.161	8236.22
469.534	8375.66
469.906	8528.65
470.278	8609.55
470.65	8635.54
471.022	8822.65
471.394	9018.58
471.766	9075.52
472.138	9214.5
472.51	9406.81
472.882	9568.17
473.253	9700.59
473.625	9806.8
473.997	10014.26
474.369	10141.03
474.74	10268.71
475.112	10447.92
475.484	10618.76
475.855	10843.39
476.227	10942.59
476.598	11266.43
476.97	11372.86
477.341	11546.42
477.713	11799.75
478.084	11854.21
478.455	12318.38
478.827	12395.66
479.198	12744.81
479.569	12835.43
479.94	13127.62
480.311	13252.14
480.682	13503.88
481.053	13789.52
481.424	14012.12
481.795	14187.71
482.166	14310.64
482.537	14534.59
482.908	14922.15
483.279	14993.79
483.65	15278.3
484.021	15523.49
484.391	15734.56
484.762	15937.72
485.133	16139.97
485.503	16395.56
485.874	16782.44
486.244	16960.97
486.615	17305.36
486.985	17613.83
487.356	17885.01
487.726	18031.67
488.097	18395.28
488.467	18449.51
488.837	18908.49
489.207	19092.21
489.578	19309.61
489.948	19468.02
490.318	19800.21
490.688	19870.27
491.058	20245.85
491.428	20518.61
491.798	20666.41
492.168	21080.41
492.538	21036.79
492.908	21303.45
493.278	21551.58
493.648	21614.63
494.017	21987.73
494.387	22112.7
494.757	22410.77
495.126	22719.23
495.496	22733.7
495.866	22915.16
496.235	23264.98
496.605	23403.28
496.974	23582.71
497.344	23881.01
497.713	24031.06
498.082	24192.41
498.452	24576.81
498.821	24633.31
499.19	24708.11
499.559	25102.9
499.928	25238.04
500.298	25348.32
500.667	25752.37
501.036	25530.91
501.405	25815.65
501.774	25871.69
502.143	26176.54
502.512	26286.6
502.88	26589.87
503.249	26536.53
503.618	26810.2
503.987	26886.13
504.356	27062.17
504.724	27261.49
505.093	27416.74
505.462	27504.87
505.83	27784.64
506.199	28044.52
506.567	28362.47
506.936	28398.18
507.304	28732.86
507.672	28870.71
508.041	29109.35
508.409	29341.43
508.777	29581.2
509.145	29803.11
509.514	29964.92
509.882	30094.18
510.25	30246.72
510.618	30508.63
510.986	30775.29
511.354	31058
511.722	31168.28
512.09	31720.13
512.458	31586.57
512.826	31867.92
513.193	31979.78
513.561	32050.97
513.929	32385.87
514.297	32732.76
514.664	33027.21
515.032	33180.88
515.4	33239.41
515.767	33432.62
516.135	33684.37
516.502	33437.6
516.869	34220.17
517.237	34280.29
517.604	34354.18
517.972	34806.37
518.339	35018.57
518.706	34970.89
519.073	35334.72
519.44	35507.37
519.808	36049.05
520.175	36004.76
520.542	36422.83
520.909	36800.9
521.276	36915.02
521.643	37334.89
522.009	37615.79
522.376	37894.2
522.743	38089.45
523.11	38606.05
523.477	38890.79
523.843	39137.11
524.21	39464.33
524.577	39789.52
524.943	39813.02
525.31	40095.5
525.676	40529.61
526.043	40640.8
526.409	40829.94
526.776	41287.78
527.142	41337.27
527.508	41555.35
527.874	41941.78
528.241	42159.63
528.607	42210.7
528.973	42673.96
529.339	42569.78
529.705	43088.19
530.071	43336.77
530.437	43525.47
530.803	43915.96
531.169	43969.52
531.535	43965
531.901	44419.68
532.267	44583.29
532.632	44937.41
532.998	45054.47
533.364	45185.99
533.73	45363.61
534.095	46019.41
534.461	45952.75
534.826	46162.68
535.192	46445.39
535.557	46635.21
535.923	46603.12
536.288	46892.61
536.653	46993.17
537.019	47006.73
537.384	47167.86
537.749	47417.34
538.114	47590.9
538.479	47553.38
538.845	47803.77
539.21	47742.08
539.575	47983.65
539.94	48066.82
540.305	48235.17
540.67	48171.22
541.034	48446.92
541.399	48614.6
541.764	48777.98
542.129	48802.84
542.494	48924.65
542.858	49105.21
543.223	49214.81
543.587	49379.1
543.952	49473.33
544.316	49551.07
544.681	49602.82
545.045	49896.6
545.41	49957.16
545.774	50121.45
546.138	50184.27
546.503	50354.44
546.867	50423.14
547.231	50704.03
547.595	50738.61
547.959	50829.91
548.324	50948.32
548.688	51021.09
549.052	51174.76
549.416	51305.6
549.779	51296.11
550.143	51533.84
550.507	51762.31
550.871	51801.18
551.235	51847.96
551.599	52019.25
551.962	52205.46
552.326	52193.03
552.689	52368.85
553.053	52294.5
553.417	52416.08
553.78	52744.21
554.143	52658.33
554.507	52777.43
554.87	52910.98
555.234	53247.47
555.597	53105.55
555.96	53303.97
556.323	53472.32
556.686	53407.92
557.05	53651.98
557.413	53698.76
557.776	53775.59
558.139	54009.26
558.502	54098.3
558.865	54169.25
559.228	54409.93
559.59	54410.15
559.953	54545.29
560.316	54849.01
560.679	54857.6
561.041	55036.35
561.404	55180.75
561.767	55349.34
562.129	55329.68
562.492	55583
562.854	55681.3
563.217	55690.57
563.579	55871.13
563.941	55940.51
564.304	56038.58
564.666	56299.14
565.028	56291.46
565.39	56408.97
565.753	56538.46
566.115	56582.75
566.477	56673.37
566.839	56808.05
567.201	56993.13
567.563	56928.73
567.925	57118.55
568.287	57134.15
568.648	57177.31
569.01	57376.4
569.372	57553.8
569.734	57426.34
570.095	57633.8
570.457	57707.47
570.819	57798.08
571.18	57810.74
571.542	57951.3
571.903	57979.32
572.265	58060.45
572.626	58157.17
572.987	58179.54
573.349	58244.63
573.71	58397.39
574.071	58334.12
574.432	58495.24
574.794	58688.91
575.155	58647.1
575.516	58563.49
575.877	58660.66
576.238	58737.04
576.599	58816.59
576.96	58913.99
577.32	58912.18
577.681	59056.13
578.042	59066.3
578.403	59033.53
578.763	59063.14
579.124	59139.97
579.485	59248.44
579.845	59300.64
580.206	59230.82
580.566	59245.28
580.927	59200.31
581.287	59404.37
581.648	59265.62
582.008	59395.56
582.368	59302.23
582.728	59436.23
583.089	59381.77
583.449	59377.93
583.809	59423.8
584.169	59373.86
584.529	59375.67
584.889	59532.28
585.249	59405.27
585.609	59360.3
585.969	59526.63
586.329	59426.06
586.688	59473.52
587.048	59503.58
587.408	59374.99
587.768	59473.52
588.127	59426.29
588.487	59433.52
588.846	59612.05
589.206	59393.3
589.565	59404.6
589.925	59540.64
590.284	59534.31
590.643	59502.45
591.003	59555.78
591.362	59671.03
591.721	59525.95
592.08	59483.46
592.44	59605.27
592.799	59602.56
593.158	59561.65
593.517	59608.88
593.876	59716.68
594.235	59609.79
594.593	59655.21
594.952	59627.87
595.311	59662.22
595.67	59657.24
596.029	59735.89
596.387	59794.42
596.746	59788.09
597.104	59687.53
597.463	59672.61
597.822	59769.33
598.18	59693.4
598.538	59711.25
598.897	59781.31
599.255	59642.56
599.613	59985.37
599.972	59856.11
600.33	59885.26
600.688	59789.9
601.046	59883.23
601.404	59935.66
601.762	59912.83
602.12	60038.48
602.478	60031.7
602.836	60034.86
603.194	59938.82
603.552	60019.5
603.91	59931.14
604.268	60079.15
604.625	59930.01
604.983	60097.46
605.341	59936.33
605.698	60117.57
606.056	60123.67
606.413	60134.75
606.771	60204.8
607.128	60148.76
607.485	60073.28
607.843	60109.89
608.2	60297.23
608.557	60301.07
608.914	60210.45
609.272	60346.27
609.629	60404.8
609.986	60438.02
610.343	60367.06
610.7	60521.85
611.057	60466.04
611.414	60460.84
611.771	60501.29
612.127	60614.73
612.484	60596.88
612.841	60647.95
613.198	60541.29
613.554	60590.1
613.911	60694.05
614.267	60731.12
614.624	60644.79
614.98	60658.57
615.337	60809.76
615.693	60706.26
616.05	60686.6
616.406	60816.99
616.762	60814.05
617.118	60743.54
617.475	60788.29
617.831	60915.74
618.187	60903.77
618.543	60932.24
618.899	61012.69
619.255	61026.47
619.611	60969.53
619.967	61014.5
620.323	61054.72
620.678	60998.45
621.034	60898.57
621.39	60943.54
621.746	60954.39
622.101	61116.19
622.457	60904.67
622.812	60951
623.168	61076.87
623.523	60984.22
623.879	61067.83
624.234	60936.76
624.589	60955.97
624.945	61022.18
625.3	61035.97
625.655	60983.76
626.01	61002.97
626.365	60930.21
626.72	60901.73
627.075	60888.62
627.43	60893.6
627.785	60794.39
628.14	60913.94
628.495	60888.85
628.85	60944.22
629.205	60872.58
629.559	60896.31
629.914	60775.18
630.269	60807.05
630.623	60753.49
630.978	60706.26
631.332	60828.74
631.687	60803.2
632.041	60693.6
632.396	60732.24
632.75	60558.01
633.104	60668.52
633.459	60576.77
633.813	60537.45
634.167	60528.63
634.521	60527.05
634.875	60564.79
635.229	60436.43
635.583	60425.36
635.937	60454.06
636.291	60389.2
636.645	60413.16
636.999	60395.08
637.352	60428.52
637.706	60284.57
638.06	60309.43
638.413	60300.39
638.767	60240.05
639.121	60293.61
639.474	60120.06
639.828	60097.46
640.181	60100.4
640.534	60064.69
640.888	59945.37
641.241	59862.89
641.594	59892.49
641.947	59922.32
642.301	59820.86
642.654	59840.97
643.007	59825.83
643.36	59830.35
643.713	59762.55
644.066	59797.13
644.419	59642.78
644.771	59505.16
645.124	59283.47
645.477	59212.74
645.83	59106.98
646.182	58898.17
646.535	58807.32
646.888	58869.02
647.24	58824.27
647.593	58856.14
647.945	58846.64
648.298	58620.21
648.65	58603.04
649.002	58535.69
649.355	58667.89
649.707	58643.94
650.059	58738.4
650.411	59012.29
650.763	58970.48
651.115	59185.39
651.467	59151.72
651.819	59126.86
652.171	59062.91
652.523	59010.71
652.875	58956.47
653.227	58899.52
653.578	59000.99
653.93	58985.4
654.282	58895.23
654.633	58834.89
654.985	58825.85
655.337	58838.28
655.688	58875.57
656.039	58984.04
656.391	58692.3
656.742	58761
657.094	58741.34
657.445	58835.8
657.796	58776.14
658.147	58737.5
658.498	58716.48
658.849	58782.24
659.2	58735.01
659.551	58654.33
659.902	58681.45
660.253	58614.11
660.604	58576.6
660.955	58439.42
661.306	58513.55
661.656	58472.19
662.007	58479.65
662.358	58457.95
662.708	58408.92
663.059	58386.77
663.409	58239.43
663.76	58437.84
664.11	58356.04
664.461	58362.14
664.811	58318.98
665.161	58302.48
665.511	58263.16
665.862	58260.45
666.212	58352.42
666.562	58239.66
666.912	58214.8
667.262	58209.37
667.612	58194.68
667.962	58231.97
668.312	58175.25
668.662	58251.86
669.011	58116.27
669.361	58082.6
669.711	58062.71
670.06	58081.24
670.41	58069.49
670.76	57946.78
671.109	58015.03
671.459	57965.09
671.808	57944.75
672.157	57963.96
672.507	57843.96
672.856	57874.47
673.205	57908.59
673.554	57951.75
673.904	57884.41
674.253	57933.9
674.602	57863.39
674.951	57496.62
675.3	57463.63
675.649	57810.51
675.998	57776.84
676.346	57783.17
676.695	57790.63
677.044	57660.01
677.393	57762.83
677.741	57846.45
678.09	57740.01
678.438	57596.06
678.787	57614.59
679.135	57581.82
679.484	57422.95
679.832	57510.41
680.181	57335.95
680.529	57413.01
680.877	57344.31
681.225	57291.43
681.573	57394.25
681.922	57254.14
682.27	57128.27
682.618	57154.71
682.966	57065
683.314	57172.79
683.661	56999.24
684.009	56916.53
684.357	56728.06
684.705	56715.18
685.053	56760.15
685.4	56719.24
685.748	56514.73
686.095	56578
686.443	56512.47
686.79	56416.65
687.138	56489.87
687.485	56455.3
687.832	56253.04
688.18	56341.17
688.527	56230.22
688.874	56101.86
689.221	56050.33
689.568	55997.45
689.915	55918.13
690.262	55877.01
690.609	55845.59
690.956	55716.33
691.303	55717.46
691.65	55512.5
691.997	55610.35
692.344	55469.11
692.69	55422.33
693.037	55380.52
693.383	55146.4
693.73	55229.34
694.077	55028.89
694.423	55034.54
694.769	55016.01
695.116	54903.7
695.462	54929.23
695.808	54856.92
696.155	54801.33
696.501	54643.37
696.847	54661.44
697.193	54457.83
697.539	54538.06
697.885	54411.51
698.231	54274.34
698.577	54225.3
698.923	54060.1
699.269	54009.94
699.614	53797.74
699.96	53810.84
700.306	53837.96
700.651	53739.43
700.997	53548.03
701.342	53513.68
701.688	53529.5
702.033	53356.17
702.379	53361.82
702.724	53222.61
703.069	53295.38
703.415	52885.9
703.76	52959.34
704.105	52952.56
704.45	52871.66
704.795	52509.41
705.14	52539.24
705.485	52436.64
705.83	52231.9
706.175	52290.66
706.52	52188.29
706.865	52028.52
707.209	52058.8
707.554	51865.13
707.899	51955.07
708.243	51670.11
708.588	51588.98
708.932	51373.39
709.277	51411.81
709.621	51369.33
709.966	51247.97
710.31	51369.1
710.654	50972.5
710.998	51076.23
711.342	50909.68
711.687	50855.44
712.031	50685.5
712.375	50696.35
712.719	50708.1
713.063	50748.33
713.407	50711.04
713.75	50515.34
714.094	50492.51
714.438	50327.77
714.782	50374.78
715.125	50259.98
715.469	50188.79
715.812	50042.58
716.156	49881.23
716.499	49954.9
716.843	49948.8
717.186	49767.34
717.53	49795.58
717.873	49806.88
718.216	49692.76
718.559	49544.97
718.902	49243.28
719.246	49467.23
719.589	49382.94
719.932	49184.3
720.275	49319.89
720.617	49136.84
720.96	49034.93
721.303	49076.51
721.646	49032.89
721.989	48784.31
722.331	48891.88
722.674	48737.08
723.016	48685.56
723.359	48576.41
723.701	48714.26
724.044	48412.57
724.386	48208.28
724.729	48314.72
725.071	48269.3
725.413	48151.56
725.755	48138.45
726.097	48028.4
726.439	47773.26
726.782	47694.62
727.124	47856.2
727.465	47644.23
727.807	47599.26
728.149	47396.1
728.491	47233.84
728.833	47454.4
729.175	47134.18
729.516	47042.21
729.858	46960.86
730.199	46959.5
730.541	46830.24
730.882	46650.13
731.224	46794.98
731.565	46552.96
731.906	46625.05
732.248	46563.8
732.589	46340.98
732.93	46250.37
733.271	46258.28
733.612	46163.81
733.953	46133.98
734.294	46048.56
734.635	45742.58
734.976	45951.62
735.317	45720.89
735.658	45652.64
735.999	45686.09
736.339	45602.25
736.68	45490.16
737.021	45362.03
737.361	45381.91
737.702	45643.83
738.042	45304.18
738.383	45336.49
738.723	45388.69
739.063	45158.42
739.404	45290.84
739.744	45091.07
740.084	44910.97
740.424	45032.54
740.764	44874.81
741.104	44999.55
741.444	44808.14
741.784	44592.33
742.124	44610.86
742.464	44650.86
742.804	44405.67
743.143	44466.68
743.483	44530.19
743.823	44259.91
744.162	44277.54
744.502	44346.91
744.841	44147.82
745.181	44152.12
745.52	43982.18
745.86	44130.65
746.199	43909.64
746.538	43854.95
746.877	43855.63
747.216	43846.81
747.556	43716.65
747.895	43601.4
748.234	43418.35
748.573	43350.78
748.911	43287.28
749.25	43271.24
749.589	42950.34
749.928	43132.48
750.267	43162.31
750.605	42879.83
750.944	42930.45
751.283	42612.04
751.621	42697.46
751.96	42366.17
752.298	42305.84
752.636	42353.97
752.975	42117.82
753.313	41980.42
753.651	42131.15
753.989	41887.99
754.327	41672.86
754.666	41454.33
755.004	41571.84
755.342	41450.94
755.679	41397.84
756.017	41164.85
756.355	41264.51
756.693	40942.48
757.031	40960.34
757.368	40675.82
757.706	40708.59
758.044	40426.11
758.381	40585.2
758.719	40324.19
759.056	40184.54
759.394	40062.51
759.731	39924.2
760.068	39816.86
760.405	39549.98
760.743	39456.65
761.08	39613.03
761.417	39342.52
761.754	39385.46
762.091	39233.15
762.428	38966.49
762.765	38923.78
763.102	39054.85
763.438	38695.76
763.775	38481.08
764.112	38559.27
764.449	38615.76
764.785	38340.52
765.122	38099.62
765.458	38002.67
765.795	37956.8
766.131	37770.59
766.467	37726.75
766.804	37672.06
767.14	37458.05
767.476	37440.65
767.812	37155.24
768.148	37200.21
768.485	37057.61
768.821	36864.62
769.157	36804.74
769.492	36754.57
769.828	36759.77
770.164	36434.58
770.5	36435.48
770.836	36194.81
771.171	36072.55
771.507	36103.74
771.842	35832.79
772.178	35753.24
772.513	35732.45
772.849	35586.24
773.184	35473.47
773.519	35394.83
773.855	35249.98
774.19	35036.88
774.525	34955.3
774.86	35056.76
775.195	34869.42
775.53	34668.75
775.865	34466.27
776.2	34324.58
776.535	34016.79
776.87	33962.33
777.205	33760.52
777.539	33779.96
777.874	33757.36
778.209	33411.61
778.543	33210.93
778.878	33169.81
779.212	33067.21
779.547	32857.72
779.881	32832.87
780.215	32600.1
780.55	32622.93
780.884	32293.9
781.218	32337.74
781.552	32342.71
781.886	32099.78
782.22	31945.66
782.554	31754.02
782.888	31453.69
783.222	31406.91
783.556	31212.12
783.889	31081.05
784.223	30998.56
784.557	30744.56
784.89	30805.57
785.224	30712.24
785.557	30563.32
785.891	30274.97
786.224	30328.75
786.558	30172.37
786.891	30001.3
787.224	29910
787.557	29792.95
787.891	29818.71
788.224	29667.3
788.557	29717.92
788.89	29521.09
789.223	29529
789.556	29253.3
789.888	29218.05
790.221	29187.76
790.554	28971.5
790.887	29001.33
791.219	28765.63
791.552	28751.62
791.884	28638.17
792.217	28528.35
792.549	28428.01
792.882	28272.76
793.214	28192.31
793.546	28327.22
793.879	28131.75
794.211	27869.38
794.543	27911.41
794.875	27821.47
795.207	28071.63
795.539	27802.72
795.871	27777.41
796.203	27578.77
796.535	27394.59
796.867	27314.59
797.198	27279.11
797.53	27267.59
797.862	27021.04
798.193	27219
798.525	26989.18
798.856	26948.27
799.188	26752.12
799.519	26553.93
799.85	26419.25
800.182	26463.32
800.513	26406.82
800.844	26242.98
801.175	26330.21
801.506	26324.11
801.837	26178.8
802.168	26034.4
802.499	26017.68
802.83	25871.24
803.161	25715.31
803.491	25836.89
803.822	25744.01
804.153	25564.13
804.483	25404.13
804.814	25268.09
805.145	25184.71
805.475	25026.29
805.805	25008.21
806.136	24992.85
806.466	24955.33
806.796	24992.39
807.126	24677.15
807.457	24626.3
807.787	24777.94
808.117	24513.76
808.447	24411.84
808.777	24454.55
809.107	24333.88
809.436	24090.04
809.766	24040.1
810.096	23955.81
810.426	23892.76
810.755	23920.78
811.085	23939.09
811.414	23797.62
811.744	23450.06
812.073	23523.51
812.403	23667.46
812.732	23378.42
813.061	23293
813.39	23172.55
813.719	23078.77
814.049	23283.96
814.378	23105.66
814.707	22977.98
815.036	22944.76
815.365	22906.35
815.693	22598.11
816.022	22662.29
816.351	22629.52
816.68	22499.35
817.008	22664.32
817.337	22344.55
817.665	22438.56
817.994	22519.69
818.322	22419.35
818.651	22325.12
818.979	22260.04
819.307	22270.43
819.636	22256.19
819.964	21993.38
820.292	22264.78
820.62	22117.89
820.948	22107.05
821.276	22110.66
821.604	22031.57
821.932	22196.99
822.259	22292.58
822.587	22208.29
822.915	22019.14
823.243	22151.79
823.57	22062.98
823.898	22095.97
824.225	22142.98
824.553	22154.28
824.88	22122.64
825.207	22228.62
825.535	22180.49
825.862	22114.28
826.189	22180.94
826.516	22298.45
826.843	22395.63
827.17	22239.47
827.497	22219.81
827.824	22153.15
828.151	22342.29
828.478	22214.16
828.805	22323.54
829.131	22295.52
829.458	22127.61
829.785	22053.71
830.111	21985.24
830.438	22211.68
830.764	22119.02
831.09	22186.14
831.417	22120.83
831.743	22168.06
832.069	22059.59
832.395	22023.21
832.722	22119.25
833.048	22001.51
833.374	22053.94
833.7	21858.46
834.026	21874.51
834.351	21914.28
834.677	21887.39
835.003	21907.96
835.329	21813.04
835.654	21832.02
835.98	21668.19
836.306	21725.81
836.631	21631.8
836.956	21618.92
837.282	21576.66
837.607	21530.34
837.932	21401.3
838.258	21412.6
838.583	21346.39
838.908	21287.86
839.233	21301.64
839.558	21257.8
839.883	21140.29
840.208	20982.78
840.533	21052.16
840.858	21029.56
841.182	21054.42
841.507	20977.13
841.832	20903.01
842.156	20816.68
842.481	20850.58
842.805	20775.78
843.13	20662.79
843.454	20666.63
843.778	20557.26
844.103	20528.78
844.427	20449.24
844.751	20486.98
845.075	20420.08
845.399	20413.98
845.723	20251.73
846.047	20311.84
846.371	20094.67
846.695	20079.08
847.019	20028.68
847.343	19881.34
847.666	19733.77
847.99	19727.45
848.313	19738.52
848.637	19657.84
848.96	19602.25
849.284	19518.19
849.607	19423.73
849.931	19348.02
850.254	19211.08
850.577	19044.98
850.9	19079.55
851.223	18948.48
851.546	18885.89
851.869	18682.28
852.192	18861.26
852.515	18644.09
852.838	18688.15
853.161	18609.06
853.483	18583.3
853.806	18503.52
854.129	18510.53
854.451	18488.16
854.774	18411.78
855.096	18312.57
855.419	18395.05
855.741	18312.34
856.063	18102.18
856.385	18159.35
856.708	18177.66
857.03	18152.57
857.352	18157.09
857.674	17968.4
857.996	17914.61
858.318	17845.91
858.64	17946.25
858.961	17818.35
859.283	17813.83
859.605	17617.67
859.926	17761.4
860.248	17694.96
860.57	17644.56
860.891	17693.83
861.212	17597.79
861.534	17537
861.855	17438.69
862.176	17561.63
862.498	17499.71
862.819	17534.51
863.14	17395.53
863.461	17398.24
863.782	17344.69
864.103	17222.43
864.424	17284.57
864.745	17319.38
865.065	17134.75
865.386	17086.84
865.707	17154.86
866.027	17178.36
866.348	17063.11
866.668	17054.52
866.989	16967.75
867.309	16858.82
867.63	16872.16
867.95	16906.5
868.27	16737.7
868.59	16914.87
868.91	16778.6
869.23	16672.16
869.55	16586.96
869.87	16699.73
870.19	16590.13
870.51	16628.09
870.83	16654.08
871.15	16514.42
871.469	16537.25
871.789	16485.95
872.109	16483.69
872.428	16372.73
872.748	16453.41
873.067	16430.58
873.386	16422
873.706	16390.59
874.025	16358.5
874.344	16282.11
874.663	16282.34
874.982	16230.82
875.301	16242.79
875.62	16189.24
875.939	16106.3
876.258	16097.71
876.577	16042.35
876.896	16046.87
877.214	16002.57
877.533	16010.93
877.852	15942.69
878.17	16054.1
878.489	15923.25
878.807	15906.08
879.125	15831.05
879.444	15866.31
879.762	15816.14
880.08	15670.38
880.398	15688.68
880.716	15737.04
881.034	15604.84
881.352	15672.19
881.67	15679.42
881.988	15718.29
882.306	15634
882.624	15626.31
882.941	15516.71
883.259	15415.24
883.577	15474.45
883.894	15414.11
884.212	15340.44
884.529	15357.62
884.846	15303.38
885.164	15388.58
885.481	15377.73
885.798	15285.98
886.115	15274.46
886.432	15159.88
886.75	15240.79
887.067	15190.84
887.383	15213.22
887.7	15170.73
888.017	15148.13
888.334	15259.54
888.651	15055.71
888.967	15055.48
889.284	14961.25
889.6	14894.35
889.917	14902.72
890.233	14900.91
890.55	14825.88
890.866	14949.27
891.182	14795.37
891.498	14798.54
891.815	14735.04
892.131	14732.55
892.447	14622.72
892.763	14579.33
893.079	14578.88
893.395	14483.29
893.71	14592.67
894.026	14469.28
894.342	14474.25
894.657	14302.51
894.973	14425.67
895.289	14368.27
895.604	14317.19
895.92	14178.67
896.235	14194.03
896.55	14210.76
896.865	14199.91
897.181	14106.58
897.496	14011.21
897.811	14046.69
898.126	13913.59
898.441	13862.52
898.756	13825.68
899.071	13829.75
899.386	13713.59
899.7	13754.95
900.015	13671.11
900.33	13585.01
900.644	13576.42
900.959	13552.92
901.273	13502.07
901.588	13420.27
901.902	13404.22
902.216	13388.41
902.531	13260.5
902.845	13300.72
903.159	13189.09
903.473	13060.28
903.787	13066.38
904.101	13011.92
904.415	12972.6
904.729	12892.37
905.042	12868.87
905.356	12852.6
905.67	12803.34
905.984	12881.75
906.297	12740.29
906.611	12609.67
906.924	12600.86
907.237	12540.97
907.551	12547.07
907.864	12376.91
908.177	12344.36
908.491	12422.1
908.804	12309.79
909.117	12258.04
909.43	12165.84
909.743	12111.38
910.056	12102.79
910.368	11960.42
910.681	12001.77
910.994	11989.8
911.307	11933.75
911.619	11814.89
911.932	11775.34
912.244	11737.83
912.557	11678.85
912.869	11597.72
913.181	11639.75
913.494	11483.37
913.806	11482.01
914.118	11418.97
914.43	11355.92
914.742	11359.08
915.054	11202.93
915.366	11247.44
915.678	11174.68
915.99	11195.24
916.302	11083.15
916.613	10992.76
916.925	11035.92
917.236	10962.25
917.548	10930.62
917.859	10981.91
918.171	10851.75
918.482	10818.98
918.794	10801.35
919.105	10720
919.416	10672.77
919.727	10674.13
920.038	10585.54
920.349	10524.3
920.66	10538.99
920.971	10516.62
921.282	10510.51
921.593	10331.99
921.903	10260.13
922.214	10356.85
922.525	10350.97
922.835	10193.23
923.146	10128.38
923.456	10157.3
923.767	10147.36
924.077	10166.79
924.387	10026.69
924.697	9969.74
925.008	10008.15
925.318	10008.83
925.628	9948.95
925.938	9896.52
926.248	9826.92
926.558	9758.22
926.867	9762.74
927.177	9701.27
927.487	9604.32
927.796	9588.28
928.106	9521.39
928.416	9553.25
928.725	9552.57
929.034	9499.92
929.344	9479.13
929.653	9479.13
929.962	9412.92
930.271	9306.25
930.581	9308.96
930.89	9299.25
931.199	9219.7
931.508	9188.97
931.817	9140.16
932.125	9126.82
932.434	9096.77
932.743	9030.33
933.051	8948.3
933.36	8981.97
933.669	8941.74
933.977	8906.49
934.286	8899.48
934.594	8929.09
934.902	8769.09
935.21	8708.53
935.519	8740.62
935.827	8750.33
936.135	8646.61
936.443	8573.62
936.751	8596.21
937.059	8537.46
937.367	8444.81
937.674	8441.19
937.982	8438.03
938.29	8428.99
938.597	8429.21
938.905	8351.7
939.213	8282.32
939.52	8240.29
939.827	8277.35
940.135	8117.81
940.442	8131.82
940.749	8165.49
941.056	8038.49
941.363	8073.06
941.67	8042.78
941.977	7962.56
942.284	7893.18
942.591	7887.98
942.898	7919.85
943.205	7862.67
943.511	7819.96
943.818	7805.27
944.125	7754.88
944.431	7658.61
944.738	7680.31
945.044	7613.87
945.35	7600.53
945.657	7532.06
945.963	7504.72
946.269	7512.63
946.575	7456.36
946.881	7346.76
947.187	7339.98
947.493	7419.75
947.799	7323.93
948.105	7297.49
948.41	7163.94
948.716	7185.86
949.022	7210.26
949.327	7138.63
949.633	7054.56
949.938	7089.81
950.244	7059.53
950.549	6993.09
950.854	6951.51
951.16	6892.98
951.465	6854.79
951.77	6836.94
952.075	6845.3
952.38	6720.33
952.685	6795.13
952.99	6736.38
953.294	6683.95
953.599	6665.42
953.904	6610.96
954.209	6584.74
954.513	6545.2
954.818	6535.03
955.122	6570.28
955.426	6503.16
955.731	6487.12
956.035	6450.96
956.339	6468.36
956.643	6449.83
956.948	6380.45
957.252	6305.43
957.556	6304.07
957.86	6243.73
958.163	6243.06
958.467	6220.23
958.771	6138.88
959.075	6172.32
959.378	6097.3
959.682	6132.78
959.985	6069.28
960.289	6080.8
960.592	6046.23
960.896	6001.03
961.199	5951.09
961.502	5905.44
961.805	5918.09
962.108	5919.9
962.411	5914.03
962.714	5837.19
963.017	5834.03
963.32	5818.89
963.623	5787.47
963.926	5803.07
964.228	5721.26
964.531	5695.5
964.833	5715.61
965.136	5675.61
965.438	5680.81
965.741	5614.15
966.043	5636.97
966.345	5561.72
966.648	5579.12
966.95	5546.35
967.252	5523.3
967.554	5505.9
967.856	5495.96
968.158	5432.46
968.46	5419.8
968.761	5445.34
969.063	5401.95
969.365	5414.15
969.666	5358.56
969.968	5284.21
970.269	5341.84
970.571	5286.47
970.872	5274.95
971.174	5209.19
971.475	5236.3
971.776	5223.87
972.077	5163.54
972.378	5189.3
972.679	5122.41
972.98	5059.13
973.281	5073.6
973.582	5101.17
973.883	5055.29
974.183	5005.57
974.484	4978.68
974.785	4957.67
975.085	4979.59
975.386	5033.6
975.686	4927.61
975.986	4877.44
976.287	4931.9
976.587	4865.69
976.887	4851.45
977.187	4843.09
977.487	4781.63
977.787	4772.13
978.087	4794.05
978.387	4762.87
978.687	4681.06
978.987	4686.49
979.286	4658.24
979.586	4638.58
979.885	4664.34
980.185	4630.44
980.484	4592.7
980.784	4537.11
981.083	4541.86
981.382	4477.23
981.682	4546.6
981.981	4478.81
982.28	4444.91
982.579	4421.18
982.878	4416.21
983.177	4438.36
983.475	4356.33
983.774	4334.18
984.073	4368.76
984.372	4340.51
984.67	4296.67
984.969	4273.62
985.267	4317.46
985.566	4227.29
985.864	4207.18
986.162	4205.14
986.461	4171.25
986.759	4128.99
987.057	4143.9
987.355	4114.98
987.653	4128.76
987.951	4018.26
988.249	4046.96
988.547	4044.47
988.844	4023.23
989.142	4007.86
989.44	3940.07
989.737	3953.17
990.035	3912.5
990.332	3893.06
990.63	3879.28
990.927	3877.47
991.224	3826.85
991.521	3813.97
991.819	3828.66
992.116	3803.57
992.413	3813.29
992.71	3770.58
993.006	3739.17
993.303	3683.12
993.6	3669.34
993.897	3671.6
994.193	3646.74
994.49	3627.08
994.787	3640.86
995.083	3568.1
995.379	3554.31
995.676	3556.35
995.972	3529
996.268	3537.59
996.565	3471.15
996.861	3438.16
997.157	3482.68
997.453	3436.12
997.749	3427.09
998.044	3427.99
998.34	3365.84
998.636	3371.49
998.932	3352.51
999.227	3340.76
999.523	3311.83
999.818	3283.13
1000.114	3312.51
1000.409	3238.62
1000.704	3259.86
1001	3265.73
1001.295	3197.26
1001.59	3173.31
1001.885	3175.57
1002.18	3161.1
1002.475	3148.22
1002.77	3152.97
1003.065	3082.24
1003.359	3092.86
1003.654	3029.81
1003.949	3049.69
1004.243	3000.88
1004.538	3007.89
1004.832	2995.46
1005.127	2936.93
1005.421	2984.38
1005.715	2933.99
1006.009	2945.06
1006.304	2911.84
1006.598	2932.63
1006.892	2907.1
1007.186	2868.46
1007.48	2823.26
1007.773	2798.4
1008.067	2802.47
1008.361	2768.12
1008.655	2776.03
1008.948	2763.6
1009.242	2762.47
1009.535	2732.87
1009.829	2736.93
1010.122	2746.88
1010.415	2670.27
1010.708	2691.29
1011.001	2653.32
1011.295	2637.28
1011.588	2663.26
1011.881	2622.81
1012.173	2603.38
1012.466	2588.01
1012.759	2608.12
1013.052	2536.49
1013.344	2520.67
1013.637	2516.15
1013.93	2507.56
1014.222	2513.21
1014.514	2514.34
1014.807	2467.34
1015.099	2458.97
1015.391	2429.37
1015.683	2439.99
1015.976	2435.47
1016.268	2415.36
1016.56	2374.01
1016.851	2355.93
1017.143	2367
1017.435	2348.92
1017.727	2336.72
1018.018	2285.65
1018.31	2276.83
1018.602	2279.32
1018.893	2229.83
1019.185	2219.43
1019.476	2236.38
1019.767	2216.95
1020.058	2166.1
1020.35	2179.43
1020.641	2189.15
1020.932	2155.48
1021.223	2131.98
1021.514	2133.33
1021.804	2096.27
1022.095	2100.11
1022.386	2048.36
1022.677	2095.82
1022.967	2080
1023.258	2038.42
1023.548	2075.93
1023.839	1994.35
1024.129	1991.19
1024.419	1969.72
1024.709	1949.16
1025	1926.79
1025.29	1925.2
1025.58	1896.5
1025.87	1901.93
1026.16	1911.19
1026.449	1883.4
1026.739	1881.59
1027.029	1852.89
1027.319	1862.83
1027.608	1839.56
1027.898	1821.7
1028.187	1790.74
1028.477	1804.98
1028.766	1792.55
1029.055	1747.36
1029.344	1754.81
1029.634	1755.04
1029.923	1707.13
1030.212	1700.58
1030.501	1680.69
1030.79	1694.48
1031.078	1653.35
1031.367	1664.42
1031.656	1630.52
1031.945	1621.48
1032.233	1634.82
1032.522	1602.27
1032.81	1598.21
1033.099	1614.48
1033.387	1581.94
1033.675	1563.63
1033.963	1544.87
1034.251	1533.12
1034.54	1539.68
1034.828	1522.95
1035.116	1491.77
1035.403	1464.88
1035.691	1486.57
1035.979	1485.67
1036.267	1444.54
1036.554	1447.7
1036.842	1432.56
1037.129	1449.51
1037.417	1418.1
1037.704	1407.03
1037.992	1409.06
1038.279	1405.44
1038.566	1401.38
1038.853	1401.38
1039.14	1401.38
