Data from aluminium_surface_pro_back_FLMS001491_00097.txt Node
Date: Wed Feb 08 15:34:48 GMT 2017
User: dcchb
Spectrometer: FLMS00149
Trigger mode: 0
Integration Time (sec): 2.000000E-2
Scans to average: 10
Electric dark correction enabled: true
Nonlinearity correction enabled: false
Boxcar width: 0
XAxis mode: Wavelengths
Number of Pixels in Spectrum: 2048
>>>>>Begin Spectral Data<<<<<
341.393	-23.91
341.776	-23.91
342.16	-23.91
342.543	-59.62
342.927	-67.53
343.31	-68.2
343.693	-54.42
344.077	-40.63
344.46	-57.58
344.843	-58.71
345.226	-45.15
345.61	-41.99
345.993	-20.52
346.376	-12.39
346.759	13.6
347.142	23.54
347.525	36.43
347.908	49.53
348.291	75.29
348.674	89.98
349.057	111.23
349.44	116.2
349.823	153.48
350.206	161.39
350.588	215.63
350.971	215.86
351.354	249.98
351.737	242.52
352.119	259.02
352.502	279.36
352.884	295.63
353.267	317.77
353.65	299.92
354.032	320.49
354.414	325.46
354.797	334.95
355.179	346.02
355.562	341.73
355.944	356.42
356.326	324.55
356.709	368.85
357.091	337.21
357.473	375.17
357.855	341.28
358.238	378.34
358.62	353.25
359.002	367.72
359.384	375.85
359.766	383.54
360.148	339.92
360.53	358
360.912	365.46
361.294	381.5
361.676	348.28
362.057	375.17
362.439	356.87
362.821	380.82
363.203	356.64
363.584	372.46
363.966	345.57
364.348	387.83
364.729	358
365.111	374.04
365.493	366.13
365.874	359.13
366.256	344.67
366.637	369.07
367.019	361.61
367.4	365.23
367.781	322.29
368.163	346.47
368.544	351.22
368.925	337.66
369.306	360.94
369.688	355.06
370.069	354.38
370.45	360.71
370.831	365.23
371.212	365
371.593	371.78
371.974	369.3
372.355	357.32
372.736	365.46
373.117	383.54
373.498	373.14
373.879	381.28
374.26	375.63
374.641	357.32
375.021	370.65
375.402	380.6
375.783	384.67
376.163	412.23
376.544	423.08
376.925	409.3
377.305	413.82
377.686	411.11
378.066	431.67
378.447	397.09
378.827	428.51
379.208	422.18
379.588	414.04
379.968	414.95
380.349	404.78
380.729	434.16
381.109	440.03
381.489	428.96
381.87	429.18
382.25	442.74
382.63	452.01
383.01	449.07
383.39	461.05
383.77	446.36
384.15	454.27
384.53	473.93
384.91	464.44
385.29	479.58
385.67	465.11
386.049	478.67
386.429	474.61
386.809	471.22
387.189	482.74
387.568	503.31
387.948	487.71
388.328	513.25
388.707	511.22
389.087	521.16
389.466	525.68
389.846	523.42
390.225	550.31
390.605	522.74
390.984	537.2
391.363	546.69
391.743	557.32
392.122	541.5
392.501	560.93
392.881	561.38
393.26	599.12
393.639	588.73
394.018	556.41
394.397	590.76
394.776	600.48
395.155	609.74
395.534	606.35
395.913	607.03
396.292	624.21
396.671	647.71
397.05	653.13
397.429	634.83
397.808	666.69
398.186	682.28
398.565	669.86
398.944	673.47
399.323	680.25
399.701	670.08
400.08	681.15
400.458	705.11
400.837	704.66
401.215	704.88
401.594	712.79
401.972	742.62
402.351	753.24
402.729	775.62
403.107	779.91
403.486	767.71
403.864	781.94
404.242	764.77
404.62	782.17
404.999	805.44
405.377	810.19
405.755	829.85
406.133	803.86
406.511	833.01
406.889	858.32
407.267	855.84
407.645	879.12
408.023	878.66
408.401	909.62
408.779	871.21
409.156	925.22
409.534	931.54
409.912	943.52
410.29	959.34
410.667	957.53
411.045	993.69
411.422	1015.16
411.8	1039.34
412.178	1032.56
412.555	1051.31
412.933	1001.82
413.31	1066.91
413.687	1063.52
414.065	1091.09
414.442	1069.39
414.819	1091.09
415.197	1132.89
415.574	1118.88
415.951	1143.74
416.328	1166.34
416.705	1156.85
417.082	1190.07
417.46	1181.71
417.837	1219.9
418.214	1215.15
418.591	1261.93
418.967	1241.14
419.344	1229.16
419.721	1274.13
420.098	1277.97
420.475	1263.51
420.852	1308.26
421.228	1316.39
421.605	1361.59
421.982	1342.61
422.358	1361.81
422.735	1410.17
423.111	1365.66
423.488	1409.27
423.864	1428.71
424.241	1443.17
424.617	1450.17
424.994	1471.42
425.37	1475.26
425.746	1473.68
426.123	1532.21
426.499	1510.06
426.875	1540.79
427.251	1545.54
427.627	1578.53
428.003	1621.02
428.379	1649.26
428.756	1637.74
429.132	1657.4
429.507	1700.11
429.883	1698.75
430.259	1762.93
430.635	1743.73
431.011	1756.83
431.387	1801.35
431.763	1851.52
432.138	1845.64
432.514	1863.5
432.89	1884.29
433.265	1934
433.641	1975.36
434.016	1976.71
434.392	2018.07
434.767	2043.15
435.143	2037.95
435.518	2076.37
435.894	2082.25
436.269	2119.76
436.644	2146.88
437.02	2159.31
437.395	2137.39
437.77	2221.9
438.145	2254.22
438.52	2253.54
438.895	2282.02
439.271	2317.72
439.646	2317.95
440.021	2310.94
440.395	2362.47
440.77	2338.96
441.145	2357.49
441.52	2459.19
441.895	2460.09
442.27	2446.98
442.645	2483.37
443.019	2467.55
443.394	2500.32
443.769	2557.49
444.143	2508.45
444.518	2590.93
444.892	2599.97
445.267	2599.3
445.641	2594.55
446.016	2614.89
446.39	2693.53
446.764	2668.22
447.139	2682.23
447.513	2709.12
447.887	2735.34
448.262	2751.83
448.636	2781.21
449.01	2807.65
449.384	2827.76
449.758	2850.81
450.132	2888.33
450.506	2890.14
450.88	2911.15
451.254	2964.03
451.628	2998.16
452.002	3029.79
452.376	3057.14
452.75	3082
453.123	3064.59
453.497	3156.34
453.871	3133.75
454.244	3219.62
454.618	3246.06
454.992	3270.69
455.365	3311.37
455.739	3372.61
456.112	3397.92
456.486	3396.79
456.859	3453.51
457.232	3562.66
457.606	3543.23
457.979	3594.3
458.352	3698.02
458.725	3720.85
459.099	3745.93
459.472	3794.74
459.845	3820.28
460.218	3848.53
460.591	3940.5
460.964	3896.44
461.337	3981.18
461.71	4042.42
462.083	4159.03
462.456	4146.15
462.829	4150.89
463.201	4227.05
463.574	4251.46
463.947	4370.77
464.32	4424.33
464.692	4476.08
465.065	4500.49
465.438	4606.02
465.81	4642.86
466.183	4640.82
466.555	4765.57
466.928	4803.76
467.3	4855.96
467.672	4919.01
468.045	5057.76
468.417	5069.97
468.789	5109.96
469.161	5150.64
469.534	5293.01
469.906	5376.17
470.278	5376.85
470.65	5440.58
471.022	5580.23
471.394	5651.42
471.766	5740.68
472.138	5796.5
472.51	5935.71
472.882	6011.41
473.253	6074.68
473.625	6141.12
473.997	6229.26
474.369	6322.14
474.74	6436.26
475.112	6515.35
475.484	6620.21
475.855	6756.47
476.227	6836.7
476.598	6985.17
476.97	7021.78
477.341	7218.38
477.713	7301.09
478.084	7334.31
478.455	7484.59
478.827	7590.35
479.198	7873.28
479.569	7874.64
479.94	8094.97
480.311	8167.96
480.682	8316.89
481.053	8536.54
481.424	8703.99
481.795	8728.85
482.166	8849.3
482.537	9059.69
482.908	9309.4
483.279	9282.74
483.65	9527.48
484.021	9649.05
484.391	9727.02
484.762	9876.39
485.133	9947.13
485.503	10165.65
485.874	10377.85
486.244	10431.41
486.615	10619.2
486.985	10776.93
487.356	10977.38
487.726	11057.15
488.097	11390.03
488.467	11373.53
488.837	11591.6
489.207	11740.98
489.578	11900.07
489.948	12039.05
490.318	12291.02
490.688	12229.55
491.058	12487.4
491.428	12587.06
491.798	12872.25
492.168	13001.28
492.538	13102.3
492.908	13284.89
493.278	13469.97
493.648	13417.99
494.017	13666.58
494.387	13779.57
494.757	13871.77
495.126	14042.39
495.496	14147.24
495.866	14246.22
496.235	14378.87
496.605	14522.6
496.974	14650.5
497.344	14795.13
497.713	14925.98
498.082	14983.38
498.452	15145.18
498.821	15249.58
499.19	15408.68
499.559	15579.52
499.928	15708.33
500.298	15777.48
500.667	15868.78
501.036	15838.95
501.405	16085.27
501.774	16126.62
502.143	16277.58
502.512	16378.14
502.88	16536.33
503.249	16603
503.618	16731.81
503.987	16812.26
504.356	16978.13
504.724	16935.19
505.093	17104.23
505.462	17292.92
505.83	17345.57
506.199	17467.15
506.567	17699.46
506.936	17663.53
507.304	17917.54
507.672	18010.64
508.041	18059.91
508.409	18273.69
508.777	18380.35
509.145	18584.19
509.514	18618.08
509.882	18806.78
510.25	18865.54
510.618	19084.06
510.986	19028.69
511.354	19252.64
511.722	19415.58
512.09	19535.35
512.458	19611.5
512.826	19808.11
513.193	19865.06
513.561	19948.44
513.929	20098.27
514.297	20403.35
514.664	20583.91
515.032	20659.39
515.4	20928.76
515.767	20966.27
516.135	21138.24
516.502	21035.2
516.869	21523.32
517.237	21590.21
517.604	21583.88
517.972	21974.61
518.339	21973.7
518.706	22105.9
519.073	22209.85
519.44	22408.49
519.808	22647.58
520.175	22744.08
520.542	23002.6
520.909	23131.19
521.276	23157.4
521.643	23428.58
522.009	23700.89
522.376	23723.49
522.743	23948.11
523.11	24262.91
523.477	24555.33
523.843	24586.74
524.21	24878.94
524.577	25058.82
524.943	25147.86
525.31	25424.68
525.676	25597.34
526.043	25821.74
526.409	25910.77
526.776	26278.45
527.142	26277.77
527.508	26536.97
527.874	26688.61
528.241	26927.92
528.607	26969.73
528.973	27278.2
529.339	27223.73
529.705	27526.1
530.071	27739.88
530.437	27927.9
530.803	28112.75
531.169	28189.13
531.535	28230.71
531.901	28241.33
532.267	28400.88
532.632	28668.89
532.998	28794.77
533.364	29007.19
533.73	29089.9
534.095	29220.74
534.461	29433.39
534.826	29526.27
535.192	29723.78
535.557	29829.31
535.923	29810.78
536.288	30139.36
536.653	30138.91
537.019	30141.17
537.384	30453.48
537.749	30553.59
538.114	30704.77
538.479	30702.74
538.845	30868.16
539.21	30834.26
539.575	31016.4
539.94	31226.34
540.305	31407.58
540.67	31333.91
541.034	31472.21
541.399	31565.77
541.764	31732.99
542.129	31712.2
542.494	31929.82
542.858	32143.83
543.223	32144.06
543.587	32411.17
543.952	32240.1
544.316	32429.47
544.681	32430.15
545.045	32805.28
545.41	32948.55
545.774	32952.85
546.138	33006.41
546.503	33088.44
546.867	33148.78
547.231	33455.89
547.595	33519.39
547.959	33582.89
548.324	33655.65
548.688	33699.04
549.052	33890.9
549.416	33938.81
549.779	34063.1
550.143	34172.93
550.507	34355.75
550.871	34498.8
551.235	34517.55
551.599	34711.67
551.962	34837.77
552.326	34883.64
552.689	35186.69
553.053	34973.13
553.417	35128.16
553.78	35584.64
554.143	35532.89
554.507	35716.17
554.87	35895.14
555.234	36127
555.597	35938.98
555.96	36215.59
556.323	36418.29
556.686	36465.52
557.05	36773.31
557.413	36884.95
557.776	36931.95
558.139	37151.38
558.502	37235.67
558.865	37368.78
559.228	37703.46
559.59	37863
559.953	37985.71
560.316	38359.03
560.679	38371.69
561.041	38476.32
561.404	38825.46
561.767	38960.83
562.129	38874.05
562.492	39326.69
562.854	39334.38
563.217	39410.53
563.579	39682.84
563.941	39902.04
564.304	40160.79
564.666	40390.62
565.028	40353.11
565.39	40530.5
565.753	40909.93
566.115	40924.62
566.477	41120.09
566.839	41296.13
567.201	41536.13
567.563	41641.66
567.925	42047.07
568.287	41907.64
568.648	42077.58
569.01	42256.11
569.372	42533.39
569.734	42447.29
570.095	42751.23
570.457	43030.55
570.819	42859.93
571.18	43028.29
571.542	43516.41
571.903	43490.65
572.265	43646.58
572.626	43674.6
572.987	43791.21
573.349	44104.42
573.71	44246.34
574.071	44346.9
574.432	44588.25
574.794	44767.68
575.155	44870.05
575.516	44794.12
575.877	44988.24
576.238	45063.49
576.599	45238.17
576.96	45333.09
577.32	45358.85
577.681	45653.31
578.042	45652.63
578.403	45642.46
578.763	45743.7
579.124	45808.33
579.485	46072.28
579.845	46103.69
580.206	46076.8
580.566	46100.3
580.927	46201.54
581.287	46363.34
581.648	46224.14
582.008	46438.6
582.368	46373.06
582.728	46487.86
583.089	46569.67
583.449	46401.08
583.809	46556.78
584.169	46600.17
584.529	46480.18
584.889	46934.18
585.249	46690.34
585.609	46573.28
585.969	46870.9
586.329	46694.41
586.688	46853.73
587.048	46795.65
587.408	46669.32
587.768	46625.71
588.127	46710
588.487	46557.69
588.846	46868.87
589.206	46615.54
589.565	46651.7
589.925	46855.31
590.284	46759.94
590.643	46807.85
591.003	46926.94
591.362	46949.99
591.721	46869.77
592.08	46855.31
592.44	47114.96
592.799	46921.07
593.158	46924.91
593.517	47017.34
593.876	47068.86
594.235	46887.62
594.593	47028.41
594.952	47136.43
595.311	47004
595.67	47046.49
596.029	47196.99
596.387	47346.82
596.746	47469.3
597.104	47303.88
597.463	47243.32
597.822	47348.63
598.18	47313.15
598.538	47235.41
598.897	47386.82
599.255	47086.26
599.613	47716.53
599.972	47309.53
600.33	47632.91
600.688	47473.6
601.046	47607.6
601.404	47721.05
601.762	47511.79
602.12	47840.59
602.478	47930.08
602.836	47784.1
603.194	47658.9
603.552	47870.2
603.91	47873.81
604.268	47958.56
604.625	47883.08
604.983	47996.52
605.341	47893.25
605.698	48019.34
606.056	48222.05
606.413	48025.9
606.771	48262.73
607.128	48350.64
607.485	48198.55
607.843	48206.01
608.2	48447.13
608.557	48495.04
608.914	48377.53
609.272	48619.55
609.629	48674.02
609.986	48714.69
610.343	48528.48
610.7	48813.67
611.057	48737.97
611.414	48754.92
611.771	48725.09
612.127	48930.96
612.484	48889.6
612.841	48998.98
613.198	48794.24
613.554	48840.34
613.911	49142.48
614.267	49000.79
614.624	49043.27
614.98	48997.62
615.337	49316.94
615.693	49143.16
616.05	49130.95
616.406	49411.4
616.762	49261.57
617.118	49291.4
617.475	49320.1
617.831	49470.61
618.187	49577.5
618.543	49443.94
618.899	49584.73
619.255	49651.84
619.611	49584.5
619.967	49714.22
620.323	49875.12
620.678	49650.94
621.034	49683.26
621.39	49566.87
621.746	49581.56
622.101	49936.58
622.457	49723.25
622.812	49715.8
623.168	49793.99
623.523	49834.89
623.879	49888.67
624.234	49703.82
624.589	49730.94
624.945	49871.05
625.3	49807.77
625.655	49924.15
626.01	49904.49
626.365	50042.79
626.72	49745.18
627.075	49886.64
627.43	49816.81
627.785	49551.73
628.14	49876.92
628.495	49742.24
628.85	49864.49
629.205	49625.63
629.559	49891.61
629.914	49581.56
630.269	49750.82
630.623	49733.2
630.978	49585.63
631.332	49694.78
631.687	49826.98
632.041	49604.61
632.396	49578.17
632.75	49473.32
633.104	49586.76
633.459	49351.51
633.813	49336.37
634.167	49382.02
634.521	49221.57
634.875	49334.79
635.229	49291.18
635.583	49048.92
635.937	48978.64
636.291	49066.1
636.645	48932.77
636.999	48890.73
637.352	48951.98
637.706	48679.21
638.06	48723.96
638.413	48702.04
638.767	48525.55
639.121	48578.88
639.474	48353.12
639.828	48422.05
640.181	48410.75
640.534	48323.74
640.888	48306.57
641.241	48129.4
641.594	48173.01
641.947	48303.63
642.301	48090.98
642.654	48231.09
643.007	48132.79
643.36	48045.11
643.713	47932.12
644.066	48134.6
644.419	47796.53
644.771	47564.44
645.124	47212.81
645.477	47231.57
645.83	46936.44
646.182	46714.97
646.535	46661.64
646.888	46812.14
647.24	46595.2
647.593	46852.37
647.945	46652.6
648.298	46393.62
648.65	46353.17
649.002	46324.25
649.355	46538.03
649.707	46401.99
650.059	46477.24
650.411	47004.46
650.763	46919.71
651.115	47256.2
651.467	47078.13
651.819	46954.97
652.171	46992.03
652.523	46908.19
652.875	46875.19
653.227	46715.88
653.578	46941.18
653.93	46814.63
654.282	46602.43
654.633	46632.26
654.985	46618.7
655.337	46672.49
655.688	46606.05
656.039	46735.31
656.391	46399.73
656.742	46495.54
657.094	46596.33
657.445	46597.01
657.796	46441.76
658.147	46441.99
658.498	46425.94
658.849	46590.46
659.2	46381.42
659.551	46232.27
659.902	46503.23
660.253	46418.03
660.604	46369.44
660.955	46207.87
661.306	46409.9
661.656	46225.95
662.007	46383.68
662.358	46227.98
662.708	46302.55
663.059	46185.27
663.409	46025.27
663.76	46242.22
664.11	46190.47
664.461	46116.34
664.811	46049.9
665.161	46082.9
665.511	45940.3
665.862	45923.81
666.212	46058.49
666.562	46040.19
666.912	45906.41
667.262	45744.38
667.612	45893.3
667.962	45765.84
668.312	45671.16
668.662	45905.73
669.011	45705.73
669.361	45655.79
669.711	45603.59
670.06	45409.02
670.41	45344.39
670.76	45321.56
671.109	45443.82
671.459	45224.62
671.808	45300.55
672.157	45381
672.507	45039.31
672.856	45078.86
673.205	45112.53
673.554	45230.72
673.904	45016.03
674.253	45194.56
674.602	45032.98
674.951	44451.53
675.3	44140.58
675.649	44898.07
675.998	44719.54
676.346	44794.8
676.695	44958.18
677.044	44636.38
677.393	44666.89
677.741	44687.68
678.09	44597.51
678.438	44653.11
678.787	44703.27
679.135	44777.4
679.484	44408.37
679.832	44646.78
680.181	44220.12
680.529	44527.69
680.877	44308.26
681.225	44328.82
681.573	44507.12
681.922	44203.17
682.27	44063.52
682.618	44102.16
682.966	43918.66
683.314	44316.62
683.661	43950.75
684.009	43730.87
684.357	43730.19
684.705	43684.09
685.053	43699.91
685.4	43588.95
685.748	43360.94
686.095	43426.7
686.443	43165.01
686.79	43276.87
687.138	43222.41
687.485	43101.51
687.832	42993.49
688.18	43095.18
688.527	42696.09
688.874	42718.47
689.221	42698.58
689.568	42599.15
689.915	42412.26
690.262	42451.58
690.609	42253.39
690.956	42165.94
691.303	42110.8
691.65	41944.25
691.997	41862.44
692.344	41779.51
692.69	41708.78
693.037	41723.69
693.383	41371.38
693.73	41509.01
694.077	41335.23
694.423	41245.74
694.769	41081.22
695.116	41096.36
695.462	41057.27
695.808	40903.83
696.155	40754
696.501	40695.92
696.847	40582.93
697.193	40267.46
697.539	40397.17
697.885	40207.35
698.231	40125.32
698.577	40057.07
698.923	39859.11
699.269	39814.81
699.614	39453.92
699.96	39421.6
700.306	39336.18
700.651	39318.56
700.997	39042.41
701.342	39068.17
701.688	38935.97
702.033	38904.1
702.379	38837.44
702.724	38712.24
703.069	38742.75
703.415	38355.64
703.76	38427.05
704.105	38511.57
704.45	38235.65
704.795	38016.22
705.14	37831.59
705.485	37853.74
705.83	37833.62
706.175	37760.41
706.52	37672.72
706.865	37554.54
707.209	37519.06
707.554	37305.05
707.899	37309.57
708.243	37172.4
708.588	37171.72
708.932	36985.06
709.277	36888.56
709.621	37018.05
709.966	36658.51
710.31	36717.95
710.654	36463.49
710.998	36451.74
711.342	36442.7
711.687	36333.1
712.031	36260.33
712.375	36066.66
712.719	36247.22
713.063	36044.97
713.407	36204.51
713.75	35965.65
714.094	35858.99
714.438	35748.71
714.782	35828.48
715.125	35475.72
715.469	35618.77
715.812	35571.76
716.156	35279.34
716.499	35235.5
716.843	35306.01
717.186	35107.59
717.53	35341.03
717.873	35245.67
718.216	35067.37
718.559	35004.32
718.902	34713.03
719.246	34733.59
719.589	34691.11
719.932	34444.56
720.275	34506.03
720.617	34521.17
720.96	34372.7
721.303	34398.46
721.646	34245.47
721.989	33940.84
722.331	34208.86
722.674	34101.97
723.016	34092.71
723.359	33868.3
723.701	33969.32
724.044	33748.08
724.386	33623.79
724.729	33786.5
725.071	33530.91
725.413	33551.25
725.755	33489.56
726.097	33405.49
726.439	33225.84
726.782	33142.22
727.124	33278.49
727.465	33071.49
727.807	32992.62
728.149	32896.13
728.491	32901.1
728.833	32924.6
729.175	32791.27
729.516	32745.4
729.858	32692.52
730.199	32662.23
730.541	32654.33
730.882	32499.07
731.224	32538.4
731.565	32377.5
731.906	32359.64
732.248	32546.98
732.589	32267.22
732.93	32066.54
733.271	32045.08
733.612	32057.5
733.953	32201
734.294	31996.49
734.635	31942.03
734.976	31998.75
735.317	31828.58
735.658	31776.16
735.999	31873.33
736.339	31668.81
736.68	31843.05
737.021	31660.68
737.361	31622.71
737.702	31794.91
738.042	31682.37
738.383	31524.41
738.723	31536.16
739.063	31544.98
739.404	31462.27
739.744	31379.78
740.084	31322.83
740.424	31207.36
740.764	31203.74
741.104	31256.85
741.444	31031.54
741.784	30986.8
742.124	31020.7
742.464	30876.52
742.804	30886.46
743.143	30756.97
743.483	30714.71
743.823	30501.39
744.162	30530.09
744.502	30639.69
744.841	30396.76
745.181	30434.95
745.52	30231.34
745.86	30389.75
746.199	30185.01
746.538	30114.73
746.877	30198.12
747.216	30222.3
747.556	29961.74
747.895	29989.08
748.234	29871.8
748.573	29772.14
748.911	29626.16
749.25	29763.55
749.589	29525.14
749.928	29692.14
750.267	29613.5
750.605	29433.39
750.944	29334.64
751.283	29311.14
751.621	29279.05
751.96	29205.38
752.298	29164.93
752.636	29095.32
752.975	28961.54
753.313	28862.56
753.651	28993.86
753.989	28731.26
754.327	28702.79
754.666	28559.74
755.004	28749.57
755.342	28651.04
755.679	28559.74
756.017	28510.93
756.355	28439.29
756.693	28269.13
757.031	28411.95
757.368	28202.46
757.706	28115.24
758.044	28049.7
758.381	27967.44
758.719	27806.09
759.056	27811.74
759.394	27787.56
759.731	27567.23
760.068	27513.9
760.405	27377.4
760.743	27346.44
761.08	27428.47
761.417	27202.04
761.754	27128.82
762.091	27145.54
762.428	27004.08
762.765	26882.05
763.102	26953.68
763.438	26803.18
763.775	26691.77
764.112	26647.25
764.449	26745.33
764.785	26561.38
765.122	26557.99
765.458	26241.16
765.795	26198
766.131	26251.33
766.467	26116.42
766.804	26067.38
767.14	25863.32
767.476	25844.11
767.812	25712.36
768.148	25811.79
768.485	25501.52
768.821	25418.36
769.157	25333.61
769.492	25329.77
769.828	25172.94
770.164	24956.9
770.5	24963.91
770.836	24912.38
771.171	24720.97
771.507	24733.18
771.842	24471.49
772.178	24563.01
772.513	24417.93
772.849	24300.87
773.184	24210.25
773.519	24184.72
773.855	24078.28
774.19	23949.02
774.525	23897.27
774.86	23913.09
775.195	23737.72
775.53	23563.94
775.865	23464.96
776.2	23428.13
776.535	23181.58
776.87	23261.58
777.205	23104.29
777.539	23027.23
777.874	23098.19
778.209	22829.72
778.543	22732.78
778.878	22766
779.212	22695.49
779.547	22516.51
779.881	22654.36
780.215	22377.76
780.55	22397.19
780.884	22252.34
781.218	22245.79
781.552	22163.75
781.886	22118.56
782.22	21919.47
782.554	21777.55
782.888	21706.14
783.222	21666.82
783.556	21424.34
783.889	21398.12
784.223	21176.66
784.557	21238.35
784.89	21237.9
785.224	21152.03
785.557	21009.66
785.891	20885.82
786.224	20973.73
786.558	20878.82
786.891	20700.52
787.224	20633.85
787.557	20683.11
787.891	20636.11
788.224	20532.38
788.557	20472.5
788.89	20375.55
789.223	20301.66
789.556	20227.99
789.888	20051.94
790.221	20079.51
790.554	19919.29
790.887	19907.77
791.219	19813.31
791.552	19797.94
791.884	19692.18
792.217	19596.36
792.549	19482.47
792.882	19400.89
793.214	19403.15
793.546	19372.19
793.879	19249.71
794.211	19056.49
794.543	19104.4
794.875	19100.78
795.207	19091.07
795.539	18898.53
795.871	18958.87
796.203	18800.45
796.535	18691.53
796.867	18586.45
797.198	18498.77
797.53	18514.36
797.862	18388.49
798.193	18405.21
798.525	18285.44
798.856	18350.29
799.188	18040.02
799.519	18093.35
799.85	18022.39
800.182	17994.15
800.513	18033.01
800.844	17787.82
801.175	17825.56
801.506	17832.57
801.837	17743.76
802.168	17738.78
802.499	17625.34
802.83	17587.83
803.161	17508.96
803.491	17454.27
803.822	17433.93
804.153	17337.21
804.483	17167.5
804.814	17199.82
805.145	17080.95
805.475	17145.58
805.805	17079.37
806.136	17091.57
806.466	16986.49
806.796	16893.38
807.126	16712.82
807.457	16729.09
807.787	16749.43
808.117	16708.98
808.447	16562.54
808.777	16646.84
809.107	16556.44
809.436	16465.37
809.766	16474.19
810.096	16369.1
810.426	16358.03
810.755	16347.18
811.085	16349.89
811.414	16203.23
811.744	16109
812.073	16111.03
812.403	16168.43
812.732	16027.64
813.061	15988.77
813.39	15961.66
813.719	15923.92
814.049	15972.5
814.378	15851.6
814.707	15898.83
815.036	15805.73
815.365	15712.62
815.693	15690.93
816.022	15582.23
816.351	15525.96
816.68	15467.88
817.008	15582.23
817.337	15409.35
817.665	15365.06
817.994	15345.4
818.322	15323.03
818.651	15260.21
818.979	15198.51
819.307	15241.68
819.636	15223.82
819.964	15103.15
820.292	15101.11
820.62	15044.62
820.948	14999.42
821.276	15127.55
821.604	15024.73
821.932	15058.18
822.259	15067.89
822.587	14979.99
822.915	14972.08
823.243	15036.48
823.57	14953.1
823.898	14957.39
824.225	14898.41
824.553	14900.22
824.88	14968.69
825.207	14998.29
825.535	14930.5
825.862	14971.17
826.189	14914.68
826.516	15064.28
826.843	14928.92
827.17	14939.99
827.497	14947.67
827.824	14805.98
828.151	14964.62
828.478	14906.77
828.805	14940.44
829.131	14862.25
829.458	14787.22
829.785	14757.85
830.111	14729.15
830.438	14835.36
830.764	14804.62
831.09	14883.72
831.417	14684.85
831.743	14836.04
832.069	14836.49
832.395	14690.05
832.722	14762.37
833.048	14695.7
833.374	14780.9
833.7	14663.84
834.026	14646.89
834.351	14734.34
834.677	14649.83
835.003	14715.81
835.329	14684.4
835.654	14677.62
835.98	14628.81
836.306	14589.49
836.631	14532.54
836.956	14612.31
837.282	14494.12
837.607	14467.01
837.932	14531.19
838.258	14420.23
838.583	14562.6
838.908	14377.07
839.233	14346.78
839.558	14323.28
839.883	14298.65
840.208	14250.97
840.533	14314.92
840.858	14248.93
841.182	14321.25
841.507	14314.92
841.832	14169.39
842.156	14129.39
842.481	14106.34
842.805	14130.74
843.13	14097.3
843.454	14050.52
843.778	14065.44
844.103	13971.2
844.427	13941.6
844.751	13933.46
845.075	13852.33
845.399	13886.68
845.723	13812.11
846.047	13805.56
846.371	13721.26
846.695	13736.63
847.019	13624.99
847.343	13500.03
847.666	13530.99
847.99	13405.11
848.313	13419.8
848.637	13365.34
848.96	13352.69
849.284	13349.75
849.607	13213.71
849.931	13210.54
850.254	13123.54
850.577	13010.77
850.9	12993.15
851.223	12929.19
851.546	12800.84
851.869	12857.78
852.192	12916.99
852.515	12730.1
852.838	12620.28
853.161	12785.69
853.483	12660.73
853.806	12632.25
854.129	12513.16
854.451	12510.45
854.774	12470.9
855.096	12465.25
855.419	12451.24
855.741	12380.73
856.063	12366.95
856.385	12267.06
856.708	12288.98
857.03	12210.79
857.352	12243.79
857.674	12160.85
857.996	12141.42
858.318	12114.75
858.64	12019.16
858.961	12046.73
859.283	11974.19
859.605	11882.22
859.926	11973.06
860.248	11932.84
860.57	11873.63
860.891	11805.83
861.212	11773.07
861.534	11745.72
861.855	11701.66
862.176	11729.23
862.498	11706.63
862.819	11730.81
863.14	11634.99
863.461	11716.34
863.782	11576.01
864.103	11628.21
864.424	11597.48
864.745	11686.97
865.065	11597.48
865.386	11557.7
865.707	11596.12
866.027	11512.06
866.348	11477.03
866.668	11530.36
866.989	11440.87
867.309	11437.48
867.63	11398.84
867.95	11502.34
868.27	11346.18
868.59	11345.51
868.91	11338.95
869.23	11270.93
869.55	11255.34
869.87	11312.74
870.19	11329.01
870.51	11328.56
870.83	11340.31
871.15	11153.87
871.469	11223.93
871.789	11245.4
872.109	11166.53
872.428	11076.14
872.748	11283.14
873.067	11166.53
873.386	11156.36
873.706	11189.35
874.025	11095.8
874.344	11123.37
874.663	11063.03
874.982	11053.09
875.301	11079.75
875.62	11025.97
875.939	11010.37
876.258	11027.55
876.577	11011.28
876.896	11016.02
877.214	10948.46
877.533	11001.11
877.852	10875.91
878.17	10993.65
878.489	10977.38
878.807	11000.21
879.125	10901.22
879.444	10888.12
879.762	10857.61
880.08	10936.48
880.398	10806.54
880.716	10842.24
881.034	10811.06
881.352	10810.38
881.67	10833.66
881.988	10876.59
882.306	10769.93
882.624	10715.01
882.941	10741.45
883.259	10717.05
883.577	10694
883.894	10636.15
884.212	10649.93
884.529	10656.94
884.846	10593.44
885.164	10602.48
885.481	10559.76
885.798	10538.75
886.115	10524.06
886.432	10536.26
886.75	10493.33
887.067	10447.9
887.383	10404.29
887.7	10426.66
888.017	10347.79
888.334	10317.51
888.651	10336.27
888.967	10282.94
889.284	10269.6
889.6	10222.15
889.917	10169.04
890.233	10174.92
890.55	10144.41
890.866	10166.78
891.182	10114.58
891.498	10019.89
891.815	10075.71
892.131	10035.71
892.447	10058.31
892.763	10026.67
893.079	9917.52
893.395	9963.85
893.71	9907.13
894.026	9929.72
894.342	9861.25
894.657	9731.76
894.973	9765.66
895.289	9855.38
895.604	9764.08
895.92	9707.81
896.235	9644.31
896.55	9672.56
896.865	9636.63
897.181	9640.01
897.496	9632.11
897.811	9543.07
898.126	9561.37
898.441	9509.4
898.756	9546.91
899.071	9411.77
899.386	9440.02
899.7	9380.13
900.015	9349.85
900.33	9269.63
900.644	9261.72
900.959	9256.52
901.273	9177.88
901.588	9224.88
901.902	9154.38
902.216	9082.97
902.531	9064.21
902.845	9036.87
903.159	9001.61
903.473	9008.17
903.787	8939.02
904.101	8933.14
904.415	8925.46
904.729	8875.06
905.042	8872.8
905.356	8844.56
905.67	8802.52
905.984	8862.86
906.297	8717.55
906.611	8690.21
906.924	8772.02
907.237	8681.17
907.551	8623.77
907.864	8593.71
908.177	8596.65
908.491	8557.56
908.804	8484.11
909.117	8470.55
909.43	8440.5
909.743	8463.77
910.056	8394.17
910.368	8390.1
910.681	8317.56
910.994	8265.14
911.307	8369.77
911.619	8219.94
911.932	8208.64
912.244	8238.7
912.557	8207.28
912.869	8129.77
913.181	8091.36
913.494	8097
913.806	8114.41
914.118	8028.76
914.43	7991.02
914.742	7919.83
915.054	7907.41
915.366	7885.94
915.678	7766.62
915.99	7755.09
916.302	7766.84
916.613	7681.42
916.925	7741.99
917.236	7687.52
917.548	7595.32
917.859	7641.88
918.171	7593.74
918.482	7549
918.794	7501.99
919.105	7510.58
919.416	7406.63
919.727	7418.6
920.038	7385.84
920.349	7348.32
920.66	7339.74
920.971	7331.38
921.282	7270.81
921.593	7199.85
921.903	7235.56
922.214	7197.59
922.525	7155.79
922.835	7183.81
923.146	7095.9
923.456	7109.01
923.767	7028.78
924.077	7047.99
924.387	7011.38
924.697	6996.47
925.008	6918.73
925.318	6922.8
925.628	6925.51
925.938	6835.34
926.248	6845.29
926.558	6786.76
926.867	6786.08
927.177	6723.26
927.487	6715.35
927.796	6693.65
928.106	6687.78
928.416	6657.04
928.725	6628.79
929.034	6572.3
929.344	6596.03
929.653	6585.63
929.962	6541.11
930.271	6498.85
930.581	6447.1
930.89	6424.96
931.199	6386.54
931.508	6403.04
931.817	6412.3
932.125	6362.59
932.434	6293.89
932.743	6267
933.051	6284.62
933.36	6265.87
933.669	6196.72
933.977	6161.01
934.286	6119.88
934.594	6181.12
934.902	6142.71
935.21	6088.24
935.519	6073.55
935.827	6002.14
936.135	6037.17
936.443	5968.25
936.751	5984.29
937.059	5948.13
937.367	5934.8
937.674	5935.03
937.982	5889.61
938.29	5870.62
938.597	5858.19
938.905	5798.08
939.213	5752.66
939.52	5758.54
939.827	5725.09
940.135	5709.5
940.442	5712.89
940.749	5711.98
941.056	5701.36
941.363	5621.59
941.67	5633.34
941.977	5575.71
942.284	5557.64
942.591	5529.61
942.898	5415.72
943.205	5502.95
943.511	5452.55
943.818	5458.66
944.125	5439.67
944.431	5373.69
944.738	5373.01
945.044	5392.67
945.35	5406.23
945.657	5270.86
945.963	5278.32
946.269	5281.26
946.575	5262.28
946.881	5222.05
947.187	5207.82
947.493	5177.08
947.799	5170.75
948.105	5129.63
948.41	5104.77
948.716	5080.81
949.022	5071.1
949.327	5060.25
949.633	4993.13
949.938	4999.46
950.244	5013.7
950.549	4955.62
950.854	4962.85
951.16	4982.96
951.465	4933.7
951.77	4931.21
952.075	4858.9
952.38	4876.07
952.685	4811.44
952.99	4813.48
953.294	4774.38
953.599	4747.04
953.904	4705.46
954.209	4772.8
954.513	4739.35
954.818	4734.61
955.122	4683.08
955.426	4635.17
955.731	4586.14
956.035	4593.37
956.339	4610.32
956.643	4573.48
956.948	4570.09
957.252	4514.5
957.556	4514.05
957.86	4512.24
958.163	4474.95
958.467	4491
958.771	4428.85
959.075	4420.27
959.378	4379.81
959.682	4374.16
959.985	4345.46
960.289	4328.06
960.592	4320.61
960.896	4308.63
961.199	4301.62
961.502	4286.03
961.805	4277.44
962.108	4235.86
962.411	4256.65
962.714	4219.14
963.017	4201.29
963.32	4181.85
963.623	4134.17
963.926	4133.94
964.228	4119.71
964.531	4100.05
964.833	4088.52
965.136	4068.41
965.438	4028.41
965.741	4071.12
966.043	4030.44
966.345	4039.03
966.648	4040.61
966.95	3985.93
967.252	3935.76
967.554	3932.14
967.856	3908.64
968.158	3874.74
968.46	3886.27
968.761	3899.6
969.063	3886.72
969.365	3831.58
969.666	3806.5
969.968	3762.2
970.269	3818.02
970.571	3799.94
970.872	3771.24
971.174	3792.03
971.475	3697.12
971.776	3745.48
972.077	3708.87
972.378	3692.15
972.679	3705.93
972.98	3655.54
973.281	3654.64
973.582	3624.81
973.883	3605.82
974.183	3574.86
974.484	3594.3
974.785	3528.31
975.085	3532.6
975.386	3602.89
975.686	3518.14
975.986	3488.99
976.287	3499.39
976.587	3446.73
976.887	3428.43
977.187	3403.79
977.487	3420.74
977.787	3381.65
978.087	3392.5
978.387	3365.6
978.687	3378.26
978.987	3368.32
979.286	3308.43
979.586	3331.71
979.885	3307.3
980.185	3298.03
980.484	3273.85
980.784	3276.34
981.083	3234.76
981.382	3209.45
981.682	3219.84
981.981	3201.09
982.28	3207.64
982.579	3138.94
982.878	3164.03
983.177	3128.32
983.475	3132.84
983.774	3134.88
984.073	3093.29
984.372	3109.57
984.67	3066.4
984.969	3105.27
985.267	3042.67
985.566	3038.15
985.864	3052.17
986.162	3031.6
986.461	2997.25
986.759	2991.83
987.057	2980.08
987.355	2946.86
987.653	2917.25
987.951	2910.25
988.249	2911.38
988.547	2909.34
988.844	2895.56
989.142	2878.38
989.44	2848.56
989.737	2829.35
990.035	2830.7
990.332	2853.75
990.63	2813.53
990.927	2762
991.224	2801.78
991.521	2792.29
991.819	2782.12
992.116	2752.06
992.413	2757.94
992.71	2748.44
993.006	2710.03
993.303	2710.48
993.6	2687.2
993.897	2679.29
994.193	2657.83
994.49	2663.02
994.787	2636.36
995.083	2639.07
995.379	2605.17
995.676	2642.01
995.972	2582.12
996.268	2574.44
996.565	2598.84
996.861	2532.86
997.157	2543.93
997.453	2524.95
997.749	2550.71
998.044	2533.99
998.34	2482.24
998.636	2473.42
998.932	2472.52
999.227	2495.34
999.523	2446.31
999.818	2415.57
1000.114	2433.42
1000.409	2401.56
1000.704	2388.23
1001	2397.72
1001.295	2392.52
1001.59	2377.83
1001.885	2382.58
1002.18	2340.77
1002.475	2344.61
1002.77	2322.02
1003.065	2286.99
1003.359	2261.45
1003.654	2298.74
1003.949	2262.58
1004.243	2256.71
1004.538	2242.47
1004.832	2244.05
1005.127	2232.98
1005.421	2191.4
1005.715	2177.84
1006.009	2196.82
1006.304	2167.44
1006.598	2157.05
1006.892	2129.03
1007.186	2126.99
1007.48	2153.88
1007.773	2128.57
1008.067	2104.17
1008.361	2100.33
1008.655	2082.25
1008.948	2068.24
1009.242	2055.81
1009.535	2032.31
1009.829	2051.74
1010.122	1986.88
1010.415	2014.68
1010.708	2009.03
1011.001	1986.88
1011.295	1979.88
1011.588	1980.1
1011.881	1950.5
1012.173	1943.95
1012.466	1911.18
1012.759	1934.68
1013.052	1892.2
1013.344	1912.08
1013.637	1904.63
1013.93	1856.49
1014.222	1887.68
1014.514	1862.14
1014.807	1837.73
1015.099	1809.26
1015.391	1824.18
1015.683	1804.29
1015.976	1789.37
1016.268	1791.63
1016.56	1785.31
1016.851	1775.59
1017.143	1745.99
1017.435	1739.43
1017.727	1719.55
1018.018	1709.15
1018.31	1715.7
1018.602	1703.95
1018.893	1690.85
1019.185	1691.98
1019.476	1678.64
1019.767	1641.36
1020.058	1650.62
1020.35	1610.17
1020.641	1619.66
1020.932	1613.79
1021.223	1606.33
1021.514	1585.09
1021.804	1558.65
1022.095	1568.14
1022.386	1555.48
1022.677	1524.3
1022.967	1528.36
1023.258	1534.01
1023.548	1494.47
1023.839	1507.8
1024.129	1490.85
1024.419	1471.19
1024.709	1482.49
1025	1461.7
1025.29	1444.98
1025.58	1456.28
1025.87	1421.25
1026.16	1433.23
1026.449	1434.13
1026.739	1397.97
1027.029	1386.9
1027.319	1389.84
1027.608	1374.92
1027.898	1380.35
1028.187	1377.41
1028.477	1378.99
1028.766	1340.12
1029.055	1348.03
1029.344	1301.03
1029.634	1313
1029.923	1313.68
1030.212	1317.07
1030.501	1281.36
1030.79	1265.55
1031.078	1275.26
1031.367	1255.15
1031.656	1265.32
1031.945	1269.84
1032.233	1220.8
1032.522	1231.87
1032.81	1201.59
1033.099	1195.94
1033.387	1177.41
1033.675	1172.21
1033.963	1176.28
1034.251	1194.14
1034.54	1171.09
1034.828	1179.45
1035.116	1164.98
1035.403	1138.32
1035.691	1147.58
1035.979	1132.44
1036.267	1122.5
1036.554	1112.33
1036.842	1125.21
1037.129	1100.13
1037.417	1063.52
1037.704	1064.2
1037.992	1097.87
1038.279	1084.53
1038.566	1046.57
1038.853	1046.57
1039.14	1046.57
