Data from aluminium_surface_pro_back_FLMS001491_00054.txt Node
Date: Wed Feb 08 15:34:15 GMT 2017
User: dcchb
Spectrometer: FLMS00149
Trigger mode: 0
Integration Time (sec): 2.000000E-2
Scans to average: 10
Electric dark correction enabled: true
Nonlinearity correction enabled: false
Boxcar width: 0
XAxis mode: Wavelengths
Number of Pixels in Spectrum: 2048
>>>>>Begin Spectral Data<<<<<
341.393	-15.28
341.776	-15.28
342.16	-15.28
342.543	-75.62
342.927	-56.64
343.31	-78.56
343.693	-67.71
344.077	-60.25
344.46	-77.65
344.843	-33.36
345.226	-43.08
345.61	-15.06
345.993	-30.42
346.376	-21.38
346.759	7.99
347.142	17.26
347.525	48.22
347.908	65.85
348.291	61.1
348.674	101.78
349.057	125.28
349.44	129.35
349.823	153.98
350.206	173.19
350.588	241.43
350.971	239.4
351.354	242.11
351.737	270.81
352.119	262.45
352.502	274.43
352.884	297.93
353.267	292.05
353.65	333.18
354.032	317.59
354.414	338.38
354.797	337.7
355.179	352.17
355.562	359.17
355.944	366.18
356.326	347.19
356.709	354.43
357.091	386.74
357.473	377.7
357.855	372.05
358.238	378.15
358.62	372.5
359.002	395.55
359.384	399.17
359.766	359.62
360.148	375.67
360.53	370.24
360.912	369.57
361.294	362.56
361.676	386.29
362.057	374.76
362.439	365.05
362.821	380.87
363.203	351.71
363.584	388.1
363.966	356.69
364.348	368.44
364.729	367.08
365.111	373.63
365.493	350.58
365.874	375.89
366.256	363.01
366.637	379.28
367.019	348.32
367.4	368.89
367.781	378.61
368.163	385.39
368.544	364.37
368.925	349
369.306	362.56
369.688	364.82
370.069	387.65
370.45	366.85
370.831	387.65
371.212	358.49
371.593	396.46
371.974	379.28
372.355	382.67
372.736	372.5
373.117	391.26
373.498	386.74
373.879	394.42
374.26	382.67
374.641	380.41
375.021	365.95
375.402	401.43
375.783	394.2
376.163	421.54
376.544	432.62
376.925	418.6
377.305	421.09
377.686	423.8
378.066	420.41
378.447	403.92
378.827	445.95
379.208	426.51
379.588	433.29
379.968	434.65
380.349	468.1
380.729	440.98
381.109	446.63
381.489	465.84
381.87	461.99
382.25	454.08
382.63	469.68
383.01	456.57
383.39	481.43
383.77	466.29
384.15	470.35
384.53	485.04
384.91	501.31
385.29	488.66
385.67	484.14
386.049	506.06
386.429	494.08
386.809	492.28
387.189	493.18
387.568	502.9
387.948	508.55
388.328	527.08
388.707	522.1
389.087	547.41
389.466	522.33
389.846	549.67
390.225	567.98
390.605	546.74
390.984	568.43
391.363	560.52
391.743	557.58
392.122	565.27
392.501	586.96
392.881	589.9
393.26	605.04
393.639	579.28
394.018	620.18
394.397	596
394.776	629.67
395.155	645.49
395.534	650.24
395.913	652.5
396.292	653.63
396.671	654.53
397.05	656.11
397.429	666.28
397.808	677.81
398.186	691.14
398.565	699.95
398.944	692.04
399.323	694.53
399.701	714.87
400.08	713.74
400.458	729.11
400.837	732.95
401.215	725.72
401.594	742.21
401.972	717.35
402.351	770.23
402.729	768.88
403.107	798.48
403.486	794.19
403.864	781.99
404.242	812.94
404.62	838.03
404.999	832.83
405.377	823.57
405.755	889.1
406.133	872.15
406.511	863.11
406.889	896.11
407.267	900.17
407.645	913.28
408.023	930.68
408.401	939.72
408.779	936.33
409.156	955.99
409.534	972.04
409.912	984.01
410.29	973.39
410.667	986.95
411.045	1023.79
411.422	1044.8
411.8	1039.15
412.178	1057.68
412.555	1055.88
412.933	1074.86
413.31	1084.58
413.687	1112.15
414.065	1144.46
414.442	1143.56
414.819	1128.42
415.197	1155.08
415.574	1207.28
415.951	1214.06
416.328	1217
416.705	1205.7
417.082	1210.45
417.46	1242.99
417.837	1248.19
418.214	1260.84
418.591	1279.37
418.967	1304.01
419.344	1300.84
419.721	1318.02
420.098	1325.47
420.475	1356.89
420.852	1367.96
421.228	1408.41
421.605	1382.87
421.982	1382.42
422.358	1410.67
422.735	1447.96
423.111	1447.73
423.488	1471.01
423.864	1478.92
424.241	1488.18
424.617	1494.28
424.994	1491.34
425.37	1538.12
425.746	1555.52
426.123	1569.31
426.499	1561.4
426.875	1601.62
427.251	1621.06
427.627	1654.5
428.003	1647.73
428.379	1714.16
428.756	1707.16
429.132	1736.31
429.507	1766.14
429.883	1767.5
430.259	1821.96
430.635	1827.38
431.011	1815.63
431.387	1875.06
431.763	1912.12
432.138	1941.95
432.514	1978.11
432.89	1974.95
433.265	1997.55
433.641	2031.9
434.016	2055.4
434.392	2085.68
434.767	2117.32
435.143	2121.16
435.518	2157.99
435.894	2179.46
436.269	2229.18
436.644	2237.77
437.02	2245.68
437.395	2248.16
437.77	2319.12
438.145	2332.45
438.52	2401.6
438.895	2387.14
439.271	2402.06
439.646	2412.9
440.021	2457.65
440.395	2493.8
440.77	2467.82
441.145	2499
441.52	2597.98
441.895	2541.03
442.27	2571.77
442.645	2600.69
443.019	2659.9
443.394	2655.16
443.769	2644.53
444.143	2646.57
444.518	2713.23
444.892	2674.14
445.267	2717.53
445.641	2757.53
446.016	2781.48
446.39	2778.32
446.764	2793.91
447.139	2841.37
447.513	2837.07
447.887	2883.17
448.262	2893.57
448.636	2935.15
449.01	2965.2
449.384	2971.53
449.758	2976.5
450.132	3040
450.506	3059.89
450.88	3084.75
451.254	3073.9
451.628	3133.79
452.002	3157.97
452.376	3217.85
452.75	3270.28
453.123	3250.85
453.497	3313.44
453.871	3350.05
454.244	3400
454.618	3432.08
454.992	3443.84
455.365	3499.88
455.739	3584.17
456.112	3646.32
456.486	3651.29
456.859	3628.46
457.232	3730.83
457.606	3718.18
457.979	3776.48
458.352	3868.68
458.725	3944.61
459.099	3943.26
459.472	4045.18
459.845	4076.14
460.218	4065.06
460.591	4128.56
460.964	4140.09
461.337	4292.18
461.71	4318.39
462.083	4427.31
462.456	4393.64
462.829	4431.38
463.201	4532.62
463.574	4558.16
463.947	4598.16
464.32	4694.65
464.692	4766.06
465.065	4813.07
465.438	4855.55
465.81	4956.34
466.183	4975.1
466.555	5079.73
466.928	5116.79
467.3	5048.54
467.672	5251.7
468.045	5355.88
468.417	5362.43
468.789	5419.83
469.161	5466.38
469.534	5571.69
469.906	5666.38
470.278	5705.47
470.65	5712.7
471.022	5914.05
471.394	5979.59
471.766	6034.73
472.138	6161.73
472.51	6269.52
472.882	6380.93
473.253	6373.48
473.625	6484.43
473.997	6667.93
474.369	6687.59
474.74	6773.24
475.112	6908.38
475.484	7076.28
475.855	7104.76
476.227	7234.7
476.598	7427.46
476.97	7509.49
477.341	7692.31
477.713	7753.55
478.084	7812.53
478.455	8086.65
478.827	8064.05
479.198	8361.9
479.569	8354.44
479.94	8656.81
480.311	8701.32
480.682	8932.05
481.053	9146.51
481.424	9213.18
481.795	9355.54
482.166	9479.16
482.537	9624.24
482.908	9851.58
483.279	9848.87
483.65	10083.44
484.021	10313.26
484.391	10468.96
484.762	10506.02
485.133	10640.93
485.503	10799.57
485.874	11059.91
486.244	11120.47
486.615	11365.44
486.985	11483.62
487.356	11649.27
487.726	11799.77
488.097	12023.95
488.467	12091.07
488.837	12287.22
489.207	12474.56
489.578	12607.44
489.948	12816.47
490.318	12962.46
490.688	13098.72
491.058	13259.17
491.428	13360.19
491.798	13666.17
492.168	13869.32
492.538	13864.13
492.908	14146.61
493.278	14245.59
493.648	14323.1
494.017	14493.94
494.387	14674.95
494.757	14804.22
495.126	14945.91
495.496	15031.55
495.866	15167.14
496.235	15332.34
496.605	15475.61
496.974	15688.94
497.344	15709.05
497.713	15843.96
498.082	15949.95
498.452	16191.52
498.821	16218.42
499.19	16398.98
499.559	16449.82
499.928	16654.34
500.298	16708.35
500.667	16828.12
501.036	16876.48
501.405	17104.04
501.774	17186.75
502.143	17365.73
502.512	17432.39
502.88	17550.58
503.249	17605.5
503.618	17764.59
503.987	17862.67
504.356	17956.67
504.724	18075.32
505.093	18288.64
505.462	18246.61
505.83	18528.41
506.199	18576.09
506.567	18776.31
506.936	18838.23
507.304	19089.53
507.672	19197.09
508.041	19186.25
508.409	19369.74
508.777	19564.32
509.145	19742.16
509.514	19689.28
509.882	19914.36
510.25	20033.68
510.618	20191.87
510.986	20375.14
511.354	20560.22
511.722	20809.03
512.09	21022.58
512.458	20852.87
512.826	21235.46
513.193	21271.62
513.561	21337.6
513.929	21541.44
514.297	21761.77
514.664	21936.68
515.032	22056.68
515.4	22227.3
515.767	22313.62
516.135	22553.16
516.502	22374.19
516.869	22852.59
517.237	22968.52
517.604	23009.65
517.972	23279.7
518.339	23441.73
518.706	23473.37
519.073	23664.32
519.44	23770.31
519.808	24084.65
520.175	24115.83
520.542	24448.93
520.909	24591.3
521.276	24695.93
521.643	25015.25
522.009	25098.18
522.376	25374.11
522.743	25462.24
523.11	25707.43
523.477	26015.22
523.843	26095.67
524.21	26342.67
524.577	26694.52
524.943	26794.63
525.31	27019.49
525.676	27362.53
526.043	27608.4
526.409	27617.89
526.776	27967.71
527.142	27929.29
527.508	28189.63
527.874	28395.04
528.241	28523.18
528.607	28691.08
528.973	28992.77
529.339	28996.16
529.705	29262.14
530.071	29418.75
530.437	29703.03
530.803	29891.73
531.169	29989.35
531.535	30044.72
531.901	30151.38
532.267	30239.97
532.632	30488.32
532.998	30526.06
533.364	30818.03
533.73	30772.61
534.095	31237.46
534.461	31217.79
534.826	31428.41
535.192	31569.42
535.557	31779.14
535.923	31794.73
536.288	31962.18
536.653	32099.35
537.019	32117.88
537.384	32258.9
537.749	32406.69
538.114	32594.71
538.479	32610.75
538.845	32873.8
539.21	32837.87
539.575	33009.39
539.94	33177.29
540.305	33321.92
540.67	33248.7
541.034	33442.82
541.399	33607.34
541.764	33697.73
542.129	33796.26
542.494	33866.09
542.858	33972.98
543.223	34080.32
543.587	34376.13
543.952	34285.96
544.316	34477.37
544.681	34468.56
545.045	34667.65
545.41	34826.97
545.774	34984.93
546.138	34856.12
546.503	35078.71
546.867	35153.74
547.231	35463.11
547.595	35454.52
547.959	35640.96
548.324	35644.35
548.688	35634.63
549.052	35847.5
549.416	35944.68
549.779	36044.56
550.143	36233.26
550.507	36477.09
550.871	36477.77
551.235	36546.24
551.599	36758.21
551.962	36929.51
552.326	37081.37
552.689	37141.03
553.053	37238.2
553.417	37377.41
553.78	37772.42
554.143	37597.74
554.507	37872.08
554.87	38008.35
555.234	38387.32
555.597	38241.57
555.96	38478.17
556.323	38633.19
556.686	38699.86
557.05	38959.06
557.413	39163.12
557.776	39297.58
558.139	39627.29
558.502	39542.55
558.865	39694.18
559.228	40076.09
559.59	40091.69
559.953	40078.35
560.316	40596.98
560.679	40581.16
561.041	40879.91
561.404	41236.97
561.767	41303.86
562.129	41244.42
562.492	41720.8
562.854	41641.48
563.217	41693
563.579	41787.23
563.941	42148.81
564.304	42411.17
564.666	42749.7
565.028	42562.13
565.39	42996.69
565.753	43241.66
566.115	43305.84
566.477	43619.5
566.839	43626.73
567.201	44009.32
567.563	44012.94
567.925	44289.99
568.287	44305.13
568.648	44475.3
569.01	44693.37
569.372	44908.73
569.734	44932.24
570.095	45194.15
570.457	45422.85
570.819	45584.87
571.18	45487.93
571.542	45966.33
571.903	45854.02
572.265	46250.17
572.626	46243.61
572.987	46368.36
573.349	46568.13
573.71	46668.91
574.071	46775.58
574.432	47025.74
574.794	47189.35
575.155	47083.82
575.516	47138.51
575.877	47313.87
576.238	47430.48
576.599	47545.5
576.96	47506.41
577.32	47775.78
577.681	47900.75
578.042	48098.71
578.403	47970.12
578.763	48076.11
579.124	48209.44
579.485	48290.57
579.845	48621.41
580.206	48548.64
580.566	48552.25
580.927	48547.51
581.287	48844.68
581.648	48695.3
582.008	48759.93
582.368	48864.56
582.728	48836.99
583.089	48861.62
583.449	48862.75
583.809	48843.32
584.169	48999.47
584.529	48861.85
584.889	49232.24
585.249	48966.93
585.609	48942.98
585.969	49119.02
586.329	49069.53
586.688	49227.72
587.048	49082.64
587.408	49125.57
587.768	49064.33
588.127	48972.58
588.487	48880.16
588.846	49354.95
589.206	49128.28
589.565	49152.92
589.925	49327.6
590.284	49177.1
590.643	49211.67
591.003	49316.75
591.362	49420.71
591.721	49287.83
592.08	49345.23
592.44	49369.18
592.799	49566.01
593.158	49546.35
593.517	49455.28
593.876	49573.24
594.235	49390.88
594.593	49465
594.952	49537.99
595.311	49557.65
595.67	49542.06
596.029	49754.48
596.387	49886.23
596.746	49797.19
597.104	49630.64
597.463	49691.66
597.822	49720.13
598.18	49689.17
598.538	49604.66
598.897	49912.9
599.255	49551.78
599.613	50041.03
599.972	49818.89
600.33	49907.47
600.688	49667.25
601.046	49856.85
601.404	49940.24
601.762	49938.66
602.12	50115.83
602.478	50096.62
602.836	50155.15
603.194	49914.25
603.552	50049.16
603.91	50012.33
604.268	50129.39
604.625	50047.36
604.983	50262.72
605.341	50091.65
605.698	50276.5
606.056	50422.49
606.413	50345.2
606.771	50484.41
607.128	50449.38
607.485	50374.13
607.843	50385.65
608.2	50633.33
608.557	50640.11
608.914	50575.03
609.272	50701.35
609.629	50704.06
609.986	50824.06
610.343	50608.92
610.7	50847.56
611.057	50833.1
611.414	50738.19
611.771	50864.28
612.127	51043.26
612.484	50940.21
612.841	51067.67
613.198	50885.75
613.554	50947.9
613.911	51231.96
614.267	51204.61
614.624	51275.12
614.98	51218.4
615.337	51370.49
615.693	51366.19
616.05	51241.22
616.406	51521.22
616.762	51378.62
617.118	51322.35
617.475	51430.82
617.831	51467.21
618.187	51473.31
618.543	51611.61
618.899	51695.9
619.255	51600.99
619.611	51616.35
619.967	51693.64
620.323	51725.73
620.678	51520.54
621.034	51585.4
621.39	51495.68
621.746	51580.88
622.101	51916.69
622.457	51626.75
622.812	51753.75
623.168	51883.92
623.523	51785.62
623.879	51942.45
624.234	51696.58
624.589	51800.53
624.945	51833.07
625.3	51871.72
625.655	51798.5
626.01	51812.51
626.365	51859.06
626.72	51735.22
627.075	51845.28
627.43	51783.36
627.785	51762.79
628.14	51786.29
628.495	51848.66
628.85	51716.01
629.205	51638.95
629.559	51743.13
629.914	51606.41
630.269	51651.61
630.623	51522.57
630.978	51484.61
631.332	51624.26
631.687	51570.48
632.041	51323.26
632.396	51421.56
632.75	51258.4
633.104	51363.93
633.459	51099.98
633.813	51255.01
634.167	51256.59
634.521	51064.5
634.875	51197.16
635.229	51144.28
635.583	50936.6
635.937	50942.7
636.291	50926.43
636.645	50949.48
636.999	50865.64
637.352	50874.91
637.706	50728.92
638.06	50754.91
638.413	50654.57
638.767	50655.25
639.121	50706.32
639.474	50554.69
639.828	50572.77
640.181	50572.54
640.534	50565.76
640.888	50385.65
641.241	50262.04
641.594	50367.35
641.947	50413.45
642.301	50311.3
642.654	50357.18
643.007	50280.12
643.36	50260.91
643.713	50060.24
644.066	50183.17
644.419	49999.9
644.771	49718.78
645.124	49330.77
645.477	49330.77
645.83	49197.89
646.182	48940.94
646.535	48862.53
646.888	48947.27
647.24	48622.54
647.593	48905.69
647.945	48848.52
648.298	48747.96
648.65	48594.06
649.002	48512.71
649.355	48551.58
649.707	48544.57
650.059	48660.5
650.411	48975.29
650.763	49161.73
651.115	49479.69
651.467	49267.94
651.819	49357.66
652.171	49218.45
652.523	49081.05
652.875	49097.1
653.227	48907.5
653.578	49150.66
653.93	49042.19
654.282	48730.55
654.633	48642.65
654.985	48859.14
655.337	48736.66
655.688	48766.49
656.039	48800.38
656.391	48379.6
656.742	48495.08
657.094	48444.23
657.445	48664.34
657.796	48448.08
658.147	48399.94
658.498	48449.66
658.849	48446.95
659.2	48462.31
659.551	48277.91
659.902	48538.02
660.253	48386.84
660.604	48402.65
660.955	48177.8
661.306	48543.44
661.656	48198.82
662.007	48327.63
662.358	48340.96
662.708	48296.67
663.059	48186.61
663.409	48126.73
663.76	48293.5
664.11	48294.41
664.461	48310
664.811	48309.77
665.161	48203.56
665.511	48034.08
665.862	48169.21
666.212	48183.68
666.562	48232.71
666.912	48010.57
667.262	48058.48
667.612	47959.28
667.962	48055.77
668.312	48036.34
668.662	48166.95
669.011	48153.17
669.361	48088.31
669.711	48079.95
670.06	48007.86
670.41	47897.81
670.76	47783.24
671.109	48003.34
671.459	47938.71
671.808	47931.25
672.157	47971.93
672.507	47596.57
672.856	47703.24
673.205	47720.19
673.554	47803.57
673.904	47695.1
674.253	47927.19
674.602	47760.18
674.951	46975.12
675.3	46864.39
675.649	47459.63
675.998	47475.45
676.346	47546.63
676.695	47528.55
677.044	47182.57
677.393	47322.46
677.741	47231.16
678.09	47335.11
678.438	47154.78
678.787	47334.43
679.135	47250.59
679.484	46988.91
679.832	47189.58
680.181	46829.59
680.529	47073.88
680.877	46840.44
681.225	46911.85
681.573	47014.89
681.922	46728.35
682.27	46672.3
682.618	46655.13
682.966	46592.08
683.314	46596.37
683.661	46381.24
684.009	46179.44
684.357	46142.37
684.705	46105.54
685.053	46254.69
685.4	46041.36
685.748	45931.31
686.095	45787.81
686.443	45664.19
686.79	45616.06
687.138	45615.61
687.485	45735.61
687.832	45449.06
688.18	45476.86
688.527	45277.76
688.874	45297.88
689.221	45185.11
689.568	45038.9
689.915	44936.3
690.262	44754.16
690.609	44750.32
690.956	44727.5
691.303	44723.88
691.65	44395.3
691.997	44370.22
692.344	44252.48
692.69	44120.73
693.037	44074.63
693.383	43761.42
693.73	44094.29
694.077	43652.5
694.423	43702.21
694.769	43545.15
695.116	43525.27
695.462	43522.78
695.808	43348.1
696.155	43320.53
696.501	42847.55
696.847	42979.97
697.193	42613.43
697.539	42817.94
697.885	42561.45
698.231	42390.16
698.577	42486.2
698.923	42308.58
699.269	42087.79
699.614	41950.39
699.96	41833.11
700.306	41810.74
700.651	41684.86
700.997	41529.61
701.342	41393.12
701.688	41435.83
702.033	41331.88
702.379	41292.56
702.724	41065.45
703.069	41204.88
703.415	40712.69
703.76	40809.86
704.105	40796.3
704.45	40670.88
704.795	40344.56
705.14	40294.39
705.485	40253.04
705.83	40044.23
706.175	40034.29
706.52	40020.95
706.865	39646.95
707.209	39695.09
707.554	39622.09
707.899	39684.01
708.243	39388.65
708.588	39294.64
708.932	39146.17
709.277	38975.78
709.621	38877.48
709.966	38705.73
710.31	38850.81
710.654	38542.35
710.998	38655.34
711.342	38580.99
711.687	38494.89
712.031	38280.89
712.375	38284.95
712.719	38284.95
713.063	38222.13
713.407	38209.02
713.75	37993.44
714.094	38058.07
714.438	37896.04
714.782	37814.01
715.125	37564.07
715.469	37750.05
715.812	37559.78
716.156	37295.15
716.499	37406.56
716.843	37463.28
717.186	37250.18
717.53	37393.68
717.873	37312.78
718.216	37178.09
718.559	37064.65
718.902	36913.92
719.246	36870.53
719.589	36788.5
719.932	36547.82
720.275	36542.63
720.617	36408.62
720.96	36497.66
721.303	36341.28
721.646	36236.42
721.989	36068.51
722.331	36279.81
722.674	36149.64
723.016	35984.68
723.359	35948.29
723.701	35893.38
724.044	35752.37
724.386	35539.72
724.729	35740.39
725.071	35583.1
725.413	35498.36
725.755	35640.05
726.097	35292.26
726.439	35146.96
726.782	35206.16
727.124	35242.55
727.465	35170.69
727.807	35046.62
728.149	34919.17
728.491	34823.12
728.833	35066.96
729.175	34860.19
729.516	34701.77
729.858	34753.07
730.199	34781.54
730.541	34645.28
730.882	34531.38
731.224	34708.78
731.565	34356.24
731.906	34446.64
732.248	34466.3
732.589	34177.04
732.93	34027.44
733.271	34204.38
733.612	34233.08
733.953	34128.23
734.294	33997.38
734.635	33785.41
734.976	33979.08
735.317	33818.86
735.658	33740.44
735.999	33677.84
736.339	33653.89
736.68	33702.93
737.021	33548.36
737.361	33454.8
737.702	33544.06
738.042	33329.38
738.383	33271.3
738.723	33367.79
739.063	33155.15
739.404	33338.19
739.744	33141.13
740.084	32913.34
740.424	33091.42
740.764	33029.05
741.104	33026.56
741.444	32839
741.784	32802.84
742.124	32962.61
742.464	32651.43
742.804	32594.93
743.143	32481.72
743.483	32547.25
743.823	32302.51
744.162	32126.7
744.502	32220.48
744.841	32142.29
745.181	32162.63
745.52	32030.2
745.86	31979.81
746.199	32022.29
746.538	31952.01
746.877	32028.17
747.216	31906.36
747.556	31714.51
747.895	31855.52
748.234	31573.04
748.573	31566.03
748.911	31542.53
749.25	31604
749.589	31360.39
749.928	31406.72
750.267	31474.51
750.605	31352.03
750.944	31207.63
751.283	31070
751.621	31100.51
751.96	31008.08
752.298	30969.44
752.636	30936.9
752.975	30839.05
753.313	30707.3
753.651	30790.91
753.989	30585.95
754.327	30658.26
754.666	30498.94
755.004	30428.44
755.342	30464.37
755.679	30467.31
756.017	30303.69
756.355	30355.22
756.693	30184.38
757.031	30233.41
757.368	30067.77
757.706	29985.06
758.044	29889.69
758.381	29824.16
758.719	29715.01
759.056	29705.29
759.394	29525.86
759.731	29263.72
760.068	29348.01
760.405	29290.16
760.743	28994.12
761.08	29079.09
761.417	28935.82
761.754	28974.92
762.091	28935.37
762.428	28786.9
762.765	28481.6
763.102	28675.49
763.438	28363.63
763.775	28297.87
764.112	28333.35
764.449	28329.51
764.785	28026.47
765.122	27914.38
765.458	27785.34
765.795	27671.67
766.131	27688.62
766.467	27632.35
766.804	27414.05
767.14	27392.13
767.476	27381.74
767.812	27160.73
768.148	27286.37
768.485	27010.45
768.821	26829.66
769.157	26753.05
769.492	26750.57
769.828	26687.97
770.164	26406.85
770.5	26435.1
770.836	26449.33
771.171	26121.21
771.507	26268.32
771.842	25891.16
772.178	26009.57
772.513	25939.29
772.849	25909.46
773.184	25725.96
773.519	25685.51
773.855	25641.22
774.19	25466.99
774.525	25204.85
774.86	25223.15
775.195	25229.93
775.53	25072.87
775.865	25018.86
776.2	24660.45
776.535	24567.12
776.87	24581.13
777.205	24531.64
777.539	24400.35
777.874	24395.38
778.209	24286.9
778.543	24086.68
778.878	23970.53
779.212	23936.63
779.547	23813.24
779.881	23870.19
780.215	23714.04
780.55	23739.35
780.884	23500.26
781.218	23458.68
781.552	23464.33
781.886	23287.83
782.22	23249.64
782.554	23101.62
782.888	22912.48
783.222	22806.72
783.556	22739.83
783.889	22662.54
784.223	22383.9
784.557	22523.33
784.89	22566.72
785.224	22438.82
785.557	22377.12
785.891	22316.79
786.224	22154.98
786.558	22099.84
786.891	21883.8
787.224	21819.17
787.557	21813.07
787.891	21777.37
788.224	21733.98
788.557	21755.9
788.89	21691.49
789.223	21595
789.556	21436.58
789.888	21399.97
790.221	21378.28
790.554	21186.42
790.887	21130.6
791.219	21053.99
791.552	21009.93
791.884	21000.21
792.217	20915.24
792.549	20792.08
792.882	20609.49
793.214	20508.02
793.546	20631.41
793.879	20474.8
794.211	20256.73
794.543	20408.59
794.875	20307.57
795.207	20414.24
795.539	20113.23
795.871	20202.72
796.203	20006.79
796.535	19914.36
796.867	19944.19
797.198	19883.4
797.53	19808.15
797.862	19756.18
798.193	19762.28
798.525	19461.49
798.856	19486.8
799.188	19337.66
799.519	19226.7
799.85	19174.27
800.182	19159.13
800.513	19093.82
800.844	18875.29
801.175	18944.67
801.506	18909.42
801.837	18776.09
802.168	18674.85
802.499	18662.42
802.83	18506.94
803.161	18509.88
803.491	18407.51
803.822	18433.5
804.153	18274.86
804.483	18246.38
804.814	18163.22
805.145	18109.89
805.475	18151.92
805.805	18137.01
806.136	18230.57
806.466	18059.95
806.796	18070.34
807.126	17932.04
807.457	17932.72
807.787	17849.11
808.117	17791.93
808.447	17810.01
808.777	17873.97
809.107	17881.42
809.436	17681.88
809.766	17726.85
810.096	17658.15
810.426	17544.93
810.755	17555.78
811.085	17467.42
811.414	17488.44
811.744	17262.68
812.073	17274.21
812.403	17267.43
812.732	17128.67
813.061	17149.46
813.39	17037.83
813.719	16958.06
814.049	17046.64
814.378	17057.49
814.707	16895.69
815.036	16955.35
815.365	16713.32
815.693	16660.66
816.022	16720.55
816.351	16588.58
816.68	16606.88
817.008	16557.62
817.337	16399.2
817.665	16321.46
817.994	16423.83
818.322	16446.21
818.651	16292.54
818.979	16307.23
819.307	16314.91
819.636	16221.13
819.964	16256.15
820.292	16181.81
820.62	16067.91
820.948	16095.25
821.276	16036.5
821.604	16062.71
821.932	16089.61
822.259	16061.13
822.587	16120.56
822.915	16118.53
823.243	16107.46
823.57	16085.99
823.898	16028.14
824.225	15991.3
824.553	15983.39
824.88	16005.31
825.207	15992.43
825.535	15983.39
825.862	16022.26
826.189	15935.48
826.516	16091.64
826.843	16016.84
827.17	16049.38
827.497	16147.68
827.824	16111.3
828.151	16011.42
828.478	15999.44
828.805	16148.59
829.131	15933.45
829.458	15938.42
829.785	15814.36
830.111	16047.12
830.438	16075.82
830.764	15979.1
831.09	16001.47
831.417	16007.8
831.743	16053.9
832.069	15935.26
832.395	15946.11
832.722	15980.23
833.048	15926.22
833.374	15936.84
833.7	15826.34
834.026	15845.09
834.351	15822.95
834.677	15774.59
835.003	15834.7
835.329	15802.16
835.654	15766
835.98	15824.98
836.306	15742.72
836.631	15627.7
836.956	15613.91
837.282	15726.9
837.607	15616.85
837.932	15582.73
838.258	15571.65
838.583	15540.24
838.908	15382.96
839.233	15469.73
839.558	15443.97
839.883	15362.84
840.208	15347.93
840.533	15321.94
840.858	15455.72
841.182	15286.24
841.507	15218.67
841.832	15277.2
842.156	15156.75
842.481	15232.23
842.805	15174.83
843.13	15141.61
843.454	15140.7
843.778	15060.93
844.103	14922.63
844.427	15008.5
844.751	14930.77
845.075	14913.59
845.399	14889.86
845.723	14874.04
846.047	14882.86
846.371	14624.56
846.695	14696.2
847.019	14587.95
847.343	14566.26
847.666	14463.89
847.99	14439.71
848.313	14463.66
848.637	14279.71
848.96	14394.73
849.284	14296.43
849.607	14249.2
849.931	14244
850.254	14052.82
850.577	13977.34
850.9	13943.22
851.223	13872.49
851.546	13765.82
851.869	13806.73
852.192	13884.01
852.515	13827.29
852.838	13679.05
853.161	13641.31
853.483	13547.75
853.806	13513.18
854.129	13502.78
854.451	13510.69
854.774	13423.46
855.096	13383.69
855.419	13405.83
855.741	13293.52
856.063	13269.11
856.385	13222.34
856.708	13197.7
857.03	13079.29
857.352	13132.85
857.674	13058.5
857.996	13072.06
858.318	13039.74
858.64	12954.32
858.961	12929.46
859.283	12854.66
859.605	12842.23
859.926	12935.56
860.248	12796.58
860.57	12792.29
860.891	12783.93
861.212	12752.97
861.534	12736.02
861.855	12621
862.176	12765.62
862.498	12709.36
862.819	12669.36
863.14	12564.5
863.461	12599.98
863.782	12534.44
864.103	12599.98
864.424	12517.72
864.745	12502.35
865.065	12414.67
865.386	12374.9
865.707	12421.23
866.027	12431.62
866.348	12424.39
866.668	12378.06
866.989	12374.22
867.309	12329.93
867.63	12378.29
867.95	12387.78
868.27	12217.84
868.59	12250.84
868.91	12172.65
869.23	12228.46
869.55	12155.7
869.87	12255.58
870.19	12194.57
870.51	12233.89
870.83	12235.92
871.15	12155.92
871.469	12056.72
871.789	12132.2
872.109	12061.24
872.428	12065.76
872.748	12087.68
873.067	12088.13
873.386	12056.49
873.706	12119.31
874.025	12039.99
874.344	11972.2
874.663	12029.82
874.982	11931.52
875.301	11972.2
875.62	11923.84
875.939	11880.9
876.258	11950.28
876.577	11880.68
876.896	11879.77
877.214	11861.02
877.533	11861.92
877.852	11865.31
878.17	11816.5
878.489	11832.99
878.807	11788.48
879.125	11758.65
879.444	11678.42
879.762	11755.93
880.08	11791.64
880.398	11699.44
880.716	11754.35
881.034	11700.34
881.352	11587.8
881.67	11573.11
881.988	11640
882.306	11574.92
882.624	11532.66
882.941	11464.64
883.259	11453.12
883.577	11472.1
883.894	11384.42
884.212	11449.5
884.529	11399.79
884.846	11363.4
885.164	11365.44
885.481	11283.4
885.798	11339
886.115	11249.51
886.432	11191.2
886.75	11271.2
887.067	11242.73
887.383	11191.43
887.7	11225.78
888.017	11127.93
888.334	11132.9
888.651	11159.11
888.967	11146.68
889.284	11040.92
889.6	11051.32
889.917	10964.77
890.233	11011.55
890.55	10990.08
890.866	10964.09
891.182	10899.69
891.498	10797.54
891.815	10863.3
892.131	10758.67
892.447	10737.66
892.763	10751.44
893.079	10750.76
893.395	10702.18
893.71	10597.77
894.026	10647.04
894.342	10522.07
894.657	10554.61
894.973	10541.28
895.289	10515.74
895.604	10461.96
895.92	10435.29
896.235	10407.72
896.55	10418.57
896.865	10410.43
897.181	10321.62
897.496	10339.93
897.811	10261.28
898.126	10214.73
898.441	10134.96
898.756	10148.07
899.071	10092.02
899.386	10143.77
899.7	10033.49
900.015	9957.56
900.33	9990.1
900.644	10015.19
900.959	9997.34
901.273	9921.41
901.588	9831.46
901.902	9792.82
902.216	9801.41
902.531	9774.29
902.845	9704.01
903.159	9671.24
903.473	9725.93
903.787	9642.32
904.101	9638.48
904.415	9612.49
904.729	9523.9
905.042	9601.41
905.356	9526.39
905.67	9544.92
905.984	9530.46
906.297	9472.15
906.611	9377.24
906.924	9323.91
907.237	9345.38
907.551	9327.98
907.864	9236.9
908.177	9268.99
908.491	9187.41
908.804	9168.43
909.117	9087.08
909.43	9084.37
909.743	9031.94
910.056	9006.85
910.368	9022.22
910.681	8984.93
910.994	8996.23
911.307	8944.03
911.619	8894.77
911.932	8823.36
912.244	8782.9
912.557	8796.46
912.869	8714.88
913.181	8695.9
913.494	8638.95
913.806	8652.06
914.118	8668.56
914.43	8669.24
914.742	8658.16
915.054	8527.32
915.366	8534.55
915.678	8471.05
915.99	8460.65
916.302	8438.28
916.613	8438.28
916.925	8383.82
917.236	8306.08
917.548	8265.63
917.859	8266.31
918.171	8207.78
918.482	8179.08
918.794	8145.63
919.105	8080.55
919.416	8005.98
919.727	8029.7
920.038	8045.3
920.349	8012.76
920.66	7965.07
920.971	7918.29
921.282	7890.95
921.593	7841.46
921.903	7817.51
922.214	7774.8
922.525	7743.61
922.835	7694.12
923.146	7617.96
923.456	7675.14
923.767	7607.57
924.077	7558.53
924.387	7572.32
924.697	7476.95
925.008	7441.02
925.318	7497.97
925.628	7427.69
925.938	7390.4
926.248	7342.26
926.558	7328.03
926.867	7269.5
927.177	7254.58
927.487	7262.27
927.796	7253.23
928.106	7215.04
928.416	7179.78
928.725	7154.7
929.034	7112.67
929.344	7103.4
929.653	7071.54
929.962	7067.92
930.271	7034.25
930.581	7040.58
930.89	6942.95
931.199	6874.71
931.508	6946.79
931.817	6949.96
932.125	6922.16
932.434	6883.52
932.743	6852.33
933.051	6788.83
933.36	6770.75
933.669	6751.77
933.977	6734.82
934.286	6655.05
934.594	6664.77
934.902	6602.17
935.21	6541.61
935.519	6550.42
935.827	6621.61
936.135	6532.79
936.443	6469.97
936.751	6483.08
937.059	6465.45
937.367	6372.12
937.674	6385.68
937.982	6409.41
938.29	6332.8
938.597	6347.71
938.905	6271.56
939.213	6262.07
939.52	6198.34
939.827	6215.06
940.135	6208.51
940.442	6161.5
940.749	6122.18
941.056	6148.17
941.363	6039.47
941.67	6042.19
941.977	6025.69
942.284	5996.76
942.591	5951.57
942.898	5950.44
943.205	5924.45
943.511	5873.6
943.818	5862.53
944.125	5906.14
944.431	5825.24
944.738	5842.19
945.044	5863.89
945.35	5786.15
945.657	5728.75
945.963	5742.08
946.269	5721.29
946.575	5747.28
946.881	5688.3
947.187	5654.85
947.493	5631.8
947.799	5612.37
948.105	5602.65
948.41	5534.4
948.716	5547.96
949.022	5495.31
949.327	5507.06
949.633	5443.33
949.938	5387.06
950.244	5396.33
950.549	5444.24
950.854	5396.33
951.16	5381.64
951.465	5320.62
951.77	5366.95
952.075	5298.7
952.38	5243.34
952.685	5257.57
952.99	5200.63
953.294	5235.2
953.599	5178.71
953.904	5141.64
954.209	5102.1
954.513	5101.87
954.818	5107.07
955.122	5029.78
955.426	5041.99
955.731	4971.48
956.035	5005.83
956.339	4969.22
956.643	4940.29
956.948	4882.67
957.252	4898.94
957.556	4905.94
957.86	4860.75
958.163	4842.67
958.467	4812.16
958.771	4794.76
959.075	4766.97
959.378	4724.03
959.682	4749.34
959.985	4697.36
960.289	4714.31
960.592	4655.1
960.896	4687.65
961.199	4602.45
961.502	4628.44
961.805	4564.94
962.108	4590.92
962.411	4579.4
962.714	4471.38
963.017	4510.7
963.32	4520.19
963.623	4466.18
963.926	4513.19
964.228	4426.64
964.531	4400.2
964.833	4458.95
965.136	4377.6
965.438	4324.49
965.741	4357.71
966.043	4309.12
966.345	4300.76
966.648	4317.26
966.95	4268.22
967.252	4256.02
967.554	4242.01
967.856	4228
968.158	4193.42
968.46	4191.39
968.761	4193.19
969.063	4120.88
969.365	4111.16
969.666	4135.34
969.968	4120.65
970.269	4129.02
970.571	4104.16
970.872	4077.27
971.174	4030.71
971.475	4009.47
971.776	4014.67
972.077	3976.7
972.378	3951.62
972.679	3995.23
972.98	4002.47
973.281	3920.21
973.582	3919.76
973.883	3893.32
974.183	3856.93
974.484	3871.62
974.785	3873.66
975.085	3825.52
975.386	3821.45
975.686	3787.33
975.986	3796.37
976.287	3772.19
976.587	3762.92
976.887	3738.07
977.187	3698.52
977.487	3674.56
977.787	3682.47
978.087	3672.98
978.387	3673.89
978.687	3639.54
978.987	3637.96
979.286	3649.71
979.586	3587.79
979.885	3579.88
980.185	3608.13
980.484	3573.55
980.784	3512.31
981.083	3489.48
981.382	3559.09
981.682	3504.4
981.981	3442.25
982.28	3450.39
982.579	3472.76
982.878	3426.44
983.177	3441.35
983.475	3367.68
983.774	3389.37
984.073	3368.81
984.372	3364.06
984.67	3382.82
984.969	3358.41
985.267	3308.02
985.566	3281.13
985.864	3293.33
986.162	3293.78
986.461	3215.14
986.759	3233.9
987.057	3238.64
987.355	3248.13
987.653	3197.97
987.951	3181.47
988.249	3144.18
988.547	3171.75
988.844	3152.77
989.142	3128.14
989.44	3065.77
989.737	3033.23
990.035	3042.94
990.332	3045.88
990.63	3033.9
990.927	3033.23
991.224	3004.98
991.521	2983.51
991.819	3010.18
992.116	2967.24
992.413	2992.1
992.71	2931.31
993.006	2939.22
993.303	2885.21
993.6	2915.71
993.897	2908.48
994.193	2853.12
994.49	2841.37
994.787	2831.2
995.083	2801.82
995.379	2822.38
995.676	2831.87
995.972	2805.66
996.268	2793.01
996.565	2757.75
996.861	2747.13
997.157	2703.52
997.453	2735.15
997.749	2729.73
998.044	2729.73
998.34	2680.69
998.636	2650.64
998.932	2682.95
999.227	2625.78
999.523	2640.02
999.818	2608.15
1000.114	2585.55
1000.409	2600.24
1000.704	2599.34
1001	2572.9
1001.295	2563.63
1001.59	2548.49
1001.885	2505.78
1002.18	2475.27
1002.475	2487.48
1002.77	2476.4
1003.065	2465.1
1003.359	2476.18
1003.654	2443.41
1003.949	2425.78
1004.243	2402.51
1004.538	2397.31
1004.832	2392.11
1005.127	2382.39
1005.421	2391.21
1005.715	2337.88
1006.009	2361.83
1006.304	2329.29
1006.598	2336.29
1006.892	2319.57
1007.186	2296.75
1007.48	2279.35
1007.773	2268.95
1008.067	2226.24
1008.361	2232.57
1008.655	2208.61
1008.948	2198.9
1009.242	2232.34
1009.535	2172.91
1009.829	2172.23
1010.122	2158.22
1010.415	2181.27
1010.708	2122.06
1011.001	2138.33
1011.295	2116.41
1011.588	2066.7
1011.881	2087.49
1012.173	2089.97
1012.466	2082.97
1012.759	2039.35
1013.052	2055.85
1013.344	2047.71
1013.637	1995.06
1013.93	2004.55
1014.222	2011.33
1014.514	1949.86
1014.807	1953.25
1015.099	1959.13
1015.391	1974.5
1015.683	1926.14
1015.976	1955.29
1016.268	1924.1
1016.56	1896.53
1016.851	1894.05
1017.143	1877.55
1017.435	1879.81
1017.727	1871.45
1018.018	1838
1018.31	1819.47
1018.602	1857.89
1018.893	1808.85
1019.185	1805.91
1019.476	1801.39
1019.767	1781.28
1020.058	1766.37
1020.35	1729.98
1020.641	1783.31
1020.932	1711.23
1021.223	1724.56
1021.514	1712.81
1021.804	1693.37
1022.095	1659.25
1022.386	1645.01
1022.677	1651.34
1022.967	1615.64
1023.258	1627.84
1023.548	1615.86
1023.839	1602.3
1024.129	1600.04
1024.419	1607.05
1024.709	1575.41
1025	1567.5
1025.29	1551
1025.58	1538.12
1025.87	1539.48
1026.16	1516.43
1026.449	1527.5
1026.739	1512.81
1027.029	1486.83
1027.319	1478.01
1027.608	1469.88
1027.898	1467.62
1028.187	1447.5
1028.477	1460.16
1028.766	1449.99
1029.055	1416.09
1029.344	1435.3
1029.634	1410.67
1029.923	1401.86
1030.212	1394.62
1030.501	1397.79
1030.79	1374.74
1031.078	1357.56
1031.367	1362.76
1031.656	1359.15
1031.945	1360.73
1032.233	1369.09
1032.522	1344
1032.81	1300.62
1033.099	1289.54
1033.387	1301.52
1033.675	1287.96
1033.963	1267.85
1034.251	1259.94
1034.54	1255.42
1034.828	1250
1035.116	1215.42
1035.403	1224.23
1035.691	1239.37
1035.979	1224.01
1036.267	1203.44
1036.554	1202.76
1036.842	1155.99
1037.129	1186.04
1037.417	1175.65
1037.704	1174.52
1037.992	1155.08
1038.279	1162.99
1038.566	1134.52
1038.853	1134.52
1039.14	1134.52
