Data from aluminium_macbook_case_FLMS001491_065.txt Node
Date: Tue Feb 07 10:44:01 GMT 2017
User: dcchb
Spectrometer: FLMS00149
Trigger mode: 0
Integration Time (sec): 2.000000E-2
Scans to average: 10
Electric dark correction enabled: true
Nonlinearity correction enabled: false
Boxcar width: 0
XAxis mode: Wavelengths
Number of Pixels in Spectrum: 2048
>>>>>Begin Spectral Data<<<<<
341.393	9.48
341.776	9.48
342.16	9.48
342.543	-65.78
342.927	-84.76
343.31	-83.85
343.693	-58.32
344.077	-73.91
344.46	-67.58
344.843	-55.61
345.226	-41.37
345.61	-34.82
345.993	-4.08
346.376	6.31
346.759	1.57
347.142	41.34
347.525	40.21
347.908	61.23
348.291	60.1
348.674	98.74
349.057	110.04
349.44	148.46
349.823	142.58
350.206	172.18
350.588	225.97
350.971	250.37
351.354	277.04
351.737	293.76
352.119	283.82
352.502	315.23
352.884	313.42
353.267	321.11
353.65	337.38
354.032	354.33
354.414	358.17
354.797	368.79
355.179	372.41
355.562	376.93
355.944	390.71
356.326	396.13
356.709	401.78
357.091	379.64
357.473	394.78
357.855	413.08
358.238	389.35
358.62	384.16
359.002	401.33
359.384	423.93
359.766	405.62
360.148	410.14
360.53	430.93
360.912	435.68
361.294	426.64
361.676	418.96
362.057	433.65
362.439	421.67
362.821	422.8
363.203	420.31
363.584	399.3
363.966	436.58
364.348	418.05
364.729	424.83
365.111	424.61
365.493	426.19
365.874	420.09
366.256	443.59
366.637	424.38
367.019	433.87
367.4	425.51
367.781	410.82
368.163	438.39
368.544	419.41
368.925	424.83
369.306	435.68
369.688	444.72
370.069	445.17
370.45	468.67
370.831	425.06
371.212	445.62
371.593	441.1
371.974	450.14
372.355	459.18
372.736	468.45
373.117	458.28
373.498	478.17
373.879	462.57
374.26	458.73
374.641	477.49
375.021	459.41
375.402	472.29
375.783	497.83
376.163	524.04
376.544	523.59
376.925	530.59
377.305	497.83
377.686	506.41
378.066	529.46
378.447	525.4
378.827	545.28
379.208	529.24
379.588	527.66
379.968	516.81
380.349	559.07
380.729	529.46
381.109	561.78
381.489	568.33
381.87	570.14
382.25	589.12
382.63	590.03
383.01	598.84
383.39	579.18
383.77	611.27
384.15	608.56
384.53	613.08
384.91	621.44
385.29	632.29
385.67	618.05
386.049	665.51
386.429	640.42
386.809	655.11
387.189	653.75
387.568	673.41
387.948	656.01
388.328	668.22
388.707	682.23
389.087	699.4
389.466	715.9
389.846	734.43
390.225	731.94
390.605	734.43
390.984	726.97
391.363	766.97
391.743	756.8
392.122	750.02
392.501	771.04
392.881	802.9
393.26	809.91
393.639	824.37
394.018	806.97
394.397	843.35
394.776	825.95
395.155	817.82
395.534	847.65
395.913	847.65
396.292	843.13
396.671	876.57
397.05	861.43
397.429	884.26
397.808	917.02
398.186	899.4
398.565	903.69
398.944	944.37
399.323	933.29
399.701	966.74
400.08	968.1
400.458	964.25
400.837	999.96
401.215	1004.03
401.594	1006.06
401.972	1004.48
402.351	1021.2
402.729	1029.79
403.107	1038.15
403.486	1063.23
403.864	1087.41
404.242	1087.64
404.62	1108.88
404.999	1122.89
405.377	1127.19
405.755	1143.68
406.133	1184.59
406.511	1151.37
406.889	1185.27
407.267	1215.77
407.645	1222.78
408.023	1271.82
408.401	1252.38
408.779	1303.91
409.156	1318.82
409.534	1313.4
409.912	1364.92
410.29	1350.23
410.667	1384.13
411.045	1407.86
411.422	1434.52
411.8	1434.75
412.178	1456.67
412.555	1474.3
412.933	1495.77
413.31	1532.6
413.687	1525.37
414.065	1546.39
414.442	1541.19
414.819	1556.56
415.197	1626.84
415.574	1637.68
415.951	1658.02
416.328	1679.04
416.705	1690.11
417.082	1683.56
417.46	1729.88
417.837	1758.81
418.214	1768.75
418.591	1797.45
418.967	1780.28
419.344	1837
419.721	1845.36
420.098	1889.43
420.475	1892.59
420.852	1907.96
421.228	1940.95
421.605	1929.65
421.982	1940.05
422.358	2022.31
422.735	2034.51
423.111	2035.41
423.488	2080.61
423.864	2053.27
424.241	2121.96
424.617	2133.72
424.994	2146.14
425.37	2174.39
425.746	2223.66
426.123	2233.37
426.499	2253.49
426.875	2300.04
427.251	2325.8
427.627	2362.64
428.003	2387.95
428.379	2420.26
428.756	2472.46
429.132	2475.85
429.507	2540.26
429.883	2589.52
430.259	2599.01
430.635	2599.47
431.011	2636.53
431.387	2748.16
431.763	2790.65
432.138	2790.87
432.514	2841.04
432.89	2855.05
433.265	2973.47
433.641	3013.47
434.016	3002.17
434.392	3038.32
434.767	3100.7
435.143	3125.1
435.518	3159.22
435.894	3233.35
436.269	3235.61
436.644	3277.87
437.02	3356.51
437.395	3309.28
437.77	3439.44
438.145	3463.62
438.52	3429.5
438.895	3527.35
439.271	3508.37
439.646	3595.6
440.021	3620.46
440.395	3631.98
440.77	3641.92
441.145	3731.41
441.52	3796.72
441.895	3745.42
442.27	3817.74
442.645	3852.09
443.019	3906.1
443.394	3872.2
443.769	3972.31
444.143	3925.31
444.518	3994.01
444.892	4038.3
445.267	4071.29
445.641	4072.42
446.016	4121.91
446.39	4133.89
446.764	4207.11
447.139	4221.34
447.513	4195.81
447.887	4273.32
448.262	4291.62
448.636	4318.97
449.01	4405.29
449.384	4445.07
449.758	4521
450.132	4499.98
450.506	4568.23
450.88	4590.15
451.254	4645.74
451.628	4699.98
452.002	4739.07
452.376	4793.53
452.75	4841.89
453.123	4918.95
453.497	5021.55
453.871	5025.84
454.244	5120.08
454.618	5181.77
454.992	5232.16
455.365	5172.51
455.739	5402.1
456.112	5410.01
456.486	5419.96
456.859	5510.8
457.232	5643.45
457.606	5651.81
457.979	5717.12
458.352	5782.88
458.725	5932.94
459.099	5908.76
459.472	6090.67
459.845	6119.6
460.218	6162.99
460.591	6208.41
460.964	6261.29
461.337	6467.84
461.71	6605.46
462.083	6674.39
462.456	6657.66
462.829	6687.72
463.201	6782.18
463.574	6875.51
463.947	6896.53
464.32	7175.84
464.692	7216.97
465.065	7254.94
465.438	7338.55
465.81	7471.2
466.183	7569.05
466.555	7737.18
466.928	7770.4
467.3	7773.11
467.672	7900.12
468.045	8150.96
468.417	8158.42
468.789	8231.18
469.161	8384.4
469.534	8528.12
469.906	8652.87
470.278	8751.62
470.65	8851.5
471.022	9006.98
471.394	9184.38
471.766	9274.54
472.138	9356.35
472.51	9632.05
472.882	9743.46
473.253	9867.52
473.625	10031.13
473.997	10226.16
474.369	10333.95
474.74	10400.39
475.112	10584.79
475.484	10783.43
475.855	10980.49
476.227	11128.51
476.598	11388.61
476.97	11549.51
477.341	11860.01
477.713	11977.75
478.084	12017.97
478.455	12444.4
478.827	12445.31
479.198	12773.44
479.569	12887.78
479.94	13219.3
480.311	13350.37
480.682	13662.9
481.053	13981.09
481.424	14290.46
481.795	14384.47
482.166	14670.11
482.537	14836.43
482.908	15128.4
483.279	15241.17
483.65	15677.77
484.021	15834.15
484.391	16100.58
484.762	16318.88
485.133	16457.63
485.503	16606.1
485.874	16991.63
486.244	17229.82
486.615	17562.69
486.985	17766.75
487.356	18095.78
487.726	18176.01
488.097	18629.1
488.467	18664.35
488.837	19159.03
489.207	19218.92
489.578	19502.52
489.948	19779.35
490.318	20065
490.688	20177.31
491.058	20466.11
491.428	20748.37
491.798	20886.67
492.168	21518.97
492.538	21435.81
492.908	21760.32
493.278	22075.34
493.648	22112.85
494.017	22365.5
494.387	22682.33
494.757	22802.55
495.126	23082.99
495.496	23285.02
495.866	23424.23
496.235	23602.76
496.605	23882.52
496.974	24044.33
497.344	24272.12
497.713	24432.34
498.082	24576.06
498.452	24937.41
498.821	24987.13
499.19	25076.84
499.559	25357.29
499.928	25522.93
500.298	25640.44
500.667	25913.65
501.036	25949.81
501.405	26205.17
501.774	26255.79
502.143	26579.85
502.512	26768.32
502.88	26878.6
503.249	26858.04
503.618	27091.25
503.987	27422.54
504.356	27496.89
504.724	27805.58
505.093	27942.98
505.462	27996.76
505.83	28265.01
506.199	28548.39
506.567	29031.76
506.936	28947.47
507.304	29305.66
507.672	29492.77
508.041	29437.86
508.409	29806.43
508.777	30149.02
509.145	30237.83
509.514	30408.68
509.882	30652.97
510.25	30757.37
510.618	30944.93
510.986	31180.41
511.354	31473.96
511.722	31673.28
512.09	32057.45
512.458	31968.41
512.826	32339.02
513.193	32348.06
513.561	32460.38
513.929	32822.17
514.297	33189.62
514.664	33475.94
515.032	33473.23
515.4	33809.72
515.767	34056.27
516.135	34194.57
516.502	34134.46
516.869	34745.51
517.237	35042
517.604	34838.39
517.972	35383.69
518.339	35660.07
518.706	35698.03
519.073	35951.81
519.44	36265.7
519.808	36732.13
520.175	36724.44
520.542	37225
520.909	37475.84
521.276	37511.99
521.643	37910.85
522.009	38137.97
522.376	38515.81
522.743	38630.16
523.11	39018.62
523.477	39346.52
523.843	39569.34
524.21	39921.87
524.577	40234.86
524.943	40300.62
525.31	40574.51
525.676	41008.63
526.043	41249.3
526.409	41352.12
526.776	41783.52
527.142	41846.8
527.508	42276.61
527.874	42551.41
528.241	42876.6
528.607	42915.02
528.973	43399.52
529.339	43432.52
529.705	43776.91
530.071	44103.46
530.437	44389.1
530.803	44670.45
531.169	44854.85
531.535	44903.44
531.901	45059.82
532.267	45282.86
532.632	45559.01
532.998	45856.18
533.364	46130.07
533.73	46296.85
534.095	46548.14
534.461	46646.44
534.826	46834.01
535.192	46934.12
535.557	47368.68
535.923	47282.58
536.288	47431.06
536.653	47744.27
537.019	47554.89
537.384	47669.01
537.749	48017.48
538.114	48005.96
538.479	48109.46
538.845	48472.16
539.21	48303.8
539.575	48465.38
539.94	48612.94
540.305	48756.9
540.67	48832.15
541.034	48962.09
541.399	49254.28
541.764	49366.82
542.129	49424.45
542.494	49624.9
542.858	49788.51
543.223	49861.5
543.587	50048.16
543.952	50067.82
544.316	50292
544.681	50365.44
545.045	50501.26
545.41	50738.54
545.774	50845.65
546.138	50858.99
546.503	51017.85
546.867	50998.64
547.231	51371.52
547.595	51524.05
547.959	51519.54
548.324	51548.01
548.688	51678.18
549.052	51917.26
549.416	51830.04
549.779	51960.43
550.143	52004.27
550.507	52194.55
550.871	52268.67
551.235	52237.48
551.599	52547.76
551.962	52524.48
552.326	52607.87
552.689	52890.12
553.053	52806.06
553.417	52835.43
553.78	53276.78
554.143	53066.16
554.507	53377.34
554.87	53463.44
555.234	53680.16
555.597	53568.97
555.96	53757.22
556.323	53865.24
556.686	53947.27
557.05	54175.96
557.413	54302.51
557.776	54395.39
558.139	54602.84
558.502	54708.6
558.865	54696.63
559.228	54957.41
559.59	55114.47
559.953	55131.42
560.316	55363.05
560.679	55465.19
561.041	55629.03
561.404	55720.55
561.767	55942.02
562.129	55812.76
562.492	56107.21
562.854	56088.23
563.217	56159.41
563.579	56298.84
563.941	56470.14
564.304	56568.44
564.666	56667.2
565.028	56771.83
565.39	56775.44
565.753	56949
566.115	56952.61
566.477	57102.21
566.839	57104.93
567.201	57368.87
567.563	57335.65
567.925	57475.76
568.287	57582.2
568.648	57545.82
569.01	57715.76
569.372	57861.29
569.734	57819.71
570.095	58032.81
570.457	58125.01
570.819	58148.51
571.18	58191.68
571.542	58386.93
571.903	58363.87
572.265	58491.78
572.626	58545.57
572.987	58640.25
573.349	58715.05
573.71	58821.04
574.071	58884.54
574.432	58995.27
574.794	59199.11
575.155	59139
575.516	59125.66
575.877	59281.59
576.238	59358.2
576.599	59327.92
576.96	59452.21
577.32	59410.4
577.681	59532.21
578.042	59583.5
578.403	59580.34
578.763	59654.01
579.124	59611.53
579.485	59751.18
579.845	59745.31
580.206	59696.72
580.566	59646.55
580.927	59689.26
581.287	59723.39
581.648	59628.7
582.008	59811.29
582.368	59707.12
582.728	59776.95
583.089	59732.43
583.449	59705.53
583.809	59739.88
584.169	59862.59
584.529	59738.53
584.889	59898.07
585.249	59830.28
585.609	59805.19
585.969	59932.42
586.329	59811.97
586.688	59908.92
587.048	59877.51
587.408	59797.06
587.768	59810.16
588.127	59862.37
588.487	59892.65
588.846	59982.36
589.206	59866.21
589.565	59915.7
589.925	60058.75
590.284	60001.35
590.643	60046.54
591.003	60154.34
591.362	60129.48
591.721	60132.87
592.08	60133.77
592.44	60223.71
592.799	60175.35
593.158	60154.79
593.517	60157.5
593.876	60229.59
594.235	60123.15
594.593	60142.59
594.952	60237.05
595.311	60103.04
595.67	60145.75
596.029	60240.66
596.387	60238.4
596.746	60220.1
597.104	60078.86
597.463	60095.35
597.822	60145.07
598.18	60128.8
598.538	60063.49
598.897	60199.08
599.255	60012.42
599.613	60391.84
599.972	60174.67
600.33	60243.83
600.688	60169.93
601.046	60260.55
601.404	60334.67
601.762	60253.54
602.12	60422.58
602.478	60421.22
602.836	60435.46
603.194	60242.47
603.552	60367.44
603.91	60340.32
604.268	60506.87
604.625	60360.88
604.983	60501.22
605.341	60444.95
605.698	60560.88
606.056	60575.12
606.413	60620.76
606.771	60665.96
607.128	60769.46
607.485	60653.31
607.843	60706.41
608.2	60853.3
608.557	60903.47
608.914	60862.79
609.272	61013.75
609.629	60948.67
609.986	61107.08
610.343	60931.27
610.7	61121.54
611.057	61052.84
611.414	61075.22
611.771	61028.44
612.127	61141.2
612.484	61050.13
612.841	61076.57
613.198	60978.5
613.554	61008.55
613.911	61114.76
614.267	61047.19
614.624	61074.09
614.98	61042.22
615.337	61144.82
615.693	61134.65
616.05	61093.97
616.406	61228.21
616.762	61088.78
617.118	61164.25
617.475	61079.28
617.831	61107.53
618.187	61266.17
618.543	61227.75
618.899	61371.71
619.255	61318.6
619.611	61262.78
619.967	61343.46
620.323	61409.9
620.678	61313.18
621.034	61321.09
621.39	61284.02
621.746	61296.45
622.101	61488.76
622.457	61340.97
622.812	61435.21
623.168	61489.22
623.523	61458.93
623.879	61572.15
624.234	61411.25
624.589	61461.42
624.945	61514.75
625.3	61571.7
625.655	61549.55
626.01	61550.91
626.365	61611.02
626.72	61625.03
627.075	61580.97
627.43	61523.34
627.785	61526.96
628.14	61535.32
628.495	61541.42
628.85	61503.45
629.205	61394.98
629.559	61481.53
629.914	61407.41
630.269	61354.08
630.623	61326.96
630.978	61229.79
631.332	61270.92
631.687	61327.86
632.041	61123.35
632.396	61196.12
632.75	61073.41
633.104	61065.72
633.459	61026.4
633.813	60987.53
634.167	60914.32
634.521	60926.97
634.875	60877.03
635.229	60949.12
635.583	60813.98
635.937	60751.16
636.291	60765.17
636.645	60837.93
636.999	60750.93
637.352	60792.06
637.706	60606.3
638.06	60665.51
638.413	60575.34
638.767	60537.38
639.121	60569.47
639.474	60418.96
639.828	60437.72
640.181	60518.17
640.534	60459.19
640.888	60410.15
641.241	60279.53
641.594	60351.17
641.947	60388.23
642.301	60352.98
642.654	60358.17
643.007	60386.42
643.36	60323.15
643.713	60336.03
644.066	60387.32
644.419	60270.27
644.771	60171.96
645.124	59879.99
645.477	59920.67
645.83	59695.37
646.182	59597.51
646.535	59444.3
646.888	59564.52
647.24	59370.4
647.593	59485.88
647.945	59388.71
648.298	59359.1
648.65	59255.6
649.002	59103.29
649.355	59329.27
649.707	59201.14
650.059	59316.39
650.411	59503.51
650.763	59575.14
651.115	59780.33
651.467	59689.94
651.819	59662.82
652.171	59534.01
652.523	59519.1
652.875	59487.24
653.227	59275.72
653.578	59473.22
653.93	59397.97
654.282	59205.43
654.633	59089.51
654.985	59171.31
655.337	59204.98
655.688	59218.09
656.039	59284.53
656.391	59019.45
656.742	59111.2
657.094	59101.03
657.445	59162.27
657.796	59046.57
658.147	58996.4
658.498	59003.18
658.849	58986.46
659.2	58986.91
659.551	58897.19
659.902	58949.62
660.253	58964.09
660.604	58938.1
660.955	58826.01
661.306	58990.07
661.656	58894.71
662.007	58963.41
662.358	58977.64
662.708	58977.87
663.059	58987.59
663.409	58809.29
663.76	58976.97
664.11	58966.12
664.461	58981.03
664.811	58981.71
665.161	58988.49
665.511	58864.65
665.862	58957.98
666.212	58975.38
666.562	59041.82
666.912	58937.42
667.262	58938.55
667.612	58838.21
667.962	58920.92
668.312	58798.89
668.662	58881.15
669.011	58744.2
669.361	58710.08
669.711	58708.27
670.06	58633.92
670.41	58658.1
670.76	58568.84
671.109	58617.65
671.459	58488.62
671.808	58473.48
672.157	58535.17
672.507	58318.9
672.856	58261.96
673.205	58304.89
673.554	58321.16
673.904	58265.35
674.253	58347.6
674.602	58231.22
674.951	57869.65
675.3	57740.84
675.649	58087.95
675.998	58036.2
676.346	58087.72
676.695	58127.05
677.044	57934.28
677.393	57976.77
677.741	58040.27
678.09	57900.16
678.438	57799.6
678.787	57983.77
679.135	57923.21
679.484	57722.54
679.832	57848.86
680.181	57713.27
680.529	57767.28
680.877	57664.01
681.225	57650.22
681.573	57885.47
681.922	57682.99
682.27	57578.36
682.618	57607.06
682.966	57586.72
683.314	57598.25
683.661	57559.15
684.009	57514.86
684.357	57451.13
684.705	57475.08
685.053	57427.18
685.4	57370.45
685.748	57240.06
686.095	57227.63
686.443	57135.88
686.79	57151.7
687.138	57230.57
687.485	57121.65
687.832	57032.16
688.18	57007.53
688.527	56944.25
688.874	56858.6
689.221	56814.31
689.568	56713.75
689.915	56682.56
690.262	56620.19
690.609	56539.74
690.956	56436.69
691.303	56410.03
691.65	56264.04
691.997	56185.63
692.344	56085.52
692.69	56094.56
693.037	55978.63
693.383	55786.77
693.73	55890.49
694.077	55654.34
694.423	55621.57
694.769	55479.21
695.116	55412.77
695.462	55264.07
695.808	55175.94
696.155	55165.99
696.501	54946.56
696.847	54997.41
697.193	54721.48
697.539	54916.51
697.885	54684.65
698.231	54555.16
698.577	54532.56
698.923	54442.17
699.269	54274.94
699.614	54094.38
699.96	54186.36
700.306	54183.19
700.651	54046.25
700.997	53887.16
701.342	53829.08
701.688	53695.3
702.033	53737.78
702.379	53672.92
702.724	53580.95
703.069	53747.05
703.415	53325.82
703.76	53366.94
704.105	53413.27
704.45	53355.65
704.795	53096.44
705.14	53066.16
705.485	53046.5
705.83	52958.37
706.175	53031.36
706.52	52811.7
706.865	52745.94
707.209	52750.24
707.554	52622.11
707.899	52740.52
708.243	52577.13
708.588	52545.72
708.932	52369.23
709.277	52422.11
709.621	52338.5
709.966	52063.25
710.31	52266.86
710.654	51883.82
710.998	52115.45
711.342	52102.57
711.687	51886.98
712.031	51794.56
712.375	51602.24
712.719	51645.86
713.063	51571.74
713.407	51629.81
713.75	51344.85
714.094	51378.97
714.438	51091.75
714.782	51201.58
715.125	50935.6
715.469	50950.28
715.812	50756.39
716.156	50702.16
716.499	50682.95
716.843	50644.3
717.186	50367.02
717.53	50522.73
717.873	50506.23
718.216	50325.22
718.559	50219.68
718.902	49986.92
719.246	49982.17
719.589	49848.39
719.932	49730.88
720.275	49573.37
720.617	49513.49
720.96	49386.94
721.303	49285.7
721.646	49228.07
721.989	49097.45
722.331	49060.16
722.674	48955.76
723.016	48971.13
723.359	48725.71
723.701	48866.95
724.044	48587.63
724.386	48515.55
724.729	48687.07
725.071	48423.12
725.413	48403.68
725.755	48399.62
726.097	48090.47
726.439	47990.81
726.782	48091.6
727.124	48386.96
727.465	48034.88
727.807	48092.73
728.149	47956.47
728.491	47933.87
728.833	47945.84
729.175	47824.72
729.516	47791.27
729.858	47611.16
730.199	47794.89
730.541	47852.74
730.882	47755.34
731.224	47917.82
731.565	47503.37
731.906	47528.45
732.248	47613.88
732.589	47314.67
732.93	47341.57
733.271	47348.57
733.612	47322.81
733.953	47414.78
734.294	47142.7
734.635	47081.01
734.976	47084.85
735.317	46908.13
735.658	47019.77
735.999	46871.07
736.339	46879.43
736.68	46750.85
737.021	46558.76
737.361	46452.55
737.702	46525.54
738.042	46449.16
738.383	46314.47
738.723	46352.89
739.063	46085.78
739.404	46222.27
739.744	46047.14
740.084	45856.41
740.424	45774.6
740.764	45737.31
741.104	45725.11
741.444	45430.88
741.784	45338
742.124	45386.14
742.464	45308.4
742.804	45254.16
743.143	44944.79
743.483	45052.59
743.823	44865.25
744.162	44719.49
744.502	44750.22
744.841	44500.06
745.181	44696.21
745.52	44484.24
745.86	44424.58
746.199	44314.53
746.538	44234.98
746.877	44155.89
747.216	44072.95
747.556	43753.86
747.895	43780.08
748.234	43507.99
748.573	43499.86
748.911	43508.9
749.25	43408.56
749.589	43235.23
749.928	43355
750.267	43379.18
750.605	43079.98
750.944	43095.12
751.283	42996.82
751.621	43056.93
751.96	42831.63
752.298	42894
752.636	42776.71
752.975	42565.19
753.313	42460.56
753.651	42605.42
753.989	42373.11
754.327	42318.42
754.666	42052.67
755.004	42265.99
755.342	42276.39
755.679	42166.79
756.017	41893.35
756.355	42092.21
756.693	41808.38
757.031	41899
757.368	41527.48
757.706	41598.21
758.044	41447.94
758.381	41638.44
758.719	41212.24
759.056	41398.45
759.394	41344.66
759.731	41033.94
760.068	41021.51
760.405	40816.09
760.743	40729.08
761.08	40910.32
761.417	40614.29
761.754	40517.79
762.091	40478.7
762.428	40317.8
762.765	40002.78
763.102	40168.87
763.438	39866.96
763.775	39754.87
764.112	39694.99
764.449	39674.87
764.785	39514.43
765.122	39158.96
765.458	39058.62
765.795	38936.82
766.131	39054.55
766.467	38672.42
766.804	38450.73
767.14	38317.17
767.476	38406.43
767.812	38022.94
768.148	38094.35
768.485	37857.3
768.821	37633.35
769.157	37575.95
769.492	37396.29
769.828	37329.85
770.164	36966.7
770.5	36859.58
770.836	36717.66
771.171	36600.15
771.507	36401.74
771.842	36238.81
772.178	36201.29
772.513	35927.85
772.849	35811.47
773.184	35659.84
773.519	35583.46
773.855	35510.01
774.19	35307.98
774.525	35135.33
774.86	34959.97
775.195	34989.35
775.53	34844.04
775.865	34668.23
776.2	34306.2
776.535	34292.64
776.87	34161.12
777.205	34026.21
777.539	33844.29
777.874	33991.41
778.209	33577.41
778.543	33422.16
778.878	33291.09
779.212	33307.13
779.547	33172.9
779.881	33258.77
780.215	32898.1
780.55	33137.87
780.884	32995.95
781.218	32867.6
781.552	32870.08
781.886	32734.94
782.22	32404.33
782.554	32383.99
782.888	32039.37
783.222	32022.19
783.556	31910.56
783.889	31735.87
784.223	31638.7
784.557	31634.41
784.89	31687.06
785.224	31524.13
785.557	31350.35
785.891	31240.07
786.224	31265.6
786.558	31248.66
786.891	31016.12
787.224	30839.85
787.557	30804.37
787.891	30759.4
788.224	30796.01
788.557	30730.48
788.89	30559.18
789.223	30666.3
789.556	30467.21
789.888	30259.08
790.221	30098.86
790.554	29901.57
790.887	29934.57
791.219	29850.5
791.552	29665.65
791.884	29520.34
792.217	29317.41
792.549	29230.86
792.882	29049.62
793.214	29018.21
793.546	29127.58
793.879	28668.84
794.211	28542.06
794.543	28600.59
794.875	28632.23
795.207	28554.94
795.539	28402.18
795.871	28377.09
796.203	28083.54
796.535	27986.37
796.867	27826.6
797.198	27780.72
797.53	27697.79
797.862	27598.81
798.193	27415.08
798.525	27216.9
798.856	27395.65
799.188	27121.08
799.519	27006.73
799.85	26917.02
800.182	26810.13
800.513	26849.68
800.844	26497.82
801.175	26631.6
801.506	26566.97
801.837	26355.68
802.168	26282.01
802.499	26072.52
802.83	26066.87
803.161	25972.64
803.491	25889.7
803.822	25873.43
804.153	25746.88
804.483	25387.11
804.814	25363.84
805.145	25323.39
805.475	25355.93
805.805	25267.8
806.136	25307.8
806.466	25109.38
806.796	25082.04
807.126	24821.25
807.457	24866.45
807.787	24801.59
808.117	24646.57
808.447	24527.93
808.777	24695.38
809.107	24535.84
809.436	24520.47
809.766	24480.92
810.096	24358.44
810.426	24338.33
810.755	24382.62
811.085	24274.38
811.414	24135.85
811.744	24174.49
812.073	24170.65
812.403	24063.76
812.732	23988.28
813.061	23920.71
813.39	23801.39
813.719	23760.72
814.049	23778.12
814.378	23774.28
814.707	23668.97
815.036	23697.44
815.365	23566.37
815.693	23347.85
816.022	23468.97
816.351	23458.58
816.68	23226.49
817.008	23380.61
817.337	23089.55
817.665	23209.55
817.994	23287.96
818.322	23364.57
818.651	23125.48
818.979	23038.93
819.307	23141.52
819.636	23005.48
819.964	22869.67
820.292	22885.94
820.62	22948.99
820.948	22797.58
821.276	22866.28
821.604	22881.42
821.932	22811.36
822.259	22836.9
822.587	22736.79
822.915	22745.6
823.243	22820.63
823.57	22685.94
823.898	22836
824.225	22625.38
824.553	22654.76
824.88	22676
825.207	22777.92
825.535	22704.02
825.862	22763.91
826.189	22603.46
826.516	22693.17
826.843	22743.34
827.17	22727.07
827.497	22679.62
827.824	22665.38
828.151	22709.9
828.478	22600.97
828.805	22645.72
829.131	22520.98
829.458	22387.42
829.785	22312.85
830.111	22368.21
830.438	22513.07
830.764	22350.13
831.09	22438.94
831.417	22274.43
831.743	22414.99
832.069	22326.4
832.395	22253.41
832.722	22344.94
833.048	22238.05
833.374	22134.32
833.7	22110.82
834.026	22060.87
834.351	22072.17
834.677	22051.61
835.003	22091.61
835.329	22080.08
835.654	21884.38
835.98	21912.18
836.306	21913.76
836.631	21786.53
836.956	21814.55
837.282	21840.54
837.607	21621.34
837.932	21563.71
838.258	21668.57
838.583	21563.49
838.908	21452.53
839.233	21647.55
839.558	21552.41
839.883	21337.5
840.208	21372.08
840.533	21330.95
840.858	21378.63
841.182	21362.36
841.507	21263.16
841.832	21137.28
842.156	21138.19
842.481	21151.97
842.805	21114.23
843.13	21085.76
843.454	21015.7
843.778	21098.19
844.103	20957.4
844.427	20810.51
844.751	20967.57
845.075	20881.02
845.399	20881.24
845.723	20841.25
846.047	20842.6
846.371	20633.12
846.695	20529.62
847.019	20572.55
847.343	20547.69
847.666	20314.71
847.99	20241.04
848.313	20343.86
848.637	20160.13
848.96	20286.23
849.284	20199.91
849.607	20024.09
849.931	19992.91
850.254	19952.23
850.577	19915.85
850.9	19629.3
851.223	19678.34
851.546	19658.9
851.869	19517.89
852.192	19624.1
852.515	19508.17
852.838	19396.09
853.161	19347.95
853.483	19230.44
853.806	19219.82
854.129	19166.49
854.451	19156.77
854.774	19169.2
855.096	19031.8
855.419	18928.08
855.741	18970.56
856.063	18876.1
856.385	18739.83
856.708	18676.33
857.03	18554.3
857.352	18531.25
857.674	18428.88
857.996	18367.86
858.318	18365.38
858.64	18340.75
858.961	18250.35
859.283	18223.01
859.605	18134.2
859.926	18122.45
860.248	18093.75
860.57	18003.58
860.891	18003.35
861.212	17991.38
861.534	17912.51
861.855	17840.19
862.176	17831.16
862.498	17828.9
862.819	17727.88
863.14	17583.25
863.461	17599.07
863.782	17532.41
864.103	17653.98
864.424	17488.79
864.745	17503.25
865.065	17380.77
865.386	17284.73
865.707	17350.72
866.027	17336.71
866.348	17230.49
866.668	17197.95
866.989	17079.54
867.309	17049.26
867.63	17079.99
867.95	16986.21
868.27	17029.59
868.59	17014.68
868.91	16927.22
869.23	16921.57
869.55	16809.71
869.87	16770.62
870.19	16795.48
870.51	16804.52
870.83	16743.5
871.15	16776.04
871.469	16535.37
871.789	16614.24
872.109	16630.51
872.428	16498.08
872.748	16645.42
873.067	16578.98
873.386	16643.39
873.706	16597.29
874.025	16409.72
874.344	16442.72
874.663	16496.5
874.982	16426.22
875.301	16329.05
875.62	16426.67
875.939	16329.95
876.258	16343.74
876.577	16367.01
876.896	16315.04
877.214	16294.02
877.533	16218.77
877.852	16315.72
878.17	16286.79
878.489	16316.84
878.807	16301.7
879.125	16181.93
879.444	16276.62
879.762	16219.9
880.08	16251.08
880.398	16076.85
880.716	16166.79
881.034	16080.92
881.352	16176.96
881.67	16018.32
881.988	16080.02
882.306	16095.83
882.624	16044.76
882.941	16010.64
883.259	16092.22
883.577	16008.83
883.894	15939.23
884.212	15969.06
884.529	15984.88
884.846	15822.85
885.164	15786.01
885.481	15868.72
885.798	15915.73
886.115	15758.89
886.432	15673.92
886.75	15686.58
887.067	15699.23
887.383	15669.4
887.7	15663.3
888.017	15649.29
888.334	15628.5
888.651	15580.14
888.967	15446.59
889.284	15421.95
889.6	15458.56
889.917	15280.49
890.233	15293.82
890.55	15322.07
890.866	15314.16
891.182	15173.82
891.498	15238.68
891.815	15173.82
892.131	15024.45
892.447	15153.71
892.763	15106.93
893.079	14999.59
893.395	14950.78
893.71	14935.41
894.026	14851.8
894.342	14782.65
894.657	14709.2
894.973	14725.47
895.289	14603.9
895.604	14549.43
895.92	14518.47
896.235	14485.25
896.55	14393.96
896.865	14406.39
897.181	14349.44
897.496	14371.81
897.811	14246.39
898.126	14197.13
898.441	14151.93
898.756	14195.77
899.071	14016.79
899.386	14083.46
899.7	13927.53
900.015	13826.29
900.33	13793.3
900.644	13711.72
900.959	13869.68
901.273	13651.38
901.588	13606.41
901.902	13537.71
902.216	13463.13
902.531	13527.31
902.845	13330.93
903.159	13236.25
903.473	13263.14
903.787	13184.95
904.101	13145.4
904.415	13087.33
904.729	13019.98
905.042	12906.54
905.356	12927.1
905.67	12949.48
905.984	12922.81
906.297	12855.69
906.611	12750.84
906.924	12669.03
907.237	12727.11
907.551	12659.09
907.864	12681.91
908.177	12615.02
908.491	12529.15
908.804	12474.23
909.117	12324.18
909.43	12272.88
909.743	12274.92
910.056	12145.88
910.368	12158.31
910.681	12123.73
910.994	12025.21
911.307	11950.63
911.619	11982.72
911.932	12034.47
912.244	11780.02
912.557	11887.36
912.869	11800.13
913.181	11710.19
913.494	11762.39
913.806	11579.79
914.118	11612.79
914.43	11564.2
914.742	11549.51
915.054	11557.87
915.366	11433.81
915.678	11448.27
915.99	11424.32
916.302	11395.62
916.613	11366.24
916.925	11357.43
917.236	11242.63
917.548	11176.19
917.859	11200.37
918.171	11136.42
918.482	11161.05
918.794	11013.03
919.105	10998.11
919.416	10952.24
919.727	10949.75
920.038	10963.31
920.349	10849.42
920.66	10836.31
920.971	10857.55
921.282	10768.52
921.593	10691
921.903	10733.26
922.214	10603.55
922.525	10600.16
922.835	10532.59
923.146	10576.88
923.456	10491.91
923.767	10433.84
924.077	10393.38
924.387	10420.5
924.697	10414.63
925.008	10338.47
925.318	10310.22
925.628	10283.11
925.938	10240.85
926.248	10145.03
926.558	10120.62
926.867	10073.62
927.177	10035.43
927.487	9950.23
927.796	9943.45
928.106	9917.24
928.416	9845.6
928.725	9810.12
929.034	9808.32
929.344	9766.28
929.653	9696.23
929.962	9639.73
930.271	9554.54
930.581	9611.03
930.89	9505.05
931.199	9427.31
931.508	9455.1
931.817	9399.96
932.125	9371.72
932.434	9374.88
932.743	9323.81
933.051	9243.13
933.36	9163.13
933.669	9180.99
933.977	9111.61
934.286	9088.79
934.594	9042.69
934.902	8985.96
935.21	8942.58
935.519	8974.89
935.827	8862.35
936.135	8817.83
936.443	8729.93
936.751	8749.81
937.059	8674.56
937.367	8662.36
937.674	8625.52
937.982	8614.45
938.29	8522.47
938.597	8489.25
938.905	8412.19
939.213	8448.13
939.52	8418.3
939.827	8449.93
940.135	8292.2
940.442	8226.89
940.749	8304.17
941.056	8262.82
941.363	8133.33
941.67	8112.99
941.977	8086.55
942.284	8012.2
942.591	7980.79
942.898	7964.3
943.205	7855.82
943.511	7838.2
943.818	7816.5
944.125	7785.54
944.431	7779.44
944.738	7797.52
945.044	7679.78
945.35	7649.5
945.657	7576.28
945.963	7556.4
946.269	7532.67
946.575	7604.76
946.881	7457.64
947.187	7461.03
947.493	7406.34
947.799	7383.52
948.105	7345.56
948.41	7297.65
948.716	7306.69
949.022	7227.14
949.327	7171.77
949.633	7129.29
949.938	7162.06
950.244	7136.52
950.549	7056.3
950.854	7075.51
951.16	7044.55
951.465	7017.88
951.77	6958.22
952.075	6960.71
952.38	6920.03
952.685	6918.9
952.99	6850.88
953.294	6864.21
953.599	6753.25
953.904	6773.14
954.209	6696.98
954.513	6743.09
954.818	6685.01
955.122	6671
955.426	6604.78
955.731	6622.41
956.035	6552.13
956.339	6522.75
956.643	6541.06
956.948	6489.53
957.252	6433.26
957.556	6442.3
957.86	6369.54
958.163	6386.48
958.467	6362.76
958.771	6336.54
959.075	6360.5
959.378	6262.65
959.682	6323.21
959.985	6255.19
960.289	6302.65
960.592	6207.51
960.896	6236.88
961.199	6161.18
961.502	6146.94
961.805	6083.89
962.108	6140.62
962.411	6082.54
962.714	6013.61
963.017	6011.58
963.32	6024.46
963.623	5945.14
963.926	5969.32
964.228	5942.88
964.531	5917.57
964.833	5974.07
965.136	5837.8
965.438	5804.8
965.741	5827.63
966.043	5836.67
966.345	5766.61
966.648	5754.64
966.95	5766.61
967.252	5709.44
967.554	5688.42
967.856	5652.04
968.158	5592.83
968.46	5598.03
968.761	5571.36
969.063	5566.85
969.365	5582.21
969.666	5468.32
969.968	5466.06
970.269	5455.21
970.571	5445.72
970.872	5423.57
971.174	5400.75
971.475	5383.35
971.776	5322.33
972.077	5329.11
972.378	5309.45
972.679	5245.95
972.98	5245.05
973.281	5207.53
973.582	5205.95
973.883	5196.69
974.183	5116.24
974.484	5136.12
974.785	5047.31
975.085	5098.83
975.386	5087.76
975.686	5052.96
975.986	5029.68
976.287	5016.13
976.587	4922.12
976.887	4904.49
977.187	4934.77
977.487	4910.37
977.787	4879.41
978.087	4813.64
978.387	4807.77
978.687	4824.27
978.987	4777.26
979.286	4680.31
979.586	4719.18
979.885	4672.86
980.185	4616.81
980.484	4668.56
980.784	4600.77
981.083	4578.85
981.382	4608.68
981.682	4537.27
981.981	4532.97
982.28	4487.55
982.579	4491.85
982.878	4526.87
983.177	4499.75
983.475	4428.12
983.774	4427.21
984.073	4358.06
984.372	4363.71
984.67	4398.74
984.969	4313.77
985.267	4348.12
985.566	4234.9
985.864	4282.13
986.162	4250.27
986.461	4222.02
986.759	4208.24
987.057	4176.83
987.355	4150.39
987.653	4157.84
987.951	4096.15
988.249	4080.33
988.547	4116.04
988.844	4065.19
989.142	4065.87
989.44	4021.12
989.737	3982.93
990.035	3958.53
990.332	3962.37
990.63	3911.3
990.927	3905.87
991.224	3852.31
991.521	3859.09
991.819	3864.74
992.116	3823.61
992.413	3815.7
992.71	3758.08
993.006	3783.84
993.303	3756.72
993.6	3765.76
993.897	3741.81
994.193	3703.84
994.49	3688.93
994.787	3704.07
995.083	3636.5
995.379	3593.56
995.676	3614.13
995.972	3595.6
996.268	3591.53
996.565	3538.88
996.861	3523.28
997.157	3533.9
997.453	3517.63
997.749	3468.37
998.044	3450.29
998.34	3447.35
998.636	3461.14
998.932	3398.54
999.227	3395.38
999.523	3388.6
999.818	3307.47
1000.114	3353.34
1000.409	3337.07
1000.704	3269.73
1001	3309.5
1001.295	3260.92
1001.59	3262.05
1001.885	3278.32
1002.18	3237.64
1002.475	3177.76
1002.77	3189.96
1003.065	3213.46
1003.359	3136.85
1003.654	3158.77
1003.949	3106.12
1004.243	3116.29
1004.538	3099.34
1004.832	3097.31
1005.127	3066.8
1005.421	3040.36
1005.715	3022.96
1006.009	3024.09
1006.304	3005.56
1006.598	2956.07
1006.892	2963.3
1007.186	2936.86
1007.48	2906.35
1007.773	2920.59
1008.067	2882.4
1008.361	2875.16
1008.655	2854.15
1008.948	2821.61
1009.242	2805.34
1009.535	2832
1009.829	2803.08
1010.122	2771.21
1010.415	2760.59
1010.708	2734.38
1011.001	2726.69
1011.295	2705.45
1011.588	2693.25
1011.881	2675.17
1012.173	2672.01
1012.466	2675.17
1012.759	2640.14
1013.052	2615.74
1013.344	2599.69
1013.637	2593.59
1013.93	2560.6
1014.222	2570.77
1014.514	2569.86
1014.807	2463.88
1015.099	2496.42
1015.391	2505.68
1015.683	2516.53
1015.976	2481.95
1016.268	2455.74
1016.56	2433.37
1016.851	2433.14
1017.143	2415.06
1017.435	2386.82
1017.727	2396.08
1018.018	2374.39
1018.31	2335.52
1018.602	2330.09
1018.893	2281.73
1019.185	2262.98
1019.476	2291.9
1019.767	2271.79
1020.058	2255.97
1020.35	2249.64
1020.641	2222.98
1020.932	2182.53
1021.223	2182.75
1021.514	2176.65
1021.804	2164.22
1022.095	2140.95
1022.386	2099.14
1022.677	2094.39
1022.967	2105.02
1023.258	2055.3
1023.548	2053.04
1023.839	2036.32
1024.129	1990.67
1024.419	2023.21
1024.709	1970.56
1025	1955.41
1025.29	1953.15
1025.58	1980.05
1025.87	1942.08
1026.16	1912.93
1026.449	1890.11
1026.739	1860.28
1027.029	1884.91
1027.319	1859.37
1027.608	1874.96
1027.898	1841.29
1028.187	1829.99
1028.477	1802.42
1028.766	1791.58
1029.055	1785.25
1029.344	1776.21
1029.634	1723.1
1029.923	1730.11
1030.212	1688.3
1030.501	1700.96
1030.79	1678.36
1031.078	1691.69
1031.367	1658.02
1031.656	1662.54
1031.945	1657.57
1032.233	1618.02
1032.522	1624.12
1032.81	1609.66
1033.099	1585.25
1033.387	1562.2
1033.675	1601.98
1033.963	1526.73
1034.251	1553.84
1034.54	1521.98
1034.828	1521.3
1035.116	1503.9
1035.403	1515.65
1035.691	1499.38
1035.979	1487.86
1036.267	1448.31
1036.554	1466.61
1036.842	1433.85
1037.129	1472.94
1037.417	1432.26
1037.704	1404.02
1037.992	1393.62
1038.279	1401.53
1038.566	1385.26
1038.853	1385.26
1039.14	1385.26
