Data from aluminium_macbook_case_FLMS001491_091.txt Node
Date: Tue Feb 07 10:44:26 GMT 2017
User: dcchb
Spectrometer: FLMS00149
Trigger mode: 0
Integration Time (sec): 2.000000E-2
Scans to average: 10
Electric dark correction enabled: true
Nonlinearity correction enabled: false
Boxcar width: 0
XAxis mode: Wavelengths
Number of Pixels in Spectrum: 2048
>>>>>Begin Spectral Data<<<<<
341.393	-21.58
341.776	-21.58
342.16	-21.58
342.543	-58.19
342.927	-80.11
343.31	-52.09
343.693	-56.61
344.077	-61.13
344.46	-83.73
344.843	-64.29
345.226	-49.83
345.61	-30.17
345.993	-27
346.376	-1.47
346.759	1.02
347.142	26.33
347.525	38.76
347.908	62.03
348.291	97.29
348.674	91.41
349.057	109.49
349.44	131.86
349.823	126.44
350.206	177.51
350.588	259.99
350.971	259.99
351.354	257.96
351.737	282.59
352.119	309.03
352.502	301.57
352.884	330.5
353.267	338.64
353.65	338.64
354.032	337.05
354.414	365.08
354.797	363.95
355.179	374.34
355.562	391.06
355.944	374.79
356.326	413.66
356.709	393.32
357.091	390.39
357.473	393.32
357.855	409.37
358.238	402.59
358.62	398.97
359.002	402.14
359.384	422.47
359.766	423.6
360.148	412.31
360.53	431.06
360.912	427.9
361.294	400.1
361.676	418.41
362.057	423.6
362.439	400.33
362.821	412.98
363.203	412.31
363.584	416.15
363.966	409.82
364.348	419.99
364.729	413.66
365.111	427.22
365.493	426.99
365.874	418.18
366.256	430.61
366.637	424.51
367.019	434.23
367.4	429.03
367.781	417.28
368.163	441.01
368.544	452.3
368.925	420.44
369.306	442.81
369.688	434.9
370.069	428.58
370.45	421.12
370.831	438.29
371.212	461.12
371.593	435.36
371.974	459.31
372.355	472.87
372.736	449.82
373.117	447.78
373.498	454.11
373.879	462.7
374.26	485.52
374.641	441.46
375.021	446.88
375.402	464.96
375.783	496.6
376.163	507.22
376.544	502.7
376.925	508.8
377.305	509.03
377.686	506.77
378.066	509.25
378.447	511.29
378.827	524.84
379.208	537.27
379.588	518.52
379.968	532.75
380.349	557.16
380.729	537.95
381.109	537.5
381.489	549.03
381.87	583.37
382.25	563.04
382.63	558.06
383.01	565.97
383.39	584.05
383.77	580.21
384.15	590.83
384.53	597.39
384.91	613.66
385.29	646.42
385.67	641.45
386.049	630.6
386.429	633.32
386.809	644.62
387.189	665.86
387.568	670.38
387.948	673.09
388.328	675.12
388.707	684.84
389.087	683.94
389.466	704.05
389.846	691.17
390.225	727.55
390.605	734.33
390.984	722.35
391.363	761
391.743	767.32
392.122	764.39
392.501	754.44
392.881	777.27
393.26	777.04
393.639	798.74
394.018	802.58
394.397	808
394.776	831.28
395.155	815.91
395.534	827.21
395.913	858.85
396.292	848.9
396.671	866.76
397.05	881.45
397.429	881.45
397.808	888.68
398.186	884.16
398.565	911.05
398.944	929.81
399.323	934.33
399.701	930.71
400.08	967.32
400.458	968.68
400.837	974.78
401.215	985.85
401.594	998.96
401.972	1004.38
402.351	993.53
402.729	1005.06
403.107	1038.73
403.486	1096.81
403.864	1051.61
404.242	1070.82
404.62	1099.75
404.999	1104.04
405.377	1102.91
405.755	1133.19
406.133	1110.37
406.511	1158.05
406.889	1187.65
407.267	1213.64
407.645	1197.82
408.023	1227.88
408.401	1238.05
408.779	1265.16
409.156	1316.91
409.534	1310.36
409.912	1318.04
410.29	1349
410.667	1342.45
411.045	1398.72
411.422	1433.75
411.8	1395.56
412.178	1430.13
412.555	1463.58
412.933	1491.37
413.31	1496.57
413.687	1555.78
414.065	1504.25
414.442	1542.67
414.819	1604.14
415.197	1612.5
415.574	1617.47
415.951	1638.04
416.328	1678.26
416.705	1675.1
417.082	1683.68
417.46	1730.24
417.837	1709.45
418.214	1729.79
418.591	1766.39
418.967	1785.83
419.344	1800.97
419.721	1822.21
420.098	1830.8
420.475	1857.01
420.852	1888.42
421.228	1900.63
421.605	1930.01
421.982	1960.29
422.358	1969.1
422.735	2027.18
423.111	2001.87
423.488	2024.24
423.864	2035.09
424.241	2100.4
424.617	2146.72
424.994	2125.03
425.37	2165.48
425.746	2198.02
426.123	2207.96
426.499	2230.56
426.875	2258.13
427.251	2297.91
427.627	2332.93
428.003	2363.21
428.379	2387.17
428.756	2436.66
429.132	2450.44
429.507	2472.14
429.883	2544.45
430.259	2536.54
430.635	2633.94
431.011	2608.86
431.387	2709.19
431.763	2723.66
432.138	2768.18
432.514	2788.29
432.89	2786.93
433.265	2907.16
433.641	2920.71
434.016	2944.89
434.392	3002.29
434.767	3062.18
435.143	3041.39
435.518	3106.47
435.894	3157.77
436.269	3166.81
436.644	3270.76
437.02	3275.28
437.395	3280.93
437.77	3337.43
438.145	3383.3
438.52	3401.83
438.895	3428.27
439.271	3471.89
439.646	3567.93
440.021	3588.04
440.395	3607.02
440.77	3552.56
441.145	3595.5
441.52	3761.6
441.895	3753.69
442.27	3767.02
442.645	3789.62
443.019	3807.92
443.394	3837.98
443.769	3917.98
444.143	3842.05
444.518	3940.12
444.892	3895.38
445.267	3991.87
445.641	4008.82
446.016	4040.46
446.39	4090.4
446.764	4162.04
447.139	4094.92
447.513	4197.06
447.887	4199.55
448.262	4242.49
448.636	4261.7
449.01	4306.44
449.384	4372.65
449.758	4401.35
450.132	4430.73
450.506	4469.37
450.88	4565.87
451.254	4551.86
451.628	4560.45
452.002	4653.55
452.376	4696.71
452.75	4762.47
453.123	4817.61
453.497	4878.4
453.871	4862.81
454.244	4997.04
454.618	5048.57
454.992	5107.78
455.365	5141.9
455.739	5248.34
456.112	5345.06
456.486	5371.5
456.859	5435.45
457.232	5557.26
457.606	5542.57
457.979	5630.25
458.352	5712.05
458.725	5835.44
459.099	5873.4
459.472	6015.32
459.845	6019.62
460.218	6150.91
460.591	6117.69
460.964	6259.38
461.337	6312.26
461.71	6422.09
462.083	6530.11
462.456	6526.95
462.829	6611.69
463.201	6720.84
463.574	6746.83
463.947	6813.49
464.32	6994.73
464.692	7105.91
465.065	7160.6
465.438	7215.06
465.81	7372.35
466.183	7409.64
466.555	7637.2
466.928	7625.68
467.3	7641.49
467.672	7805.11
468.045	7991.54
468.417	8059.56
468.789	8124.42
469.161	8234.7
469.534	8305.43
469.906	8527.12
470.278	8589.27
470.65	8668.81
471.022	8838.07
471.394	9043.04
471.766	9126.43
472.138	9239.42
472.51	9434.89
472.882	9624.49
473.253	9661.78
473.625	9809.35
473.997	10040.3
474.369	10121.88
474.74	10247.53
475.112	10419.5
475.484	10647.52
475.855	10831.24
476.227	10956.44
476.598	11296.09
476.97	11314.84
477.341	11642.74
477.713	11850.2
478.084	11923.87
478.455	12330.86
478.827	12349.17
479.198	12693.56
479.569	12616.28
479.94	13085.19
480.311	13234.12
480.682	13528.8
481.053	13810.37
481.424	13956.13
481.795	14153.64
482.166	14391.6
482.537	14549.79
482.908	14887.18
483.279	14992.26
483.65	15322.2
484.021	15655.07
484.391	15794.5
484.762	15949.07
485.133	16144.32
485.503	16341.15
485.874	16782.5
486.244	17050.29
486.615	17319.66
486.985	17504.74
487.356	17972.07
487.726	18020.66
488.097	18330.7
488.467	18496.8
488.837	18852.05
489.207	19122.1
489.578	19417.23
489.948	19579.94
490.318	19830.55
490.688	19806.37
491.058	20242.29
491.428	20383.76
491.798	20730.42
492.168	21112.33
492.538	21087.02
492.908	21395.26
493.278	21663.05
493.648	21617.4
494.017	22021.68
494.387	22134.9
494.757	22291.05
495.126	22674.77
495.496	22829.57
495.866	23096.45
496.235	23298.26
496.605	23522.66
496.974	23554.07
497.344	23951.12
497.713	24053.04
498.082	24294.39
498.452	24589.97
498.821	24757.88
499.19	24706.58
499.559	25009.62
499.928	25248.49
500.298	25401.93
500.667	25598.99
501.036	25587.24
501.405	26011.86
501.774	26020.45
502.143	26258.41
502.512	26350.15
502.88	26480.09
503.249	26577.49
503.618	26842.8
503.987	26836.47
504.356	27116.01
504.724	27327.08
505.093	27435.1
505.462	27605.04
505.83	27814.3
506.199	28001.64
506.567	28454.28
506.936	28359.37
507.304	28778.11
507.672	28973.14
508.041	29134.94
508.409	29280.93
508.777	29655.38
509.145	29894.69
509.514	29969.27
509.882	30158.64
510.25	30347.34
510.618	30642.25
510.986	30828.68
511.354	31126.98
511.722	31337.59
512.09	31576.91
512.458	31691.26
512.826	31834.08
513.193	32094.41
513.561	32137.57
513.929	32502.76
514.297	32700.5
514.664	32858.91
515.032	33128.28
515.4	33333.47
515.767	33427.48
516.135	33585.67
516.502	33561.94
516.869	34136.39
517.237	34260.91
517.604	34390.17
517.972	34777.73
518.339	35015.46
518.706	35244.38
519.073	35370.71
519.44	35592.85
519.808	35994.87
520.175	36119.62
520.542	36671.01
520.909	36853.16
521.276	36906.26
521.643	37484.55
522.009	37729.06
522.376	37820.14
522.743	38219.22
523.11	38633.67
523.477	38922.25
523.843	39121.34
524.21	39530.37
524.577	39785.96
524.943	39993.41
525.31	40032.05
525.676	40491.93
526.043	40750.23
526.409	40777.12
526.776	41246.03
527.142	41294.85
527.508	41608.28
527.874	41979.8
528.241	42206.91
528.607	42380.24
528.973	42615.49
529.339	42664.08
529.705	43131.18
530.071	43471.06
530.437	43559.19
530.803	43913.76
531.169	43986.08
531.535	44141.55
531.901	44466.74
532.267	44455.44
532.632	44911.02
532.998	45101.98
533.364	45487.73
533.73	45573.15
534.095	45889.75
534.461	46038.45
534.826	46215.62
535.192	46211.78
535.557	46755.95
535.923	46620.58
536.288	46864.87
536.653	46971.99
537.019	47111.87
537.384	47199.1
537.749	47399.32
538.114	47610.16
538.479	47482.93
538.845	47822.81
539.21	47740.55
539.575	47990.04
539.94	48091.28
540.305	48191.61
540.67	48288.33
541.034	48574.43
541.399	48719.28
541.764	48769
542.129	48821.88
542.494	48917.02
542.858	49163.79
543.223	49246.95
543.587	49473.39
543.952	49410.34
544.316	49661.63
544.681	49655.76
545.045	50003.32
545.41	50134.61
545.774	50087.61
546.138	50205.57
546.503	50331.44
546.867	50340.94
547.231	50683.75
547.595	50697.09
547.959	50947.93
548.324	51010.3
548.688	51059.11
549.052	51292.78
549.416	51422.72
549.779	51533.45
550.143	51561.47
550.507	51796.94
550.871	51827.22
551.235	51915.81
551.599	52098.63
551.962	52153.54
552.326	52252.52
552.689	52385.4
553.053	52303.37
553.417	52427.89
553.78	52798.5
554.143	52676.02
554.507	52888.44
554.87	52958.49
555.234	53266.06
555.597	53103.35
555.96	53232.16
556.323	53463.79
556.686	53360.07
557.05	53683.22
557.413	53799.15
557.776	53789.21
558.139	54060.39
558.502	54166.37
558.865	54202.98
559.228	54509.87
559.59	54504.22
559.953	54605.23
560.316	54937.88
560.679	54871.21
561.041	55137.42
561.404	55268.72
561.767	55445.43
562.129	55330.41
562.492	55628.48
562.854	55635.26
563.217	55682.04
563.579	55800.45
563.941	56005.65
564.304	56118.19
564.666	56294.68
565.028	56329.48
565.39	56428.01
565.753	56558.4
566.115	56639.75
566.477	56701.67
566.839	56759.98
567.201	56910.93
567.563	56990.93
567.925	57165.16
568.287	57168.33
568.648	57248.78
569.01	57418.49
569.372	57585.49
569.734	57463.23
570.095	57614.42
570.457	57753.62
570.819	57800.63
571.18	57788.88
571.542	57953.62
571.903	58028.64
572.265	58128.3
572.626	58147.06
572.987	58128.08
573.349	58285.81
573.71	58378.47
574.071	58395.64
574.432	58439.48
574.794	58738
575.155	58691.9
575.516	58601.06
575.877	58702.52
576.238	58813.71
576.599	58905.91
576.96	58886.02
577.32	58955.85
577.681	59054.15
578.042	59066.36
578.403	59058
578.763	59093.47
579.124	59142.51
579.485	59237.2
579.845	59312.68
580.206	59293.92
580.566	59267.26
580.927	59284.88
581.287	59406.69
581.648	59297.99
582.008	59384.77
582.368	59379.79
582.728	59458.66
583.089	59395.39
583.449	59382.28
583.809	59415.73
584.169	59463.18
584.529	59469.06
584.889	59634.7
585.249	59483.52
585.609	59349.06
585.969	59582.73
586.329	59446.23
586.688	59559.68
587.048	59488.49
587.408	59462.73
587.768	59468.83
588.127	59486.01
588.487	59431.54
588.846	59619.56
589.206	59426.12
589.565	59461.6
589.925	59576.85
590.284	59534.59
590.643	59566.68
591.003	59578.89
591.362	59659.79
591.721	59594.93
592.08	59570.07
592.44	59660.01
592.799	59644.87
593.158	59623.86
593.517	59643.52
593.876	59705.21
594.235	59576.63
594.593	59621.6
594.952	59684.19
595.311	59586.57
595.67	59691.2
596.029	59717.64
596.387	59816.85
596.746	59779.56
597.104	59716.73
597.463	59713.12
597.822	59886.67
598.18	59721.48
598.538	59710.86
598.897	59823.4
599.255	59664.53
599.613	60010.51
599.972	59866.79
600.33	59909.27
600.688	59821.59
601.046	59908.14
601.404	59979.33
601.762	59894.81
602.12	60068.36
602.478	60045.31
602.836	60052.09
603.194	59973.68
603.552	60055.03
603.91	59975.94
604.268	60090.51
604.625	59988.82
604.983	60146.78
605.341	60057.06
605.698	60127.35
606.056	60165.08
606.413	60137.29
606.771	60215.48
607.128	60191.98
607.485	60135.48
607.843	60136.38
608.2	60264.52
608.557	60332.54
608.914	60232.88
609.272	60408.02
609.629	60404.4
609.986	60456.15
610.343	60373.67
610.7	60504.28
611.057	60510.39
611.414	60443.5
611.771	60547.9
612.127	60617.5
612.484	60602.14
612.841	60688.69
613.198	60521.91
613.554	60634.68
613.911	60723.26
614.267	60706.54
614.624	60618.18
614.98	60722.36
615.337	60758.29
615.693	60747.89
616.05	60700.21
616.406	60906.99
616.762	60781.11
617.118	60824.05
617.475	60841.9
617.831	60897.04
618.187	60885.29
618.543	60932.3
618.899	60994.67
619.255	60983.59
619.611	61039.19
619.967	61105.4
620.323	61091.39
620.678	61024.27
621.034	60960.09
621.39	60988.34
621.746	60966.42
622.101	61161.22
622.457	60971.84
622.812	61013.2
623.168	61062.69
623.523	61017.27
623.879	61115.79
624.234	60944.5
624.589	60957.38
624.945	61030.37
625.3	61056.59
625.655	61006.19
626.01	61045.51
626.365	60972.07
626.72	60938.17
627.075	60943.82
627.43	60897.72
627.785	60868.57
628.14	60985.4
628.495	60986.98
628.85	60853.43
629.205	60864.05
629.559	60974.78
629.914	60803.03
630.269	60826.76
630.623	60812.3
630.978	60707.67
631.332	60815.01
631.687	60881.22
632.041	60730.49
632.396	60748.57
632.75	60641.23
633.104	60686.88
633.459	60566.2
633.813	60592.19
634.167	60593.32
634.521	60560.55
634.875	60626.77
635.229	60545.19
635.583	60491.63
635.937	60475.81
636.291	60455.7
636.645	60436.26
636.999	60321.01
637.352	60441.01
637.706	60285.31
638.06	60380.67
638.413	60287.57
638.767	60255.25
639.121	60302.26
639.474	60099.55
639.828	60112.66
640.181	60069.95
640.534	60075.82
640.888	60003.28
641.241	59861.36
641.594	59930.97
641.947	59936.16
642.301	59842.38
642.654	59805.77
643.007	59879.44
643.36	59829.73
643.713	59762.61
644.066	59837.64
644.419	59675.61
644.771	59584.76
645.124	59250.31
645.477	59264.09
645.83	59116.3
646.182	58947.94
646.535	58847.15
646.888	58902.75
647.24	58800.83
647.593	58908.62
647.945	58844.22
648.298	58674.95
648.65	58571.68
649.002	58617.55
649.355	58623.88
649.707	58623.88
650.059	58763.77
650.411	59024.55
650.763	59018.45
651.115	59263.19
651.467	59163.08
651.819	59150.42
652.171	59078.79
652.523	59065.9
652.875	59055.96
653.227	58933.03
653.578	59079.92
653.93	59026.36
654.282	58903.2
654.633	58828.17
654.985	58869.3
655.337	58895.74
655.688	58892.35
656.039	59011.22
656.391	58696.2
656.742	58729.64
657.094	58746.14
657.445	58811.45
657.796	58830.43
658.147	58690.32
658.498	58704.56
658.849	58797.66
659.2	58660.04
659.551	58651.68
659.902	58701.39
660.253	58662.98
660.604	58605.13
660.955	58453.94
661.306	58513.83
661.656	58511.79
662.007	58486.26
662.358	58502.08
662.708	58443.55
663.059	58410.1
663.409	58232.25
663.76	58404
664.11	58372.59
664.461	58444.68
664.811	58345.02
665.161	58295.08
665.511	58264.34
665.862	58272.71
666.212	58363.1
666.562	58259.6
666.912	58259.37
667.262	58161.75
667.612	58097.12
667.962	58251.91
668.312	58173.95
668.662	58277.22
669.011	58166.72
669.361	58119.49
669.711	58095.99
670.06	58049.21
670.41	58014.86
670.76	57927.86
671.109	58000.4
671.459	57933.28
671.808	57952.49
672.157	58037.91
672.507	57841.08
672.856	57835.2
673.205	57898.25
673.554	57975.09
673.904	57800.4
674.253	57934.18
674.602	57941.87
674.951	57572.61
675.3	57485.83
675.649	57877.69
675.998	57772.61
676.346	57740.74
676.695	57855.09
677.044	57604.25
677.393	57779.38
677.741	57793.4
678.09	57675.66
678.438	57646.51
678.787	57631.59
679.135	57675.21
679.484	57459.17
679.832	57500.97
680.181	57398.38
680.529	57431.6
680.877	57389.34
681.225	57292.39
681.573	57449.9
681.922	57203.35
682.27	57180.76
682.618	57134.43
682.966	57060.31
683.314	57063.47
683.661	57000.87
684.009	56904.38
684.357	56802.69
684.705	56806.53
685.053	56748.68
685.4	56723.82
685.748	56555.46
686.095	56565.41
686.443	56461
686.79	56444.73
687.138	56434.56
687.485	56409.03
687.832	56283.6
688.18	56366.09
688.527	56174.91
688.874	56156.6
689.221	56007
689.568	55967.23
689.915	55976.95
690.262	55933.11
690.609	55833.9
690.956	55742.15
691.303	55710.96
691.65	55586
691.997	55580.57
692.344	55425.1
692.69	55437.07
693.037	55441.59
693.383	55160.02
693.73	55309.62
694.077	55028.95
694.423	55101.49
694.769	55011.32
695.116	54965.9
695.462	54909.18
695.808	54851.33
696.155	54908.5
696.501	54622.41
696.847	54664.66
697.193	54393.49
697.539	54558
697.885	54337.44
698.231	54273.04
698.577	54247.05
698.923	54186.94
699.269	53995.3
699.614	53866.04
699.96	53819.04
700.306	53890
700.651	53762.54
700.997	53696.55
701.342	53607.29
701.688	53529.55
702.033	53331.82
702.379	53326.62
702.724	53261.31
703.069	53292.05
703.415	52890.47
703.76	52882.79
704.105	52962.11
704.45	52785.62
704.795	52638.05
705.14	52452.75
705.485	52422.24
705.83	52258.4
706.175	52340.88
706.52	52268.12
706.865	52201
707.209	51997.84
707.554	51795.36
707.899	51934.11
708.243	51748.81
708.588	51623.16
708.932	51482.38
709.277	51494.13
709.621	51431.98
709.966	51250.74
710.31	51333.68
710.654	50937.98
710.998	51011.65
711.342	50944.54
711.687	50909.51
712.031	50727.82
712.375	50703.64
712.719	50638.33
713.063	50582.29
713.407	50695.73
713.75	50572.12
714.094	50514.94
714.438	50494.15
714.782	50373.93
715.125	50153.82
715.469	50238.11
715.812	50126.7
716.156	49855.53
716.499	49987.27
716.843	49904.56
717.186	49681.97
717.53	49789.31
717.873	49739.37
718.216	49689.65
718.559	49567.17
718.902	49275.65
719.246	49357.01
719.589	49241.3
719.932	49164.92
720.275	49195.2
720.617	49176.67
720.96	49101.42
721.303	49027.3
721.646	49151.81
721.989	48702.11
722.331	48934.19
722.674	48686.29
723.016	48703.69
723.359	48538.5
723.701	48597.25
724.044	48398.84
724.386	48321.33
724.729	48336.02
725.071	48335.57
725.413	48239.07
725.755	48103.71
726.097	47910.94
726.439	47759.31
726.782	47648.13
727.124	47817.61
727.465	47592.99
727.807	47676.15
728.149	47363.84
728.491	47362.26
728.833	47357.74
729.175	47101.25
729.516	47096.5
729.858	47164.07
730.199	46912.33
730.541	46719.11
730.882	46781.93
731.224	46862.61
731.565	46470.53
731.906	46513.01
732.248	46526.35
732.589	46334.26
732.93	46242.96
733.271	46263.3
733.612	46207.03
733.953	46329.06
734.294	46016.53
734.635	46001.39
734.976	46104.21
735.317	45669.87
735.658	45557.79
735.999	45639.82
736.339	45583.32
736.68	45600.72
737.021	45443.44
737.361	45375.87
737.702	45557.33
738.042	45389.2
738.383	45306.27
738.723	45388.75
739.063	45120.28
739.404	45141.07
739.744	45087.74
740.084	44889.1
740.424	45013.39
740.764	44845.49
741.104	45092.49
741.444	44716.9
741.784	44719.39
742.124	44806.62
742.464	44626.06
742.804	44490.24
743.143	44504.48
743.483	44414.54
743.823	44234.2
744.162	44271.94
744.502	44467.87
744.841	44158.5
745.181	44193.3
745.52	43993.08
745.86	44138.61
746.199	44025.17
746.538	43820.88
746.877	43918.28
747.216	43826.76
747.556	43592.87
747.895	43817.49
748.234	43409.59
748.573	43500.44
748.911	43377.05
749.25	43401.01
749.589	43166.66
749.928	43109.94
750.267	43178.19
750.605	42866.56
750.944	42831.08
751.283	42724.64
751.621	42728.26
751.96	42469.05
752.298	42467.47
752.636	42475.38
752.975	42114.94
753.313	41895.06
753.651	42050.08
753.989	41810.54
754.327	41634.5
754.666	41647.83
755.004	41523.31
755.342	41501.39
755.679	41374.84
756.017	41101.63
756.355	41254.85
756.693	41001.97
757.031	40981.86
757.368	40778.7
757.706	40733.96
758.044	40524.25
758.381	40742.09
758.719	40320.63
759.056	40316.79
759.394	40208.32
759.731	39832.74
760.068	39832.96
760.405	39680.2
760.743	39525.18
761.08	39576.02
761.417	39373.77
761.754	39403.14
762.091	39221.23
762.428	39152.3
762.765	38799.77
763.102	38888.13
763.438	38734.01
763.775	38569.27
764.112	38625.09
764.449	38639.55
764.785	38290.41
765.122	38231.88
765.458	38162.5
765.795	37945.33
766.131	37837.08
766.467	37779.46
766.804	37662.85
767.14	37476.87
767.476	37460.14
767.812	37240.04
768.148	37360.26
768.485	37078.69
768.821	36877.34
769.157	36814.96
769.492	36863.78
769.828	36740.84
770.164	36521.19
770.5	36457.01
770.836	36340.63
771.171	36218.37
771.507	36052.95
771.842	35788.55
772.178	35854.99
772.513	35668.33
772.849	35708.33
773.184	35405.06
773.519	35389.24
773.855	35316.02
774.19	35162.58
774.525	35004.39
774.86	34998.74
775.195	34848.69
775.53	34632.42
775.865	34505.42
776.2	34338.42
776.535	34017.98
776.87	34027.01
777.205	33859.56
777.539	33719.9
777.874	33769.62
778.209	33592.68
778.543	33314.04
778.878	33251.67
779.212	32981.17
779.547	32876.08
779.881	32903.65
780.215	32609.2
780.55	32674.73
780.884	32475.87
781.218	32343.67
781.552	32327.17
781.886	32017.12
782.22	31917.92
782.554	31718.83
782.888	31515.67
783.222	31369.01
783.556	31364.71
783.889	31237.03
784.223	30896.25
784.557	30774.22
784.89	30856.02
785.224	30629.59
785.557	30488.12
785.891	30378.07
786.224	30323.38
786.558	30281.8
786.891	30051.75
787.224	29886.33
787.557	29754.81
787.891	29805.21
788.224	29793.45
788.557	29643.85
788.89	29533.35
789.223	29472.78
789.556	29236.41
789.888	29110.31
790.221	29173.36
790.554	29044.55
790.887	28862.4
791.219	28842.07
791.552	28780.37
791.884	28643.2
792.217	28555.75
792.549	28522.3
792.882	28247.05
793.214	28113.5
793.546	28288.41
793.879	28050.22
794.211	27900.4
794.543	28066.27
794.875	27843.9
795.207	28043.44
795.539	27798.03
795.871	27807.52
796.203	27495.66
796.535	27384.93
796.867	27362.33
797.198	27287.98
797.53	27374.08
797.862	27166.18
798.193	27116.91
798.525	26849.58
798.856	27040.53
799.188	26644.38
799.519	26778.84
799.85	26482.13
800.182	26533.88
800.513	26472.41
800.844	26307.44
801.175	26357.61
801.506	26254.11
801.837	26177.73
802.168	26104.51
802.499	26079.65
802.83	25719.89
803.161	25778.64
803.491	25704.3
803.822	25693
804.153	25616.61
804.483	25379.11
804.814	25237.87
805.145	25234.25
805.475	25171.2
805.805	24998.55
806.136	25046.69
806.466	25016.63
806.796	24876.52
807.126	24666.81
807.457	24676.3
807.787	24633.59
808.117	24430.43
808.447	24488.96
808.777	24433.37
809.107	24329.42
809.436	24235.41
809.766	24103.43
810.096	24075.86
810.426	23933.04
810.755	23940.95
811.085	23876.77
811.414	23735.31
811.744	23561.75
812.073	23547.52
812.403	23552.94
812.732	23508.65
813.061	23352.04
813.39	23123.57
813.719	23024.14
814.049	23183.68
814.378	23030.69
814.707	22973.97
815.036	22934.43
815.365	22899.85
815.693	22726.07
816.022	22627.31
816.351	22719.74
816.68	22577.15
817.008	22619.18
817.337	22454.66
817.665	22353.88
817.994	22459.86
818.322	22377.15
818.651	22354.1
818.979	22200.21
819.307	22283.14
819.636	22242.01
819.964	22039.08
820.292	22180.55
820.62	22137.38
820.948	22069.59
821.276	22236.59
821.604	22127.67
821.932	22139.64
822.259	22207.21
822.587	22095.13
822.915	22107.33
823.243	22199.53
823.57	22109.59
823.898	22145.75
824.225	22192.98
824.553	22063.49
824.88	22159.08
825.207	22267.78
825.535	22170.6
825.862	22148.91
826.189	22100.55
826.516	22226.42
826.843	22233.65
827.17	22233.88
827.497	22212.41
827.824	22265.06
828.151	22196.82
828.478	22176.25
828.805	22269.13
829.131	22184.39
829.458	22096.26
829.785	22010.83
830.111	22060.32
830.438	22208.79
830.764	22100.32
831.09	22222.81
831.417	22130.83
831.743	22104.84
832.069	22141.23
832.395	22083.83
832.722	22138.74
833.048	22031.4
833.374	22056.03
833.7	21864.17
834.026	21846.09
834.351	21955.69
834.677	21954.79
835.003	21887.67
835.329	21891.51
835.654	21772.65
835.98	21648.81
836.306	21711.86
836.631	21595.03
836.956	21705.08
837.282	21597.96
837.607	21487.91
837.932	21527.23
838.258	21484.52
838.583	21421.7
838.908	21298.99
839.233	21287.01
839.558	21238.42
839.883	21038.66
840.208	21066.23
840.533	21006.34
840.858	21037.07
841.182	21036.85
841.507	20983.52
841.832	20870.3
842.156	20788.27
842.481	20844.31
842.805	20765.22
843.13	20778.1
843.454	20694.03
843.778	20595.28
844.103	20474.38
844.427	20480.03
844.751	20475.96
845.075	20466.24
845.399	20366.58
845.723	20210.88
846.047	20321.84
846.371	20174.5
846.695	20132.24
847.019	19957.55
847.343	19864.68
847.666	19687.5
847.99	19744.9
848.313	19711.69
848.637	19644.12
848.96	19553.95
849.284	19562.08
849.607	19440.96
849.931	19353.5
850.254	19217.01
850.577	19146.05
850.9	19032.38
851.223	18996.22
851.546	18929.11
851.869	18771.6
852.192	18946.06
852.515	18746.74
852.838	18652.96
853.161	18669.23
853.483	18605.73
853.806	18636.46
854.129	18547.87
854.451	18495.22
854.774	18408.22
855.096	18344.26
855.419	18301.78
855.741	18229.69
856.063	18210.93
856.385	18148.34
856.708	18115.12
857.03	18054.55
857.352	18014.33
857.674	17985.4
857.996	18023.82
858.318	17890.49
858.64	17878.51
858.961	17903.82
859.283	17739.76
859.605	17741.79
859.926	17753.54
860.248	17725.07
860.57	17639.42
860.891	17709.7
861.212	17586.32
861.534	17513.1
861.855	17516.94
862.176	17609.37
862.498	17497.96
862.819	17469.48
863.14	17352.88
863.461	17384.74
863.782	17236.5
864.103	17342.93
864.424	17264.52
864.745	17238.98
865.065	17151.3
865.386	17066.78
865.707	17119.89
866.027	17150.17
866.348	17015.94
866.668	17023.62
866.989	16911.08
867.309	16839.67
867.63	16929.61
867.95	16958.76
868.27	16886.45
868.59	16848.26
868.91	16831.08
869.23	16808.71
869.55	16687.36
869.87	16773.91
870.19	16762.38
870.51	16673.35
870.83	16687.36
871.15	16462.05
871.469	16485.1
871.789	16518.77
872.109	16568.72
872.428	16377.76
872.748	16416.63
873.067	16433.35
873.386	16530.53
873.706	16387.03
874.025	16270.87
874.344	16260.48
874.663	16339.12
874.982	16225.9
875.301	16219.57
875.62	16190.87
875.939	16157.2
876.258	16134.83
876.577	16010.54
876.896	16097.54
877.214	15989.98
877.533	16046.24
877.852	16021.61
878.17	16008.96
878.489	15992.69
878.807	15996.53
879.125	15815.29
879.444	15827.27
879.762	15721.73
880.08	15796.53
880.398	15708.17
880.716	15675.86
881.034	15643.32
881.352	15666.37
881.67	15663.88
881.988	15688.51
882.306	15655.52
882.624	15597.89
882.941	15469.99
883.259	15402.42
883.577	15404
883.894	15423.89
884.212	15475.64
884.529	15343.44
884.846	15384.57
885.164	15311.8
885.481	15308.86
885.798	15314.29
886.115	15264.12
886.432	15303.21
886.75	15209.2
887.067	15159.26
887.383	15169.66
887.7	15248.3
888.017	15049.66
888.334	15221.63
888.651	15051.24
888.967	15040.62
889.284	14985.48
889.6	14979.15
889.917	14841.53
890.233	14959.72
890.55	14914.98
890.866	14885.6
891.182	14861.64
891.498	14743.68
891.815	14781.65
892.131	14738.48
892.447	14593.85
892.763	14631.82
893.079	14548.66
893.395	14507.53
893.71	14515.66
894.026	14475.66
894.342	14458.26
894.657	14399.96
894.973	14335.33
895.289	14305.27
895.604	14328.32
895.92	14237.93
896.235	14217.82
896.55	14173.07
896.865	14149.57
897.181	14070.25
897.496	14132.17
897.811	13993.64
898.126	13959.97
898.441	13852.4
898.756	13816.7
899.071	13731.5
899.386	13806.53
899.7	13623.03
900.015	13687.89
900.33	13531.06
900.644	13513.43
900.959	13551.17
901.273	13478.63
901.588	13425.75
901.902	13368.12
902.216	13339.2
902.531	13310.72
902.845	13219.88
903.159	13164.74
903.473	13124.97
903.787	13084.74
904.101	13023.27
904.415	12971.3
904.729	12878.87
905.042	12888.81
905.356	12851.3
905.67	12839.78
905.984	12824.86
906.297	12731.3
906.611	12654.02
906.924	12611.53
907.237	12563.62
907.551	12469.16
907.864	12435.27
908.177	12408.37
908.491	12411.09
908.804	12313.01
909.117	12303.74
909.43	12169.96
909.743	12107.82
910.056	12096.52
910.368	12079.34
910.681	12015.16
910.994	11965.45
911.307	11939.23
911.619	11849.07
911.932	11781.72
912.244	11729.3
912.557	11652.91
912.869	11601.84
913.181	11600.03
913.494	11538.34
913.806	11444.78
914.118	11424.9
914.43	11366.14
914.742	11260.83
915.054	11350.55
915.366	11236.2
915.678	11207.28
915.99	11217.22
916.302	10989.88
916.613	11028.52
916.925	11040.95
917.236	10973.16
917.548	10931.8
917.859	10958.92
918.171	10913.27
918.482	10819.94
918.794	10740.4
919.105	10742.66
919.416	10625.82
919.727	10647.06
920.038	10676.44
920.349	10507.63
920.66	10530.68
920.971	10528.42
921.282	10432.83
921.593	10431.03
921.903	10344.47
922.214	10293.85
922.525	10301.99
922.835	10196
923.146	10161.65
923.456	10227.87
923.767	10132.73
924.077	10114.2
924.387	10059.51
924.697	10053.86
925.008	9938.61
925.318	9953.98
925.628	9973.41
925.938	9949
926.248	9843.7
926.558	9770.48
926.867	9751.04
927.177	9697.26
927.487	9666.07
927.796	9588.79
928.106	9565.29
928.416	9564.38
928.725	9529.35
929.034	9514.67
929.344	9515.57
929.653	9475.34
929.962	9370.04
930.271	9359.41
930.581	9268.57
930.89	9286.65
931.199	9258.4
931.508	9245.29
931.817	9198.74
932.125	9153.09
932.434	9103.15
932.743	9001.91
933.051	9045.3
933.36	8992.42
933.669	8936.38
933.977	8873.1
934.286	8907.9
934.594	8901.57
934.902	8750.62
935.21	8737.96
935.519	8757.17
935.827	8691.41
936.135	8667
936.443	8636.5
936.751	8561.24
937.059	8606.21
937.367	8492.32
937.674	8468.82
937.982	8509.95
938.29	8403.73
938.597	8384.75
938.905	8310.85
939.213	8320.12
939.52	8267.69
939.827	8239.22
940.135	8175.72
940.442	8163.06
940.749	8098.88
941.056	8131.42
941.363	8007.13
941.67	8015.27
941.977	7924.42
942.284	7904.76
942.591	7886.01
942.898	7830.42
943.205	7848.95
943.511	7777.08
943.818	7715.39
944.125	7678.56
944.431	7659.35
944.738	7667.26
945.044	7718.33
945.35	7546.13
945.657	7558.56
945.963	7475.17
946.269	7494.61
946.575	7415.29
946.881	7427.49
947.187	7394.04
947.493	7351.56
947.799	7296.19
948.105	7260.04
948.41	7247.38
948.716	7206.7
949.022	7225.01
949.327	7137.1
949.633	7069.76
949.938	7089.87
950.244	7076.54
950.549	6985.47
950.854	6996.54
951.16	6906.82
951.465	6888.29
951.77	6812.59
952.075	6868.41
952.38	6778.01
952.685	6822.08
952.99	6740.27
953.294	6717.22
953.599	6682.2
953.904	6600.84
954.209	6572.14
954.513	6584.12
954.818	6599.94
955.122	6508.19
955.426	6508.42
955.731	6465.25
956.035	6423.45
956.339	6393.62
956.643	6421.19
956.948	6375.54
957.252	6335.54
957.556	6315.65
957.86	6236.11
958.163	6326.27
958.467	6206.96
958.771	6181.65
959.075	6182.55
959.378	6150.46
959.682	6151.14
959.985	6062.55
960.289	6115.88
960.592	5998.83
960.896	6016.68
961.199	5960.18
961.502	5936.68
961.805	5915.66
962.108	5919.73
962.411	5952.5
962.714	5873.63
963.017	5855.33
963.32	5846.06
963.623	5822.78
963.926	5800.86
964.228	5735.78
964.531	5703.24
964.833	5780.98
965.136	5660.3
965.438	5642.68
965.741	5653.3
966.043	5583.24
966.345	5624.6
966.648	5577.14
966.95	5589.8
967.252	5493.75
967.554	5527.43
967.856	5508.44
968.158	5445.17
968.46	5456.47
968.761	5433.87
969.063	5417.37
969.365	5396.58
969.666	5316.36
969.968	5334.44
970.269	5296.92
970.571	5332.18
970.872	5274.55
971.174	5145.51
971.475	5239.3
971.776	5221.67
972.077	5199.52
972.378	5145.97
972.679	5171.28
972.98	5150.71
973.281	5103.48
973.582	5103.48
973.883	5088.11
974.183	5032.3
974.484	5013.77
974.785	5029.36
975.085	5002.02
975.386	5012.41
975.686	4953.43
975.986	4923.15
976.287	4891.28
976.587	4880.21
976.887	4830.04
977.187	4852.41
977.487	4818.29
977.787	4756.6
978.087	4705.3
978.387	4727.67
978.687	4718.86
978.987	4661.91
979.286	4640.22
979.586	4657.62
979.885	4604.74
980.185	4601.12
980.484	4618.52
980.784	4560.22
981.083	4506.44
981.382	4532.42
981.682	4544.17
981.981	4480.45
982.28	4446.1
982.579	4438.64
982.878	4481.35
983.177	4412.65
983.475	4395.03
983.774	4348.93
984.073	4305.99
984.372	4323.84
984.67	4290.85
984.969	4260.11
985.267	4272.77
985.566	4213.79
985.864	4227.57
986.162	4197.29
986.461	4178.76
986.759	4155.26
987.057	4130.4
987.355	4129.5
987.653	4077.97
987.951	4072.1
988.249	4042.72
988.547	4054.02
988.844	4012.21
989.142	3976.28
989.44	3943.96
989.737	3971.08
990.035	3924.3
990.332	3959.33
990.63	3897.86
990.927	3889.95
991.224	3855.15
991.521	3864.19
991.819	3844.53
992.116	3773.8
992.413	3793.01
992.71	3777.19
993.006	3760.69
993.303	3713.91
993.6	3752.33
993.897	3689.96
994.193	3680.92
994.49	3642.05
994.787	3628.94
995.083	3606.8
995.379	3577.19
995.676	3551.21
995.972	3531.09
996.268	3471.21
996.565	3478.44
996.861	3461.72
997.157	3470.3
997.453	3439.57
997.749	3404.09
998.044	3385.56
998.34	3383.3
998.636	3375.39
998.932	3366.58
999.227	3332.91
999.523	3345.11
999.818	3318.44
1000.114	3305.79
1000.409	3250.87
1000.704	3250.2
1001	3261.95
1001.295	3212.23
1001.59	3212.23
1001.885	3185.79
1002.18	3146.24
1002.475	3156.41
1002.77	3094.95
1003.065	3093.82
1003.359	3112.57
1003.654	3057.66
1003.949	3046.36
1004.243	3021.28
1004.538	2996.87
1004.832	2971.11
1005.127	3006.81
1005.421	2946.93
1005.715	2933.6
1006.009	2955.06
1006.304	2911
1006.598	2896.76
1006.892	2898.34
1007.186	2795.07
1007.48	2844.33
1007.773	2843.65
1008.067	2819.47
1008.361	2794.39
1008.655	2767.95
1008.948	2773.15
1009.242	2780.15
1009.535	2773.37
1009.829	2721.85
1010.122	2700.38
1010.415	2696.99
1010.708	2665.81
1011.001	2678.69
1011.295	2678.23
1011.588	2636.43
1011.881	2649.31
1012.173	2588.52
1012.466	2585.13
1012.759	2588.75
1013.052	2562.98
1013.344	2561.63
1013.637	2518.24
1013.93	2523.44
1014.222	2508.07
1014.514	2494.06
1014.807	2450.9
1015.099	2468.07
1015.391	2440.5
1015.683	2431.91
1015.976	2398.24
1016.268	2404.8
1016.56	2390.33
1016.851	2400.95
1017.143	2359.37
1017.435	2366.6
1017.727	2293.16
1018.018	2299.26
1018.31	2285.7
1018.602	2297.68
1018.893	2262.43
1019.185	2241.41
1019.476	2235.76
1019.767	2223.33
1020.058	2170.9
1020.35	2204.12
1020.641	2167.97
1020.932	2165.71
1021.223	2151.24
1021.514	2132.71
1021.804	2059.04
1022.095	2060.17
1022.386	2051.36
1022.677	2052.04
1022.967	2044.8
1023.258	2027.63
1023.548	2007.97
1023.839	2003
1024.129	1997.57
1024.419	1977.91
1024.709	1977.46
1025	1948.99
1025.29	1919.84
1025.58	1896.11
1025.87	1883.91
1026.16	1901.31
1026.449	1903.34
1026.739	1857.24
1027.029	1861.08
1027.319	1830.35
1027.608	1817.92
1027.898	1842.32
1028.187	1786.28
1028.477	1787.41
1028.766	1798.03
1029.055	1768.88
1029.344	1752.38
1029.634	1740.41
1029.923	1730.01
1030.212	1702.89
1030.501	1704.7
1030.79	1691.59
1031.078	1662.22
1031.367	1630.58
1031.656	1671.26
1031.945	1651.59
1032.233	1620.86
1032.522	1592.39
1032.81	1614.53
1033.099	1590.58
1033.387	1568.43
1033.675	1585.38
1033.963	1576.57
1034.251	1552.84
1034.54	1518.94
1034.828	1509.9
1035.116	1511.03
1035.403	1494.99
1035.691	1483.69
1035.979	1511.71
1036.267	1469.45
1036.554	1429
1036.842	1415.22
1037.129	1429.23
1037.417	1398.04
1037.704	1413.86
1037.992	1403.92
1038.279	1384.71
1038.566	1357.59
1038.853	1357.59
1039.14	1357.59
