Data from aluminium_macbook_case_FLMS001491_024.txt Node
Date: Tue Feb 07 10:43:26 GMT 2017
User: dcchb
Spectrometer: FLMS00149
Trigger mode: 0
Integration Time (sec): 2.000000E-2
Scans to average: 10
Electric dark correction enabled: true
Nonlinearity correction enabled: false
Boxcar width: 0
XAxis mode: Wavelengths
Number of Pixels in Spectrum: 2048
>>>>>Begin Spectral Data<<<<<
341.393	3.7
341.776	3.7
342.16	3.7
342.543	-79.69
342.927	-63.87
343.31	-56.64
343.693	-43.76
344.077	-76.52
344.46	-76.07
344.843	-50.99
345.226	-42.17
345.61	-34.94
345.993	-22.29
346.376	0.54
346.759	-6.47
347.142	24.72
347.525	43.47
347.908	62.46
348.291	84.15
348.674	96.81
349.057	97.71
349.44	101.55
349.823	153.08
350.206	174.32
350.588	217.25
350.971	244.37
351.354	267.2
351.737	283.24
352.119	291.38
352.502	315.56
352.884	323.69
353.267	350.81
353.65	339.96
354.032	351.26
354.414	373.18
354.797	362.34
355.179	376.12
355.562	383.8
355.944	368.44
356.326	396.23
356.709	402.11
357.091	387.87
357.473	415.44
357.855	420.64
358.238	394.88
358.62	384.48
359.002	398.72
359.384	396.46
359.766	402.11
360.148	410.47
360.53	396.46
360.912	413.18
361.294	407.98
361.676	431.49
362.057	413.63
362.439	413.63
362.821	400.3
363.203	411.15
363.584	413.18
363.966	412.96
364.348	404.82
364.729	415.67
365.111	414.76
365.493	405.05
365.874	415.67
366.256	417.25
366.637	407.98
367.019	397.59
367.4	428.32
367.781	421.99
368.163	440.75
368.544	411.83
368.925	411.83
369.306	437.36
369.688	452.73
370.069	446.85
370.45	443.01
370.831	410.7
371.212	437.14
371.593	436.01
371.974	449.79
372.355	461.09
372.736	481.43
373.117	483.91
373.498	460.64
373.879	456.8
374.26	446.17
374.641	445.5
375.021	455.89
375.402	475.55
375.783	485.27
376.163	526.17
376.544	525.95
376.925	506.06
377.305	476.68
377.686	497.92
378.066	509.68
378.447	516.46
378.827	514.2
379.208	530.24
379.588	512.84
379.968	510.13
380.349	549
380.729	534.31
381.109	546.29
381.489	544.48
381.87	549.67
382.25	543.57
382.63	552.16
383.01	577.47
383.39	574.08
383.77	584.02
384.15	576.79
384.53	585.15
384.91	625.38
385.29	593.97
385.67	636.68
386.049	625.15
386.429	623.35
386.809	635.55
387.189	654.08
387.568	657.47
387.948	659.5
388.328	681.2
388.707	684.59
389.087	679.61
389.466	689.78
389.846	686.17
390.225	700.63
390.605	701.99
390.984	691.59
391.363	713.96
391.743	734.3
392.122	746.51
392.501	778.6
392.881	774.53
393.26	782.21
393.639	789.22
394.018	800.52
394.397	789.44
394.776	854.75
395.155	820.63
395.534	825.37
395.913	828.31
396.292	848.88
396.671	866.5
397.05	870.12
397.429	878.93
397.808	894.52
398.186	899.72
398.565	896.56
398.944	880.97
399.323	913.51
399.701	920.96
400.08	935.88
400.458	951.25
400.837	967.74
401.215	960.96
401.594	983.56
401.972	991.92
402.351	1013.62
402.729	981.75
403.107	1043.22
403.486	1050.68
403.864	1058.36
404.242	1075.54
404.62	1086.84
404.999	1059.04
405.377	1077.8
405.755	1127.51
406.133	1139.04
406.511	1146.04
406.889	1177.91
407.267	1199.15
407.645	1218.36
408.023	1209.54
408.401	1224.69
408.779	1251.8
409.156	1267.17
409.534	1301.97
409.912	1312.37
410.29	1315.98
410.667	1365.25
411.045	1359.6
411.422	1392.36
411.8	1414.28
412.178	1412.25
412.555	1453.83
412.933	1464
413.31	1491.34
413.687	1506.49
414.065	1492.93
414.442	1517.78
414.819	1582.87
415.197	1594.39
415.574	1601.4
415.951	1607.73
416.328	1652.92
416.705	1658.12
417.082	1651.11
417.46	1670.32
417.837	1746.93
418.214	1719.36
418.591	1762.3
418.967	1732.92
419.344	1749.87
419.721	1840.94
420.098	1807.27
420.475	1857.89
420.852	1884.78
421.228	1901.96
421.605	1894.27
421.982	1931.56
422.358	1963.42
422.735	1960.03
423.111	1979.69
423.488	2009.75
423.864	2055.62
424.241	2072.35
424.617	2092.01
424.994	2099.24
425.37	2106.7
425.746	2176.98
426.123	2164.32
426.499	2200.25
426.875	2214.94
427.251	2262.17
427.627	2311.21
428.003	2324.54
428.379	2381.72
428.756	2428.04
429.132	2454.26
429.507	2509.17
429.883	2489.74
430.259	2565.67
430.635	2573.58
431.011	2605.44
431.387	2670.97
431.763	2690.86
432.138	2708.94
432.514	2781.93
432.89	2789.16
433.265	2829.61
433.641	2869.61
434.016	2900.8
434.392	2964.07
434.767	3041.81
435.143	3011.98
435.518	3083.17
435.894	3127.91
436.269	3113.9
436.644	3217.4
437.02	3238.19
437.395	3276.83
437.77	3289.04
438.145	3351.64
438.52	3410.39
438.895	3402.26
439.271	3438.64
439.646	3502.37
440.021	3497.62
440.395	3534.46
440.77	3514.79
441.145	3587.11
441.52	3637.05
441.895	3677.28
442.27	3712.53
442.645	3755.69
443.019	3745.97
443.394	3781.68
443.769	3825.75
444.143	3830.27
444.518	3907.55
444.892	3919.53
445.267	3909.59
445.641	3997.04
446.016	4020.09
446.39	4027.1
446.764	4080.66
447.139	4048.57
447.513	4155.23
447.887	4146.19
448.262	4189.81
448.636	4246.75
449.01	4253.76
449.384	4321.33
449.758	4388.22
450.132	4420.53
450.506	4394.77
450.88	4438.16
451.254	4463.24
451.628	4525.16
452.002	4630.02
452.376	4655.1
452.75	4713.86
453.123	4764.03
453.497	4841.31
453.871	4851.03
454.244	4972.84
454.618	5048.54
454.992	5107.3
455.365	5089.22
455.739	5231.36
456.112	5312.49
456.486	5348.42
456.859	5380.06
457.232	5528.07
457.606	5462.54
457.979	5567.4
458.352	5695.3
458.725	5700.95
459.099	5785.47
459.472	5886.71
459.845	5979.36
460.218	6016.88
460.591	6085.57
460.964	6127.61
461.337	6247.83
461.71	6425.23
462.083	6483.76
462.456	6494.38
462.829	6545.68
463.201	6733.02
463.574	6726.01
463.947	6799.23
464.32	6963.97
464.692	7010.3
465.065	7047.13
465.438	7189.5
465.81	7342.04
466.183	7376.84
466.555	7605.31
466.928	7600.11
467.3	7611.41
467.672	7726.66
468.045	7958.75
468.417	7984.96
468.789	8012.53
469.161	8135.92
469.534	8239.42
469.906	8471.95
470.278	8504.72
470.65	8638.28
471.022	8825.84
471.394	8944.71
471.766	9064.48
472.138	9164.59
472.51	9388.76
472.882	9518.48
473.253	9699.94
473.625	9853.84
473.997	10051.8
474.369	10163.66
474.74	10258.8
475.112	10442.3
475.484	10619.01
475.855	10790.08
476.227	10856.07
476.598	11243.4
476.97	11299.9
477.341	11591.64
477.713	11739.89
478.084	11874.8
478.455	12134.45
478.827	12290.16
479.198	12512.75
479.569	12622.35
479.94	13050.59
480.311	13103.7
480.682	13439.51
481.053	13752.72
481.424	13938.93
481.795	14067.96
482.166	14352.7
482.537	14608.51
482.908	14932.57
483.279	15110.2
483.65	15359
484.021	15761.7
484.391	15935.26
484.762	16050.96
485.133	16172.77
485.503	16465.41
485.874	16669.25
486.244	16913.54
486.615	17207.32
486.985	17417.71
487.356	17730.47
487.726	17796
488.097	18313.5
488.467	18342.88
488.837	18697.45
489.207	18915.97
489.578	19168.39
489.948	19355.28
490.318	19731.32
490.688	19757.53
491.058	20048.82
491.428	20376.95
491.798	20554.35
492.168	21054.67
492.538	20983.71
492.908	21417.83
493.278	21669.8
493.648	21683.58
494.017	22136.45
494.387	22291.48
494.757	22509.55
495.126	22780.05
495.496	22807.85
495.866	23069.99
496.235	23302.52
496.605	23548.84
496.974	23741.61
497.344	23867.03
497.713	24011.43
498.082	24254.59
498.452	24446
498.821	24490.97
499.19	24587.69
499.559	24876.49
499.928	25024.51
500.298	25182.02
500.667	25407.1
501.036	25486.65
501.405	25713.76
501.774	25678.28
502.143	26091.15
502.512	26202.56
502.88	26535.66
503.249	26522.33
503.618	26797.8
503.987	27053.38
504.356	27227.84
504.724	27327.05
505.093	27412.25
505.462	27751.67
505.83	27956.64
506.199	28197.31
506.567	28572.89
506.936	28567.47
507.304	28879.78
507.672	29003.84
508.041	29207.23
508.409	29377.84
508.777	29609.25
509.145	29787.1
509.514	29875.68
509.882	30139.86
510.25	30215.11
510.618	30438.38
510.986	30584.14
511.354	30834.53
511.722	31078.14
512.09	31280.39
512.458	31303.22
512.826	31638.12
513.193	31902.07
513.561	32107.26
513.929	32326.47
514.297	32552
514.664	32944.76
515.032	32957.64
515.4	33448.24
515.767	33532.08
516.135	33886.88
516.502	33822.92
516.869	34348.79
517.237	34561.44
517.604	34553.98
517.972	35054.53
518.339	35252.94
518.706	35349.66
519.073	35494.74
519.44	35927.5
519.808	36155.74
520.175	36181.05
520.542	36708.27
520.909	36773.81
521.276	36834.6
521.643	37342.83
522.009	37464.86
522.376	37759.09
522.743	37966.54
523.11	38302.58
523.477	38628.22
523.843	38731.04
524.21	39329.22
524.577	39509.1
524.943	39660.06
525.31	39887.17
525.676	40256.88
526.043	40637.89
526.409	40780.48
526.776	41238.55
527.142	41425.44
527.508	41862.26
527.874	42000.56
528.241	42308.35
528.607	42516.71
528.973	42998.05
529.339	42974.77
529.705	43325.5
530.071	43805.03
530.437	43938.14
530.803	44081.64
531.169	44408.18
531.535	44333.83
531.901	44472.81
532.267	44577.67
532.632	44996.42
532.998	45016.08
533.364	45214.94
533.73	45398.44
534.095	45736.51
534.461	45922.72
534.826	46075.71
535.192	46172.2
535.557	46451.97
535.923	46488.35
536.288	46724.51
536.653	46932.18
537.019	46632.53
537.384	46985.29
537.749	47299.86
538.114	47321.55
538.479	47458.95
538.845	47570.81
539.21	47669.57
539.575	47977.81
539.94	48040.63
540.305	48346.38
540.67	48331.47
541.034	48512.26
541.399	48764.9
541.764	48954.96
542.129	49080.83
542.494	49091.68
542.858	49309.3
543.223	49467.26
543.587	49741.15
543.952	49567.59
544.316	49793.13
544.681	49798.78
545.045	49971.2
545.41	50158.77
545.774	50238.54
546.138	50198.31
546.503	50270.85
546.867	50345.2
547.231	50663.16
547.595	50587.23
547.959	50752.42
548.324	50872.65
548.688	50998.74
549.052	51176.37
549.416	51181.56
549.779	51184.5
550.143	51283.26
550.507	51586.07
550.871	51591.95
551.235	51631.27
551.599	51953.52
551.962	51985.38
552.326	52174.53
552.689	52245.72
553.053	52190.8
553.417	52282.55
553.78	52763.9
554.143	52597.8
554.507	52911.69
554.87	53095.64
555.234	53338.57
555.597	53271
555.96	53358.23
556.323	53615.62
556.686	53600.26
557.05	53797.09
557.413	53914.37
557.776	53921.83
558.139	54197.76
558.502	54197.98
558.865	54249.28
559.228	54464.64
559.59	54500.8
559.953	54626.67
560.316	54824.86
560.679	54876.16
561.041	55066.89
561.404	55111.4
561.767	55251.29
562.129	55236.37
562.492	55519.08
562.854	55559.3
563.217	55544.39
563.579	55680.43
563.941	55836.36
564.304	55936.24
564.666	56157.03
565.028	56195.67
565.39	56247.19
565.753	56466.62
566.115	56510.92
566.477	56575.55
566.839	56731.02
567.201	56965.59
567.563	56980.28
567.925	57109.54
568.287	57161.52
568.648	57231.35
569.01	57400.61
569.372	57576.88
569.734	57444
570.095	57731.45
570.457	57800.6
570.819	57913.82
571.18	57852.8
571.542	58081.27
571.903	58045.11
572.265	58157.2
572.626	58168.27
572.987	58158.56
573.349	58265.22
573.71	58337.99
574.071	58425.44
574.432	58474.71
574.794	58648.94
575.155	58569.39
575.516	58511.77
575.877	58623.85
576.238	58642.84
576.599	58738.2
576.96	58759.67
577.32	58816.17
577.681	58924.41
578.042	58926.44
578.403	58966.22
578.763	58942.94
579.124	59051.41
579.485	59090.06
579.845	59203.27
580.206	59144.52
580.566	59234.91
580.927	59196.27
581.287	59309.26
581.648	59254.35
582.008	59370.95
582.368	59328.47
582.728	59398.3
583.089	59366.89
583.449	59425.87
583.809	59432.87
584.169	59536.82
584.529	59477.39
584.889	59643.94
585.249	59405.3
585.609	59503.6
585.969	59632.42
586.329	59514.9
586.688	59582.25
587.048	59574.34
587.408	59443.49
587.768	59465.19
588.127	59512.19
588.487	59379.99
588.846	59555.81
589.206	59437.39
589.565	59461.12
589.925	59524.62
590.284	59398.97
590.643	59406.21
591.003	59410.5
591.362	59477.16
591.721	59479.42
592.08	59457.5
592.44	59516.71
592.799	59481.01
593.158	59471.97
593.517	59462.93
593.876	59487.11
594.235	59458.18
594.593	59487.79
594.952	59615.47
595.311	59409.14
595.67	59566.88
596.029	59695.92
596.387	59725.29
596.746	59716.71
597.104	59629.03
597.463	59656.6
597.822	59757.61
598.18	59719.19
598.538	59664.73
598.897	59892.07
599.255	59721.45
599.613	60037.83
599.972	59857.04
600.33	60020.43
600.688	59915.12
601.046	59967.77
601.404	60087.54
601.762	59994.67
602.12	60052.97
602.478	60082.57
602.836	60113.31
603.194	60024.95
603.552	60053.65
603.91	59966.87
604.268	60083.7
604.625	59956.7
604.983	60080.76
605.341	59943.37
605.698	60185.39
606.056	60142.46
606.413	59971.84
606.771	60133.87
607.128	60104.27
607.485	59962.58
607.843	60039.86
608.2	60173.19
608.557	60215.22
608.914	60132.74
609.272	60240.53
609.629	60236.24
609.986	60310.14
610.343	60229.01
610.7	60414.54
611.057	60371.83
611.414	60372.73
611.771	60432.85
612.127	60514.2
612.484	60491.83
612.841	60590.13
613.198	60522.11
613.554	60558.94
613.911	60691.6
614.267	60700.86
614.624	60594.2
614.98	60730.01
615.337	60914.87
615.693	60832.38
616.05	60854.3
616.406	60932.72
616.762	60862.44
617.118	60856.79
617.475	60877.35
617.831	60969.1
618.187	60953.28
618.543	60965.49
618.899	61114.64
619.255	61005.49
619.611	61027.86
619.967	61045.71
620.323	61085.71
620.678	61030.8
621.034	60931.59
621.39	60928.43
621.746	60943.34
622.101	61085.26
622.457	60872.61
622.812	60887.07
623.168	60926.62
623.523	60864.93
623.879	60943.12
624.234	60772.05
624.589	60826.73
624.945	60885.94
625.3	60890.01
625.655	60822.44
626.01	60789.22
626.365	60803.46
626.72	60754.19
627.075	60756.68
627.43	60780.86
627.785	60722.33
628.14	60789.67
628.495	60848.43
628.85	60728.66
629.205	60686.4
629.559	60801.42
629.914	60690.47
630.269	60777.47
630.623	60708.77
630.978	60659.28
631.332	60754.65
631.687	60833.29
632.041	60681.88
632.396	60791.03
632.75	60671.26
633.104	60772.27
633.459	60594.42
633.813	60651.6
634.167	60586.29
634.521	60588.32
634.875	60683.69
635.229	60620.41
635.583	60451.15
635.937	60545.84
636.291	60408.67
636.645	60468.55
636.999	60426.74
637.352	60477.14
637.706	60285.73
638.06	60352.62
638.413	60327.54
638.767	60219.07
639.121	60250.48
639.474	60067.43
639.828	60090.71
640.181	60099.52
640.534	60045.29
640.888	59954.21
641.241	59804.16
641.594	59875.35
641.947	59882.58
642.301	59783.6
642.654	59771.62
643.007	59713.09
643.36	59682.81
643.713	59589.48
644.066	59684.17
644.419	59476.71
644.771	59333.89
645.124	59163.95
645.477	59043.28
645.83	58906.56
646.182	58772.78
646.535	58741.37
646.888	58745.21
647.24	58582.27
647.593	58736.62
647.945	58582.95
648.298	58572.56
648.65	58519.22
649.002	58449.85
649.355	58590.63
649.707	58544.76
650.059	58667.69
650.411	59017.06
650.763	58990.62
651.115	59217.96
651.467	59188.13
651.819	59226.55
652.171	59126.67
652.523	59087.57
652.875	59136.61
653.227	59055.71
653.578	59141.81
653.93	59081.24
654.282	58953.11
654.633	58932.32
654.985	58996.27
655.337	59023.39
655.688	59025.88
656.039	59037.4
656.391	58868.14
656.742	58778.88
657.094	58805.32
657.445	58881.02
657.796	58776.84
658.147	58736.85
658.498	58732.78
658.849	58813.68
659.2	58736.85
659.551	58605.1
659.902	58653.01
660.253	58552.44
660.604	58530.07
660.955	58384.99
661.306	58479
661.656	58337.31
662.007	58326.69
662.358	58323.75
662.708	58311.32
663.059	58172.79
663.409	58074.94
663.76	58196.97
664.11	58137.09
664.461	58211.21
664.811	58109.97
665.161	58079.69
665.511	58008.73
665.862	58043.98
666.212	58188.39
666.562	58153.81
666.912	58138.67
667.262	58124.88
667.612	58096.41
667.962	58163.53
668.312	58121.04
668.662	58193.81
669.011	58121.72
669.361	58176.86
669.711	58185.67
670.06	58157.43
670.41	58123.08
670.76	58110.87
671.109	58222.51
671.459	58111.55
671.808	58127.37
672.157	58093.7
672.507	57940.48
672.856	57948.39
673.205	57968.28
673.554	58098.44
673.904	57916.98
674.253	58118.78
674.602	57999.24
674.951	57688.74
675.3	57552.02
675.649	57929.86
675.998	57849.19
676.346	57824.33
676.695	57998.79
677.044	57725.8
677.393	57899.58
677.741	57766.25
678.09	57745.46
678.438	57636.31
678.787	57634.28
679.135	57611.9
679.484	57376.43
679.832	57471.12
680.181	57318.13
680.529	57344.57
680.877	57236.77
681.225	57145.93
681.573	57302.31
681.922	57094.63
682.27	56921.3
682.618	57047.62
682.966	56937.34
683.314	56901.41
683.661	56860.51
684.009	56662.32
684.357	56618.03
684.705	56577.58
685.053	56560.63
685.4	56531.25
685.748	56413.29
686.095	56417.36
686.443	56325.38
686.79	56322.9
687.138	56228.66
687.485	56283.8
687.832	56172.62
688.18	56254.2
688.527	56050.81
688.874	56052.4
689.221	56003.81
689.568	56001.55
689.915	55899.18
690.262	55924.26
690.609	55817.37
690.956	55788.9
691.303	55820.09
691.65	55618.74
691.997	55604.05
692.344	55415.58
692.69	55417.38
693.037	55416.03
693.383	55345.75
693.73	55374.45
694.077	55211.97
694.423	55208.58
694.769	55111.63
695.116	55027.79
695.462	54995.47
695.808	54933.1
696.155	55014.46
696.501	54774.69
696.847	54749.83
697.193	54581.25
697.539	54605.2
697.885	54384.64
698.231	54338.77
698.577	54388.26
698.923	54263.29
699.269	54084.31
699.614	53965.67
699.96	53847.26
700.306	53834.83
700.651	53648.39
700.997	53564.55
701.342	53510.54
701.688	53442.07
702.033	53236.88
702.379	53269.87
702.724	53194.39
703.069	53152.36
703.415	52892.25
703.76	52708.53
704.105	52777.23
704.45	52577.46
704.795	52481.19
705.14	52292.04
705.485	52214.31
705.83	52107.42
706.175	52083.69
706.52	52049.56
706.865	51907.42
707.209	51814.32
707.554	51619.74
707.899	51702.68
708.243	51478.51
708.588	51443.93
708.932	51266.76
709.277	51302.01
709.621	51520.09
709.966	51045.3
710.31	51215.46
710.654	50893.21
710.998	50914.23
711.342	50869.26
711.687	50980.44
712.031	50739.77
712.375	50705.19
712.719	50721.69
713.063	50581.58
713.407	50756.72
713.75	50471.98
714.094	50573.44
714.438	50488.93
714.782	50373.9
715.125	50327.35
715.469	50408.25
715.812	50170.07
716.156	50001.03
716.499	50095.26
716.843	50028.83
717.186	49885.1
717.53	50010.07
717.873	49938.88
718.216	49792.22
718.559	49661.6
718.902	49441.95
719.246	49394.04
719.589	49381.84
719.932	49298.22
720.275	49160.6
720.617	49166.7
720.96	49141.39
721.303	48938.68
721.646	49024.33
721.989	48894.39
722.331	48887.84
722.674	48709.54
723.016	48763.77
723.359	48584.12
723.701	48629.77
724.044	48259.38
724.386	48077.69
724.729	48240.85
725.071	48046.96
725.413	48066.62
725.755	48022.55
726.097	47830.69
726.439	47538.95
726.782	47601.09
727.124	47709.11
727.465	47481.32
727.807	47431.83
728.149	47299.18
728.491	47110.26
728.833	47188.9
729.175	46990.49
729.516	46808.12
729.858	46625.07
730.199	46893.09
730.541	46576.04
730.882	46494.23
731.224	46618.75
731.565	46245.65
731.906	46450.16
732.248	46348.47
732.589	46177.85
732.93	45980.57
733.271	46097.4
733.612	46171.3
733.953	46117.06
734.294	45823.29
734.635	45874.58
734.976	45826
735.317	45658.32
735.658	45582.16
735.999	45613.8
736.339	45568.38
736.68	45758.43
737.021	45572.9
737.361	45325.22
737.702	45421.49
738.042	45374.03
738.383	45452.22
738.723	45512.56
739.063	45169.52
739.404	45309.4
739.744	45232.79
740.084	45020.37
740.424	45006.81
740.764	45023.31
741.104	45104.66
741.444	44725.24
741.784	44649.98
742.124	44724.56
742.464	44659.25
742.804	44668.74
743.143	44536.31
743.483	44595.3
743.823	44484.34
744.162	44286.38
744.502	44331.8
744.841	44059.04
745.181	44279.37
745.52	43942.88
745.86	44097.91
746.199	43924.13
746.538	43967.52
746.877	43819.5
747.216	43752.61
747.556	43606.62
747.895	43671.03
748.234	43301.77
748.573	43200.08
748.911	43314.65
749.25	43136.13
749.589	43021.78
749.928	42967.99
750.267	43131.83
750.605	42781.56
750.944	42689.36
751.283	42511.96
751.621	42560.77
751.96	42294.57
752.298	42377.73
752.636	42374.34
752.975	42020.45
753.313	41907.68
753.651	41918.53
753.989	41583.4
754.327	41627.46
754.666	41312.67
755.004	41364.65
755.342	41371.43
755.679	41337.53
756.017	41091.66
756.355	41053.24
756.693	40890.54
757.031	40935.28
757.368	40719.92
757.706	40571.9
758.044	40312.02
758.381	40509.08
758.719	40227.95
759.056	40238.8
759.394	40147.96
759.731	39855.31
760.068	39924.68
760.405	39648.53
760.743	39504.13
761.08	39598.37
761.417	39396.56
761.754	39312.5
762.091	39249.9
762.428	39034.99
762.765	39023.47
763.102	39104.14
763.438	38853.75
763.775	38670.25
764.112	38658.05
764.449	38665.28
764.785	38553.42
765.122	38297.38
765.458	38176.26
765.795	38024.17
766.131	38081.34
766.467	37895.59
766.804	37761.35
767.14	37564.52
767.476	37665.54
767.812	37397.52
768.148	37427.35
768.485	37150.75
768.821	36922.28
769.157	36899
769.492	36849.74
769.828	36686.58
770.164	36269.64
770.5	36350.54
770.836	36344.44
771.171	36123.65
771.507	35969.31
771.842	35715.76
772.178	35747.62
772.513	35538.13
772.849	35532.26
773.184	35227.18
773.519	35314.41
773.855	35060.86
774.19	34985.15
774.525	34927.75
774.86	34880.98
775.195	34658.16
775.53	34507.88
775.865	34340.88
776.2	34030.6
776.535	33840.55
776.87	33864.05
777.205	33648.69
777.539	33602.14
777.874	33578.18
778.209	33271.98
778.543	33236.72
778.878	32984.3
779.212	32898.2
779.547	32773.91
779.881	32806.45
780.215	32606.69
780.55	32740.69
780.884	32410.08
781.218	32231.55
781.552	32253.93
781.886	31948.85
782.22	31871.79
782.554	31817.33
782.888	31458.69
783.222	31379.15
783.556	31375.3
783.889	31258.7
784.223	31096.67
784.557	30840.4
784.89	30922.44
785.224	30727.64
785.557	30596.57
785.891	30564.03
786.224	30468.44
786.558	30311.6
786.891	30152.06
787.224	30037.49
787.557	29833.42
787.891	29719.3
788.224	29755.23
788.557	29726.76
788.89	29715.46
789.223	29609.48
789.556	29352.53
789.888	29314.12
790.221	29232.08
790.554	29024.41
790.887	28981.92
791.219	28855.15
791.552	28838.2
791.884	28708.26
792.217	28590.07
792.549	28599.33
792.882	28422.16
793.214	28298.55
793.546	28241.38
793.879	28095.84
794.211	27896.98
794.543	28092.23
794.875	27912.12
795.207	27993.7
795.539	27765.46
795.871	27654.05
796.203	27489.76
796.535	27306.26
796.867	27334.06
797.198	27292.02
797.53	27325.92
797.862	26986.95
798.193	27102.65
798.525	26855.88
798.856	26856.33
799.188	26692.94
799.519	26609.78
799.85	26237.36
800.182	26404.81
800.513	26429.67
800.844	26260.19
801.175	26212.73
801.506	26129.79
801.837	25995.79
802.168	25959.4
802.499	25880.08
802.83	25673.08
803.161	25575.91
803.491	25705.17
803.822	25612.97
804.153	25363.49
804.483	25270.15
804.814	25086.2
805.145	25109.93
805.475	25056.15
805.805	24977.96
806.136	24963.5
806.466	24951.52
806.796	24807.79
807.126	24571.42
807.457	24534.81
807.787	24515.37
808.117	24459.78
808.447	24342.5
808.777	24454.81
809.107	24239
809.436	24265.44
809.766	24145.66
810.096	23986.8
810.426	23946.35
810.755	23936.18
811.085	23853.47
811.414	23937.08
811.744	23629.07
812.073	23643.53
812.403	23632.01
812.732	23443.76
813.061	23471.33
813.39	23510.88
813.719	23376.87
814.049	23311.79
814.378	23132.36
814.707	23004.23
815.036	23129.87
815.365	23000.61
815.693	22757.23
816.022	22771.92
816.351	22782.08
816.68	22632.94
817.008	22795.42
817.337	22664.8
817.665	22532.83
817.994	22622.99
818.322	22455.09
818.651	22519.04
818.979	22397.01
819.307	22378.03
819.636	22290.57
819.964	22096.23
820.292	22356.56
820.62	22243.12
820.948	22187.07
821.276	22216.9
821.604	22258.71
821.932	22158.82
822.259	22196.34
822.587	22208.54
822.915	22140.75
823.243	22222.33
823.57	22166.51
823.898	22119.73
824.225	21946.63
824.553	22102.33
824.88	22049.9
825.207	22201.76
825.535	22127.86
825.862	22052.16
826.189	21987.76
826.516	22147.98
826.843	22230.23
827.17	22202.21
827.497	22147.53
827.824	22087.64
828.151	22144.14
828.478	22101.2
828.805	22117.24
829.131	22085.61
829.458	22005.61
829.785	21889.68
830.111	22013.97
830.438	22072.05
830.764	22028.43
831.09	22011.48
831.417	21878.38
831.743	21889.23
832.069	21894.42
832.395	21880.41
832.722	21941.43
833.048	21944.37
833.374	21876.35
833.7	21671.61
834.026	21779.4
834.351	21738.95
834.677	21816.46
835.003	21822.56
835.329	21793.18
835.654	21752.96
835.98	21531.95
836.306	21573.53
836.631	21582.57
836.956	21661.21
837.282	21482.23
837.607	21370.82
837.932	21439.07
838.258	21463.7
838.583	21469.12
838.908	21211.28
839.233	21335.12
839.558	21169.02
839.883	21121.56
840.208	21040.21
840.533	21112.75
840.858	21130.83
841.182	21107.78
841.507	21070.27
841.832	20965.18
842.156	20880.67
842.481	20974.45
842.805	20912.76
843.13	20830.27
843.454	20761.12
843.778	20736.26
844.103	20583.5
844.427	20477.74
844.751	20588.7
845.075	20520
845.399	20442.03
845.723	20413.79
846.047	20388.25
846.371	20321.13
846.695	20248.59
847.019	19990.29
847.343	20000.24
847.666	19989.39
847.99	19982.61
848.313	19870.97
848.637	19797.08
848.96	19736.29
849.284	19661.26
849.607	19545.79
849.931	19508.72
850.254	19311.89
850.577	19293.14
850.9	19153.71
851.223	19140.37
851.546	19000.72
851.869	18914.62
852.192	19002.75
852.515	18831.68
852.838	18727.28
853.161	18782.64
853.483	18680.5
853.806	18616.32
854.129	18582.42
854.451	18577.68
854.774	18543.1
855.096	18432.59
855.419	18350.79
855.741	18273.28
856.063	18242.32
856.385	18165.93
856.708	18095.88
857.03	18081.64
857.352	18025.37
857.674	17978.82
857.996	17894.53
858.318	17795.55
858.64	17861.76
858.961	17818.83
859.283	17696.12
859.605	17636.23
859.926	17781.99
860.248	17630.81
860.57	17568.66
860.891	17583.13
861.212	17384.94
861.534	17419.51
861.855	17423.81
862.176	17290.7
862.498	17348.33
862.819	17344.71
863.14	17149.92
863.461	17170.71
863.782	17123.48
864.103	17149.24
864.424	17034.21
864.745	17138.62
865.065	16984.5
865.386	16861.79
865.707	16949.24
866.027	16998.73
866.348	16857.04
866.668	16833.54
866.989	16873.09
867.309	16641.23
867.63	16710.83
867.95	16808.68
868.27	16656.82
868.59	16699.31
868.91	16742.02
869.23	16648.46
869.55	16592.87
869.87	16670.83
870.19	16593.77
870.51	16640.1
870.83	16492.53
871.15	16468.13
871.469	16432.2
871.789	16521.01
872.109	16397.62
872.428	16281.01
872.748	16354.46
873.067	16319.43
873.386	16382.7
873.706	16309.71
874.025	16252.76
874.344	16185.2
874.663	16281.01
874.982	16194.24
875.301	16183.39
875.62	16127.34
875.939	16197.85
876.258	16155.82
876.577	16090.28
876.896	16068.14
877.214	16003.28
877.533	16005.31
877.852	16074.01
878.17	15978.42
878.489	15970.74
878.807	15917.86
879.125	15985.65
879.444	15924.86
879.762	15935.71
880.08	15774.59
880.398	15845.09
880.716	15941.81
881.034	15861.59
881.352	15737.52
881.67	15725.1
881.988	15864.3
882.306	15657.53
882.624	15606.91
882.941	15596.51
883.259	15593.35
883.577	15556.29
883.894	15537.76
884.212	15552.9
884.529	15479
884.846	15456.4
885.164	15382.28
885.481	15398.32
885.798	15348.61
886.115	15274.26
886.432	15321.04
886.75	15196.75
887.067	15316.74
887.383	15197.65
887.7	15178.67
888.017	15068.84
888.334	15131.89
888.651	15081.04
888.967	15070.42
889.284	14938
889.6	14985.23
889.917	14918.79
890.233	14921.73
890.55	14874.72
890.866	14807.83
891.182	14790.88
891.498	14756.76
891.815	14697.1
892.131	14619.14
892.447	14620.49
892.763	14558.12
893.079	14542.98
893.395	14539.82
893.71	14416.88
894.026	14480.16
894.342	14346.83
894.657	14262.76
894.973	14202.88
895.289	14199.26
895.604	14168.75
895.92	14155.87
896.235	14089.21
896.55	14115.42
896.865	14091.24
897.181	13910.68
897.496	13983.67
897.811	13833.17
898.126	13878.82
898.441	13750.23
898.756	13683.79
899.071	13682.89
899.386	13661.87
899.7	13500.07
900.015	13482.44
900.33	13449.9
900.644	13426.85
900.959	13343.01
901.273	13372.39
901.588	13262.11
901.902	13250.58
902.216	13227.99
902.531	13172.62
902.845	13086.29
903.159	13103.7
903.473	13035.22
903.787	12918.16
904.101	12848.11
904.415	12900.76
904.729	12740.09
905.042	12820.31
905.356	12795.45
905.67	12706.42
905.984	12738.51
906.297	12636.81
906.611	12491.28
906.924	12608.34
907.237	12421
907.551	12502.81
907.864	12373.77
908.177	12305.98
908.491	12360.21
908.804	12163.61
909.117	12188.92
909.43	12180.1
909.743	12068.24
910.056	12057.17
910.368	11986.66
910.681	11958.64
910.994	11919.09
911.307	11870.28
911.619	11679.33
911.932	11806.55
912.244	11750.28
912.557	11649.27
912.869	11650.4
913.181	11638.2
913.494	11579.44
913.806	11533.79
914.118	11479.78
914.43	11440.46
914.742	11365.66
915.054	11297.19
915.366	11236.17
915.678	11259.45
915.99	11146.01
916.302	11155.27
916.613	11021.72
916.925	11082.05
917.236	11145.1
917.548	10994.82
917.859	10974.94
918.171	10874.15
918.482	10908.27
918.794	10849.52
919.105	10873.7
919.416	10760.25
919.727	10750.31
920.038	10647.04
920.349	10609.75
920.66	10518.68
920.971	10540.15
921.282	10510.32
921.593	10396.65
921.903	10410.21
922.214	10391.22
922.525	10314.39
922.835	10235.52
923.146	10230.32
923.456	10148.07
923.767	10148.29
924.077	10089.09
924.387	10114.85
924.697	10054.06
925.008	10007.73
925.318	10009.54
925.628	9993.72
925.938	9934.74
926.248	9858.13
926.558	9840.5
926.867	9779.94
927.177	9709.21
927.487	9675.08
927.796	9648.87
928.106	9563.68
928.416	9541.53
928.725	9600.96
929.034	9489.33
929.344	9495.88
929.653	9395.77
929.962	9386.5
930.271	9311.03
930.581	9236
930.89	9246.17
931.199	9134.08
931.508	9164.82
931.817	9159.17
932.125	9076.91
932.434	9063.12
932.743	8997.14
933.051	8921.43
933.36	8967.08
933.669	8953.3
933.977	8787.88
934.286	8793.98
934.594	8789.46
934.902	8647.09
935.21	8632.85
935.519	8681.44
935.827	8631.95
936.135	8579.29
936.443	8514.66
936.751	8424.95
937.059	8487.55
937.367	8427.66
937.674	8361.67
937.982	8316.93
938.29	8317.83
938.597	8287.1
938.905	8238.74
939.213	8178.4
939.52	8213.43
939.827	8184.73
940.135	8112.19
940.442	8056.82
940.749	8060.21
941.056	8054.56
941.363	7962.59
941.67	7916.49
941.977	7891.63
942.284	7768.02
942.591	7808.02
942.898	7823.38
943.205	7782.03
943.511	7746.32
943.818	7720.11
944.125	7588.36
944.431	7574.12
944.738	7586.1
945.044	7511.75
945.35	7497.29
945.657	7494.58
945.963	7479.44
946.269	7392.43
946.575	7381.36
946.881	7311.3
947.187	7281.48
947.493	7333.45
947.799	7243.51
948.105	7197.41
948.41	7161.03
948.716	7153.12
949.022	7068.6
949.327	7117.64
949.633	7022.27
949.938	7030.86
950.244	7009.84
950.549	6976.4
950.854	6965.1
951.16	6877.19
951.465	6905.89
951.77	6833.13
952.075	6785.44
952.38	6828.61
952.685	6808.72
952.99	6690.08
953.294	6696.63
953.599	6681.49
953.904	6650.53
954.209	6639.91
954.513	6641.72
954.818	6547.26
955.122	6567.37
955.426	6508.84
955.731	6554.94
956.035	6459.12
956.339	6410.09
956.643	6464.77
956.948	6399.24
957.252	6353.14
957.556	6376.19
957.86	6297.09
958.163	6219.58
958.467	6251.22
958.771	6262.07
959.075	6241.28
959.378	6192.46
959.682	6143.2
959.985	6148.62
960.289	6032.69
960.592	6092.35
960.896	6086.03
961.199	6041.51
961.502	6033.6
961.805	5980.27
962.108	5931.68
962.411	5951.11
962.714	5903.88
963.017	5912.47
963.32	5928.29
963.623	5893.49
963.926	5880.61
964.228	5817.78
964.531	5800.16
964.833	5761.97
965.136	5751.57
965.438	5715.41
965.741	5686.71
966.043	5658.69
966.345	5663.66
966.648	5628.41
966.95	5593.84
967.252	5626.38
967.554	5566.27
967.856	5545.48
968.158	5466.16
968.46	5408.3
968.761	5485.14
969.063	5406.72
969.365	5415.08
969.666	5347.97
969.968	5253.05
970.269	5264.13
970.571	5283.34
970.872	5233.62
971.174	5242.21
971.475	5194.3
971.776	5205.15
972.077	5191.59
972.378	5087.18
972.679	5063.68
972.98	5121.98
973.281	5059.84
973.582	5005.83
973.883	5018.48
974.183	4992.72
974.484	5006.96
974.785	4882.89
975.085	4943.46
975.386	4937.58
975.686	4907.3
975.986	4885.83
976.287	4886.06
976.587	4785.95
976.887	4758.38
977.187	4803.57
977.487	4780.52
977.787	4754.99
978.087	4687.87
978.387	4675.22
978.687	4660.75
978.987	4611.49
979.286	4596.12
979.586	4575.33
979.885	4555.22
980.185	4562.22
980.484	4522.9
980.784	4526.29
981.083	4477.93
981.382	4498.5
981.682	4460.53
981.981	4426.86
982.28	4426.64
982.579	4365.85
982.878	4409.01
983.177	4344.6
983.475	4298.73
983.774	4309.8
984.073	4260.31
984.372	4274.55
984.67	4280.65
984.969	4238.62
985.267	4190.48
985.566	4204.27
985.864	4147.32
986.162	4148.68
986.461	4140.77
986.759	4093.99
987.057	4046.53
987.355	4067.32
987.653	4035.91
987.951	4051.5
988.249	4039.53
988.547	3974.67
988.844	3979.19
989.142	3942.35
989.44	3918.85
989.737	3872.3
990.035	3927.89
990.332	3881.34
990.63	3872.3
990.927	3840.21
991.224	3837.5
991.521	3837.72
991.819	3798.85
992.116	3768.12
992.413	3753.21
992.71	3771.96
993.006	3731.29
993.303	3666.43
993.6	3681.8
993.897	3671.17
994.193	3639.54
994.49	3628.92
994.787	3600.22
995.083	3540.1
995.379	3592.31
995.676	3552.99
995.972	3524.74
996.268	3498.52
996.565	3479.77
996.861	3479.32
997.157	3464.85
997.453	3474.34
997.749	3447.68
998.044	3395.48
998.34	3381.01
998.636	3398.19
998.932	3344.63
999.227	3387.34
999.523	3314.12
999.818	3317.96
1000.114	3279.77
1000.409	3280.45
1000.704	3249.04
1001	3255.14
1001.295	3209.04
1001.59	3170.62
1001.885	3181.02
1002.18	3200.23
1002.475	3156.61
1002.77	3142.38
1003.065	3067.12
1003.359	3092.66
1003.654	3124.3
1003.949	3046.78
1004.243	3059.89
1004.538	3052.89
1004.832	3014.02
1005.127	3023.96
1005.421	2996.39
1005.715	2930.63
1006.009	2968.14
1006.304	2971.31
1006.598	2934.7
1006.892	2894.7
1007.186	2856.73
1007.48	2861.7
1007.773	2860.57
1008.067	2864.42
1008.361	2800.46
1008.655	2819.22
1008.948	2800.01
1009.242	2763.18
1009.535	2780.8
1009.829	2741.03
1010.122	2665.33
1010.415	2672.56
1010.708	2693.57
1011.001	2690.18
1011.295	2696.29
1011.588	2666.46
1011.881	2649.51
1012.173	2620.81
1012.466	2617.64
1012.759	2562.05
1013.052	2549.62
1013.344	2529.06
1013.637	2527.25
1013.93	2495.61
1014.222	2489.28
1014.514	2474.14
1014.807	2460.36
1015.099	2463.97
1015.391	2458.55
1015.683	2408.38
1015.976	2410.87
1016.268	2417.87
1016.56	2384.43
1016.851	2354.15
1017.143	2376.52
1017.435	2326.8
1017.727	2287.71
1018.018	2311.44
1018.31	2271.66
1018.602	2264.43
1018.893	2230.08
1019.185	2213.13
1019.476	2246.58
1019.767	2234.6
1020.058	2176.3
1020.35	2174.72
1020.641	2148.28
1020.932	2135.4
1021.223	2122.97
1021.514	2115.28
1021.804	2089.75
1022.095	2096.3
1022.386	2062.18
1022.677	2044.78
1022.967	2051.56
1023.258	2017.43
1023.548	2020.6
1023.839	1978.56
1024.129	1973.37
1024.419	1977.43
1024.709	1952.12
1025	1921.62
1025.29	1892.92
1025.58	1890.43
1025.87	1906.25
1026.16	1858.57
1026.449	1866.02
1026.739	1826.03
1027.029	1849.98
1027.319	1836.19
1027.608	1810.88
1027.898	1812.47
1028.187	1781.28
1028.477	1780.83
1028.766	1756.65
1029.055	1722.3
1029.344	1722.98
1029.634	1702.19
1029.923	1669.42
1030.212	1674.39
1030.501	1672.58
1030.79	1676.65
1031.078	1673.49
1031.367	1652.24
1031.656	1615.86
1031.945	1595.75
1032.233	1602.3
1032.522	1591
1032.81	1572.47
1033.099	1569.08
1033.387	1560.72
1033.675	1568.41
1033.963	1523.43
1034.251	1524.56
1034.54	1517.56
1034.828	1489.54
1035.116	1478.24
1035.403	1501.74
1035.691	1462.19
1035.979	1475.53
1036.267	1427.84
1036.554	1426.26
1036.842	1409.99
1037.129	1409.31
1037.417	1382.2
1037.704	1407.05
1037.992	1365.25
1038.279	1380.39
1038.566	1379.71
1038.853	1379.71
1039.14	1379.71
