Data from aluminium_macbook_case_FLMS001491_003.txt Node
Date: Tue Feb 07 10:43:06 GMT 2017
User: dcchb
Spectrometer: FLMS00149
Trigger mode: 0
Integration Time (sec): 2.000000E-2
Scans to average: 10
Electric dark correction enabled: true
Nonlinearity correction enabled: false
Boxcar width: 0
XAxis mode: Wavelengths
Number of Pixels in Spectrum: 2048
>>>>>Begin Spectral Data<<<<<
341.393	3.38
341.776	3.38
342.16	3.38
342.543	-50.63
342.927	-75.27
343.31	-62.84
343.693	-72.1
344.077	-74.36
344.46	-53.8
344.843	-48.83
345.226	-44.53
345.61	-31.43
345.993	-30.75
346.376	5.41
346.759	16.26
347.142	22.13
347.525	30.04
347.908	84.28
348.291	77.27
348.674	85.18
349.057	98.06
349.44	129.47
349.823	153.43
350.206	176.48
350.588	254.44
350.971	260.09
351.354	261.45
351.737	280.88
352.119	312.07
352.502	314.55
352.884	323.59
353.267	329.24
353.65	341.67
354.032	356.81
354.414	357.49
354.797	347.77
355.179	367.21
355.562	385.96
355.944	374.44
356.326	395.68
356.709	404.95
357.091	392.74
357.473	427.77
357.855	401.56
358.238	401.33
358.62	435.45
359.002	412.4
359.384	438.39
359.766	404.95
360.148	416.02
360.53	407.21
360.912	430.03
361.294	436.36
361.676	413.99
362.057	407.66
362.439	407.43
362.821	420.99
363.203	420.54
363.584	440.65
363.966	406.75
364.348	416.7
364.729	413.53
365.111	416.7
365.493	425.51
365.874	432.97
366.256	438.62
366.637	432.06
367.019	437.04
367.4	425.29
367.781	427.55
368.163	457.6
368.544	426.19
368.925	439.3
369.306	439.52
369.688	442.91
370.069	442.46
370.45	439.07
370.831	451.05
371.212	438.17
371.593	456.7
371.974	469.35
372.355	465.74
372.736	464.83
373.117	505.74
373.498	458.73
373.879	474.32
374.26	443.82
374.641	456.7
375.021	458.5
375.402	470.93
375.783	488.33
376.163	560.42
376.544	540.76
376.925	522.46
377.305	496.7
377.686	529.24
378.066	542.8
378.447	548.22
378.827	526.07
379.208	552.29
379.588	531.72
379.968	573.53
380.349	556.58
380.729	554.55
381.109	564.04
381.489	565.17
381.87	584.15
382.25	575.79
382.63	575.79
383.01	591.38
383.39	609.69
383.77	607.43
384.15	609.69
384.53	618.5
384.91	623.47
385.29	642
385.67	640.42
386.049	676.8
386.429	660.76
386.809	663.47
387.189	679.74
387.568	698.27
387.948	686.3
388.328	705.5
388.707	708.89
389.087	697.14
389.466	722.68
389.846	732.17
390.225	757.71
390.605	733.98
390.984	770.36
391.363	757.03
391.743	790.02
392.122	800.42
392.501	797.03
392.881	812.85
393.26	806.07
393.639	836.35
394.018	842.22
394.397	873.18
394.776	855.78
395.155	859.17
395.534	867.53
395.913	876.8
396.292	885.61
396.671	905.72
397.05	897.82
397.429	922
397.808	922
398.186	931.71
398.565	972.16
398.944	954.54
399.323	994.54
399.701	970.13
400.08	984.37
400.458	1019.39
400.837	1002.22
401.215	1015.78
401.594	1047.87
401.972	1055.78
402.351	1069.79
402.729	1071.37
403.107	1076.12
403.486	1106.62
403.864	1094.87
404.242	1124.7
404.62	1145.94
404.999	1184.36
405.377	1183.91
405.755	1190.24
406.133	1220.74
406.511	1209.9
406.889	1234.76
407.267	1268.2
407.645	1269.11
408.023	1286.51
408.401	1299.84
408.779	1327.41
409.156	1345.94
409.534	1335.32
409.912	1378.48
410.29	1413.06
410.667	1431.59
411.045	1420.97
411.422	1479.72
411.8	1492.6
412.178	1538.02
412.555	1543.22
412.933	1545.71
413.31	1584.58
413.687	1578.25
414.065	1633.39
414.442	1625.48
414.819	1679.72
415.197	1684.69
415.574	1679.04
415.951	1708.42
416.328	1725.36
416.705	1758.13
417.082	1758.58
417.46	1813.5
417.837	1829.32
418.214	1852.59
418.591	1825.25
418.967	1911.8
419.344	1883.33
419.721	1934.17
420.098	1940.27
420.475	1967.39
420.852	1959.03
421.228	2034.51
421.605	2019.82
421.982	2034.96
422.358	2063.21
422.735	2094.17
423.111	2120.38
423.488	2162.41
423.864	2167.84
424.241	2213.94
424.617	2224.11
424.994	2261.17
425.37	2256.2
425.746	2276.99
426.123	2354.5
426.499	2361.96
426.875	2374.61
427.251	2386.59
427.627	2479.47
428.003	2525.57
428.379	2474.95
428.756	2553.14
429.132	2590.2
429.507	2653.25
429.883	2679.24
430.259	2729.41
430.635	2788.39
431.011	2763.53
431.387	2859.57
431.763	2906.35
432.138	2947.25
432.514	2960.81
432.89	3023.86
433.265	3086.68
433.641	3106.12
434.016	3105.89
434.392	3168.49
434.767	3267.7
435.143	3240.58
435.518	3286.23
435.894	3364.87
436.269	3352.67
436.644	3417.98
437.02	3450.29
437.395	3480.12
437.77	3554.47
438.145	3580.46
438.52	3643.73
438.895	3677.18
439.271	3705.43
439.646	3768.47
440.021	3840.34
440.395	3829.72
440.77	3788.36
441.145	3890.51
441.52	3945.87
441.895	3948.13
442.27	3984.29
442.645	4021.12
443.019	4084.17
443.394	4075.36
443.769	4137.5
444.143	4104.74
444.518	4153.1
444.892	4185.86
445.267	4210.5
445.641	4245.3
446.016	4298.18
446.39	4319.42
446.764	4410.72
447.139	4370.72
447.513	4445.29
447.887	4487.55
448.262	4474.44
448.636	4535.91
449.01	4582.46
449.384	4652.07
449.758	4705.85
450.132	4767.54
450.506	4769.8
450.88	4820.42
451.254	4840.08
451.628	4916.24
452.002	4979.52
452.376	5054.09
452.75	5055.22
453.123	5099.96
453.497	5198.49
453.871	5234.2
454.244	5313.52
454.618	5389.67
454.992	5486.85
455.365	5478.94
455.739	5604.58
456.112	5662.66
456.486	5708.08
456.859	5788.99
457.232	5916.67
457.606	5922.54
457.979	6048.19
458.352	6147.85
458.725	6229.65
459.099	6296.54
459.472	6414.96
459.845	6477.1
460.218	6506.03
460.591	6582.19
460.964	6639.13
461.337	6755.29
461.71	6901.27
462.083	6990.99
462.456	7004.32
462.829	7031.67
463.201	7198.44
463.574	7176.29
463.947	7336.52
464.32	7444.76
464.692	7548.26
465.065	7644.98
465.438	7734.92
465.81	7894.69
466.183	7943.05
466.555	8116.61
466.928	8157.29
467.3	8234.57
467.672	8426.88
468.045	8625.07
468.417	8646.76
468.789	8710.72
469.161	8781.45
469.534	8922.92
469.906	9227.31
470.278	9278.61
470.65	9409.91
471.022	9476.12
471.394	9734.87
471.766	9778.03
472.138	9869.78
472.51	10163.79
472.882	10277.68
473.253	10377.34
473.625	10568.3
473.997	10756.99
474.369	10840.6
474.74	10967.61
475.112	11234.94
475.484	11375.05
475.855	11611.21
476.227	11728.94
476.598	12081.93
476.97	12173.68
477.341	12511.3
477.713	12673.1
478.084	12759.88
478.455	13176.59
478.827	13265.85
479.198	13786.52
479.569	13627.42
479.94	14109.67
480.311	14233.74
480.682	14532.49
481.053	14839.14
481.424	15115.97
481.795	15297.21
482.166	15484.55
482.537	15693.58
482.908	16010.64
483.279	16261.48
483.65	16488.37
484.021	16724.97
484.391	16980.33
484.762	17139.42
485.133	17248.12
485.503	17629.35
485.874	17965.16
486.244	18232.73
486.615	18533.28
486.985	18809.66
487.356	19163.55
487.726	19311.79
488.097	19829.97
488.467	19820.71
488.837	20289.85
489.207	20576.62
489.578	20858.19
489.948	21027.23
490.318	21334.11
490.688	21459.76
491.058	21789.02
491.428	22163.47
491.798	22444.37
492.168	22768.88
492.538	22888.2
492.908	23096.55
493.278	23407.96
493.648	23410.44
494.017	23797.33
494.387	23913.26
494.757	24096.08
495.126	24514.37
495.496	24426.69
495.866	24659.45
496.235	24932.44
496.605	25249.49
496.974	25353.44
497.344	25677.05
497.713	25794.79
498.082	25993.2
498.452	26358.61
498.821	26574.65
499.19	26558.61
499.559	26903.23
499.928	27161.98
500.298	27313.17
500.667	27662.31
501.036	27704.57
501.405	27968.52
501.774	27989.08
502.143	28319.47
502.512	28404.66
502.88	28707.03
503.249	28746.57
503.618	28828.15
503.987	29031.76
504.356	29337.97
504.724	29340.01
505.093	29473.79
505.462	29598.53
505.83	29938.41
506.199	30079.42
506.567	30498.17
506.936	30536.36
507.304	30940.19
507.672	31089.79
508.041	31142.44
508.409	31492.27
508.777	31779.26
509.145	32036.43
509.514	32174.06
509.882	32336.31
510.25	32628.96
510.618	32842.96
510.986	33022.17
511.354	33357.3
511.722	33636.62
512.09	33941.01
512.458	34021.92
512.826	34388.01
513.193	34512.52
513.561	34699.86
513.929	35049.91
514.297	35363.58
514.664	35460.97
515.032	35639.27
515.4	35940.06
515.767	36131.92
516.135	36415.75
516.502	36134.4
516.869	36830.88
517.237	36933.7
517.604	36934.38
517.972	37332.11
518.339	37676.28
518.706	37608.49
519.073	37871.76
519.44	38250.96
519.808	38572.53
520.175	38564.85
520.542	39160.31
520.909	39467.2
521.276	39627.19
521.643	39971.36
522.009	40317.8
522.376	40643.89
522.743	40896.54
523.11	41467.37
523.477	41895.16
523.843	42000.01
524.21	42376.27
524.577	42810.61
524.943	43001.12
525.31	43335.34
525.676	43508.45
526.043	43842
526.409	43977.59
526.776	44514.3
527.142	44580.51
527.508	44792.25
527.874	45119.7
528.241	45398.34
528.607	45349.3
528.973	45801.95
529.339	45822.74
529.705	46191.09
530.071	46379.78
530.437	46659.32
530.803	46898.19
531.169	46947.23
531.535	46904.74
531.901	47278.06
532.267	47334.33
532.632	47696.58
532.998	47828.78
533.364	48138.83
533.73	48221.54
534.095	48581.53
534.461	48738.59
534.826	49058.36
535.192	49187.85
535.557	49557.33
535.923	49518.01
536.288	49636.87
536.653	49993.02
537.019	49950.99
537.384	50232.79
537.749	50386.23
538.114	50430.52
538.479	50452.44
538.845	50714.36
539.21	50747.8
539.575	50847.46
539.94	51004.52
540.305	51195.7
540.67	51066.21
541.034	51282.93
541.399	51364.06
541.764	51461.46
542.129	51484.96
542.494	51555.69
542.858	51678.85
543.223	51710.04
543.587	52021.44
543.952	51877.49
544.316	51974.44
544.681	51982.35
545.045	52167.65
545.41	52366.29
545.774	52410.81
546.138	52592.05
546.503	52664.36
546.867	52807.18
547.231	53054.86
547.595	53058.48
547.959	53262.77
548.324	53368.98
548.688	53448.07
549.052	53632.47
549.416	53784.11
549.779	53897.1
550.143	53893.71
550.507	54134.16
550.871	54247.6
551.235	54220.03
551.599	54521.26
551.962	54608.49
552.326	54644.42
552.689	54815.04
553.053	54713.58
553.417	54812.56
553.78	55124.86
554.143	55001.48
554.507	55129.16
554.87	55216.61
555.234	55420
555.597	55293
555.96	55448.47
556.323	55513.1
556.686	55552.88
557.05	55680.78
557.413	55799.87
557.776	55859.53
558.139	56061.79
558.502	56034.9
558.865	56102.24
559.228	56374.1
559.59	56448.9
559.953	56539.29
560.316	56803.46
560.679	56806.63
561.041	57017.92
561.404	57132.49
561.767	57279.16
562.129	57238.25
562.492	57556.21
562.854	57576.33
563.217	57602.99
563.579	57745.59
563.941	57948.29
564.304	58041.85
564.666	58229.42
565.028	58313.48
565.39	58372.46
565.753	58565.9
566.115	58614.04
566.477	58703.53
566.839	58780.36
567.201	58929.96
567.563	58957.53
567.925	59134.7
568.287	59099
568.648	59129.05
569.01	59254.93
569.372	59392.32
569.734	59353.23
570.095	59508.7
570.457	59561.13
570.819	59635.71
571.18	59561.81
571.542	59809.49
571.903	59726.33
572.265	59776.04
572.626	59841.35
572.987	59870.95
573.349	59938.52
573.71	60054.68
574.071	60177.84
574.432	60201.11
574.794	60338.06
575.155	60301.23
575.516	60295.35
575.877	60388.91
576.238	60443.59
576.599	60595.23
576.96	60620.31
577.32	60703.93
577.681	60824.15
578.042	60897.14
578.403	60847.88
578.763	60885.16
579.124	60959.96
579.485	61058.95
579.845	61179.62
580.206	61169.45
580.566	61131.71
580.927	61152.73
581.287	61247.87
581.648	61151.82
582.008	61294.19
582.368	61232.73
582.728	61320.86
583.089	61251.26
583.449	61273.18
583.809	61222.1
584.169	61270.24
584.529	61209
584.889	61345.27
585.249	61194.76
585.609	61124.93
585.969	61281.76
586.329	61136.23
586.688	61176.23
587.048	61140.53
587.408	61065.5
587.768	61063.92
588.127	61063.47
588.487	61077.7
588.846	61228.88
589.206	61061.66
589.565	61009.23
589.925	61170.81
590.284	61126.29
590.643	61140.07
591.003	61228.66
591.362	61368.09
591.721	61320.63
592.08	61305.49
592.44	61399.95
592.799	61379.39
593.158	61294.65
593.517	61373.29
593.876	61390.24
594.235	61362.67
594.593	61405.6
594.952	61536.67
595.311	61448.54
595.67	61540.74
596.029	61647.4
596.387	61630.46
596.746	61710.91
597.104	61575.77
597.463	61546.62
597.822	61703.9
598.18	61592.49
598.538	61594.98
598.897	61726.27
599.255	61561.76
599.613	61864.8
599.972	61647.63
600.33	61660.51
600.688	61567.63
601.046	61645.37
601.404	61707.29
601.762	61671.58
602.12	61681.75
602.478	61731.02
602.836	61696.89
603.194	61551.81
603.552	61637.69
603.91	61472.27
604.268	61616.22
604.625	61580.51
604.983	61611.7
605.341	61570.12
605.698	61721.53
606.056	61730.79
606.413	61704.58
606.771	61760.85
607.128	61800.85
607.485	61720.85
607.843	61778.25
608.2	61890.56
608.557	62022.08
608.914	61958.58
609.272	62080.39
609.629	62165.13
609.986	62202.42
610.343	62121.52
610.7	62378.91
611.057	62335.75
611.414	62261.63
611.771	62282.64
612.127	62413.49
612.484	62399.93
612.841	62522.86
613.198	62411
613.554	62433.15
613.911	62634.95
614.267	62507.95
614.624	62526.7
614.98	62511.34
615.337	62640.15
615.693	62614.16
616.05	62544.56
616.406	62667.04
616.762	62566.02
617.118	62515.86
617.475	62558.11
617.831	62596.08
618.187	62617.55
618.543	62557.89
618.899	62674.5
619.255	62589.07
619.611	62517.66
619.967	62719.69
620.323	62639.69
620.678	62578.91
621.034	62516.53
621.39	62488.06
621.746	62456.2
622.101	62693.7
622.457	62482.41
622.812	62569.87
623.168	62615.06
623.523	62634.5
623.879	62712.24
624.234	62507.04
624.589	62605.57
624.945	62633.14
625.3	62746.36
625.655	62685.57
626.01	62649.19
626.365	62775.51
626.72	62749.3
627.075	62737.32
627.43	62736.42
627.785	62624.33
628.14	62693.48
628.495	62790.88
628.85	62763.31
629.205	62662.52
629.559	62859.12
629.914	62726.02
630.269	62702.29
630.623	62651.67
630.978	62622.97
631.332	62711.78
631.687	62718.34
632.041	62635.18
632.396	62721.5
632.75	62519.47
633.104	62569.87
633.459	62466.14
633.813	62453.26
634.167	62427.04
634.521	62373.94
634.875	62413.71
635.229	62343.43
635.583	62226.37
635.937	62206.71
636.291	62193.83
636.645	62111.12
636.999	62054.17
637.352	62082.87
637.706	61858.92
638.06	62010.56
638.413	61886.27
638.767	61864.12
639.121	61864.57
639.474	61718.36
639.828	61728.53
640.181	61741.87
640.534	61665.26
640.888	61637.91
641.241	61488.09
641.594	61485.6
641.947	61559.95
642.301	61544.58
642.654	61614.86
643.007	61545.94
643.36	61538.93
643.713	61529.22
644.066	61581.64
644.419	61403.12
644.771	61401.08
645.124	61084.71
645.477	61130.58
645.83	60917.93
646.182	60843.58
646.535	60734.89
646.888	60758.61
647.24	60686.07
647.593	60860.31
647.945	60817.6
648.298	60685.17
648.65	60649.01
649.002	60611.5
649.355	60670.71
649.707	60712.29
650.059	60718.84
650.411	60966.52
650.763	60993.18
651.115	61220.75
651.467	61173.74
651.819	61058.72
652.171	61029.12
652.523	60975.78
652.875	60926.07
653.227	60821.44
653.578	61014.43
653.93	60890.36
654.282	60745.73
654.633	60678.84
654.985	60737.15
655.337	60723.13
655.688	60639.52
656.039	60699.41
656.391	60455.57
656.742	60483.82
657.094	60507.32
657.445	60517.26
657.796	60502.58
658.147	60374.22
658.498	60395.01
658.849	60366.99
659.2	60309.59
659.551	60271.85
659.902	60298.51
660.253	60306.65
660.604	60335.35
660.955	60152.75
661.306	60246.31
661.656	60214
662.007	60256.25
662.358	60223.26
662.708	60176.48
663.059	60212.64
663.409	60134.45
663.76	60292.86
664.11	60292.64
664.461	60240.89
664.811	60301.68
665.161	60294.22
665.511	60243.6
665.862	60270.72
666.212	60285.63
666.562	60329.7
666.912	60274.56
667.262	60254.9
667.612	60251.28
667.962	60279.3
668.312	60221.45
668.662	60362.01
669.011	60248.12
669.361	60234.11
669.711	60187.33
670.06	60125.41
670.41	60173.77
670.76	60061.91
671.109	60198.85
671.459	60134.22
671.808	60011.06
672.157	60079.54
672.507	59843.16
672.856	59905.53
673.205	59864.17
673.554	59995.47
673.904	59845.19
674.253	59985.08
674.602	59891.52
674.951	59508.48
675.3	59298.09
675.649	59651.52
675.998	59662.6
676.346	59677.06
676.695	59720
677.044	59451.98
677.393	59511.87
677.741	59585.99
678.09	59443.62
678.438	59367.69
678.787	59430.51
679.135	59335.6
679.484	59145.32
679.832	59321.36
680.181	59095.38
680.529	59171.99
680.877	59062.16
681.225	59047.92
681.573	59198.2
681.922	59062.16
682.27	58973.35
682.618	58955.27
682.966	58884.77
683.314	58963.41
683.661	58884.77
684.009	58814.03
684.357	58753.92
684.705	58788.04
685.053	58765.67
685.4	58790.98
685.748	58630.08
686.095	58705.79
686.443	58552.57
686.79	58468.05
687.138	58642.51
687.485	58565.45
687.832	58427.6
688.18	58475.28
688.527	58362.97
688.874	58436.42
689.221	58333.82
689.568	58211.34
689.915	58142.64
690.262	58224.67
690.609	58126.14
690.956	58053.15
691.303	58019.7
691.65	57885.7
691.997	57870.33
692.344	57717.34
692.69	57701.52
693.037	57648.64
693.383	57417.91
693.73	57412.49
694.077	57341.98
694.423	57430.57
694.769	57292.94
695.116	57171.59
695.462	57121.42
695.808	57008.2
696.155	57072.84
696.501	56795.55
696.847	56763.69
697.193	56540.19
697.539	56652.06
697.885	56400.08
698.231	56250.94
698.577	56312.18
698.923	56200.77
699.269	56046.42
699.614	55967.55
699.96	55954.67
700.306	55908.35
700.651	55740.22
700.997	55583.84
701.342	55616.83
701.688	55506.1
702.033	55366.21
702.379	55421.13
702.724	55324.63
703.069	55334.12
703.415	55079.22
703.76	55093.45
704.105	54945.89
704.45	54940.46
704.795	54758.55
705.14	54677.64
705.485	54712.9
705.83	54590.19
706.175	54573.92
706.52	54461.83
706.865	54461.15
707.209	54436.29
707.554	54306.13
707.899	54464.32
708.243	54211.89
708.588	54225.68
708.932	54114.72
709.277	53989.53
709.621	54089.64
709.966	53940.71
710.31	53959.47
710.654	53653.72
710.998	53743.43
711.342	53773.71
711.687	53657.78
712.031	53614.85
712.375	53464.34
712.719	53548.18
713.063	53559.03
713.407	53502.08
713.75	53370.11
714.094	53360.16
714.438	53200.17
714.782	53276.1
715.125	52952.49
715.469	53052.6
715.812	52867.07
716.156	52714.08
716.499	52841.31
716.843	52775.1
717.186	52517.02
717.53	52652.16
717.873	52532.16
718.216	52431.83
718.559	52388.44
718.902	52058.73
719.246	52113.42
719.589	51919.3
719.932	51889.02
720.275	51806.76
720.617	51760.66
720.96	51616.48
721.303	51622.13
721.646	51595.92
721.989	51416.04
722.331	51328.35
722.674	51307.56
723.016	51182.59
723.359	51152.54
723.701	51126.1
724.044	50847.24
724.386	50628.03
724.729	50828.03
725.071	50651.54
725.413	50597.3
725.755	50654.25
726.097	50528.6
726.439	50317.98
726.782	50251.55
727.124	50443.86
727.465	50187.37
727.807	50129.52
728.149	50064.66
728.491	50053.36
728.833	50059.91
729.175	49903.53
729.516	49932.46
729.858	49827.83
730.199	49810.65
730.541	49783.31
730.882	49671.9
731.224	49880.93
731.565	49487.05
731.906	49590.32
732.248	49645.01
732.589	49397.11
732.93	49347.84
733.271	49455.63
733.612	49373.6
733.953	49515.52
734.294	49267.84
734.635	49141.52
734.976	49304.9
735.317	49228.07
735.658	49242.53
735.999	49189.43
736.339	49139.94
736.68	49265.81
737.021	49166.38
737.361	48862.2
737.702	49108.98
738.042	48941.07
738.383	48869.66
738.723	48870.79
739.063	48696.33
739.404	48730.23
739.744	48671.25
740.084	48371.6
740.424	48259.28
740.764	48258.6
741.104	48266.29
741.444	48003.24
741.784	48112.39
742.124	48003.02
742.464	47889.35
742.804	47753.76
743.143	47617.04
743.483	47566.42
743.823	47280.1
744.162	47376.59
744.502	47360.55
744.841	47109.48
745.181	47321.23
745.52	47049.82
745.86	46893.89
746.199	46858.41
746.538	46652.09
746.877	46943.16
747.216	46553.11
747.556	46375.04
747.895	46370.29
748.234	46157.87
748.573	46154.7
748.911	46184.31
749.25	46124.65
749.589	45863.41
749.928	45838.33
750.267	45810.98
750.605	45668.39
750.944	45636.07
751.283	45477.21
751.621	45455.51
751.96	45171.91
752.298	45171.91
752.636	45170.55
752.975	44858.24
753.313	44811.46
753.651	45020.27
753.989	44787.96
754.327	44614.41
754.666	44589.77
755.004	44538.93
755.342	44615.54
755.679	44622.77
756.017	44330.35
756.355	44367.41
756.693	44196.11
757.031	44220.52
757.368	43941.66
757.706	43759.29
758.044	43789.34
758.381	43937.14
758.719	43735.11
759.056	43699.18
759.394	43574.43
759.731	43325.63
760.068	43325.17
760.405	43074.56
760.743	42935.13
761.08	43275.46
761.417	42928.8
761.754	42775.81
762.091	42653.1
762.428	42477.06
762.765	42404.52
763.102	42586.89
763.438	42235.03
763.775	42084.3
764.112	42209.5
764.449	42067.58
764.785	41861.48
765.122	41662.39
765.458	41550.08
765.795	41408.16
766.131	41438.22
766.467	41220.82
766.804	41070.77
767.14	40799.37
767.476	40634.62
767.812	40625.36
768.148	40578.35
768.485	40333.84
768.821	40075.09
769.157	40102.21
769.492	39782.44
769.828	39782.22
770.164	39410.25
770.5	39379.97
770.836	39230.37
771.171	39055
771.507	38814.33
771.842	38601.68
772.178	38621.8
772.513	38449.82
772.849	38182.48
773.184	38130.06
773.519	38022.49
773.855	37776.85
774.19	37746.56
774.525	37403.97
774.86	37413.24
775.195	37377.76
775.53	36954.04
775.865	36727.38
776.2	36665.46
776.535	36327.84
776.87	36325.81
777.205	36088.53
777.539	36186.15
777.874	36226.15
778.209	35796.56
778.543	35738.71
778.878	35480.41
779.212	35418.26
779.547	35264.37
779.881	35363.8
780.215	35112.96
780.55	35129.91
780.884	34900.09
781.218	34807.88
781.552	34841.33
781.886	34494.67
782.22	34569.25
782.554	34350.72
782.888	33983.05
783.222	33935.59
783.556	33826.44
783.889	33866.89
784.223	33464.19
784.557	33633.23
784.89	33523.4
785.224	33446.56
785.557	33222.16
785.891	33144.43
786.224	33040.02
786.558	33136.29
786.891	32724.32
787.224	32657.66
787.557	32680.93
787.891	32610.88
788.224	32506.7
788.557	32586.7
788.89	32475.29
789.223	32295.63
789.556	32172.25
789.888	32046.37
790.221	31997.34
790.554	31665.14
790.887	31772.71
791.219	31527.29
791.552	31459.95
791.884	31408.2
792.217	31233.97
792.549	31182.44
792.882	31029
793.214	30930.47
793.546	30967.53
793.879	30698.84
794.211	30554.44
794.543	30565.06
794.875	30524.61
795.207	30545.62
795.539	30292.07
795.871	30158.06
796.203	29891.63
796.535	29697.74
796.867	29606.44
797.198	29636.72
797.53	29650.28
797.862	29308.14
798.193	29317.41
798.525	29234.92
798.856	29140.01
799.188	28866.35
799.519	28783.41
799.85	28602.17
800.182	28497.32
800.513	28624.54
800.844	28221.84
801.175	28351.56
801.506	28312.91
801.837	28174.84
802.168	27977.78
802.499	27771.23
802.83	27619.15
803.161	27577.11
803.491	27580.73
803.822	27455.08
804.153	27352.26
804.483	27190.23
804.814	27072.72
805.145	27025.72
805.475	26997.02
805.805	26811.03
806.136	26956.11
806.466	26791.6
806.796	26682.22
807.126	26435.9
807.457	26479.97
807.787	26500.76
808.117	26296.47
808.447	26092.63
808.777	26329.46
809.107	26164.27
809.436	26136.7
809.766	25995.01
810.096	26018.96
810.426	25749.59
810.755	25849.48
811.085	25710.5
811.414	25702.59
811.744	25478.19
812.073	25495.81
812.403	25450.84
812.732	25430.96
813.061	25423.95
813.39	25216.95
813.719	25134.47
814.049	25396.83
814.378	25155.93
814.707	25167.91
815.036	25070.29
815.365	24967.24
815.693	24836.39
816.022	24909.61
816.351	24786.45
816.68	24688.83
817.008	24798.43
817.337	24591.2
817.665	24524.31
817.994	24647.02
818.322	24564.99
818.651	24492
818.979	24348.05
819.307	24437.31
819.636	24413.81
819.964	24200.25
820.292	24356.41
820.62	24283.87
820.948	24315.73
821.276	24429.17
821.604	24331.1
821.932	24290.42
822.259	24404.09
822.587	24306.47
822.915	24191.21
823.243	24292.45
823.57	24157.54
823.898	24216.98
824.225	24043.2
824.553	24030.09
824.88	24035.51
825.207	24107.83
825.535	24058.56
825.862	24165.9
826.189	24122.06
826.516	24168.62
826.843	24147.6
827.17	24079.35
827.497	24089.3
827.824	24167.71
828.151	24161.38
828.478	24138.56
828.805	24118
829.131	23913.03
829.458	23971.56
829.785	23830.09
830.111	23947.6
830.438	23966.36
830.764	23831.45
831.09	23946.02
831.417	23804.78
831.743	23896.31
832.069	23773.15
832.395	23631.45
832.722	23727.27
833.048	23600.95
833.374	23741.96
833.7	23500.16
834.026	23536.32
834.351	23469.43
834.677	23521.85
835.003	23536.77
835.329	23479.82
835.654	23334.97
835.98	23178.13
836.306	23193.27
836.631	23160.28
836.956	23335.42
837.282	23232.6
837.607	23106.5
837.932	23025.37
838.258	23052.26
838.583	22948.76
838.908	22922.55
839.233	22989.89
839.558	22904.92
839.883	22854.07
840.208	22723.46
840.533	22761.65
840.858	22772.49
841.182	22702.67
841.507	22647.98
841.832	22535.89
842.156	22563.46
842.481	22626.28
842.805	22482.33
843.13	22446.18
843.454	22471.71
843.778	22366.18
844.103	22374.09
844.427	22313.98
844.751	22316.69
845.075	22236.24
845.399	22274.65
845.723	22232.17
846.047	22201.66
846.371	21968.22
846.695	21972.74
847.019	21803.03
847.343	21723.93
847.666	21646.42
847.99	21542.24
848.313	21556.93
848.637	21471.29
848.96	21389.48
849.284	21370.27
849.607	21261.8
849.931	21188.36
850.254	21094.8
850.577	20901.13
850.9	20774.13
851.223	20909.49
851.546	20746.56
851.869	20625.66
852.192	20820.68
852.515	20569.84
852.838	20514.25
853.161	20602.61
853.483	20370.52
853.806	20384.53
854.129	20347.02
854.451	20290.3
854.774	20226.8
855.096	20246.69
855.419	19974.38
855.741	20066.58
856.063	19938.9
856.385	19876.53
856.708	19883.53
857.03	19793.36
857.352	19714.95
857.674	19634.72
857.996	19566.25
858.318	19519.92
858.64	19554.73
858.961	19505.69
859.283	19295.07
859.605	19195.41
859.926	19241.29
860.248	19259.37
860.57	19135.75
860.891	19147.96
861.212	19087.17
861.534	18991.8
861.855	18888.08
862.176	18910.68
862.498	18949.54
862.819	18850.79
863.14	18769.21
863.461	18717.46
863.782	18761.07
864.103	18648.54
864.424	18544.36
864.745	18617.58
865.065	18397.47
865.386	18378.49
865.707	18358.83
866.027	18380.97
866.348	18283.57
866.668	18358.37
866.989	18292.84
867.309	18027.99
867.63	18110.7
867.95	18131.71
868.27	17966.52
868.59	18032.28
868.91	17955.22
869.23	18016.01
869.55	17860.99
869.87	17940.53
870.19	17919.51
870.51	17856.01
870.83	17797.71
871.15	17782.57
871.469	17766.3
871.789	17752.51
872.109	17673.87
872.428	17621.67
872.748	17773.76
873.067	17569.47
873.386	17528.56
873.706	17586.87
874.025	17533.54
874.344	17461.9
874.663	17540.32
874.982	17459.64
875.301	17505.06
875.62	17506.19
875.939	17383.71
876.258	17445.63
876.577	17338.74
876.896	17419.87
877.214	17310.49
877.533	17283.6
877.852	17237.05
878.17	17315.24
878.489	17346.2
878.807	17273.66
879.125	17341.68
879.444	17192.3
879.762	17138.97
880.08	17169.25
880.398	17113.66
880.716	17217.84
881.034	17139.2
881.352	17150.5
881.67	17031.85
881.988	17073.21
882.306	17101.68
882.624	17028.46
882.941	16948.69
883.259	16937.62
883.577	16944.85
883.894	16854.23
884.212	16885.87
884.529	16831.18
884.846	16802.03
885.164	16773.1
885.481	16769.04
885.798	16830.73
886.115	16659.66
886.432	16764.52
886.75	16619.21
887.067	16622.15
887.383	16623.73
887.7	16651.98
888.017	16509.61
888.334	16613.11
888.651	16528.59
888.967	16510.29
889.284	16398.65
889.6	16397.07
889.917	16194.14
890.233	16302.83
890.55	16274.36
890.866	16231.88
891.182	16279.11
891.498	16158.43
891.815	16160.69
892.131	16128.15
892.447	16075.72
892.763	15927.02
893.079	15945.78
893.395	15850.87
893.71	15804.77
894.026	15755.05
894.342	15717.76
894.657	15651.78
894.973	15541.27
895.289	15524.78
895.604	15498.34
895.92	15397.77
896.235	15400.48
896.55	15365.46
896.865	15325.46
897.181	15239.36
897.496	15233.71
897.811	15132.92
898.126	15094.96
898.441	15021.29
898.756	15010.89
899.071	14875.07
899.386	14965.47
899.7	14713.27
900.015	14648.87
900.33	14636.66
900.644	14573.39
900.959	14620.62
901.273	14488.87
901.588	14394.41
901.902	14307.41
902.216	14272.6
902.531	14187.86
902.845	14176.11
903.159	14131.14
903.473	14104.93
903.787	14028.09
904.101	13903.58
904.415	13980.41
904.729	13829.68
905.042	13751.71
905.356	13818.83
905.67	13685.95
905.984	13655.45
906.297	13616.13
906.611	13545.62
906.924	13534.77
907.237	13484.15
907.551	13393.31
907.864	13337.71
908.177	13308.11
908.491	13208.68
908.804	13235.34
909.117	13084.61
909.43	12989.93
909.743	13004.62
910.056	12930.27
910.368	12915.58
910.681	12747.45
910.994	12738.86
911.307	12754.68
911.619	12666.32
911.932	12731.85
912.244	12554.46
912.557	12628.81
912.869	12556.04
913.181	12509.71
913.494	12474.91
913.806	12305.2
914.118	12319.21
914.43	12319.66
914.742	12287.12
915.054	12339.32
915.366	12228.59
915.678	12086.22
915.99	12122.83
916.302	12059.78
916.613	12031.99
916.925	11996.28
917.236	11996.73
917.548	11853.23
917.859	11930.75
918.171	11839.67
918.482	11712.9
918.794	11685.78
919.105	11750.19
919.416	11648.49
919.727	11673.35
920.038	11653.92
920.349	11527.14
920.66	11472.23
920.971	11482.4
921.282	11396.07
921.593	11306.36
921.903	11313.81
922.214	11194.49
922.525	11241.5
922.835	11173.03
923.146	11180.03
923.456	11074.5
923.767	11034.72
924.077	11038.11
924.387	10981.62
924.697	10927.16
925.008	10883.09
925.318	10946.82
925.628	10964.22
925.938	10903.2
926.248	10751.57
926.558	10814.84
926.867	10723.77
927.177	10648.52
927.487	10604.9
927.796	10632.7
928.106	10501.86
928.416	10558.35
928.725	10577.79
929.034	10432.71
929.344	10451.01
929.653	10433.84
929.962	10247.4
930.271	10224.58
930.581	10227.51
930.89	10159.72
931.199	10076.78
931.508	10096.44
931.817	10090.57
932.125	10020.51
932.434	9936.45
932.743	9897.8
933.051	9861.87
933.36	9794.76
933.669	9664.36
933.977	9657.59
934.286	9721.09
934.594	9710.24
934.902	9552.96
935.21	9547.76
935.519	9504.14
935.827	9502.11
936.135	9499.17
936.443	9316.13
936.751	9271.61
937.059	9265.28
937.367	9178.28
937.674	9153.64
937.982	9072.74
938.29	9026.19
938.597	9069.58
938.905	8923.82
939.213	8938.51
939.52	8858.74
939.827	8910.94
940.135	8753.43
940.442	8832.97
940.749	8775.8
941.056	8720.66
941.363	8620.55
941.67	8622.81
941.977	8598.4
942.284	8492.87
942.591	8455.13
942.898	8463.27
943.205	8450.84
943.511	8341.46
943.818	8286.1
944.125	8268.24
944.431	8263.72
944.738	8228.02
945.044	8180.34
945.35	8124.52
945.657	8062.37
945.963	8035.03
946.269	8039.32
946.575	8016.72
946.881	7924.52
947.187	7873.68
947.493	7839.33
947.799	7866.67
948.105	7793.23
948.41	7717.52
948.716	7753.23
949.022	7713.91
949.327	7690.18
949.633	7598.43
949.938	7593.01
950.244	7553.01
950.549	7438.89
950.854	7471.88
951.16	7413.58
951.465	7393.46
951.77	7406.12
952.075	7350.75
952.38	7294.48
952.685	7346.91
952.99	7242.06
953.294	7221.94
953.599	7148.5
953.904	7149.4
954.209	7063.53
954.513	7113.02
954.818	7085.9
955.122	7061.72
955.426	7038.44
955.731	6965
956.035	7001.61
956.339	6945.11
956.643	6946.47
956.948	6880.03
957.252	6825.57
957.556	6854.95
957.86	6868.73
958.163	6805
958.467	6767.49
958.771	6726.14
959.075	6709.41
959.378	6673.26
959.682	6695.18
959.985	6648.62
960.289	6564.33
960.592	6594.61
960.896	6557.78
961.199	6531.11
961.502	6522.53
961.805	6430.1
962.108	6449.99
962.411	6452.92
962.714	6402.53
963.017	6385.13
963.32	6431.46
963.623	6357.78
963.926	6355.75
964.228	6321.85
964.531	6340.16
964.833	6235.08
965.136	6178.13
965.438	6169.09
965.741	6176.32
966.043	6152.82
966.345	6120.73
966.648	6022.2
966.95	6102.42
967.252	6055.19
967.554	6033.73
967.856	6034.86
968.158	5942.65
968.46	5980.62
968.761	5923.22
969.063	5878.25
969.365	5880.06
969.666	5906.95
969.968	5815.65
970.269	5846.61
970.571	5791.92
970.872	5779.49
971.174	5716.45
971.475	5700.17
971.776	5743.56
972.077	5643
972.378	5624.7
972.679	5623.34
972.98	5609.33
973.281	5568.65
973.582	5538.15
973.883	5540.18
974.183	5464.47
974.484	5461.31
974.785	5412.72
975.085	5410.69
975.386	5403.69
975.686	5357.36
975.986	5327.08
976.287	5316.46
976.587	5228.1
976.887	5212.96
977.187	5240.75
977.487	5219.74
977.787	5164.6
978.087	5132.96
978.387	5116.01
978.687	5103.35
978.987	5121.21
979.286	5037.14
979.586	5020.64
979.885	5000.53
980.185	4985.84
980.484	4943.13
980.784	4900.42
981.083	4906.98
981.382	4929.57
981.682	4855
981.981	4824.94
982.28	4865.62
982.579	4786.75
982.878	4801.22
983.177	4743.36
983.475	4704.27
983.774	4640.09
984.073	4656.36
984.372	4591.96
984.67	4625.17
984.969	4573.65
985.267	4570.49
985.566	4516.93
985.864	4540.66
986.162	4493.88
986.461	4455.91
986.759	4416.37
987.057	4351.74
987.355	4378.85
987.653	4405.97
987.951	4356.03
988.249	4334.11
988.547	4294.34
988.844	4321.91
989.142	4270.61
989.44	4208.01
989.737	4210.27
990.035	4210.72
990.332	4151.97
990.63	4170.5
990.927	4148.35
991.224	4097.51
991.521	4132.31
991.819	4058.41
992.116	4080.56
992.413	4027.45
992.71	3995.14
993.006	4008.02
993.303	3934.8
993.6	3939.54
993.897	3932.76
994.193	3934.35
994.49	3908.81
994.787	3883.27
995.083	3852.99
995.379	3850.96
995.676	3770.06
995.972	3796.04
996.268	3784.29
996.565	3741.13
996.861	3743.16
997.157	3716.5
997.453	3740
997.749	3706.33
998.044	3676.5
998.34	3697.06
998.636	3621.36
998.932	3607.57
999.227	3582.72
999.523	3557.63
999.818	3574.58
1000.114	3564.64
1000.409	3515.15
1000.704	3451.19
1001	3485.54
1001.295	3436.51
1001.59	3468.37
1001.885	3459.33
1002.18	3361.93
1002.475	3411.87
1002.77	3397.64
1003.065	3349.95
1003.359	3324.19
1003.654	3312.44
1003.949	3322.61
1004.243	3268.83
1004.538	3242.16
1004.832	3250.97
1005.127	3245.55
1005.421	3211.88
1005.715	3173.69
1006.009	3180.92
1006.304	3170.98
1006.598	3178.21
1006.892	3171.88
1007.186	3062.05
1007.48	3115.38
1007.773	3094.14
1008.067	3076.06
1008.361	3022.28
1008.655	3033.58
1008.948	2990.64
1009.242	3036.97
1009.535	2990.87
1009.829	2991.09
1010.122	2928.04
1010.415	2933.02
1010.708	2919.91
1011.001	2872.45
1011.295	2873.36
1011.588	2854.37
1011.881	2834.71
1012.173	2880.81
1012.466	2798.56
1012.759	2838.1
1013.052	2799.46
1013.344	2786.35
1013.637	2775.05
1013.93	2742.96
1014.222	2718.56
1014.514	2673.81
1014.807	2681.5
1015.099	2644.44
1015.391	2692.8
1015.683	2628.39
1015.976	2605.79
1016.268	2591.56
1016.56	2596.08
1016.851	2575.74
1017.143	2558.79
1017.435	2559.01
1017.727	2524.67
1018.018	2520.15
1018.31	2493.25
1018.602	2466.59
1018.893	2442.18
1019.185	2420.94
1019.476	2441.05
1019.767	2419.81
1020.058	2376.65
1020.35	2411.67
1020.641	2379.13
1020.932	2311.34
1021.223	2305.91
1021.514	2275.63
1021.804	2288.74
1022.095	2270.89
1022.386	2276.76
1022.677	2239.02
1022.967	2214.39
1023.258	2187.27
1023.548	2190.89
1023.839	2166.26
1024.129	2179.82
1024.419	2142.08
1024.709	2124.45
1025	2098.24
1025.29	2077.9
1025.58	2049.2
1025.87	2034.96
1026.16	2038.58
1026.449	2026.6
1026.739	1999.48
1027.029	1995.41
1027.319	1972.14
1027.608	1959.71
1027.898	1918.58
1028.187	1951.12
1028.477	1914.29
1028.766	1871.8
1029.055	1862.08
1029.344	1894.63
1029.634	1830.45
1029.923	1830.22
1030.212	1833.38
1030.501	1772.82
1030.79	1804.23
1031.078	1763.78
1031.367	1769.2
1031.656	1734.63
1031.945	1719.49
1032.233	1737.79
1032.522	1695.76
1032.81	1693.5
1033.099	1717.68
1033.387	1661.64
1033.675	1657.12
1033.963	1650.11
1034.251	1668.64
1034.54	1624.58
1034.828	1601.07
1035.116	1644.01
1035.403	1590
1035.691	1551.81
1035.979	1561.75
1036.267	1568.98
1036.554	1518.36
1036.842	1535.09
1037.129	1504.35
1037.417	1509.1
1037.704	1493.73
1037.992	1471.59
1038.279	1466.16
1038.566	1461.87
1038.853	1461.87
1039.14	1461.87
