Data from aluminium_surface_pro_back_FLMS001491_00072.txt Node
Date: Wed Feb 08 15:34:31 GMT 2017
User: dcchb
Spectrometer: FLMS00149
Trigger mode: 0
Integration Time (sec): 2.000000E-2
Scans to average: 10
Electric dark correction enabled: true
Nonlinearity correction enabled: false
Boxcar width: 0
XAxis mode: Wavelengths
Number of Pixels in Spectrum: 2048
>>>>>Begin Spectral Data<<<<<
341.393	7.5
341.776	7.5
342.16	7.5
342.543	-71.59
342.927	-66.4
343.31	-64.59
343.693	-62.1
344.077	-67.07
344.46	-48.32
344.843	-44.93
345.226	-54.19
345.61	-14.19
345.993	-19.39
346.376	-20.52
346.759	-5.61
347.142	28.06
347.525	57.89
347.908	60.61
348.291	76.88
348.674	83.66
349.057	93.83
349.44	136.76
349.823	143.99
350.206	162.52
350.588	211.11
350.971	244.78
351.354	247.27
351.737	277.32
352.119	286.81
352.502	297.44
352.884	327.94
353.267	314.84
353.65	343.08
354.032	350.32
354.414	353.48
354.797	348.51
355.179	366.36
355.562	370.43
355.944	375.17
356.326	362.07
356.709	365
357.091	380.37
357.473	379.69
357.855	352.58
358.238	361.16
358.62	390.31
359.002	390.09
359.384	387.15
359.766	394.16
360.148	394.16
360.53	361.39
360.912	381.73
361.294	370.88
361.676	377.66
362.057	385.34
362.439	362.97
362.821	374.72
363.203	376.76
363.584	375.17
363.966	375.63
364.348	390.31
364.729	383.31
365.111	374.5
365.493	365.23
365.874	358.68
366.256	394.61
366.637	367.04
367.019	367.94
367.4	378.56
367.781	358
368.163	363.42
368.544	369.07
368.925	365.46
369.306	385.57
369.688	390.09
370.069	373.14
370.45	376.76
370.831	384.67
371.212	369.3
371.593	379.92
371.974	367.26
372.355	382.18
372.736	379.47
373.117	392.12
373.498	402.29
373.879	390.54
374.26	390.99
374.641	387.38
375.021	398.45
375.402	388.28
375.783	397.32
376.163	445.45
376.544	433.7
376.925	414.72
377.305	439.35
377.686	422.86
378.066	436.64
378.447	414.72
378.827	433.93
379.208	440.48
379.588	434.83
379.968	444.1
380.349	450.65
380.729	440.71
381.109	445
381.489	456.75
381.87	465.57
382.25	458.79
382.63	485.91
383.01	486.13
383.39	479.58
383.77	469.86
384.15	483.42
384.53	492.91
384.91	511.67
385.29	513.48
385.67	500.37
386.049	526.36
386.429	508.5
386.809	514.83
387.189	509.41
387.568	531.1
387.948	509.86
388.328	541.5
388.707	542.85
389.087	525.9
389.466	573.81
389.846	544.66
390.225	566.13
390.605	590.31
390.984	572.68
391.363	585.34
391.743	580.59
392.122	605.68
392.501	628.5
392.881	610.2
393.26	641.38
393.639	603.87
394.018	629.18
394.397	641.83
394.776	648.84
395.155	651.1
395.534	646.81
395.913	661.49
396.292	675.05
396.671	680.93
397.05	689.06
397.429	681.15
397.808	684.32
398.186	709.85
398.565	710.31
398.944	717.76
399.323	697.2
399.701	726.8
400.08	736.75
400.458	756.41
400.837	735.84
401.215	765.22
401.594	768.16
401.972	791.43
402.351	777.65
402.729	797.99
403.107	808.16
403.486	804.54
403.864	828.27
404.242	825.56
404.62	846.35
404.999	839.79
405.377	857.65
405.755	869.17
406.133	891.32
406.511	937.64
406.889	897.19
407.267	917.31
407.645	945.33
408.023	954.14
408.401	933.13
408.779	948.94
409.156	989.17
409.534	979.23
409.912	1021.71
410.29	1038.89
410.667	1021.03
411.045	1047.47
411.422	1076.85
411.8	1060.35
412.178	1075.95
412.555	1113.69
412.933	1104.65
413.31	1131.31
413.687	1150.07
414.065	1180.12
414.442	1151.88
414.819	1178.09
415.197	1203.85
415.574	1218.99
415.951	1222.38
416.328	1237.75
416.705	1243.17
417.082	1258.09
417.46	1272.33
417.837	1274.81
418.214	1327.24
418.591	1324.08
418.967	1346.45
419.344	1361.14
419.721	1393.23
420.098	1366.56
420.475	1376.05
420.852	1403.4
421.228	1409.95
421.605	1395.71
421.982	1439.55
422.358	1437.07
422.735	1481.13
423.111	1483.62
423.488	1496.5
423.864	1521.81
424.241	1537.86
424.617	1551.87
424.994	1555.26
425.37	1574.01
425.746	1572.43
426.123	1593.9
426.499	1620.56
426.875	1669.6
427.251	1681.81
427.627	1721.35
428.003	1720
428.379	1732.88
428.756	1756.15
429.132	1792.09
429.507	1818.53
429.883	1800.67
430.259	1868.69
430.635	1874.57
431.011	1898.07
431.387	1945.3
431.763	1949.37
432.138	1937.39
432.514	2002.02
432.89	2014
433.265	2073.43
433.641	2081.12
434.016	2093.09
434.392	2130.16
434.767	2182.81
435.143	2194.56
435.518	2219.19
435.894	2237.95
436.269	2263.49
436.644	2320.21
437.02	2326.08
437.395	2327.66
437.77	2363.37
438.145	2387.78
438.52	2418.06
438.895	2456.7
439.271	2442.46
439.646	2532.41
440.021	2550.48
440.395	2511.39
440.77	2537.38
441.145	2560.2
441.52	2611.73
441.895	2645.17
442.27	2604.04
442.645	2657.15
443.019	2688.11
443.394	2689.24
443.769	2773.98
444.143	2709.35
444.518	2786.86
444.892	2773.3
445.267	2776.69
445.641	2833.64
446.016	2842.91
446.39	2822.12
446.764	2849.46
447.139	2885.39
447.513	2956.57
447.887	2962
448.262	2960.87
448.636	2940.98
449.01	2991.38
449.384	3059.4
449.758	3068.21
450.132	3071.15
450.506	3152.73
450.88	3150.24
451.254	3138.26
451.628	3190.47
452.002	3226.62
452.376	3228.66
452.75	3269.33
453.123	3341.42
453.497	3385.49
453.871	3385.72
454.244	3485.83
454.618	3518.14
454.992	3529.22
455.365	3520.63
455.739	3624.35
456.112	3631.81
456.486	3663
456.859	3751.81
457.232	3789.55
457.606	3837.46
457.979	3860.28
458.352	3949.32
458.725	3975.98
459.099	4039.26
459.472	4108.86
459.845	4125.13
460.218	4203.1
460.591	4185.02
460.964	4225.02
461.337	4363.09
461.71	4432.24
462.083	4455.52
462.456	4440.6
462.829	4502.97
463.201	4560.83
463.574	4599.92
463.947	4710.65
464.32	4790.65
464.692	4810.09
465.065	4819.58
465.438	4922.62
465.81	5022.96
466.183	5024.32
466.555	5171.43
466.928	5200.81
467.3	5196.97
467.672	5300.92
468.045	5438.32
468.417	5453.91
468.789	5511.31
469.161	5549.05
469.534	5700.91
469.906	5748.82
470.278	5870.4
470.65	5886.44
471.022	5992.2
471.394	6050.73
471.766	6060.45
472.138	6222.7
472.51	6357.39
472.882	6475.58
473.253	6541.57
473.625	6534.79
473.997	6776.14
474.369	6851.16
474.74	6884.38
475.112	7024.49
475.484	7149.01
475.855	7254.09
476.227	7401.43
476.598	7551.03
476.97	7600.29
477.341	7760.06
477.713	7896.33
478.084	8031.47
478.455	8170
478.827	8257
479.198	8457.22
479.569	8486.37
479.94	8836.65
480.311	8825.35
480.682	9041.61
481.053	9259.91
481.424	9405.9
481.795	9472.79
482.166	9631.65
482.537	9668.71
482.908	9931.53
483.279	9992.1
483.65	10249.04
484.021	10410.39
484.391	10569.93
484.762	10714.79
485.133	10746.2
485.503	10914.56
485.874	11220.31
486.244	11235.23
486.615	11528.55
486.985	11689
487.356	11833.18
487.726	12007.64
488.097	12232.94
488.467	12303.45
488.837	12474.29
489.207	12659.6
489.578	12844.9
489.948	12949.98
490.318	13196.08
490.688	13260.26
491.058	13434.94
491.428	13672
491.798	13695.28
492.168	14041.26
492.538	14122.61
492.908	14213
493.278	14484.86
493.648	14513.11
494.017	14690.28
494.387	14708.13
494.757	15035.58
495.126	15102.24
495.496	15182.69
495.866	15317.38
496.235	15437.38
496.605	15579.75
496.974	15665.17
497.344	15913.97
497.713	16013.41
498.082	16115.32
498.452	16379.5
498.821	16413.4
499.19	16465.37
499.559	16717.12
499.928	16788.3
500.298	16892.71
500.667	17093.6
501.036	17042.31
501.405	17348.29
501.774	17340.38
502.143	17494.05
502.512	17687.94
502.88	17772.91
503.249	17819.23
503.618	17953.69
503.987	18030.3
504.356	18257.64
504.724	18323.63
505.093	18397.3
505.462	18450.18
505.83	18676.61
506.199	18783.5
506.567	19050.16
506.936	19143.27
507.304	19240.67
507.672	19455.58
508.041	19454.45
508.409	19651.96
508.777	19869.58
509.145	19985.73
509.514	19916.13
509.882	20245.16
510.25	20220.98
510.618	20376
510.986	20555.21
511.354	20816.22
511.722	20947.97
512.09	21057.12
512.458	21078.13
512.826	21381.63
513.193	21379.14
513.561	21643.99
513.929	21793.14
514.297	21938.45
514.664	22143.19
515.032	22439.23
515.4	22463.18
515.767	22627.47
516.135	22850.51
516.502	22682.16
516.869	23195.59
517.237	23279.88
517.604	23310.62
517.972	23694.11
518.339	23716.48
518.706	23887.78
519.073	24018.62
519.44	24191.27
519.808	24389.91
520.175	24472.62
520.542	24850.01
520.909	25019.5
521.276	25177.23
521.643	25309.43
522.009	25541.07
522.376	25757.56
522.743	25880.49
523.11	26147.15
523.477	26430.31
523.843	26603.64
524.21	26898.09
524.577	27066
524.943	27227.58
525.31	27458.08
525.676	27760.67
526.043	27986.43
526.409	28095.35
526.776	28312.74
527.142	28377.83
527.508	28599.06
527.874	28763.81
528.241	28983.24
528.607	28934.87
528.973	29292.15
529.339	29169.67
529.705	29740.28
530.071	29945.7
530.437	29960.61
530.803	30137.56
531.169	30340.71
531.535	30402.41
531.901	30617.77
532.267	30748.61
532.632	30952.45
532.998	31025.22
533.364	31264.53
533.73	31398.31
534.095	31466.11
534.461	31691.64
534.826	31932.31
535.192	32152.64
535.557	32311.96
535.923	32285.07
536.288	32406.42
536.653	32633.08
537.019	32572.07
537.384	32846.64
537.749	32963.92
538.114	33071.04
538.479	33135.67
538.845	33344.48
539.21	33360.3
539.575	33483.46
539.94	33666.5
540.305	33806.16
540.67	33804.58
541.034	33883.9
541.399	34152.36
541.764	34235.07
542.129	34286.15
542.494	34506.93
542.858	34547.38
543.223	34660.6
543.587	34913.93
543.952	34799.13
544.316	35047.26
544.681	35002.96
545.045	35269.4
545.41	35468.26
545.774	35402.73
546.138	35691.99
546.503	35689.05
546.867	35753.9
547.231	36116.83
547.595	36056.95
547.959	36261.24
548.324	36289.26
548.688	36416.26
549.052	36546.65
549.416	36589.59
549.779	36812.63
550.143	36836.36
550.507	37045.4
550.871	37169.01
551.235	37184.6
551.599	37416.46
551.962	37483.58
552.326	37717.02
552.689	37887.18
553.053	37751.37
553.417	37951.13
553.78	38441.07
554.143	38204.91
554.507	38558.12
554.87	38735.97
555.234	38910.43
555.597	38879.7
555.96	39114.49
556.323	39254.15
556.686	39257.99
557.05	39551.09
557.413	39664.54
557.776	39806.68
558.139	40116.28
558.502	40271.07
558.865	40334.35
559.228	40702.25
559.59	40839.42
559.953	40831.74
560.316	41265.62
560.679	41236.47
561.041	41487.31
561.404	41774.09
561.767	42046.39
562.129	41854.76
562.492	42339.49
562.854	42380.85
563.217	42367.06
563.579	42647.51
563.941	42763.21
564.304	43131.11
564.666	43481.16
565.028	43556.64
565.39	43576.07
565.753	43888.38
566.115	44138.99
566.477	44423.06
566.839	44481.58
567.201	44716.15
567.563	44725.19
567.925	45181.68
568.287	45093.09
568.648	45242.69
569.01	45462.8
569.372	45797.03
569.734	45774.43
570.095	46072.28
570.457	46209.22
570.819	46315.43
571.18	46402.89
571.542	46667.29
571.903	46857.34
572.265	46985.93
572.626	47104.79
572.987	47160.38
573.349	47250.33
573.71	47405.12
574.071	47577.55
574.432	47692.12
574.794	47977.54
575.155	47980.93
575.516	47846.92
575.877	48117.87
576.238	48182.96
576.599	48436.06
576.96	48427.92
577.32	48456.62
577.681	48696.62
578.042	48746.33
578.403	48749.72
578.763	48758.31
579.124	49070.39
579.485	49058.19
579.845	49290.27
580.206	49209.37
580.566	49244.17
580.927	49374.11
581.287	49513.99
581.648	49455.01
582.008	49679.87
582.368	49514.22
582.728	49608.68
583.089	49506.99
583.449	49616.82
583.809	49643.48
584.169	49779.75
584.529	49648
584.889	50011.16
585.249	49628.12
585.609	49749.69
585.969	49889.8
586.329	49835.12
586.688	49870.82
587.048	49832.18
587.408	49742.01
587.768	49820.88
588.127	49809.81
588.487	49817.04
588.846	50034.88
589.206	49925.28
589.565	49850.48
589.925	50123.92
590.284	49975.68
590.643	50092.51
591.003	50152.4
591.362	50222.68
591.721	50025.62
592.08	50215.22
592.44	50219.06
592.799	50262.68
593.158	50221.55
593.517	50113.75
593.876	50323.24
594.235	50220.42
594.593	50212.73
594.952	50320.08
595.311	50273.75
595.67	50284.82
596.029	50438.94
596.387	50463.57
596.746	50565.04
597.104	50432.61
597.463	50282.79
597.822	50619.5
598.18	50409.56
598.538	50386.51
598.897	50729.33
599.255	50350.81
599.613	50902.88
599.972	50696.34
600.33	50732.95
600.688	50608.43
601.046	50799.38
601.404	50835.99
601.762	50851.36
602.12	51095.65
602.478	51010.9
602.836	51088.19
603.194	50935.43
603.552	50864.24
603.91	50827.86
604.268	51059.26
604.625	50882.09
604.983	51107.63
605.341	50877.12
605.698	51237.57
606.056	51159.15
606.413	51082.99
606.771	51260.39
607.128	51165.93
607.485	51068.08
607.843	51150.11
608.2	51306.72
608.557	51362.76
608.914	51265.36
609.272	51464.23
609.629	51468.97
609.986	51578.8
610.343	51389.2
610.7	51662.19
611.057	51475.3
611.414	51541.74
611.771	51571.79
612.127	51678.46
612.484	51713.03
612.841	51743.99
613.198	51703.77
613.554	51734.73
613.911	51909.41
614.267	51749.19
614.624	51821.5
614.98	51837.1
615.337	51930.65
615.693	51899.47
616.05	51818.34
616.406	52120.48
616.762	51899.02
617.118	51899.69
617.475	51908.96
617.831	51971.11
618.187	52112.34
618.543	52157.32
618.899	52216.75
619.255	52274.83
619.611	52294.49
619.967	52343.52
620.323	52344.65
620.678	52221.72
621.034	52258.78
621.39	52268.27
621.746	52189.63
622.101	52521.6
622.457	52233.02
622.812	52458.55
623.168	52406.35
623.523	52310.53
623.879	52505.33
624.234	52273.7
624.589	52366.8
624.945	52402.51
625.3	52531.32
625.655	52397.31
626.01	52386.91
626.365	52473.69
626.72	52323.64
627.075	52340.36
627.43	52400.02
627.785	52348.5
628.14	52323.19
628.495	52414.71
628.85	52290.64
629.205	52204.55
629.559	52371.32
629.914	52141.95
630.269	52346.91
630.623	52256.07
630.978	52196.86
631.332	52282.06
631.687	52406.35
632.041	52169.97
632.396	52233.7
632.75	52088.16
633.104	52092.91
633.459	52104.44
633.813	51939.02
634.167	51905.57
634.521	52040.93
634.875	52041.84
635.229	51872.8
635.583	51727.27
635.937	51820.83
636.291	51690.43
636.645	51668.51
636.999	51612.7
637.352	51703.32
637.706	51370.67
638.06	51687.95
638.413	51571.34
638.767	51433.27
639.121	51588.29
639.474	51320.73
639.828	51294.51
640.181	51395.98
640.534	51216.55
640.888	51165.25
641.241	51137.45
641.594	51225.14
641.947	51204.12
642.301	51122.31
642.654	51063.11
643.007	51119.15
643.36	51095.87
643.713	50941.3
644.066	51057.23
644.419	50831.02
644.771	50735.88
645.124	50231.94
645.477	50294.99
645.83	50034.88
646.182	49831.73
646.535	49688.23
646.888	49850.48
647.24	49739.75
647.593	49808.22
647.945	49746.53
648.298	49483.04
648.65	49437.16
649.002	49314.68
649.355	49421.34
649.707	49257.28
650.059	49532.3
650.411	49875.79
650.763	49947.43
651.115	50273.97
651.467	50118.05
651.819	50017.03
652.171	50010.25
652.523	50008.22
652.875	49979.97
653.227	49813.2
653.578	50077.6
653.93	50025.85
654.282	49746.53
654.633	49777.94
654.985	49883.93
655.337	49805.74
655.688	49784.72
656.039	50039.18
656.391	49531.17
656.742	49643.93
657.094	49541.34
657.445	49656.82
657.796	49519.19
658.147	49446.88
658.498	49391.06
658.849	49394.22
659.2	49258.18
659.551	49208.47
659.902	49319.88
660.253	49299.31
660.604	49307.9
660.955	49253.21
661.306	49317.16
661.656	49210.95
662.007	49253.44
662.358	49202.59
662.708	49236.94
663.059	49263.61
663.409	48880.79
663.76	49183.38
664.11	49152.2
664.461	49215.02
664.811	49117.85
665.161	49231.06
665.511	49005.08
665.862	49035.36
666.212	49204.85
666.562	49029.26
666.912	49039.2
667.262	48882.15
667.612	48905.88
667.962	48857.74
668.312	48885.76
668.662	49136.83
669.011	48796.05
669.361	48838.98
669.711	48881.47
670.06	48769.38
670.41	48687.58
670.76	48635.15
671.109	48843.73
671.459	48659.1
671.808	48597.63
672.157	48730.06
672.507	48504.76
672.856	48365.32
673.205	48642.83
673.554	48654.13
673.904	48427.02
674.253	48711.08
674.602	48396.51
674.951	47782.97
675.3	47757.66
675.649	48256.85
675.998	48263.86
676.346	48242.16
676.695	48307.47
677.044	47995.62
677.393	48154.03
677.741	47912.23
678.09	47969.63
678.438	47953.81
678.787	47906.58
679.135	47887.37
679.484	47708.84
679.832	47791.78
680.181	47561.73
680.529	47773.02
680.877	47658.22
681.225	47483.54
681.573	47803.08
681.922	47410.1
682.27	47268.63
682.618	47359.02
682.966	47334.39
683.314	47310.21
683.661	47179.14
684.009	47090.1
684.357	46893.5
684.705	46865.25
685.053	46906.15
685.4	46749.55
685.748	46520.4
686.095	46533.28
686.443	46391.14
686.79	46313.63
687.138	46399.5
687.485	46405.83
687.832	46171.48
688.18	46193.86
688.527	46002
688.874	46027.98
689.221	45940.08
689.568	45804.71
689.915	45810.36
690.262	45696.92
690.609	45596.58
690.956	45453.54
691.303	45472.97
691.65	45088.57
691.997	45103.72
692.344	44871.63
692.69	44767.45
693.037	44856.72
693.383	44548.7
693.73	44624.18
694.077	44435.26
694.423	44500.12
694.769	44181.25
695.116	44272.32
695.462	44087.02
695.808	43932.22
696.155	44030.07
696.501	43665.79
696.847	43630.53
697.193	43514.83
697.539	43565.9
697.885	43308.51
698.231	43260.37
698.577	43153.71
698.923	43127.5
699.269	42836.66
699.614	42734.06
699.96	42675.08
700.306	42685.93
700.651	42440.96
700.997	42444.58
701.342	42337.69
701.688	42087.07
702.033	41959.17
702.379	41887.98
702.724	41798.27
703.069	41905.61
703.415	41433.76
703.76	41348.33
704.105	41374.1
704.45	41361.67
704.795	41058.62
705.14	40933.43
705.485	40971.62
705.83	40733.21
706.175	40768.01
706.52	40529.6
706.865	40560.33
707.209	40476.27
707.554	40317.85
707.899	40414.8
708.243	40121.02
708.588	40101.36
708.932	39766.68
709.277	39792.22
709.621	39756.06
709.966	39535.95
710.31	39530.08
710.654	39159.69
710.998	39319.46
711.342	39359.46
711.687	39243.53
712.031	38989.75
712.375	38947.94
712.719	39066.36
713.063	39012.12
713.407	39020.26
713.75	38682.64
714.094	38652.36
714.438	38521.52
714.782	38645.35
715.125	38537.79
715.469	38522.19
715.812	38270.45
716.156	37977.57
716.499	38105.48
716.843	38164.91
717.186	37917.92
717.53	37908.2
717.873	38018.25
718.216	37855.32
718.559	37749.33
718.902	37550.69
719.246	37494.65
719.589	37438.61
719.932	37219.85
720.275	37291.49
720.617	37219.4
720.96	37165.39
721.303	37075
721.646	37157.26
721.989	36846.98
722.331	37039.07
722.674	36995.23
723.016	36757.04
723.359	36854.21
723.701	36724.5
724.044	36469.37
724.386	36377.84
724.729	36602.24
725.071	36428.01
725.413	36414.9
725.755	36362.48
726.097	36253.1
726.439	36119.77
726.782	36311.18
727.124	36314.12
727.465	36171.97
727.807	36020.79
728.149	36069.38
728.491	35850.85
728.833	36018.76
729.175	35668.26
729.516	35484.31
729.858	35543.51
730.199	35632.1
730.541	35516.17
730.882	35380.58
731.224	35532.44
731.565	35295.84
731.906	35254.48
732.248	35319.34
732.589	35011.1
732.93	34906.02
733.271	34947.37
733.612	34970.2
733.953	34931.78
734.294	34682.07
734.635	34577.44
734.976	34626.48
735.317	34428.97
735.658	34473.71
735.999	34564.11
736.339	34282.53
736.68	34438.91
737.021	34344.68
737.361	34123.89
737.702	34348.74
738.042	34087.73
738.383	33990.56
738.723	34033.5
739.063	33942.65
739.404	33877.34
739.744	33765.93
740.084	33762.54
740.424	33643.23
740.764	33696.11
741.104	33638.93
741.444	33460.63
741.784	33512.16
742.124	33501.76
742.464	33304.48
742.804	33345.38
743.143	33233.52
743.483	33301.09
743.823	33022.68
744.162	33005.95
744.502	33073.97
744.841	32944.03
745.181	33075.33
745.52	32831.27
745.86	32943.13
746.199	32737.26
746.538	32601.9
746.877	32747.2
747.216	32667.88
747.556	32466.53
747.895	32381.79
748.234	32391.51
748.573	32278.06
748.911	32090.27
749.25	32261.12
749.589	32122.59
749.928	32036.71
750.267	32041.91
750.605	31967.56
750.944	32023.16
751.283	31786.1
751.621	31761.47
751.96	31517.86
752.298	31588.59
752.636	31659.77
752.975	31227.92
753.313	31252.33
753.651	31323.74
753.989	31069.96
754.327	31027.93
754.666	30910.87
755.004	31035.16
755.342	30838.55
755.679	30876.07
756.017	30756.97
756.355	30745.22
756.693	30541.16
757.031	30628.16
757.368	30395.63
757.706	30310.43
758.044	30238.57
758.381	30283.31
758.719	30082.64
759.056	30102.53
759.394	30028.86
759.731	29806.49
760.068	29885.13
760.405	29641.75
760.743	29537.57
761.08	29738.92
761.417	29435.65
761.754	29556.78
762.091	29348.42
762.428	29201.31
762.765	28951.82
763.102	29050.35
763.438	28903.69
763.775	28858.49
764.112	28795.44
764.449	28861.43
764.785	28671.38
765.122	28500.08
765.458	28250.37
765.795	28315.23
766.131	28355.23
766.467	28181.22
766.804	28010.38
767.14	27927.22
767.476	27902.36
767.812	27786.43
768.148	27830.95
768.485	27501.69
768.821	27501.92
769.157	27461.92
769.492	27300.34
769.828	27242.26
770.164	27084.98
770.5	27069.61
770.836	27010.41
771.171	26784.42
771.507	26729.96
771.842	26440.93
772.178	26480.93
772.513	26436.41
772.849	26303.31
773.184	26080.03
773.519	26157.55
773.855	25970.66
774.19	25926.59
774.525	25795.3
774.86	25806.14
775.195	25792.81
775.53	25528.64
775.865	25319.15
776.2	25325.48
776.535	25000.06
776.87	25034.86
777.205	24997.8
777.539	24810.01
777.874	24889.33
778.209	24662.67
778.543	24633.74
778.878	24461.32
779.212	24485.95
779.547	24270.14
779.881	24322.11
780.215	24088.45
780.55	24197.6
780.884	24023.59
781.218	23875.35
781.552	23878.74
781.886	23784.28
782.22	23649.36
782.554	23601.91
782.888	23316.27
783.222	23175.03
783.556	23265.19
783.889	23168.25
784.223	22834.47
784.557	22997.18
784.89	22987.01
785.224	22809.61
785.557	22844.64
785.891	22726.9
786.224	22657.75
786.558	22676.28
786.891	22367.82
787.224	22346.8
787.557	22229.06
787.891	22243.53
788.224	22192.45
788.557	22112.91
788.89	22154.94
789.223	21915.85
789.556	21824.33
789.888	21738.23
790.221	21657.33
790.554	21515.86
790.887	21521.51
791.219	21406.49
791.552	21244.23
791.884	21270.67
792.217	21156.32
792.549	21102.09
792.882	20940.96
793.214	20826.61
793.546	20990
793.879	20754.3
794.211	20666.62
794.543	20839.95
794.875	20688.31
795.207	20665.94
795.539	20451.93
795.871	20442.67
796.203	20231.6
796.535	20118.16
796.867	20131.94
797.198	20129
797.53	20002.45
797.862	19920.87
798.193	19777.6
798.525	19738.51
798.856	19657.15
799.188	19465.52
799.519	19455.8
799.85	19350.95
800.182	19482.02
800.513	19342.36
800.844	19226.88
801.175	19278.41
801.506	19205.64
801.837	18978.3
802.168	19020.79
802.499	19043.16
802.83	18925.19
803.161	18825.76
803.491	18881.58
803.822	18791.86
804.153	18769.72
804.483	18552.55
804.814	18517.75
805.145	18436.85
805.475	18492.66
805.805	18358.66
806.136	18413.12
806.466	18406.79
806.796	18321.37
807.126	18142.39
807.457	18191.65
807.787	18248.83
808.117	18127.93
808.447	18016.29
808.777	18051.09
809.107	17964.99
809.436	17917.09
809.766	17867.6
810.096	17793.47
810.426	17677.32
810.755	17748.73
811.085	17625.57
811.414	17599.35
811.744	17464.67
812.073	17511.45
812.403	17390.32
812.732	17327.95
813.061	17250.44
813.39	17322.07
813.719	17185.35
814.049	17288.18
814.378	17308.74
814.707	17146.48
815.036	17036.88
815.365	17021.74
815.693	16786.27
816.022	16844.8
816.351	16765.25
816.68	16634.63
817.008	16702.2
817.337	16544.69
817.665	16506.73
817.994	16558.93
818.322	16555.99
818.651	16386.05
818.979	16290.69
819.307	16346.28
819.636	16317.81
819.964	16193.51
820.292	16379.72
820.62	16237.13
820.948	16193.97
821.276	16212.5
821.604	16182.67
821.932	16227.19
822.259	16223.57
822.587	16184.25
822.915	16041.43
823.243	16297.69
823.57	16096.79
823.898	16188.54
824.225	16061.54
824.553	16103.8
824.88	16116.91
825.207	16126.85
825.535	16046.85
825.862	16192.84
826.189	16043.91
826.516	16154.87
826.843	16258.82
827.17	16188.77
827.497	16149.9
827.824	16182.22
828.151	16174.76
828.478	16083.46
828.805	16146.96
829.131	16074.65
829.458	16081.43
829.785	15998.27
830.111	16105.16
830.438	16200.52
830.764	16070.58
831.09	16109.45
831.417	15977.02
831.743	16086.4
832.069	16003.69
832.395	15986.06
832.722	16043.24
833.048	16002.56
833.374	16007.76
833.7	15978.61
834.026	15992.62
834.351	15986.06
834.677	15910.81
835.003	15920.53
835.329	15849.34
835.654	15889.12
835.98	15843.92
836.306	15826.07
836.631	15757.82
836.956	15776.58
837.282	15778.16
837.607	15700.42
837.932	15665.39
838.258	15700.42
838.583	15690.48
838.908	15575
839.233	15631.95
839.558	15510.37
839.883	15498.84
840.208	15442.8
840.533	15474.21
840.858	15532.97
841.182	15378.85
841.507	15476.92
841.832	15297.95
842.156	15257.49
842.481	15249.81
842.805	15217.04
843.13	15298.62
843.454	15204.16
843.778	15225.86
844.103	15155.12
844.427	15069.25
844.751	15101.34
845.075	15091.85
845.399	15022.25
845.723	14930.95
846.047	14954
846.371	14791.52
846.695	14748.58
847.019	14778.86
847.343	14645.08
847.666	14593.78
847.99	14570.05
848.313	14552.43
848.637	14496.16
848.96	14448.7
849.284	14330.96
849.607	14301.14
849.931	14239.89
850.254	14203.74
850.577	14058.66
850.9	13938.21
851.223	14027.24
851.546	13982.05
851.869	13840.58
852.192	14025.21
852.515	13860.69
852.838	13712.45
853.161	13718.33
853.483	13725.78
853.806	13663.41
854.129	13701.83
854.451	13594.94
854.774	13444.66
855.096	13396.98
855.419	13378
855.741	13401.5
856.063	13318.11
856.385	13337.77
856.708	13229.53
857.03	13185.46
857.352	13193.82
857.674	13142.3
857.996	13116.99
858.318	13033.37
858.64	13063.2
858.961	12990.21
859.283	12932.13
859.605	12874.28
859.926	12929.42
860.248	12845.58
860.57	12799.71
860.891	12826.37
861.212	12853.94
861.534	12779.37
861.855	12804.9
862.176	12692.14
862.498	12827.5
862.819	12667.28
863.14	12718.35
863.461	12675.64
863.782	12612.59
864.103	12701.63
864.424	12668.18
864.745	12572.59
865.065	12562.88
865.386	12512.48
865.707	12535.98
866.027	12563.33
866.348	12548.64
866.668	12493.05
866.989	12478.36
867.309	12404.69
867.63	12479.49
867.95	12438.81
868.27	12279.04
868.59	12330.34
868.91	12280.85
869.23	12261.64
869.55	12225.71
869.87	12315.2
870.19	12223.22
870.51	12230
870.83	12260.28
871.15	12157.24
871.469	12091.93
871.789	12181.42
872.109	12204.24
872.428	12039.05
872.748	12083.11
873.067	12146.84
873.386	12189.78
873.706	12135.09
874.025	12018.03
874.344	12033.17
874.663	12051.93
874.982	11974.87
875.301	12034.75
875.62	11905.49
875.939	11925.15
876.258	11907.98
876.577	11890.8
876.896	11886.96
877.214	11864.82
877.533	11899.84
877.852	11851.48
878.17	11849
878.489	11763.8
878.807	11818.04
879.125	11771.26
879.444	11778.04
879.762	11715.89
880.08	11764.93
880.398	11680.19
880.716	11686.74
881.034	11703.92
881.352	11628.66
881.67	11605.39
881.988	11576.69
882.306	11579.4
882.624	11662.33
882.941	11559.74
883.259	11434.77
883.577	11467.31
883.894	11449.68
884.212	11422.57
884.529	11502.79
884.846	11345.73
885.164	11381.21
885.481	11337.37
885.798	11314.77
886.115	11265.06
886.432	11309.12
886.75	11271.38
887.067	11257.37
887.383	11150.48
887.7	11188.45
888.017	11176.47
888.334	11185.06
888.651	11073.88
888.967	11057.83
889.284	10948.68
889.6	10977.15
889.917	10886.08
890.233	10959.98
890.55	10922.24
890.866	10902.35
891.182	10856.03
891.498	10858.97
891.815	10812.19
892.131	10810.15
892.447	10829.36
892.763	10764.51
893.079	10738.97
893.395	10705.3
893.71	10632.31
894.026	10637.28
894.342	10550.05
894.657	10429.6
894.973	10472.31
895.289	10466.66
895.604	10463.95
895.92	10392.09
896.235	10418.07
896.55	10361.13
896.865	10387.34
897.181	10338.98
897.496	10284.97
897.811	10283.84
898.126	10270.28
898.441	10230.96
898.756	10206.33
899.071	10140.79
899.386	10098.31
899.7	10123.17
900.015	10040.46
900.33	9979.44
900.644	9996.16
900.959	10014.02
901.273	9927.46
901.588	9903.96
901.902	9853.57
902.216	9816.28
902.531	9797.52
902.845	9757.98
903.159	9717.75
903.473	9788.71
903.787	9683.4
904.101	9628.49
904.415	9624.2
904.729	9633.46
905.042	9560.69
905.356	9552.79
905.67	9452
905.984	9534.71
906.297	9437.99
906.611	9392.11
906.924	9394.82
907.237	9373.58
907.551	9413.81
907.864	9267.6
908.177	9296.75
908.491	9247.03
908.804	9181.95
909.117	9148.05
909.43	9119.35
909.743	9055.17
910.056	9094.72
910.368	9075.96
910.681	8972.24
910.994	8962.07
911.307	8889.53
911.619	8875.74
911.932	8879.13
912.244	8843.88
912.557	8768.17
912.869	8722.07
913.181	8725.01
913.494	8625.8
913.806	8621.74
914.118	8631.68
914.43	8546.03
914.742	8585.13
915.054	8493.15
915.366	8447.5
915.678	8410.22
915.99	8377.9
916.302	8351.01
916.613	8337
916.925	8347.62
917.236	8302.87
917.548	8250.67
917.859	8236.66
918.171	8193.27
918.482	8147.17
918.794	8061.75
919.105	8121.18
919.416	7960.29
919.727	8050.9
920.038	8015.42
920.349	7973.39
920.66	7966.61
920.971	7948.31
921.282	7885.48
921.593	7864.47
921.903	7773.4
922.214	7824.7
922.525	7727.07
922.835	7727.07
923.146	7633.29
923.456	7685.94
923.767	7589.22
924.077	7626.96
924.387	7566.17
924.697	7553.74
925.008	7573.63
925.318	7466.74
925.628	7465.83
925.938	7502.67
926.248	7353.52
926.558	7389.9
926.867	7352.39
927.177	7360.53
927.487	7289.34
927.796	7255.44
928.106	7243.69
928.416	7225.39
928.725	7194.2
929.034	7135.67
929.344	7089.35
929.653	7133.87
929.962	7066.98
930.271	7069.46
930.581	7024.72
930.89	6938.84
931.199	6980.42
931.508	6987.43
931.817	6961.89
932.125	6924.38
932.434	6904.27
932.743	6800.54
933.051	6782.24
933.36	6786.98
933.669	6772.75
933.977	6765.97
934.286	6696.82
934.594	6711.73
934.902	6638.06
935.21	6627.66
935.519	6637.16
935.827	6579.53
936.135	6542.92
936.443	6491.17
936.751	6494.56
937.059	6485.52
937.367	6394.45
937.674	6407.56
937.982	6393.32
938.29	6379.54
938.597	6379.31
938.905	6303.38
939.213	6245.53
939.52	6241.01
939.827	6208.24
940.135	6214.12
940.442	6205.08
940.749	6167.79
941.056	6172.54
941.363	6124.85
941.67	6116.72
941.977	6061.58
942.284	6005.53
942.591	5977.29
942.898	5947.91
943.205	5935.48
943.511	5949.49
943.818	5920.56
944.125	5865.88
944.431	5844.86
944.738	5801.7
945.044	5794.92
945.35	5772.55
945.657	5731.19
945.963	5730.97
946.269	5725.77
946.575	5696.16
946.881	5658.65
947.187	5698.88
947.493	5636.96
947.799	5565.77
948.105	5578.65
948.41	5542.27
948.716	5508.15
949.022	5506.11
949.327	5502.72
949.633	5414.14
949.938	5383.18
950.244	5440.8
950.549	5361.71
950.854	5324.87
951.16	5304.76
951.465	5354.25
951.77	5299.56
952.075	5286.01
952.38	5238.1
952.685	5208.04
952.99	5141.6
953.294	5200.81
953.599	5099.8
953.904	5130.75
954.209	5110.19
954.513	5046.69
954.818	5080.36
955.122	5032.68
955.426	4979.35
955.731	5019.12
956.035	4983.41
956.339	4986.35
956.643	4944.77
956.948	4920.36
957.252	4902.74
957.556	4844.43
957.86	4829.97
958.163	4809.86
958.467	4803.76
958.771	4817.09
959.075	4753.59
959.378	4768.73
959.682	4783.19
959.985	4691.44
960.289	4720.82
960.592	4662.29
960.896	4664.78
961.199	4608.28
961.502	4620.94
961.805	4613.71
962.108	4613.48
962.411	4566.25
962.714	4577.32
963.017	4556.76
963.32	4540.49
963.623	4481.73
963.926	4487.38
964.228	4462.52
964.531	4470.66
964.833	4447.84
965.136	4378.91
965.438	4398.12
965.741	4385.01
966.043	4339.36
966.345	4313.38
966.648	4320.38
966.95	4336.43
967.252	4300.95
967.554	4262.76
967.856	4239.7
968.158	4237.67
968.46	4221.63
968.761	4199.25
969.063	4149.76
969.365	4122.87
969.666	4128.75
969.968	4075.19
970.269	4085.81
970.571	4126.04
970.872	4078.13
971.174	4004.91
971.475	4006.26
971.776	4030.9
972.077	3956.55
972.378	3963.55
972.679	3939.83
972.98	4019.37
973.281	3900.28
973.582	3963.33
973.883	3880.62
974.183	3854.86
974.484	3870.45
974.785	3887.17
975.085	3817.12
975.386	3812.82
975.686	3803.78
975.986	3802.88
976.287	3794.07
976.587	3756.55
976.887	3743.45
977.187	3750.23
977.487	3657.35
977.787	3664.35
978.087	3655.31
978.387	3612.6
978.687	3604.69
978.987	3573.73
979.286	3583.22
979.586	3551.81
979.885	3566.73
980.185	3559.5
980.484	3515.66
980.784	3538.93
981.083	3500.97
981.382	3469.33
981.682	3446.28
981.981	3431.82
982.28	3457.58
982.579	3434.08
982.878	3383.91
983.177	3392.95
983.475	3372.16
983.774	3341.65
984.073	3354.53
984.372	3294.65
984.67	3276.57
984.969	3335.32
985.267	3286.51
985.566	3282.67
985.864	3305.04
986.162	3268.88
986.461	3241.09
986.759	3200.86
987.057	3235.89
987.355	3186.85
987.653	3154.76
987.951	3156.12
988.249	3189.79
988.547	3155.44
988.844	3125.61
989.142	3121.09
989.44	3075.89
989.737	3093.07
990.035	3040.64
990.332	3054.88
990.63	3024.82
990.927	3014.2
991.224	3043.8
991.521	2986.18
991.819	2990.92
992.116	2953.19
992.413	2938.95
992.71	2932.62
993.006	2922.68
993.303	2879.06
993.6	2902.79
993.897	2886.07
994.193	2886.97
994.49	2852.4
994.787	2818.5
995.083	2829.8
995.379	2844.71
995.676	2815.11
995.972	2791.61
996.268	2787.99
996.565	2772.17
996.861	2795
997.157	2752.74
997.453	2731.72
997.749	2733.98
998.044	2697.82
998.34	2686.98
998.636	2667.09
998.932	2672.51
999.227	2669.58
999.523	2624.61
999.818	2610.6
1000.114	2595.91
1000.409	2557.94
1000.704	2573.08
1001	2569.47
1001.295	2530.15
1001.59	2513.87
1001.885	2508.23
1002.18	2455.57
1002.475	2511.61
1002.77	2458.73
1003.065	2471.16
1003.359	2427.1
1003.654	2441.79
1003.949	2432.52
1004.243	2459.86
1004.538	2423.48
1004.832	2406.53
1005.127	2395.23
1005.421	2358.62
1005.715	2375.12
1006.009	2360.88
1006.304	2325.63
1006.598	2283.6
1006.892	2296.48
1007.186	2254.22
1007.48	2301.9
1007.773	2245.86
1008.067	2251.06
1008.361	2233.2
1008.655	2217.61
1008.948	2174.67
1009.242	2182.13
1009.535	2166.31
1009.829	2162.02
1010.122	2148.69
1010.415	2108.46
1010.708	2136.03
1011.001	2131.96
1011.295	2127.9
1011.588	2109.14
1011.881	2096.71
1012.173	2080.44
1012.466	2058.07
1012.759	2079.76
1013.052	2028.92
1013.344	2030.72
1013.637	2023.27
1013.93	2029.82
1014.222	1986.66
1014.514	1976.26
1014.807	1983.49
1015.099	1971.97
1015.391	1959.99
1015.683	1910.27
1015.976	1940.33
1016.268	1921.57
1016.56	1899.88
1016.851	1912.99
1017.143	1877.06
1017.435	1823.05
1017.727	1848.36
1018.018	1835.02
1018.31	1826.66
1018.602	1832.08
1018.893	1822.59
1019.185	1773.56
1019.476	1780.56
1019.767	1769.94
1020.058	1762.48
1020.35	1730.39
1020.641	1732.88
1020.932	1727.68
1021.223	1710.73
1021.514	1708.92
1021.804	1693.33
1022.095	1693.78
1022.386	1698.3
1022.677	1632.77
1022.967	1671.64
1023.258	1619.89
1023.548	1632.99
1023.839	1602.94
1024.129	1615.59
1024.419	1595.71
1024.709	1588.48
1025	1588.02
1025.29	1568.36
1025.58	1562.49
1025.87	1548.25
1026.16	1521.81
1026.449	1543.96
1026.739	1537.86
1027.029	1485.88
1027.319	1503.05
1027.608	1472.09
1027.898	1486.33
1028.187	1466.44
1028.477	1407.01
1028.766	1444.52
1029.055	1427.12
1029.344	1432.55
1029.634	1402.49
1029.923	1405.2
1030.212	1397.29
1030.501	1394.36
1030.79	1391.64
1031.078	1392.32
1031.367	1374.24
1031.656	1344.64
1031.945	1355.49
1032.233	1316.84
1032.522	1312.78
1032.81	1308.71
1033.099	1313.23
1033.387	1292.21
1033.675	1280.01
1033.963	1277.3
1034.251	1254.47
1034.54	1266.68
1034.828	1243.17
1035.116	1256.51
1035.403	1246.34
1035.691	1218.09
1035.979	1201.14
1036.267	1204.08
1036.554	1181.25
1036.842	1160.01
1037.129	1165.89
1037.417	1166.79
1037.704	1156.17
1037.992	1153.23
1038.279	1147.58
1038.566	1141.03
1038.853	1141.03
1039.14	1141.03
