Data from aluminium_macbook_case_FLMS001491_037.txt Node
Date: Tue Feb 07 10:43:31 GMT 2017
User: dcchb
Spectrometer: FLMS00149
Trigger mode: 0
Integration Time (sec): 2.000000E-2
Scans to average: 10
Electric dark correction enabled: true
Nonlinearity correction enabled: false
Boxcar width: 0
XAxis mode: Wavelengths
Number of Pixels in Spectrum: 2048
>>>>>Begin Spectral Data<<<<<
341.393	-27.46
341.776	-27.46
342.16	-27.46
342.543	-67.46
342.927	-92.09
343.31	-43.5
343.693	-71.52
344.077	-58.64
344.46	-53.9
344.843	-36.95
345.226	-29.26
345.61	-34.24
345.993	-33.78
346.376	-14.35
346.759	9.38
347.142	27.46
347.525	18.19
347.908	61.58
348.291	57.96
348.674	81.01
349.057	120.56
349.44	100.9
349.823	127.34
350.206	182.26
350.588	238.3
350.971	246.89
351.354	277.62
351.737	288.47
352.119	294.12
352.502	314
352.884	314.91
353.267	343.61
353.65	331.63
354.032	356.71
354.414	365.98
354.797	359.2
355.179	388.8
355.562	362.14
355.944	379.09
356.326	387.9
356.709	403.27
357.091	396.26
357.473	402.81
357.855	405.75
358.238	397.84
358.62	401.91
359.002	399.42
359.384	421.34
359.766	418.86
360.148	398.97
360.53	405.53
360.912	419.09
361.294	433.55
361.676	410.5
362.057	410.72
362.439	417.28
362.821	404.17
363.203	401.68
363.584	408.92
363.966	397.39
364.348	403.49
364.729	410.72
365.111	397.62
365.493	385.87
365.874	420.21
366.256	405.53
366.637	411.85
367.019	407.56
367.4	402.59
367.781	412.98
368.163	451.63
368.544	426.09
368.925	431.51
369.306	435.81
369.688	421.34
370.069	416.15
370.45	444.85
370.831	436.03
371.212	435.13
371.593	440.55
371.974	441.68
372.355	447.78
372.736	472.64
373.117	463.6
373.498	470.16
373.879	459.08
374.26	433.77
374.641	443.94
375.021	428.58
375.402	463.6
375.783	488.69
376.163	511.74
376.544	498.18
376.925	482.13
377.305	498.4
377.686	490.27
378.066	510.38
378.447	493.89
378.827	506.09
379.208	503.6
379.588	516.48
379.968	523.94
380.349	514
380.729	549.48
381.109	555.35
381.489	532.98
381.87	561.91
382.25	561.23
382.63	565.3
383.01	560.32
383.39	562.81
383.77	572.53
384.15	580.21
384.53	600.1
384.91	608.46
385.29	602.58
385.67	604.84
386.049	625.18
386.429	617.5
386.809	642.58
387.189	638.51
387.568	638.97
387.948	648.46
388.328	654.11
388.707	670.15
389.087	644.84
389.466	683.48
389.846	691.39
390.225	711.05
390.605	694.56
390.984	725.07
391.363	729.59
391.743	741.34
392.122	730.72
392.501	771.84
392.881	761.67
393.26	757.16
393.639	768.91
394.018	815.01
394.397	807.1
394.776	811.62
395.155	815.46
395.534	832.63
395.913	840.77
396.292	833.76
396.671	845.29
397.05	837.83
397.429	859.98
397.808	872.63
398.186	877.6
398.565	906.3
398.944	903.59
399.323	898.17
399.701	926.42
400.08	919.41
400.458	937.49
400.837	967.77
401.215	966.64
401.594	962.35
401.972	999.41
402.351	1007.32
402.729	1013.87
403.107	1033.76
403.486	1032.63
403.864	1051.38
404.242	1059.07
404.62	1076.24
404.999	1105.39
405.377	1070.37
405.755	1110.37
406.133	1125.06
406.511	1161.44
406.889	1179.29
407.267	1167.99
407.645	1188.33
408.023	1222.68
408.401	1233.3
408.779	1274.43
409.156	1286.41
409.534	1260.64
409.912	1311.49
410.29	1340.87
410.667	1336.8
411.045	1397.82
411.422	1361.66
411.8	1399.17
412.178	1440.75
412.555	1449.34
412.933	1443.24
413.31	1470.36
413.687	1502.22
414.065	1481.66
414.442	1555.78
414.819	1560.75
415.197	1564.37
415.574	1597.13
415.951	1637.58
416.328	1621.99
416.705	1639.39
417.082	1636.68
417.46	1676.23
417.837	1696.79
418.214	1725.04
418.591	1746.06
418.967	1746.06
419.344	1767.07
419.721	1801.87
420.098	1792.38
420.475	1853.4
420.852	1880.52
421.228	1880.29
421.605	1901.98
421.982	1940.17
422.358	1932.49
422.735	1962.77
423.111	1990.12
423.488	2009.78
423.864	2032.6
424.241	2043.22
424.617	2084.58
424.994	2103.11
425.37	2103.33
425.746	2123.22
426.123	2158.47
426.499	2198.47
426.875	2218.81
427.251	2281.41
427.627	2330.67
428.003	2334.06
428.379	2391.01
428.756	2390.78
429.132	2453.61
429.507	2497.67
429.883	2493.61
430.259	2548.97
430.635	2581.74
431.011	2604.34
431.387	2671.68
431.763	2698.12
432.138	2707.39
432.514	2749.87
432.89	2796.42
433.265	2854.5
433.641	2886.59
434.016	2906.7
434.392	2947.83
434.767	3003.42
435.143	3046.36
435.518	3066.93
435.894	3134.95
436.269	3194.38
436.644	3213.14
437.02	3267.15
437.395	3253.36
437.77	3307.82
438.145	3350.08
438.52	3386.92
438.895	3429.4
439.271	3409.06
439.646	3539.91
440.021	3547.59
440.395	3554.6
440.77	3535.61
441.145	3562.96
441.52	3666.91
441.895	3665.1
442.27	3731.77
442.645	3730.18
443.019	3750.52
443.394	3756.62
443.769	3867.58
444.143	3816.74
444.518	3910.52
444.892	3908.71
445.267	3977.41
445.641	3996.39
446.016	4018.09
446.39	4044.75
446.764	4122.49
447.139	4080.68
447.513	4171.75
447.887	4193.9
448.262	4198.42
448.636	4237.97
449.01	4225.99
449.384	4342.82
449.758	4368.81
450.132	4401.81
450.506	4424.4
450.88	4445.42
451.254	4462.14
451.628	4531.29
452.002	4607.68
452.376	4655.81
452.75	4707.79
453.123	4744.17
453.497	4817.61
453.871	4957.5
454.244	5006.31
454.618	5080.88
454.992	5122.01
455.365	5132.18
455.739	5210.6
456.112	5317.71
456.486	5334.66
456.859	5407.43
457.232	5531.04
457.606	5524.94
457.979	5562
458.352	5734.88
458.725	5773.07
459.099	5788.44
459.472	5912.27
459.845	6043.34
460.218	5997.47
460.591	6060.52
460.964	6085.38
461.337	6276.78
461.71	6345.48
462.083	6471.81
462.456	6505.93
462.829	6575.76
463.201	6711.12
463.574	6775.98
463.947	6802.42
464.32	7027.95
464.692	6987.27
465.065	7140.72
465.438	7233.6
465.81	7338.9
466.183	7356.53
466.555	7599.69
466.928	7533.25
467.3	7648.05
467.672	7755.39
468.045	7982.05
468.417	7998.55
468.789	8019.56
469.161	8118.09
469.534	8317.86
469.906	8438.76
470.278	8445.31
470.65	8607.12
471.022	8850.95
471.394	8981.57
471.766	9057.05
472.138	9207.1
472.51	9451.84
472.882	9568.67
473.253	9671.72
473.625	9783.58
473.997	10033.07
474.369	10156.68
474.74	10262.67
475.112	10427.18
475.484	10578.14
475.855	10812.48
476.227	10967.28
476.598	11215.64
476.97	11318.69
477.341	11549.87
477.713	11673.48
478.084	11786.92
478.455	12120.7
478.827	12249.51
479.198	12561.82
479.569	12641.14
479.94	12955.7
480.311	13076.61
480.682	13415.35
481.053	13718.85
481.424	13908.22
481.795	14112.96
482.166	14358.61
482.537	14545.95
482.908	14816.67
483.279	15091.92
483.65	15383.66
484.021	15695.07
484.391	15836.76
484.762	16046.24
485.133	16158.11
485.503	16487.14
485.874	16789.5
486.244	16895.26
486.615	17300.68
486.985	17412.08
487.356	17709.93
487.726	17960.77
488.097	18208
488.467	18363.25
488.837	18746.06
489.207	18923.91
489.578	19171.81
489.948	19397.57
490.318	19623.1
490.688	19725.02
491.058	20042.3
491.428	20373.36
491.798	20547.37
492.168	20922.05
492.538	21136.96
492.908	21396.39
493.278	21776.26
493.648	21735.36
494.017	22049.7
494.387	22261.45
494.757	22576.92
495.126	22802.68
495.496	22803.58
495.866	23017.36
496.235	23326.73
496.605	23564.69
496.974	23714.29
497.344	23931.01
497.713	24044.45
498.082	24201.51
498.452	24439.47
498.821	24573.25
499.19	24590.2
499.559	24926.24
499.928	25008.27
500.298	25159.23
500.667	25376.17
501.036	25388.37
501.405	25791.3
501.774	25766.89
502.143	26090.27
502.512	26288.24
502.88	26540.21
503.249	26538.4
503.618	26794.89
503.987	26963.02
504.356	27106.29
504.724	27341.09
505.093	27544.47
505.462	27647.52
505.83	28003.44
506.199	28220.61
506.567	28545.58
506.936	28500.38
507.304	28898.56
507.672	29009.29
508.041	29037.99
508.409	29269.63
508.777	29611.54
509.145	29956.61
509.514	29796.39
509.882	30120.45
510.25	30141.47
510.618	30408.8
510.986	30547.78
511.354	30901.45
511.722	31098.73
512.09	31373.75
512.458	31452.85
512.826	31645.38
513.193	31901.2
513.561	32062.09
513.929	32359.94
514.297	32659.82
514.664	32851.45
515.032	33015.74
515.4	33406.92
515.767	33557.42
516.135	33716.74
516.502	33716.06
516.869	34315.14
517.237	34513.56
517.604	34659.54
517.972	34925.97
518.339	35189.47
518.706	35436.24
519.073	35583.36
519.44	35742.9
519.808	36244.58
520.175	36087.75
520.542	36560.73
520.909	36750.33
521.276	36897
521.643	37319.58
522.009	37401.39
522.376	37770.42
522.743	37969.74
523.11	38326.56
523.477	38736.5
523.843	38952.54
524.21	39158.18
524.577	39506.64
524.943	39657.38
525.31	39909.35
525.676	40275.21
526.043	40638.14
526.409	40819.83
526.776	41267.28
527.142	41436.31
527.508	41794.72
527.874	42139.12
528.241	42350.86
528.607	42592.44
528.973	42901.36
529.339	42965.31
529.705	43438.74
530.071	43819.53
530.437	43903.14
530.803	44009.35
531.169	44368.44
531.535	44362.34
531.901	44392.62
532.267	44548.32
532.632	44898.14
532.998	44987.86
533.364	45321.18
533.73	45417.68
534.095	45845.91
534.461	45848.4
534.826	46013.59
535.192	46199.35
535.557	46550.53
535.923	46425.78
536.288	46840.92
536.653	46777.41
537.019	46936.73
537.384	47065.99
537.749	47290.17
538.114	47332.65
538.479	47437.74
538.845	47710.04
539.21	47668.46
539.575	48013.54
539.94	47955.24
540.305	48388.22
540.67	48401.1
541.034	48600.64
541.399	48845.16
541.764	48967.86
542.129	49167.63
542.494	49209.67
542.858	49372.83
543.223	49500.96
543.587	49653.95
543.952	49608.98
544.316	49755.64
544.681	49859.37
545.045	49895.75
545.41	50053.26
545.774	50178.23
546.138	50194.27
546.503	50292.58
546.867	50323.54
547.231	50605.56
547.595	50652.57
547.959	50820.92
548.324	50843.07
548.688	50888.72
549.052	51114.02
549.416	51098.66
549.779	51179.56
550.143	51260.23
550.507	51548.59
550.871	51562.37
551.235	51543.62
551.599	51917.17
551.962	52052.08
552.326	52171.85
552.689	52367.55
553.053	52231.96
553.417	52359.41
553.78	52860.64
554.143	52640.08
554.507	52940.19
554.87	53067.64
555.234	53391.03
555.597	53339.73
555.96	53436
556.323	53558.48
556.686	53615.88
557.05	53834.18
557.413	53865.82
557.776	53972.48
558.139	54141.51
558.502	54237.78
558.865	54221.29
559.228	54469.87
559.59	54515.29
559.953	54560.94
560.316	54913.7
560.679	54854.26
561.041	54939.91
561.404	55079.57
561.767	55182.62
562.129	55186.68
562.492	55556.84
562.854	55544.19
563.217	55552.55
563.579	55660.8
563.941	55883.62
564.304	55920
564.666	56230.72
565.028	56233.44
565.39	56337.84
565.753	56507.33
566.115	56571.51
566.477	56682.24
566.839	56799.07
567.201	56966.3
567.563	56970.59
567.925	57094.66
568.287	57206.52
568.648	57214.2
569.01	57415.1
569.372	57537.81
569.734	57556.11
570.095	57695.09
570.457	57814.41
570.819	57887.18
571.18	57886.95
571.542	58077.91
571.903	58092.82
572.265	58143.44
572.626	58229.32
572.987	58236.55
573.349	58258.02
573.71	58345.92
574.071	58424.57
574.432	58447.16
574.794	58634.5
575.155	58601.51
575.516	58559.7
575.877	58632.47
576.238	58665.69
576.599	58839.02
576.96	58806.02
577.32	58787.49
577.681	58884.89
578.042	58907.94
578.403	58933.48
578.763	58994.72
579.124	58991.56
579.485	59139.57
579.845	59184.77
580.206	59141.61
580.566	59182.06
580.927	59216.86
581.287	59334.15
581.648	59261.61
582.008	59365.56
582.368	59325.11
582.728	59459.79
583.089	59391.09
583.449	59410.3
583.809	59491.43
584.169	59553.12
584.529	59413.47
584.889	59642.16
585.249	59530.75
585.609	59436.74
585.969	59657.3
586.329	59487.59
586.688	59561.26
587.048	59543.63
587.408	59479
587.768	59490.07
588.127	59488.94
588.487	59443.75
588.846	59629.96
589.206	59391.32
589.565	59418.44
589.925	59560.81
590.284	59384.99
590.643	59428.61
591.003	59530.3
591.362	59507.7
591.721	59435.61
592.08	59469.74
592.44	59557.19
592.799	59433.13
593.158	59459.79
593.517	59466.12
593.876	59577.3
594.235	59477.87
594.593	59578.66
594.952	59616.62
595.311	59528.27
595.67	59620.24
596.029	59671.09
596.387	59652.56
596.746	59690.75
597.104	59601.48
597.463	59686.91
597.822	59758.77
598.18	59701.37
598.538	59764.42
598.897	59881.02
599.255	59656.85
599.613	60008.48
599.972	59838.77
600.33	59987.24
600.688	59878.31
601.046	60056.61
601.404	60047.8
601.762	60010.06
602.12	60174.12
602.478	60133.45
602.836	60101.81
603.194	60034.69
603.552	60097.74
603.91	59922.15
604.268	60067.91
604.625	60002.38
604.983	60070.62
605.341	59953.56
605.698	60084.86
606.056	60104.52
606.413	60014.81
606.771	60091.64
607.128	60144.97
607.485	59983.39
607.843	60014.81
608.2	60189.94
608.557	60174.58
608.914	60078.76
609.272	60181.81
609.629	60208.7
609.986	60360.33
610.343	60235.37
610.7	60360.79
611.057	60390.84
611.414	60361.24
611.771	60390.39
612.127	60525.53
612.484	60499.09
612.841	60598.75
613.198	60534.34
613.554	60564.85
613.911	60698.4
614.267	60732.98
614.624	60649.59
614.98	60724.84
615.337	60845.07
615.693	60801.9
616.05	60820.21
616.406	61007.1
616.762	60826.08
617.118	60909.92
617.475	60901.11
617.831	60962.35
618.187	60986.98
618.543	61026.3
618.899	61129.81
619.255	61023.14
619.611	61029.92
619.967	61071.28
620.323	61094.33
620.678	60951.5
621.034	60892.52
621.39	60951.73
621.746	60881.68
622.101	61100.43
622.457	60882.13
622.812	60939.98
623.168	60948.34
623.523	60911.28
623.879	61008
624.234	60792.64
624.589	60836.48
624.945	60856.37
625.3	60878.51
625.655	60850.04
626.01	60817.5
626.365	60824.5
626.72	60747.44
627.075	60783.83
627.43	60774.33
627.785	60682.81
628.14	60766.42
628.495	60751.96
628.85	60805.29
629.205	60661.12
629.559	60823.82
629.914	60646.88
630.269	60785.18
630.623	60757.16
630.978	60641.23
631.332	60812.98
631.687	60801.68
632.041	60692.75
632.396	60843.26
632.75	60737.5
633.104	60721.91
633.459	60667.22
633.813	60626.09
634.167	60691.85
634.521	60619.76
634.875	60675.13
635.229	60608.01
635.583	60487.34
635.937	60499.77
636.291	60505.64
636.645	60488.69
636.999	60416.83
637.352	60463.38
637.706	60364.18
638.06	60454.12
638.413	60365.98
638.767	60271.07
639.121	60254.35
639.474	60028.82
639.828	60101.36
640.181	60061.13
640.534	60072.88
640.888	59923.96
641.241	59810.97
641.594	59864.75
641.947	59875.15
642.301	59784.98
642.654	59754.93
643.007	59719.22
643.36	59695.04
643.713	59671.99
644.066	59617.98
644.419	59444.65
644.771	59323.3
645.124	59076.07
645.477	59041.27
645.83	58877.21
646.182	58762.86
646.535	58665.92
646.888	58751.34
647.24	58542.53
647.593	58667.5
647.945	58637.67
648.298	58549.53
648.65	58469.08
649.002	58551.34
649.355	58663.88
649.707	58595.86
650.059	58717.67
650.411	58997.21
650.763	59035.62
651.115	59275.16
651.467	59197.2
651.819	59178.44
652.171	59095.73
652.523	59105.45
652.875	59112.46
653.227	59021.39
653.578	59220.93
653.93	59172.12
654.282	59069.29
654.633	58954.04
654.985	58960.82
655.337	58957.66
655.688	58913.37
656.039	59036.3
656.391	58808.28
656.742	58814.16
657.094	58806.93
657.445	58880.82
657.796	58836.76
658.147	58717.21
658.498	58749.53
658.849	58714.95
659.2	58619.59
659.551	58593.6
659.902	58636.09
660.253	58523.55
660.604	58547.5
660.955	58445.58
661.306	58404.9
661.656	58366.26
662.007	58318.81
662.358	58295.53
662.708	58260.28
663.059	58295.3
663.409	58018.25
663.76	58223.44
664.11	58109.32
664.461	58182.99
664.811	58175.76
665.161	58129.21
665.511	58074.74
665.862	58041.98
666.212	58113.84
666.562	58175.31
666.912	58105.48
667.262	58087.4
667.612	58170.33
667.962	58122.88
668.312	58119.49
668.662	58220.5
669.011	58119.71
669.361	58149.32
669.711	58171.24
670.06	58070.68
670.41	58022.09
670.76	58043.11
671.109	58168.98
671.459	58082.65
671.808	58054.18
672.157	58136.44
672.507	57919.95
672.856	58016.44
673.205	57901.42
673.554	58080.17
673.904	57952.71
674.253	58083.56
674.602	58045.59
674.951	57620.29
675.3	57469.56
675.649	57941.19
675.998	57841.08
676.346	57896.22
676.695	57946.84
677.044	57722.66
677.393	57829.78
677.741	57795.66
678.09	57659.61
678.438	57662.33
678.787	57573.29
679.135	57546.85
679.484	57434.08
679.832	57444.25
680.181	57313.63
680.529	57384.82
680.877	57191.15
681.225	57200.42
681.573	57290.13
681.922	57079.06
682.27	57042.23
682.618	56951.84
682.966	56851.95
683.314	56917.26
683.661	56823.03
684.009	56650.6
684.357	56594.78
684.705	56512.3
685.053	56632.52
685.4	56568.57
685.748	56435.24
686.095	56443.83
686.443	56268.69
686.79	56260.33
687.138	56264.17
687.485	56277.05
687.832	56112.76
688.18	56176.49
688.527	56060.79
688.874	55985.99
689.221	55963.39
689.568	55935.14
689.915	55903.5
690.262	55894.69
690.609	55837.74
690.956	55744.64
691.303	55760.68
691.65	55583.74
691.997	55577.41
692.344	55439.56
692.69	55522.04
693.037	55463.29
693.383	55257.87
693.73	55350.52
694.077	55101.04
694.423	55218.32
694.769	55101.04
695.116	55044.99
695.462	55035.05
695.808	54921.38
696.155	55016.97
696.501	54774.72
696.847	54761.16
697.193	54468.06
697.539	54623.76
697.885	54382.64
698.231	54328.63
698.577	54305.58
698.923	54283.43
699.269	54076.21
699.614	53870.56
699.96	53841.41
700.306	53763.22
700.651	53654.75
700.997	53501.76
701.342	53438.71
701.688	53489.33
702.033	53322.1
702.379	53268.09
702.724	53116.68
703.069	53285.49
703.415	52798.72
703.76	52883.02
704.105	52793.08
704.45	52678.5
704.795	52510.37
705.14	52362.35
705.485	52274.44
705.83	52064.28
706.175	52156.71
706.52	52080.1
706.865	51828.35
707.209	51803.95
707.554	51598.53
707.899	51685.08
708.243	51515.59
708.588	51471.75
708.932	51125.32
709.277	51238.77
709.621	51268.37
709.966	51111.99
710.31	51235.83
710.654	50839.23
710.998	50843.52
711.342	50944.99
711.687	50820.02
712.031	50742.06
712.375	50539.8
712.719	50758.78
713.063	50568.05
713.407	50689.18
713.75	50430.65
714.094	50541.83
714.438	50353.37
714.782	50364.89
715.125	50183.2
715.469	50342.52
715.812	50076.31
716.156	49920.61
716.499	50029.98
716.843	50070.21
717.186	49796.54
717.53	50097.78
717.873	49873.15
718.216	49840.61
718.559	49665.47
718.902	49317.69
719.246	49602.42
719.589	49468.19
719.932	49211.02
720.275	49244.02
720.617	49271.36
720.96	49027.52
721.303	48962.22
721.646	48977.13
721.989	48781.43
722.331	49020.74
722.674	48734.65
723.016	48791.37
723.359	48566.97
723.701	48525.16
724.044	48192.74
724.386	48086.08
724.729	48236.58
725.071	48133.76
725.413	48017.16
725.755	47962.24
726.097	47744.39
726.439	47582.82
726.782	47408.81
727.124	47735.36
727.465	47457.62
727.807	47401.58
728.149	47316.38
728.491	47190.06
728.833	47207.01
729.175	47046.79
729.516	46877.07
729.858	46573.35
730.199	46856.73
730.541	46655.38
730.882	46573.13
731.224	46730.64
731.565	46264.21
731.906	46363.87
732.248	46384.43
732.589	46160.26
732.93	46107.38
733.271	46009.07
733.612	46168.84
733.953	46122.97
734.294	45801.39
734.635	45792.13
734.976	45894.27
735.317	45510.1
735.658	45703.54
735.999	45613.6
736.339	45464.68
736.68	45686.6
737.021	45461.97
737.361	45334.74
737.702	45561.4
738.042	45442.99
738.383	45330.9
738.723	45359.6
739.063	45217
739.404	45281.41
739.744	45176.55
740.084	45066.27
740.424	45007.74
740.764	44789.44
741.104	44955.99
741.444	44660.18
741.784	44528.21
742.124	44781.76
742.464	44596.23
742.804	44506.97
743.143	44509.9
743.483	44478.27
743.823	44216.35
744.162	44249.8
744.502	44459.06
744.841	44152.17
745.181	44333.64
745.52	43943.14
745.86	44028.33
746.199	43809.13
746.538	43786.31
746.877	43950.6
747.216	43836.47
747.556	43569.14
747.895	43412.3
748.234	43237.85
748.573	43177.96
748.911	43156.27
749.25	43278.75
749.589	42996.95
749.928	42960.34
750.267	43000.79
750.605	42792.66
750.944	42824.52
751.283	42363.07
751.621	42555.38
751.96	42339.79
752.298	42444.42
752.636	42230.42
752.975	41932.12
753.313	41818.45
753.651	42000.36
753.989	41576.65
754.327	41647.61
754.666	41338.69
755.004	41414.62
755.342	41422.53
755.679	41199.48
756.017	40968.53
756.355	41050.33
756.693	40750.68
757.031	41062.54
757.368	40575.77
757.706	40611.25
758.044	40311.6
758.381	40351.14
758.719	40303.01
759.056	40316.12
759.394	39996.35
759.731	39805.85
760.068	39717.71
760.405	39541.9
760.743	39550.49
761.08	39669.8
761.417	39369.02
761.754	39406.31
762.091	39194.34
762.428	39129.03
762.765	38955.7
763.102	39087.22
763.438	38806.1
763.775	38635.48
764.112	38666.89
764.449	38685.42
764.785	38462.6
765.122	38183.52
765.458	38196.17
765.795	37918.44
766.131	38046.34
766.467	38000.7
766.804	37649.52
767.14	37478.22
767.476	37494.95
767.812	37356.87
768.148	37439.35
768.485	37189.87
768.821	37064
769.157	37029.87
769.492	36754.17
769.828	36838.24
770.164	36458.14
770.5	36169.33
770.836	36191.25
771.171	36008.21
771.507	35985.83
771.842	35762.11
772.178	35593.75
772.513	35494.32
772.849	35480.76
773.184	35309.69
773.519	35335.68
773.855	35051.39
774.19	34988.8
774.525	34767.79
774.86	34824.73
775.195	34730.95
775.53	34417.06
775.865	34304.52
776.2	34057.3
776.535	33768.94
776.87	33730.98
777.205	33627.25
777.539	33560.13
777.874	33553.36
778.209	33186.59
778.543	33382.74
778.878	32885.35
779.212	32939.81
779.547	32689.2
779.881	32886.48
780.215	32534.85
780.55	32564.23
780.884	32294.18
781.218	32238.59
781.552	32235.42
781.886	32084.69
782.22	31824.81
782.554	31717.7
782.888	31410.13
783.222	31372.17
783.556	31295.11
783.889	31227.99
784.223	31000.2
784.557	30926.76
784.89	30923.82
785.224	30753.88
785.557	30429.82
785.891	30474.79
786.224	30484.96
786.558	30354.8
786.891	30109.15
787.224	30054.92
787.557	29862.6
787.891	29832.55
788.224	29779.67
788.557	29696.06
788.89	29583.52
789.223	29563.18
789.556	29439.79
789.888	29345.78
790.221	29317.76
790.554	29048.84
790.887	29027.37
791.219	28995.73
791.552	28819.47
791.884	28639.13
792.217	28534.28
792.549	28447.95
792.882	28270.56
793.214	28205.93
793.546	28391.91
793.879	28104.01
794.211	27935.42
794.543	28084.35
794.875	27815.65
795.207	27896.1
795.539	27599.16
795.871	27592.61
796.203	27442.33
796.535	27209.57
796.867	27246.63
797.198	27253.41
797.53	27228.1
797.862	26954.66
798.193	27005.5
798.525	26836.47
798.856	26863.59
799.188	26503.6
799.519	26553.77
799.85	26299.76
800.182	26492.07
800.513	26368.69
800.844	26173.66
801.175	26191.97
801.506	26122.36
801.837	26040.11
802.168	25860
802.499	25864.07
802.83	25642.38
803.161	25542.94
803.491	25518.31
803.822	25515.6
804.153	25404.19
804.483	25142.28
804.814	25085.33
805.145	25115.61
805.475	25138.44
805.805	25000.59
806.136	25059.34
806.466	25051.21
806.796	24886.69
807.126	24534.61
807.457	24441.5
807.787	24374.61
808.117	24322.41
808.447	24355.4
808.777	24415.52
809.107	24247.61
809.436	24159.48
809.766	24236.31
810.096	24084.68
810.426	23898.69
810.755	24038.58
811.085	23834.51
811.414	23872.71
811.744	23597.01
812.073	23680.17
812.403	23597.68
812.732	23434.98
813.061	23410.57
813.39	23327.86
813.719	23363.79
814.049	23357.01
814.378	23215.1
814.707	23161.76
815.036	23077.25
815.365	23041.32
815.693	22747.99
816.022	22865.05
816.351	22770.14
816.68	22710.02
817.008	22685.17
817.337	22594.77
817.665	22510.03
817.994	22604.72
818.322	22474.1
818.651	22394.55
818.979	22333.76
819.307	22337.15
819.636	22225.07
819.964	22219.64
820.292	22292.86
820.62	22189.13
820.948	22200.21
821.276	22298.74
821.604	22165.41
821.932	22230.71
822.259	22204.5
822.587	22119.76
822.915	22163.15
823.243	22301.9
823.57	22085.18
823.898	22221.22
824.225	22044.51
824.553	21964.06
824.88	22069.59
825.207	22157.5
825.535	22062.13
825.862	22249.92
826.189	22055.13
826.516	22088.8
826.843	22074.33
827.17	22112.07
827.497	22140.77
827.824	22248.57
828.151	22208.57
828.478	22202.69
828.805	22318.17
829.131	21973.32
829.458	22054.67
829.785	22005.18
830.111	22008.57
830.438	22099.42
830.764	22025.3
831.09	21993.21
831.417	21917.73
831.743	21935.13
832.069	22018.52
832.395	21858.75
832.722	21851.52
833.048	21826.66
833.374	21897.84
833.7	21694.68
834.026	21835.02
834.351	21857.84
834.677	21784.17
835.003	21776.26
835.329	21822.82
835.654	21743.5
835.98	21629.6
836.306	21606.32
836.631	21543.05
836.956	21730.62
837.282	21554.12
837.607	21372.88
837.932	21402.94
838.258	21418.98
838.583	21361.13
838.908	21255.6
839.233	21356.61
839.558	21222.15
839.883	21185.32
840.208	21054.47
840.533	21173.34
840.858	21066.45
841.182	21160.23
841.507	21115.04
841.832	20888.38
842.156	20969.73
842.481	21044.08
842.805	20818.77
843.13	20830.75
843.454	20748.27
843.778	20717.76
844.103	20738.55
844.427	20541.95
844.751	20553.7
845.075	20626.24
845.399	20392.57
845.723	20410.2
846.047	20395.73
846.371	20248.85
846.695	20152.8
847.019	20053.82
847.343	19976.54
847.666	19885.92
847.99	19913.49
848.313	19779.71
848.637	19805.92
848.96	19814.96
849.284	19814.73
849.607	19567.73
849.931	19555.53
850.254	19393.95
850.577	19312.15
850.9	19087.07
851.223	19191.25
851.546	19012.49
851.869	18874.87
852.192	19006.62
852.515	18803.23
852.838	18793.74
853.161	18734.31
853.483	18674.2
853.806	18609.34
854.129	18614.76
854.451	18611.6
854.774	18444.37
855.096	18355.79
855.419	18363.92
855.741	18317.15
856.063	18200.99
856.385	18190.82
856.708	18216.81
857.03	17978.62
857.352	17956.03
857.674	17953.09
857.996	17956.25
858.318	17856.37
858.64	17844.39
858.961	17774.56
859.283	17791.28
859.605	17645.98
859.926	17794.45
860.248	17613.66
860.57	17525.53
860.891	17596.71
861.212	17460.9
861.534	17436.49
861.855	17278.08
862.176	17364.85
862.498	17286.21
862.819	17359.66
863.14	17163.96
863.461	17160.11
863.782	17217.97
864.103	17061.59
864.424	17021.13
864.745	16995.37
865.065	16941.14
865.386	16980.91
865.707	16934.81
866.027	16971.19
866.348	16954.92
866.668	16824.76
866.989	16792.21
867.309	16710.41
867.63	16697.98
867.95	16689.39
868.27	16642.61
868.59	16697.3
868.91	16655.27
869.23	16654.14
869.55	16539.34
869.87	16571.43
870.19	16572.78
870.51	16562.16
870.83	16581.82
871.15	16517.19
871.469	16433.58
871.789	16450.3
872.109	16397.42
872.428	16312.68
872.748	16353.36
873.067	16340.93
873.386	16412.79
873.706	16277.65
874.025	16311.77
874.344	16211.89
874.663	16265.9
874.982	16222.51
875.301	16190.65
875.62	16153.81
875.939	16106.36
876.258	16120.37
876.577	16059.35
876.896	16077.88
877.214	16075.85
877.533	16063.42
877.852	15962.41
878.17	16025.68
878.489	15928.73
878.807	16001.73
879.125	15977.32
879.444	15955.4
879.762	15808.51
880.08	15838.57
880.398	15788.17
880.716	15791.79
881.034	15774.61
881.352	15872.24
881.67	15703.43
881.988	15765.12
882.306	15759.02
882.624	15688.97
882.941	15642.87
883.259	15568.52
883.577	15542.08
883.894	15488.29
884.212	15536.43
884.529	15531.23
884.846	15427.05
885.164	15444.45
885.481	15428.63
885.798	15441.74
886.115	15310.22
886.432	15338.69
886.75	15259.82
887.067	15212.14
887.383	15139.38
887.7	15193.16
888.017	15151.8
888.334	15117.23
888.651	15131.47
888.967	15081.98
889.284	14989.1
889.6	14968.08
889.917	14928.99
890.233	14877.91
890.55	14800.4
890.866	14860.06
891.182	14728.54
891.498	14748.88
891.815	14682.21
892.131	14609.9
892.447	14553.63
892.763	14550.24
893.079	14578.94
893.395	14508.43
893.71	14434.99
894.026	14413.52
894.342	14352.96
894.657	14275.9
894.973	14265.5
895.289	14244.48
895.604	14172.85
895.92	14086.52
896.235	14135.33
896.55	14074.32
896.865	14020.99
897.181	13969.24
897.496	13949.35
897.811	13864.61
898.126	13850.6
898.441	13770.37
898.756	13701.45
899.071	13690.6
899.386	13663.26
899.7	13473.43
900.015	13498.97
900.33	13383.49
900.644	13468.01
900.959	13377.61
901.273	13351.85
901.588	13286.32
901.902	13235.47
902.216	13146.66
902.531	13128.58
902.845	13148.92
903.159	12988.7
903.473	13031.86
903.787	12860.11
904.101	12854.92
904.415	12965.2
904.729	12829.83
905.042	12810.62
905.356	12764.75
905.67	12724.07
905.984	12687.01
906.297	12566.34
906.611	12535.38
906.924	12569.05
907.237	12456.51
907.551	12368.38
907.864	12377.19
908.177	12356.17
908.491	12292.45
908.804	12256.97
909.117	12153.69
909.43	12163.63
909.743	12095.61
910.056	12078.44
910.368	12018.55
910.681	11949.86
910.994	11864.43
911.307	11829.41
911.619	11746.47
911.932	11854.49
912.244	11682.97
912.557	11701.27
912.869	11576.31
913.181	11540.37
913.494	11586.7
913.806	11443.65
914.118	11519.58
914.43	11356.65
914.742	11482.3
915.054	11343.77
915.366	11332.02
915.678	11243.89
915.99	11174.73
916.302	11125.47
916.613	11136.77
916.925	11111.69
917.236	11045.92
917.548	11009.99
917.859	11006.38
918.171	10947.17
918.482	10889.09
918.794	10880.05
919.105	10842.09
919.416	10731.36
919.727	10697.68
920.038	10679.15
920.349	10603.68
920.66	10569.33
920.971	10627.4
921.282	10497.24
921.593	10431.93
921.903	10437.13
922.214	10343.8
922.525	10342.44
922.835	10290.69
923.146	10216.57
923.456	10239.62
923.767	10142.67
924.077	10154.65
924.387	10135.89
924.697	10010.92
925.008	9980.42
925.318	9945.61
925.628	10036.91
925.938	9918.5
926.248	9858.61
926.558	9790.14
926.867	9819.06
927.177	9747.65
927.487	9718.05
927.796	9627.43
928.106	9623.36
928.416	9584.27
928.725	9609.58
929.034	9507.21
929.344	9480.77
929.653	9401.22
929.962	9349.92
930.271	9250.04
930.581	9344.05
930.89	9216.37
931.199	9165.52
931.508	9165.52
931.817	9217.5
932.125	9070.83
932.434	9066.54
932.743	8997.16
933.051	8955.36
933.36	8935.25
933.669	8848.47
933.977	8769.6
934.286	8823.38
934.594	8836.72
934.902	8684.4
935.21	8697.96
935.519	8614.12
935.827	8604.86
936.135	8635.14
936.443	8483.28
936.751	8469.72
937.059	8467.23
937.367	8386.79
937.674	8374.58
937.982	8340.91
938.29	8286.67
938.597	8254.36
938.905	8196.96
939.213	8199.9
939.52	8156.73
939.827	8236.73
940.135	8085.78
940.442	8036.29
940.749	8011.88
941.056	8003.97
941.363	7952.67
941.67	7942.5
941.977	7835.84
942.284	7839
942.591	7798.1
942.898	7839.68
943.205	7754.03
943.511	7764.2
943.818	7683.07
944.125	7608.95
944.431	7560.14
944.738	7563.76
945.044	7517.66
945.35	7527.82
945.657	7403.31
945.963	7456.41
946.269	7421.16
946.575	7440.14
946.881	7308.4
947.187	7316.53
947.493	7279.92
947.799	7257.55
948.105	7258
948.41	7146.59
948.716	7165.35
949.022	7095.52
949.327	7086.93
949.633	7001.06
949.938	6997.22
950.244	7030.21
950.549	6984.79
950.854	6942.53
951.16	6885.36
951.465	6852.59
951.77	6862.08
952.075	6784.12
952.38	6798.35
952.685	6763.32
952.99	6735.98
953.294	6685.59
953.599	6752.03
953.904	6645.81
954.209	6677
954.513	6587.96
954.818	6561.3
955.122	6518.59
955.426	6495.99
955.731	6527.85
956.035	6462.99
956.339	6467.29
956.643	6447.85
956.948	6424.35
957.252	6411.92
957.556	6371.24
957.86	6334.86
958.163	6304.13
958.467	6235.66
958.771	6270.91
959.075	6234.3
959.378	6180.74
959.682	6186.62
959.985	6108.43
960.289	6085.6
960.592	6068.2
960.896	6016
961.199	6030.01
961.502	5997.92
961.805	5990.01
962.108	5931.26
962.411	5955.44
962.714	5891.26
963.017	5857.59
963.32	5904.36
963.623	5839.51
963.926	5806.97
964.228	5817.36
964.531	5795.89
964.833	5766.29
965.136	5754.31
965.438	5694.88
965.741	5684.48
966.043	5674.54
966.345	5659.63
966.648	5545.28
966.95	5555.22
967.252	5579.4
967.554	5542.57
967.856	5515.22
968.158	5459.4
968.46	5461.21
968.761	5410.14
969.063	5418.05
969.365	5398.84
969.666	5361.55
969.968	5322.23
970.269	5321.55
970.571	5283.36
970.872	5279.07
971.174	5241.56
971.475	5235.46
971.776	5227.55
972.077	5158.4
972.378	5166.3
972.679	5099.64
972.98	5096.7
973.281	5053.77
973.582	5028.91
973.883	5033.2
974.183	4994.56
974.484	4973.54
974.785	4973.09
975.085	4984.61
975.386	4894
975.686	4864.62
975.986	4907.78
976.287	4841.12
976.587	4820.1
976.887	4811.06
977.187	4795.24
977.487	4722.25
977.787	4734.23
978.087	4675.02
978.387	4677.28
978.687	4685.41
978.987	4650.16
979.286	4618.07
979.586	4666.66
979.885	4595.92
980.185	4550.95
980.484	4507.11
980.784	4538.98
981.083	4525.64
981.382	4467.57
981.682	4478.87
981.981	4468.92
982.28	4434.57
982.579	4364.97
982.878	4378.98
983.177	4330.39
983.475	4361.81
983.774	4277.06
984.073	4296.05
984.372	4238.42
984.67	4259.21
984.969	4213.79
985.267	4204.97
985.566	4147.12
985.864	4157.52
986.162	4118.42
986.461	4111.87
986.759	4105.32
987.057	4070.29
987.355	4026.45
987.653	4068.03
987.951	3984.64
988.249	4036.84
988.547	3978.77
988.844	3968.14
989.142	3969.5
989.44	3947.35
989.737	3899.22
990.035	3917.07
990.332	3854.02
990.63	3846.11
990.927	3848.37
991.224	3822.39
991.521	3824.42
991.819	3755.72
992.116	3767.02
992.413	3741.94
992.71	3666.46
993.006	3677.08
993.303	3717.53
993.6	3704.42
993.897	3672.11
994.193	3664.2
994.49	3636.63
994.787	3581.26
995.083	3577.42
995.379	3550.75
995.676	3527.03
995.972	3555.73
996.268	3520.02
996.565	3506.24
996.861	3487.48
997.157	3471.21
997.453	3451.55
997.749	3445.22
998.044	3398.22
998.34	3378.33
998.636	3362.28
998.932	3364.09
999.227	3343.3
999.523	3332.68
999.818	3288.39
1000.114	3267.6
1000.409	3288.84
1000.704	3249.07
1001	3218.79
1001.295	3250.87
1001.59	3182.63
1001.885	3193.93
1002.18	3175.85
1002.475	3169.07
1002.77	3106.7
1003.065	3110.77
1003.359	3082.74
1003.654	3091.78
1003.949	3045.68
1004.243	3072.57
1004.538	3028.73
1004.832	3047.04
1005.127	3044.55
1005.421	2988.51
1005.715	2960.04
1006.009	2950.09
1006.304	2955.52
1006.598	2919.81
1006.892	2930.43
1007.186	2867.16
1007.48	2870.32
1007.773	2847.72
1008.067	2847.27
1008.361	2803.43
1008.655	2820.6
1008.948	2776.31
1009.242	2788.51
1009.535	2718.91
1009.829	2723.43
1010.122	2708.52
1010.415	2726.14
1010.708	2663.09
1011.001	2666.26
1011.295	2648.86
1011.588	2630.78
1011.881	2590.55
1012.173	2595.3
1012.466	2619.03
1012.759	2597.33
1013.052	2554.85
1013.344	2531.12
1013.637	2507.17
1013.93	2492.7
1014.222	2482.99
1014.514	2507.84
1014.807	2471.23
1015.099	2446.83
1015.391	2424.23
1015.683	2434.63
1015.976	2404.8
1016.268	2379.94
1016.56	2377.68
1016.851	2364.57
1017.143	2363.44
1017.435	2360.73
1017.727	2317.11
1018.018	2299.71
1018.31	2247.29
1018.602	2241.86
1018.893	2261.52
1019.185	2229.88
1019.476	2252.26
1019.767	2199.38
1020.058	2210.68
1020.35	2155.99
1020.641	2161.41
1020.932	2149.66
1021.223	2092.71
1021.514	2138.59
1021.804	2073.05
1022.095	2082.54
1022.386	2067.18
1022.677	2064.92
1022.967	2042.77
1023.258	2027.4
1023.548	2018.59
1023.839	1990.57
1024.129	2012.94
1024.419	1930.68
1024.709	1936.56
1025	1938.14
1025.29	1913.28
1025.58	1897.01
1025.87	1824.47
1026.16	1886.62
1026.449	1911.02
1026.739	1866.96
1027.029	1817.69
1027.319	1822.66
1027.608	1782.89
1027.898	1789.9
1028.187	1766.85
1028.477	1751.48
1028.766	1771.14
1029.055	1718.26
1029.344	1722.78
1029.634	1734.53
1029.923	1719.39
1030.212	1669.22
1030.501	1668.54
1030.79	1658.37
1031.078	1637.58
1031.367	1626.74
1031.656	1625.38
1031.945	1619.51
1032.233	1640.3
1032.522	1594.42
1032.81	1567.76
1033.099	1599.84
1033.387	1558.49
1033.675	1549
1033.963	1540.19
1034.251	1528.21
1034.54	1522.33
1034.828	1503.8
1035.116	1471.71
1035.403	1487.08
1035.691	1460.41
1035.979	1447.98
1036.267	1429.68
1036.554	1416.12
1036.842	1411.38
1037.129	1440.3
1037.417	1407.31
1037.704	1398.49
1037.992	1419.96
1038.279	1346.74
1038.566	1350.81
1038.853	1350.81
1039.14	1350.81
