Data from aluminium_macbook_case_FLMS001491_034.txt Node
Date: Tue Feb 07 10:43:31 GMT 2017
User: dcchb
Spectrometer: FLMS00149
Trigger mode: 0
Integration Time (sec): 2.000000E-2
Scans to average: 10
Electric dark correction enabled: true
Nonlinearity correction enabled: false
Boxcar width: 0
XAxis mode: Wavelengths
Number of Pixels in Spectrum: 2048
>>>>>Begin Spectral Data<<<<<
341.393	-3.39
341.776	-3.39
342.16	-3.39
342.543	-54.01
342.927	-57.17
343.31	-71.86
343.693	-83.61
344.077	-64.86
344.46	-57.4
344.843	-32.32
345.226	-29.6
345.61	-30.73
345.993	-23.73
346.376	2.94
346.759	-9.94
347.142	18.53
347.525	44.74
347.908	73.22
348.291	54.46
348.674	97.17
349.057	112.99
349.44	123.16
349.823	138.3
350.206	189.15
350.588	233.89
350.971	255.59
351.354	261.24
351.737	291.52
352.119	304.62
352.502	313.44
352.884	326.55
353.267	348.92
353.65	348.69
354.032	367.67
354.414	364.51
354.797	367.22
355.179	377.17
355.562	374.23
355.944	382.81
356.326	391.63
356.709	401.35
357.091	388.92
357.473	399.76
357.855	420.55
358.238	414.23
358.62	436.15
359.002	408.8
359.384	404.96
359.766	421.68
360.148	413.55
360.53	427.11
360.912	415.36
361.294	398.18
361.676	425.98
362.057	426.88
362.439	437.28
362.821	421.68
363.203	406.99
363.584	413.77
363.966	404.06
364.348	420.33
364.729	441.34
365.111	421.46
365.493	437.5
365.874	414.68
366.256	427.11
366.637	444.06
367.019	419.42
367.4	422.36
367.781	437.95
368.163	431.85
368.544	436.6
368.925	403.83
369.306	428.24
369.688	412.87
370.069	430.72
370.45	447.45
370.831	437.05
371.212	424.4
371.593	438.63
371.974	470.72
372.355	467.11
372.736	457.39
373.117	462.13
373.498	470.5
373.879	467.11
374.26	454.45
374.641	449.25
375.021	467.78
375.402	457.39
375.783	499.87
376.163	544.17
376.544	517.5
376.925	484.06
377.305	500.78
377.686	504.17
378.066	527.9
378.447	508.01
378.827	490.83
379.208	537.84
379.588	556.14
379.968	532.42
380.349	537.39
380.729	546.88
381.109	545.97
381.489	566.99
381.87	551.4
382.25	578.06
382.63	575.13
383.01	588.69
383.39	580.32
383.77	601.11
384.15	595.01
384.53	608.12
384.91	598.63
385.29	626.2
385.67	590.94
386.049	619.19
386.429	648.8
386.809	637.95
387.189	652.64
387.568	656.03
387.948	668.91
388.328	660.55
388.707	674.11
389.087	669.36
389.466	681.79
389.846	708.23
390.225	715.24
390.605	717.5
390.984	736.03
391.363	709.13
391.743	754.56
392.122	753.88
392.501	750.49
392.881	751.17
393.26	785.06
393.639	806.08
394.018	800.2
394.397	804.05
394.776	808.34
395.155	819.64
395.534	865.29
395.913	842.69
396.292	837.49
396.671	862.8
397.05	898.28
397.429	917.72
397.808	892.41
398.186	901.22
398.565	918.39
398.944	930.37
399.323	916.59
399.701	920.2
400.08	936.7
400.458	959.07
400.837	975.79
401.215	980.31
401.594	982.8
401.972	1016.24
402.351	1021.44
402.729	1006.3
403.107	1031.61
403.486	1047.88
403.864	1067.54
404.242	1058.28
404.62	1114.09
404.999	1116.35
405.377	1125.62
405.755	1117.71
406.133	1128.56
406.511	1132.17
406.889	1198.61
407.267	1213.3
407.645	1190.7
408.023	1247.2
408.401	1206.07
408.779	1272.06
409.156	1282
409.534	1283.13
409.912	1304.37
410.29	1337.82
410.667	1316.8
411.045	1353.86
411.422	1385.95
411.8	1391.6
412.178	1453.07
412.555	1453.75
412.933	1467.53
413.31	1507.98
413.687	1528.77
414.065	1546.85
414.442	1536
414.819	1571.94
415.197	1580.3
415.574	1617.58
415.951	1632.95
416.328	1651.03
416.705	1662.56
417.082	1663.46
417.46	1671.59
417.837	1722.89
418.214	1731.03
418.591	1754.53
418.967	1730.12
419.344	1778.03
419.721	1815.55
420.098	1797.47
420.475	1857.13
420.852	1864.13
421.228	1877.24
421.605	1932.15
421.982	1919.27
422.358	1978.71
422.735	1985.71
423.111	1983.22
423.488	2054.41
423.864	2038.36
424.241	2058.02
424.617	2099.38
424.994	2160.85
425.37	2129.66
425.746	2124.69
426.123	2180.28
426.499	2180.73
426.875	2218.7
427.251	2297.57
427.627	2311.13
428.003	2353.61
428.379	2386.15
428.756	2410.56
429.132	2429.77
429.507	2512.93
429.883	2527.62
430.259	2560.61
430.635	2575.75
431.011	2602.42
431.387	2684.22
431.763	2695.52
432.138	2739.36
432.514	2770.55
432.89	2788.18
433.265	2895.97
433.641	2869.98
434.016	2937.1
434.392	2955.63
434.767	3027.94
435.143	3008.51
435.518	3063.42
435.894	3106.36
436.269	3181.84
436.644	3199.24
437.02	3260.25
437.395	3269.07
437.77	3331.89
438.145	3382.28
438.52	3395.16
438.895	3430.64
439.271	3446.69
439.646	3530.3
440.021	3519.23
440.395	3592
440.77	3543.64
441.145	3570.75
441.52	3636.97
441.895	3671.09
442.27	3736.85
442.645	3729.39
443.019	3771.65
443.394	3802.61
443.769	3816.85
444.143	3806
444.518	3925.77
444.892	3924.42
445.267	3980.01
445.641	3977.52
446.016	4031.98
446.39	4038.09
446.764	4068.37
447.139	4076.73
447.513	4125.09
447.887	4154.24
448.262	4233.34
448.636	4248.02
449.01	4314.91
449.384	4345.87
449.758	4388.59
450.132	4447.57
450.506	4460.45
450.88	4409.38
451.254	4513.33
451.628	4558.98
452.002	4616.83
452.376	4655.02
452.75	4699.54
453.123	4740.44
453.497	4800.55
453.871	4886.2
454.244	5017.95
454.618	5039.42
454.992	5123.71
455.365	5073.09
455.739	5255.91
456.112	5292.74
456.486	5384.72
456.859	5424.26
457.232	5515.34
457.606	5511.04
457.979	5606.86
458.352	5698.83
458.725	5766.63
459.099	5803.92
459.472	5932.05
459.845	5986.96
460.218	6025.83
460.591	6082.55
460.964	6128.88
461.337	6279.61
461.71	6402.32
462.083	6468.3
462.456	6533.39
462.829	6557.12
463.201	6767.28
463.574	6734.06
463.947	6797.79
464.32	7027.39
464.692	7045.24
465.065	7076.88
465.438	7173.14
465.81	7357.55
466.183	7466.24
466.555	7592.79
466.928	7609.74
467.3	7607.71
467.672	7765.9
468.045	8012.9
468.417	7975.61
468.789	8015.38
469.161	8189.39
469.534	8361.36
469.906	8461.25
470.278	8581.24
470.65	8665.53
471.022	8836.83
471.394	9029.37
471.766	9083.38
472.138	9166.31
472.51	9417.15
472.882	9570.82
473.253	9762
473.625	9869.57
473.997	10043.35
474.369	10177.81
474.74	10259.62
475.112	10473.17
475.484	10597.91
475.855	10816.21
476.227	10885.82
476.598	11260.04
476.97	11347.27
477.341	11615.06
477.713	11709.07
478.084	11818.45
478.455	12155.84
478.827	12173.92
479.198	12548.14
479.569	12558.77
479.94	13029.26
480.311	13115.81
480.682	13414.11
481.053	13771.84
481.424	14006.19
481.795	14063.13
482.166	14332.73
482.537	14599.62
482.908	14897.91
483.279	15070.11
483.65	15311.24
484.021	15687.27
484.391	15916.64
484.762	16010.65
485.133	16204.55
485.503	16428.49
485.874	16778.77
486.244	16972.21
486.615	17248.81
486.985	17465.76
487.356	17722.92
487.726	17959.3
488.097	18224.15
488.467	18374.43
488.837	18741.65
489.207	18952.95
489.578	19230.45
489.948	19398.13
490.318	19755.64
490.688	19752.02
491.058	20095.06
491.428	20399.46
491.798	20543.19
492.168	21003.29
492.538	21080.8
492.908	21308.82
493.278	21722.37
493.648	21744.96
494.017	22100.21
494.387	22282.35
494.757	22579.52
495.126	22862
495.496	22845.73
495.866	22982.22
496.235	23359.61
496.605	23444.81
496.974	23634.41
497.344	23861.97
497.713	24006.83
498.082	24211.34
498.452	24423.99
498.821	24585.79
499.19	24565.46
499.559	24822.4
499.928	24968.38
500.298	25135.61
500.667	25477.3
501.036	25339.67
501.405	25729.72
501.774	25849.72
502.143	26109.37
502.512	26271.63
502.88	26568.34
503.249	26530.38
503.618	26844.04
503.987	27011.49
504.356	27202.22
504.724	27333.97
505.093	27580.07
505.462	27680.63
505.83	27949.55
506.199	28231.57
506.567	28522.64
506.936	28560.83
507.304	28914.95
507.672	28970.54
508.041	29099.35
508.409	29296.4
508.777	29648.26
509.145	29854.58
509.514	29799.44
509.882	30040.57
510.25	30206.89
510.618	30361.46
510.986	30585.18
511.354	30908.57
511.722	31141.33
512.09	31380.87
512.458	31437.37
512.826	31799.16
513.193	31880.07
513.561	32036.67
513.929	32409.77
514.297	32627.39
514.664	32842.3
515.032	33062.63
515.4	33392.34
515.767	33706.91
516.135	33883.4
516.502	33804.99
516.869	34356.16
517.237	34416.95
517.604	34534.01
517.972	34961.11
518.339	35285.85
518.706	35381.22
519.073	35587.99
519.44	35806.52
519.808	36240.85
520.175	36168.54
520.542	36721.52
520.909	36771.01
521.276	36835.19
521.643	37296.87
522.009	37466.81
522.376	37610.31
522.743	37947.02
523.11	38311.76
523.477	38571.19
523.843	38859.77
524.21	39228.12
524.577	39519.19
524.943	39565.06
525.31	39965.5
525.676	40316.45
526.043	40728.42
526.409	40822.88
526.776	41305.13
527.142	41403.43
527.508	41814.72
527.874	42206.57
528.241	42316.18
528.607	42557.53
528.973	42945.54
529.339	43030.96
529.705	43570.61
530.071	43807.21
530.437	43887.89
530.803	44160.65
531.169	44439.06
531.535	44319.51
531.901	44466.18
532.267	44749.11
532.632	44970.57
532.998	44979.16
533.364	45347.96
533.73	45442.19
534.095	45843.09
534.461	45765.35
534.826	46031.78
535.192	46262.29
535.557	46485.56
535.923	46555.61
536.288	46788.83
536.653	46910.86
537.019	46916.05
537.384	47055.49
537.749	47223.17
538.114	47415.7
538.479	47370.28
538.845	47762.81
539.21	47799.2
539.575	47977.72
539.94	48132.75
540.305	48407.09
540.67	48415.45
541.034	48604.6
541.399	48874.42
541.764	49021.99
542.129	49172.49
542.494	49309.44
542.858	49408.87
543.223	49426.95
543.587	49718.47
543.952	49642.76
544.316	49770.22
544.681	49822.19
545.045	50055.18
545.41	50045.92
545.774	50232.13
546.138	50202.07
546.503	50376.98
546.867	50338.34
547.231	50594.83
547.595	50649.74
547.959	50761.15
548.324	50786.24
548.688	50983.07
549.052	51099.45
549.416	51029.39
549.779	51170.41
550.143	51235.26
550.507	51557.51
550.871	51621.47
551.235	51574.92
551.599	51978.07
551.962	52069.14
552.326	52171.74
552.689	52364.27
553.053	52167.67
553.417	52405.18
553.78	52812.85
554.143	52737.37
554.507	52977.14
554.87	53111.15
555.234	53375.55
555.597	53190.92
555.96	53438.59
556.323	53639.72
556.686	53660.06
557.05	53865.7
557.413	53866.83
557.776	53970.11
558.139	54153.15
558.502	54179.37
558.865	54202.64
559.228	54447.83
559.59	54554.95
559.953	54526.93
560.316	54898.44
560.679	54852.79
561.041	54920.82
561.404	55133.92
561.767	55341.37
562.129	55103.18
562.492	55630.18
562.854	55526.9
563.217	55562.61
563.579	55706.78
563.941	55810.06
564.304	55992.2
564.666	56172.76
565.028	56199.43
565.39	56259.31
565.753	56484.16
566.115	56536.59
566.477	56705.85
566.839	56796.25
567.201	56923.48
567.563	56919.41
567.925	57131.15
568.287	57159.85
568.648	57266.06
569.01	57365.27
569.372	57507.41
569.734	57499.73
570.095	57692.95
570.457	57885.26
570.819	57856.11
571.18	57915.31
571.542	58102.43
571.903	58092.48
572.265	58091.13
572.626	58176.78
572.987	58296.32
573.349	58294.74
573.71	58392.36
574.071	58422.19
574.432	58498.12
574.794	58673.26
575.155	58608.4
575.516	58506.48
575.877	58616.09
576.238	58654.05
576.599	58806.82
576.96	58801.39
577.32	58831.67
577.681	58892.69
578.042	58899.47
578.403	58948.28
578.763	58994.61
579.124	59051.78
579.485	59089.97
579.845	59084.77
580.206	59155.73
580.566	59136.98
580.927	59194.15
581.287	59434.82
581.648	59214.04
582.008	59396.4
582.368	59341.94
582.728	59428.49
583.089	59385.78
583.449	59430.75
583.809	59453.35
584.169	59628.94
584.529	59518.89
584.889	59615.38
585.249	59498.77
585.609	59489.74
585.969	59617.19
586.329	59509.17
586.688	59550.52
587.048	59585.55
587.408	59508.04
587.768	59552.78
588.127	59506.91
588.487	59467.59
588.846	59615.38
589.206	59408.16
589.565	59427.59
589.925	59468.72
590.284	59410.87
590.643	59501.71
591.003	59498.55
591.362	59502.62
591.721	59453.13
592.08	59440.47
592.44	59503.29
592.799	59480.02
593.158	59457.65
593.517	59495.84
593.876	59513.69
594.235	59449.51
594.593	59511.2
594.952	59590.98
595.311	59485.44
595.67	59539
596.029	59680.01
596.387	59699.67
596.746	59795.49
597.104	59635.95
597.463	59635.04
597.822	59724.53
598.18	59758.2
598.538	59708.49
598.897	59875.71
599.255	59662.84
599.613	59997.52
599.972	59875.49
600.33	59972.21
600.688	59949.16
601.046	60013.11
601.404	60067.57
601.762	60019.21
602.12	60083.62
602.478	60145.09
602.836	60146.44
603.194	60034.58
603.552	60051.3
603.91	60014.92
604.268	60126.1
604.625	60010.63
604.983	60161.58
605.341	60011.3
605.698	60036.61
606.056	60073.45
606.413	60079.78
606.771	60107.8
607.128	60152.77
607.485	59982.6
607.843	60003.85
608.2	60241.58
608.557	60206.1
608.914	60126.78
609.272	60256.27
609.629	60257.17
609.986	60341.24
610.343	60245.65
610.7	60420.56
611.057	60412.42
611.414	60354.57
611.771	60395.02
612.127	60452.2
612.484	60492.65
612.841	60646.99
613.198	60475.47
613.554	60540.33
613.911	60703.26
614.267	60684.05
614.624	60613.1
614.98	60750.04
615.337	60923.37
615.693	60835.69
616.05	60811.96
616.406	60983.26
616.762	60812.64
617.118	60835.91
617.475	60901.68
617.831	60947.1
618.187	60986.42
618.543	61020.32
618.899	61093.53
619.255	61069.81
619.611	60975.57
619.967	61119.97
620.323	61110.71
620.678	61023.48
621.034	60944.84
621.39	60915.91
621.746	60892.86
622.101	61122.01
622.457	60898.96
622.812	60940.77
623.168	60960.21
623.523	60938.06
623.879	60941
624.234	60804.73
624.589	60879.08
624.945	60855.12
625.3	60885.18
625.655	60847.21
626.01	60828.01
626.365	60857.61
626.72	60831.17
627.075	60774.9
627.43	60765.18
627.785	60685.86
628.14	60714.79
628.495	60819.42
628.85	60778.51
629.205	60689.25
629.559	60867.78
629.914	60671.17
630.269	60712.98
630.623	60703.71
630.978	60667.11
631.332	60805.18
631.687	60867.55
632.041	60758.4
632.396	60842.24
632.75	60700.55
633.104	60761.11
633.459	60595.02
633.813	60654.45
634.167	60636.82
634.521	60638.86
634.875	60671.4
635.229	60564.28
635.583	60440.9
635.937	60542.36
636.291	60479.99
636.645	60487.22
636.999	60426.89
637.352	60505.75
637.706	60353.67
638.06	60411.07
638.413	60340.33
638.767	60229.6
639.121	60260.79
639.474	60041.36
639.828	60099.44
640.181	60114.35
640.534	60085.65
640.888	59955.71
641.241	59823.29
641.594	59844.53
641.947	59854.47
642.301	59720.69
642.654	59739.45
643.007	59744.42
643.36	59716.17
643.713	59641.37
644.066	59737.19
644.419	59492.67
644.771	59267.14
645.124	59077.54
645.477	59094.04
645.83	58935.63
646.182	58823.09
646.535	58701.73
646.888	58758.68
647.24	58520.95
647.593	58749.87
647.945	58612.92
648.298	58524.34
648.65	58571.79
649.002	58472.36
649.355	58646.59
649.707	58601.62
650.059	58727.72
650.411	58991.44
650.763	59033.02
651.115	59317.54
651.467	59204.09
651.819	59140.82
652.171	59135.62
652.523	59171.1
652.875	59174.49
653.227	59070.31
653.578	59169.52
653.93	59087.03
654.282	59051.33
654.633	58952.12
654.985	59053.36
655.337	58985.12
655.688	58944.89
656.039	59029.41
656.391	58831.22
656.742	58871.45
657.094	58837.77
657.445	58908.96
657.796	58797.32
658.147	58807.27
658.498	58727.04
658.849	58794.61
659.2	58595.07
659.551	58638.01
659.902	58653.83
660.253	58607.5
660.604	58500.16
660.955	58386.71
661.306	58449.08
661.656	58297.22
662.007	58394.17
662.358	58305.13
662.708	58339.26
663.059	58200.5
663.409	58033.95
663.76	58177.23
664.11	58136.32
664.461	58222.2
664.811	58151.92
665.161	58153.27
665.511	58024.91
665.862	58078.92
666.212	58161.18
666.562	58195.76
666.912	58115.53
667.262	58075.99
667.612	58106.95
667.962	58155.31
668.312	58118.02
668.662	58238.69
669.011	58148.08
669.361	58105.36
669.711	58172.93
670.06	58149.43
670.41	58036.21
670.76	58039.15
671.109	58248.64
671.459	58137.68
671.808	58080.05
672.157	58146.27
672.507	57976.1
672.856	58044.58
673.205	57969.55
673.554	58064.01
673.904	57883.68
674.253	58055.65
674.602	58023.56
674.951	57739.05
675.3	57430.35
675.649	57887.97
675.998	57854.07
676.346	57864.24
676.695	57964.35
677.044	57704.92
677.393	57799.16
677.741	57747.86
678.09	57729.33
678.438	57635.32
678.787	57588.99
679.135	57553.74
679.484	57353.52
679.832	57446.63
680.181	57326.85
680.529	57329.57
680.877	57217.25
681.225	57210.7
681.573	57270.58
681.922	57119.4
682.27	56993.3
682.618	56959.18
682.966	56934.1
683.314	56968.22
683.661	56854.1
684.009	56592.64
684.357	56677.15
684.705	56558.74
685.053	56569.59
685.4	56556.03
685.748	56331.85
686.095	56426.09
686.443	56316.71
686.79	56332.08
687.138	56290.95
687.485	56276.71
687.832	56181.8
688.18	56183.61
688.527	56048.7
688.874	56018.64
689.221	55907.23
689.568	55987.68
689.915	55866.78
690.262	55947.23
690.609	55781.36
690.956	55834.46
691.303	55711.53
691.65	55621.14
691.997	55610.97
692.344	55506.79
692.69	55469.05
693.037	55490.74
693.383	55218.66
693.73	55353.57
694.077	55131.21
694.423	55229.28
694.769	55152.22
695.116	55021.83
695.462	55045.33
695.808	54908.84
696.155	54978.89
696.501	54814.15
696.847	54757.43
697.193	54449.42
697.539	54678.56
697.885	54451.45
698.231	54280.15
698.577	54351.57
698.923	54262.98
699.269	54003.1
699.614	53907.28
699.96	53890.33
700.306	53791.13
700.651	53643.56
700.997	53507.75
701.342	53476.56
701.688	53373.06
702.033	53324.25
702.379	53293.06
702.724	53192.5
703.069	53226.85
703.415	52804.04
703.76	52848.1
704.105	52733.08
704.45	52648.33
704.795	52406.31
705.14	52342.8
705.485	52202.24
705.83	52134.22
706.175	52218.74
706.52	52037.28
706.865	51859.2
707.209	51806.77
707.554	51660.56
707.899	51656.72
708.243	51475.26
708.588	51492.43
708.932	51216.05
709.277	51279.1
709.621	51198.88
709.966	51052.89
710.31	51174.7
710.654	50805.44
710.998	50986.91
711.342	50934.93
711.687	50860.13
712.031	50666.69
712.375	50612.91
712.719	50660.81
713.063	50647.93
713.407	50705.33
713.75	50516.64
714.094	50569.29
714.438	50296.98
714.782	50332.69
715.125	50209.3
715.469	50346.02
715.812	50172.24
716.156	49949.65
716.499	50129.08
716.843	50110.09
717.186	49885.69
717.53	50029.64
717.873	50007.5
718.216	49873.94
718.559	49645.47
718.902	49347.4
719.246	49487.29
719.589	49482.99
719.932	49273.73
720.275	49252.26
720.617	49125.49
720.96	49087.97
721.303	49057.47
721.646	49020.41
721.989	48794.65
722.331	48805.72
722.674	48709.23
723.016	48805.95
723.359	48555.33
723.701	48565.5
724.044	48310.37
724.386	48113.09
724.729	48249.58
725.071	48270.14
725.413	48203.25
725.755	48083.48
726.097	47801.91
726.439	47570.73
726.782	47561.24
727.124	47650.72
727.465	47434.01
727.807	47316.04
728.149	47294.8
728.491	47108.14
728.833	47267.23
729.175	46957.86
729.516	46839.22
729.858	46749.73
730.199	46754.02
730.541	46638.55
730.882	46612.79
731.224	46661.6
731.565	46277.65
731.906	46472.45
732.248	46333.92
732.589	46227.71
732.93	46027.26
733.271	46131.22
733.612	46044.67
733.953	46131.22
734.294	45940.03
734.635	45820.72
734.976	45842.41
735.317	45602.42
735.658	45612.36
735.999	45604
736.339	45530.78
736.68	45598.8
737.021	45562.42
737.361	45321.52
737.702	45510.89
738.042	45421.4
738.383	45349.99
738.723	45355.19
739.063	45171.69
739.404	45197.91
739.744	45243.78
740.084	45106.16
740.424	45076.55
740.764	44960.63
741.104	45025.03
741.444	44747.98
741.784	44616
742.124	44727.86
742.464	44558.15
742.804	44438.83
743.143	44528.77
743.483	44417.82
743.823	44239.74
744.162	44153.19
744.502	44394.99
744.841	44018.96
745.181	44227.09
745.52	43900.54
745.86	44045.62
746.199	43957.26
746.538	43907.55
746.877	43836.14
747.216	43810.37
747.556	43574.22
747.895	43545.52
748.234	43379.2
748.573	43179.43
748.911	43223.95
749.25	43219.65
749.589	42954.8
749.928	43140.33
750.267	42982.6
750.605	42807.91
750.944	42592.33
751.283	42513.23
751.621	42562.27
751.96	42407.92
752.298	42363.63
752.636	42275.95
752.975	42038.89
753.313	41891.1
753.651	42034.83
753.989	41610.21
754.327	41501.28
754.666	41308.52
755.004	41345.81
755.342	41427.39
755.679	41343.77
756.017	41134.29
756.355	41139.26
756.693	40856.1
757.031	40933.39
757.368	40658.59
757.706	40685.94
758.044	40496.79
758.381	40492.95
758.719	40293.63
759.056	40294.99
759.394	40128.89
759.731	39914.2
760.068	39838.95
760.405	39560.09
760.743	39371.17
761.08	39620.2
761.417	39546.08
761.754	39362.13
762.091	39217.73
762.428	39054.57
762.765	38907
763.102	39094.79
763.438	38743.61
763.775	38665.65
764.112	38708.81
764.449	38673.79
764.785	38432.44
765.122	38294.59
765.458	38218.43
765.795	37968.72
766.131	37956.74
766.467	37900.02
766.804	37766.69
767.14	37609.86
767.476	37575.74
767.812	37482.4
768.148	37515.85
768.485	37180.72
768.821	36970.1
769.157	37040.16
769.492	36858.24
769.828	36804.91
770.164	36497.8
770.5	36357.69
770.836	36354.98
771.171	36045.38
771.507	35972.16
771.842	35757.7
772.178	35639.51
772.513	35565.62
772.849	35410.59
773.184	35262.58
773.519	35367.66
773.855	35093.77
774.19	34906.43
774.525	34794.11
774.86	34811.29
775.195	34660.56
775.53	34441.81
775.865	34307.57
776.2	34007.24
776.535	33834.14
776.87	33868.94
777.205	33694.48
777.539	33510.31
777.874	33608.61
778.209	33265.11
778.543	33162.29
778.878	33006.36
779.212	32819.93
779.547	32752.36
779.881	32768.86
780.215	32640.72
780.55	32650.21
780.884	32345.14
781.218	32218.14
781.552	32240.73
781.886	32025.6
782.22	31715.1
782.554	31675.33
782.888	31389.01
783.222	31353.75
783.556	31389.91
783.889	31223.13
784.223	31012.07
784.557	30775.46
784.89	30929.81
785.224	30637.16
785.557	30577.95
785.891	30488.92
786.224	30435.36
786.558	30436.04
786.891	30118.76
787.224	30003.73
787.557	29869.95
787.891	29963.28
788.224	29868.14
788.557	29622.5
788.89	29678.09
789.223	29670.41
789.556	29269.51
789.888	29357.19
790.221	29149.52
790.554	28962.4
790.887	29097.09
791.219	28916.98
791.552	28888.96
791.884	28640.6
792.217	28655.29
792.549	28415.52
792.882	28306.37
793.214	28321.06
793.546	28268.64
793.879	27990
794.211	27928.53
794.543	28123.78
794.875	27835.65
795.207	27869.32
795.539	27791.59
795.871	27720.4
796.203	27444.48
796.535	27332.16
796.867	27313.41
797.198	27218.95
797.53	27233.63
797.862	26995.9
798.193	27094.43
798.525	26882.46
798.856	26881.1
799.188	26595.23
799.519	26456.03
799.85	26455.35
800.182	26357.73
800.513	26430.49
800.844	26080.9
801.175	26277.95
801.506	26149.82
801.837	25967.68
802.168	25848.36
802.499	25849.04
802.83	25736.5
803.161	25609.95
803.491	25538.09
803.822	25574.02
804.153	25484.08
804.483	25111.88
804.814	25140.81
805.145	25099.45
805.475	25129.28
805.805	25084.76
806.136	24968.16
806.466	24892.9
806.796	24812
807.126	24534.72
807.457	24588.73
807.787	24534.5
808.117	24295.86
808.447	24191.45
808.777	24461.96
809.107	24306.71
809.436	24195.07
809.766	24078.46
810.096	24072.14
810.426	23950.56
810.755	23948.97
811.085	23814.52
811.414	23824.46
811.744	23694.07
812.073	23643.67
812.403	23642.99
812.732	23522.09
813.061	23290.01
813.39	23300.18
813.719	23249.33
814.049	23387.86
814.378	23154.42
814.707	23178.83
815.036	23233.51
815.365	23028.1
815.693	22901.32
816.022	22936.8
816.351	22772.51
816.68	22757.14
817.008	22826.52
817.337	22574.1
817.665	22495.91
817.994	22615
818.322	22483.7
818.651	22366.19
818.979	22255.01
819.307	22337.72
819.636	22339.75
819.964	22212.3
820.292	22318.06
820.62	22244.84
820.948	22091.62
821.276	22335.23
821.604	22158.97
821.932	22175.46
822.259	22270.6
822.587	22273.31
822.915	22168.68
823.243	22143.6
823.57	22116.93
823.898	22191.73
824.225	22099.98
824.553	22034.9
824.88	22162.36
825.207	22182.69
825.535	22102.24
825.862	22115.8
826.189	21989.48
826.516	22179.53
826.843	22222.69
827.17	22138.17
827.497	22184.28
827.824	22205.74
828.151	22232.86
828.478	22191.28
828.805	22299.3
829.131	22099.76
829.458	21986.09
829.785	21902.47
830.111	22038.97
830.438	22105.86
830.764	22029.48
831.09	21991.51
831.417	21827.22
831.743	22023.38
832.069	22001
832.395	21982.02
832.722	21967.56
833.048	21843.72
833.374	21924.4
833.7	21728.47
834.026	21775.25
834.351	21798.52
834.677	21761.24
835.003	21817.28
835.329	21792.42
835.654	21707.9
835.98	21548.59
836.306	21673.55
836.631	21570.28
836.956	21610.51
837.282	21579.55
837.607	21397.18
837.932	21387.69
838.258	21380.45
838.583	21381.13
838.908	21227.46
839.233	21329.83
839.558	21218.88
839.883	21151.08
840.208	21111.99
840.533	21115.38
840.858	21021.14
841.182	21161.03
841.507	21029.05
841.832	20931.43
842.156	20845.78
842.481	20921.03
842.805	20876.06
843.13	20809.85
843.454	20763.52
843.778	20596.07
844.103	20668.16
844.427	20621.15
844.751	20558.33
845.075	20511.78
845.399	20498.44
845.723	20321.73
846.047	20411.67
846.371	20222.07
846.695	20157.89
847.019	19998.8
847.343	19936.42
847.666	19896.65
847.99	19979.14
848.313	19881.51
848.637	19733.94
848.96	19773.49
849.284	19724.23
849.607	19568.98
849.931	19508.19
850.254	19270.45
850.577	19373.5
850.9	19119.95
851.223	19138.03
851.546	19089.89
851.869	18970.35
852.192	18952.5
852.515	18819.39
852.838	18763.8
853.161	18728.1
853.483	18645.39
853.806	18550.02
854.129	18590.25
854.451	18523.13
854.774	18402.91
855.096	18342.12
855.419	18343.02
855.741	18303.47
856.063	18270.48
856.385	18157.49
856.708	18175.12
857.03	18058.06
857.352	18159.3
857.674	17990.49
857.996	17810.83
858.318	17887.67
858.64	17765.86
858.961	17810.38
859.283	17793.43
859.605	17686.31
859.926	17770.61
860.248	17614.9
860.57	17555.47
860.891	17540.56
861.212	17408.58
861.534	17312.09
861.855	17362.26
862.176	17444.74
862.498	17379.88
862.819	17338.08
863.14	17286.33
863.461	17318.87
863.782	17047.46
864.103	17103.05
864.424	17053.34
864.745	17019.21
865.065	16867.58
865.386	16903.28
865.707	16958.88
866.027	16962.49
866.348	16886.79
866.668	16857.18
866.989	16828.71
867.309	16745.1
867.63	16761.14
867.95	16783.97
868.27	16694.25
868.59	16621.94
868.91	16635.49
869.23	16692.22
869.55	16542.62
869.87	16705.1
870.19	16623.74
870.51	16643.4
870.83	16584.65
871.15	16388.27
871.469	16439.34
871.789	16458.78
872.109	16391.21
872.428	16365.45
872.748	16240.48
873.067	16378.1
873.386	16292
873.706	16346.01
874.025	16301.27
874.344	16282.06
874.663	16289.74
874.982	16320.7
875.301	16230.53
875.62	16113.7
875.939	16148.28
876.258	16052.91
876.577	16064.66
876.896	16024.21
877.214	16013.14
877.533	16070.31
877.852	15943.08
878.17	16045.91
878.489	15977.88
878.807	15943.54
879.125	15911.45
879.444	15894.27
879.762	15897.66
880.08	15896.76
880.398	15859.47
880.716	15918.23
881.034	15773.82
881.352	15831.22
881.67	15755.07
881.988	15830.77
882.306	15798.23
882.624	15744.67
882.941	15610.44
883.259	15539.25
883.577	15612.7
883.894	15530.89
884.212	15562.3
884.529	15464.45
884.846	15471.23
885.164	15484.34
885.481	15355.98
885.798	15380.61
886.115	15296.77
886.432	15226.94
886.75	15246.6
887.067	15273.27
887.383	15267.62
887.7	15244.34
888.017	15019.04
888.334	15161.18
888.651	15154.63
888.967	15070.11
889.284	15050.68
889.6	15029.44
889.917	14843
890.233	14975.2
890.55	14813.4
890.866	14853.17
891.182	14804.81
891.498	14707.64
891.815	14666.96
892.131	14686.62
892.447	14585.15
892.763	14551.03
893.079	14544.93
893.395	14455.21
893.71	14433.07
894.026	14514.19
894.342	14371.83
894.657	14240.3
894.973	14272.17
895.289	14183.13
895.604	14200.3
895.92	14127.31
896.235	14159.63
896.55	14067.65
896.865	13947.66
897.181	13896.81
897.496	13948.79
897.811	13949.46
898.126	13758.51
898.441	13779.75
898.756	13772.07
899.071	13633.09
899.386	13673.99
899.7	13509.25
900.015	13459.99
900.33	13470.38
900.644	13416.82
900.959	13441.23
901.273	13357.84
901.588	13266.09
901.902	13315.36
902.216	13234.91
902.531	13172.99
902.845	13096.15
903.159	13082.82
903.473	12930.73
903.787	12987.23
904.101	12907.23
904.415	12923.73
904.729	12860.45
905.042	12757.86
905.356	12767.8
905.67	12662.27
905.984	12631.53
906.297	12593.79
906.611	12488.71
906.924	12528.71
907.237	12510.86
907.551	12429.5
907.864	12407.36
908.177	12334.36
908.491	12305.67
908.804	12221.6
909.117	12181.6
909.43	12196.06
909.743	12088.95
910.056	12114.03
910.368	11977.31
910.681	11943.87
910.994	11964.43
911.307	11888.5
911.619	11749.75
911.932	11793.59
912.244	11776.64
912.557	11669.75
912.869	11536.87
913.181	11539.81
913.494	11547.94
913.806	11579.36
914.118	11472.24
914.43	11474.73
914.742	11426.14
915.054	11291
915.366	11285.8
915.678	11240.61
915.99	11223.89
916.302	11168.97
916.613	11130.55
916.925	11136.43
917.236	11050.33
917.548	10977.56
917.859	10959.49
918.171	10947.96
918.482	10920.84
918.794	10817.57
919.105	10833.61
919.416	10714.52
919.727	10727.18
920.038	10621.42
920.349	10590.46
920.66	10566.73
920.971	10674.52
921.282	10510.23
921.593	10496.67
921.903	10440.63
922.214	10418.48
922.525	10384.36
922.835	10312.5
923.146	10189.56
923.456	10258.26
923.767	10218.94
924.077	10133.97
924.387	10078.38
924.697	10087.42
925.008	10044.93
925.318	10046.29
925.628	9937.59
925.938	9977.36
926.248	9894.43
926.558	9922.68
926.867	9807.2
927.177	9723.13
927.487	9763.59
927.796	9552.74
928.106	9575.34
928.416	9575.57
928.725	9582.57
929.034	9510.94
929.344	9424.38
929.653	9507.55
929.962	9379.64
930.271	9308.91
930.581	9261.45
930.89	9299.87
931.199	9198.18
931.508	9191.85
931.817	9124.51
932.125	9091.51
932.434	9136.48
932.743	8995.47
933.051	8991.63
933.36	8923.83
933.669	8869.37
933.977	8867.79
934.286	8897.17
934.594	8799.09
934.902	8769.71
935.21	8676.61
935.519	8669.38
935.827	8640.68
936.135	8546.22
936.443	8466.9
936.751	8459.89
937.059	8475.71
937.367	8419.67
937.674	8361.36
937.982	8338.09
938.29	8331.31
938.597	8343.51
938.905	8239.56
939.213	8183.74
939.52	8207.24
939.827	8161.37
940.135	8070.3
940.442	8065.55
940.749	8019.9
941.056	8048.83
941.363	7946.46
941.67	7897.87
941.977	7982.84
942.284	7853.13
942.591	7877.76
942.898	7770.64
943.205	7816.52
943.511	7723.86
943.818	7722.96
944.125	7650.42
944.431	7612.68
944.738	7550.99
945.044	7508.5
945.35	7445.68
945.657	7415.62
945.963	7429.86
946.269	7392.35
946.575	7369.52
946.881	7366.81
947.187	7302.41
947.493	7288.62
947.799	7220.15
948.105	7227.83
948.41	7148.06
948.716	7153.03
949.022	7099.47
949.327	7102.19
949.633	7001.85
949.938	7073.49
950.244	7006.82
950.549	6981.96
950.854	6890.21
951.16	6944.22
951.465	6864.45
951.77	6810.89
952.075	6840.5
952.38	6835.07
952.685	6791.46
952.99	6705.59
953.294	6705.59
953.599	6745.13
953.904	6698.35
954.209	6615.65
954.513	6649.32
954.818	6564.57
955.122	6566.38
955.426	6579.26
955.731	6468.76
956.035	6492.48
956.339	6445.48
956.643	6435.99
956.948	6383.79
957.252	6412.26
957.556	6370
957.86	6331.13
958.163	6304.69
958.467	6297.24
958.771	6217.69
959.075	6188.99
959.378	6153.28
959.682	6185.6
959.985	6140.4
960.289	6147.18
960.592	6125.71
960.896	6080.52
961.199	6042.55
961.502	6008.2
961.805	6044.81
962.108	5978.83
962.411	5964.36
962.714	5912.16
963.017	5921.43
963.32	5941.09
963.623	5858.83
963.926	5855.21
964.228	5810.24
964.531	5812.73
964.833	5754.65
965.136	5750.58
965.438	5707.65
965.741	5641.66
966.043	5684.37
966.345	5668.33
966.648	5584.49
966.95	5642.79
967.252	5546.07
967.554	5573.64
967.856	5530.25
968.158	5486.18
968.46	5465.84
968.761	5498.39
969.063	5396.69
969.365	5349.46
969.666	5352.85
969.968	5356.24
970.269	5323.93
970.571	5324.61
970.872	5253.65
971.174	5247.55
971.475	5214.33
971.776	5188.34
972.077	5175.01
972.378	5165.74
972.679	5127.55
972.98	5109.7
973.281	5086.87
973.582	5049.13
973.883	5021.79
974.183	5025.18
974.484	5012.98
974.785	4968.91
975.085	4920.55
975.386	4928.23
975.686	4867.44
975.986	4888.46
976.287	4860.21
976.587	4820.21
976.887	4821.12
977.187	4775.02
977.487	4782.02
977.787	4727.79
978.087	4754.9
978.387	4731.63
978.687	4711.29
978.987	4616.83
979.286	4552.2
979.586	4600.56
979.885	4539.09
980.185	4596.94
980.484	4545.87
980.784	4516.04
981.083	4505.42
981.382	4514.01
981.682	4487.11
981.981	4440.56
982.28	4416.61
982.579	4332.77
982.878	4377.74
983.177	4361.02
983.475	4351.75
983.774	4318.98
984.073	4301.81
984.372	4262.94
984.67	4265.65
984.969	4267.46
985.267	4207.35
985.566	4199.21
985.864	4172.32
986.162	4184.07
986.461	4123.51
986.759	4143.85
987.057	4068.37
987.355	4097.29
987.653	4089.38
987.951	4032.44
988.249	4015.49
988.547	3976.39
988.844	3966
989.142	3949.27
989.44	3940.91
989.737	3945.43
990.035	3894.36
990.332	3915.15
990.63	3835.61
990.927	3828.15
991.224	3853.68
991.521	3813.91
991.819	3766
992.116	3760.13
992.413	3738.66
992.71	3723.29
993.006	3714.25
993.303	3684.65
993.6	3709.06
993.897	3693.69
994.193	3650.98
994.49	3627.02
994.787	3631.32
995.083	3582.05
995.379	3560.36
995.676	3568.72
995.972	3507.7
996.268	3538.44
996.565	3502.28
996.861	3490.3
997.157	3441.94
997.453	3450.76
997.749	3417.54
998.044	3438.33
998.34	3426.8
998.636	3378.67
998.932	3383.41
999.227	3345.45
999.523	3359.91
999.818	3321.04
1000.114	3325.11
1000.409	3302.06
1000.704	3236.98
1001	3224.32
1001.295	3198.33
1001.59	3226.58
1001.885	3222.51
1002.18	3139.35
1002.475	3125.34
1002.77	3158.79
1003.065	3140.48
1003.359	3074.72
1003.654	3107.26
1003.949	3084.44
1004.243	3026.59
1004.538	3033.37
1004.832	3047.83
1005.127	3007.6
1005.421	2984.78
1005.715	2987.72
1006.009	2971.22
1006.304	2948.4
1006.598	2905.01
1006.892	2916.31
1007.186	2888.29
1007.48	2870.66
1007.773	2883.54
1008.067	2858.91
1008.361	2829.53
1008.655	2834.28
1008.948	2794.73
1009.242	2760.83
1009.535	2757.89
1009.829	2794.28
1010.122	2698.46
1010.415	2700.72
1010.708	2720.38
1011.001	2655.3
1011.295	2650.55
1011.588	2649.65
1011.881	2622.76
1012.173	2597.67
1012.466	2592.93
1012.759	2573.04
1013.052	2556.99
1013.344	2587.05
1013.637	2504.11
1013.93	2489.65
1014.222	2527.84
1014.514	2471.12
1014.807	2462.53
1015.099	2439.48
1015.391	2445.81
1015.683	2462.99
1015.976	2437.68
1016.268	2395.64
1016.56	2375.3
1016.851	2360.62
1017.143	2333.5
1017.435	2345.7
1017.727	2323.33
1018.018	2318.13
1018.31	2293.5
1018.602	2259.6
1018.893	2279.71
1019.185	2253.73
1019.476	2263.22
1019.767	2212.6
1020.058	2206.04
1020.35	2191.81
1020.641	2152.03
1020.932	2170.56
1021.223	2139.83
1021.514	2132.83
1021.804	2100.96
1022.095	2087.4
1022.386	2077.46
1022.677	2052.6
1022.967	2018.7
1023.258	2031.13
1023.548	2031.13
1023.839	2022.09
1024.129	1971.93
1024.419	1957.24
1024.709	1965.15
1025	1928.31
1025.29	1907.07
1025.58	1910.23
1025.87	1883.11
1026.16	1894.19
1026.449	1886.05
1026.739	1852.83
1027.029	1844.7
1027.319	1848.99
1027.608	1804.47
1027.898	1803.34
1028.187	1767.41
1028.477	1814.87
1028.766	1764.93
1029.055	1755.66
1029.344	1724.93
1029.634	1736.45
1029.923	1710.69
1030.212	1674.53
1030.501	1691.03
1030.79	1656.91
1031.078	1648.54
1031.367	1643.35
1031.656	1636.34
1031.945	1641.09
1032.233	1594.76
1032.522	1594.99
1032.81	1601.77
1033.099	1568.55
1033.387	1540.3
1033.675	1549.11
1033.963	1510.24
1034.251	1531.26
1034.54	1526.74
1034.828	1504.82
1035.116	1470.02
1035.403	1462.33
1035.691	1470.92
1035.979	1465.05
1036.267	1445.39
1036.554	1415.56
1036.842	1443.13
1037.129	1429.79
1037.417	1421.43
1037.704	1395.22
1037.992	1389.34
1038.279	1373.07
1038.566	1354.09
1038.853	1354.09
1039.14	1354.09
