Data from aluminium_macbook_case_FLMS001491_038.txt Node
Date: Tue Feb 07 10:43:32 GMT 2017
User: dcchb
Spectrometer: FLMS00149
Trigger mode: 0
Integration Time (sec): 2.000000E-2
Scans to average: 10
Electric dark correction enabled: true
Nonlinearity correction enabled: false
Boxcar width: 0
XAxis mode: Wavelengths
Number of Pixels in Spectrum: 2048
>>>>>Begin Spectral Data<<<<<
341.393	-15.23
341.776	-15.23
342.16	-15.23
342.543	-49.57
342.927	-60.42
343.31	-104.26
343.693	-81.66
344.077	-50.93
344.46	-56.13
344.843	-35.34
345.226	-49.35
345.61	-25.17
345.993	-16.36
346.376	12.57
346.759	5.11
347.142	26.81
347.525	49.41
347.908	55.28
348.291	79.91
348.674	80.14
349.057	109.97
349.44	123.08
349.823	139.35
350.206	190.87
350.588	219.8
350.971	257.54
351.354	276.52
351.737	270.19
352.119	297.76
352.502	322.62
352.884	336.4
353.267	329.62
353.65	341.83
354.032	360.36
354.414	342.51
354.797	371.43
355.179	374.14
355.562	367.59
355.944	356.74
356.326	398.55
356.709	393.8
357.091	400.36
357.473	409.4
357.855	406.46
358.238	421.15
358.62	419.79
359.002	422.05
359.384	424.08
359.766	400.13
360.148	396.51
360.53	408.94
360.912	412.56
361.294	400.13
361.676	416.4
362.057	414.14
362.439	414.37
362.821	404.2
363.203	429.51
363.584	400.13
363.966	423.18
364.348	409.17
364.729	404.42
365.111	408.49
365.493	433.58
365.874	416.63
366.256	413.46
366.637	417.08
367.019	425.67
367.4	401.49
367.781	409.62
368.163	448.94
368.544	448.04
368.925	429.06
369.306	422.28
369.688	419.34
370.069	431.77
370.45	432.67
370.831	456.63
371.212	441.49
371.593	437.87
371.974	444.42
372.355	446.91
372.736	461.82
373.117	446.23
373.498	473.8
373.879	458.66
374.26	446.91
374.641	448.27
375.021	454.82
375.402	464.54
375.783	478.77
376.163	510.41
376.544	495.95
376.925	487.13
377.305	490.75
377.686	516.06
378.066	486
378.447	516.96
378.827	523.74
379.208	508.6
379.588	517.19
379.968	530.75
380.349	538.21
380.729	551.31
381.109	565.78
381.489	553.12
381.87	576.4
382.25	573.91
382.63	596.74
383.01	585.89
383.39	576.4
383.77	580.69
384.15	584.08
384.53	592.89
384.91	595.38
385.29	628.83
385.67	599
386.049	627.92
386.429	591.76
386.809	616.4
387.189	650.75
387.568	648.94
387.948	669.5
388.328	659.11
388.707	680.35
389.087	667.24
389.466	685.32
389.846	691.42
390.225	702.5
390.605	716.28
390.984	725.55
391.363	735.72
391.743	735.04
392.122	753.57
392.501	776.39
392.881	774.36
393.26	790.18
393.639	792.66
394.018	774.36
394.397	813.91
394.776	812.55
395.155	801.93
395.534	816.39
395.913	850.74
396.292	871.98
396.671	860.68
397.05	890.06
397.429	887.58
397.808	915.15
398.186	875.15
398.565	893
398.944	917.18
399.323	930.74
399.701	933
400.08	936.61
400.458	933.22
400.837	962.15
401.215	960.34
401.594	991.53
401.972	986.1
402.351	987.46
402.729	1013
403.107	1053.9
403.486	1047.12
403.864	1075.37
404.242	1069.49
404.62	1089.6
404.999	1100
405.377	1113.56
405.755	1133.67
406.133	1145.87
406.511	1133.9
406.889	1182.71
407.267	1199.66
407.645	1208.92
408.023	1218.19
408.401	1233.33
408.779	1252.99
409.156	1242.59
409.534	1295.93
409.912	1258.19
410.29	1321.01
410.667	1325.08
411.045	1357.85
411.422	1369.82
411.8	1363.95
412.178	1432.65
412.555	1448.24
412.933	1467.9
413.31	1493.44
413.687	1516.49
414.065	1552.64
414.442	1547.22
414.819	1561.91
415.197	1583.38
415.574	1594.45
415.951	1606.2
416.328	1632.19
416.705	1651.17
417.082	1673.77
417.46	1686.2
417.837	1672.41
418.214	1740.66
418.591	1747.44
418.967	1761.9
419.344	1790.38
419.721	1823.14
420.098	1819.53
420.475	1860.43
420.852	1862.24
421.228	1885.06
421.605	1931.39
421.982	1934.33
422.358	1943.14
422.735	1967.32
423.111	1984.27
423.488	2012.07
423.864	1999.64
424.241	2057.71
424.617	2095.23
424.994	2090.93
425.37	2125.74
425.746	2161.89
426.123	2183.36
426.499	2166.19
426.875	2202.12
427.251	2280.53
427.627	2333.87
428.003	2369.34
428.379	2353.98
428.756	2381.77
429.132	2477.36
429.507	2466.29
429.883	2481.21
430.259	2574.54
430.635	2597.14
431.011	2610.69
431.387	2679.39
431.763	2716.91
432.138	2709.67
432.514	2793.29
432.89	2786.73
433.265	2864.92
433.641	2903.57
434.016	2935.66
434.392	3000.29
434.767	3012.94
435.143	3064.24
435.518	3064.24
435.894	3137.46
436.269	3139.72
436.644	3208.19
437.02	3223.33
437.395	3266.72
437.77	3292.26
438.145	3391.46
438.52	3400.96
438.895	3418.81
439.271	3423.78
439.646	3521.18
440.021	3548.75
440.395	3568.18
440.77	3528.86
441.145	3619.93
441.52	3642.53
441.895	3647.73
442.27	3730.66
442.645	3727.95
443.019	3760.27
443.394	3784.9
443.769	3856.31
444.143	3826.48
444.518	3929.3
444.892	3914.16
445.267	3960.94
445.641	4009.3
446.016	4015.18
446.39	4069.41
446.764	4115.06
447.139	4073.03
447.513	4191.22
447.887	4162.07
448.262	4183.08
448.636	4218.79
449.01	4299.92
449.384	4283.87
449.758	4346.69
450.132	4400.7
450.506	4440.02
450.88	4474.37
451.254	4464.43
451.628	4563.86
452.002	4590.53
452.376	4642.28
452.75	4720.47
453.123	4760.02
453.497	4797.3
453.871	4926.79
454.244	5031.87
454.618	5059.67
454.992	5088.14
455.365	5143.73
455.739	5291.75
456.112	5318.65
456.486	5350.06
456.859	5311.41
457.232	5487.68
457.606	5451.52
457.979	5616.49
458.352	5756.6
458.725	5784.4
459.099	5811.97
459.472	5910.27
459.845	5958.18
460.218	6052.64
460.591	6095.35
460.964	6083.15
461.337	6320.65
461.71	6391.61
462.083	6495.34
462.456	6506.18
462.829	6579.86
463.201	6705.28
463.574	6725.39
463.947	6789.12
464.32	6970.13
464.692	7020.97
465.065	7111.82
465.438	7203.79
465.81	7352.26
466.183	7390.91
466.555	7564.01
466.928	7638.36
467.3	7688.98
467.672	7739.82
468.045	7962.87
468.417	7997.22
468.789	8027.05
469.161	8152.7
469.534	8292.13
469.906	8457.77
470.278	8502.74
470.65	8586.58
471.022	8793.13
471.394	8954.03
471.766	9064.99
472.138	9173.46
472.51	9446.45
472.882	9624.52
473.253	9704.97
473.625	9885.76
473.997	10127.56
474.369	10067.22
474.74	10249.59
475.112	10406.42
475.484	10631.73
475.855	10834.88
476.227	10904.49
476.598	11185.61
476.97	11340.86
477.341	11556.22
477.713	11707.86
478.084	11784.92
478.455	12221.74
478.827	12241.18
479.198	12602.97
479.569	12556.2
479.94	13003.64
480.311	13133.81
480.682	13471.88
481.053	13750.51
481.424	13949.83
481.795	14088.58
482.166	14321.8
482.537	14604.5
482.908	14882.69
483.279	15049.01
483.65	15354.09
484.021	15685.83
484.391	15801.53
484.762	16006.5
485.133	16168.3
485.503	16401.74
485.874	16806.93
486.244	16962.86
486.615	17238.11
486.985	17529.4
487.356	17717.42
487.726	17849.39
488.097	18288.25
488.467	18298.42
488.837	18737.95
489.207	18839.42
489.578	19218.62
489.948	19439.18
490.318	19645.5
490.688	19718.49
491.058	20054.08
491.428	20342.88
491.798	20465.59
492.168	21013.15
492.538	21034.84
492.908	21379.01
493.278	21670.08
493.648	21770.19
494.017	22072.1
494.387	22242.49
494.757	22555.48
495.126	22826.66
495.496	22908.47
495.866	22987.11
496.235	23332.18
496.605	23468
496.974	23733.08
497.344	23872.06
497.713	24027.31
498.082	24161.31
498.452	24473.62
498.821	24523.11
499.19	24697.8
499.559	24911.35
499.928	24928.53
500.298	25226.37
500.667	25385.01
501.036	25328.97
501.405	25685.79
501.774	25817.54
502.143	26021.6
502.512	26218.66
502.88	26518.31
503.249	26570.29
503.618	26811.19
503.987	26931.64
504.356	27188.58
504.724	27349.25
505.093	27586.76
505.462	27628.34
505.83	27967.32
506.199	28167.08
506.567	28545.15
506.936	28573.63
507.304	28897.23
507.672	29117.57
508.041	29035.99
508.409	29384.68
508.777	29484.79
509.145	29903.76
509.514	29759.36
509.882	30024.44
510.25	30168.84
510.618	30461.94
510.986	30486.12
511.354	30883.62
511.722	31003.85
512.09	31461.01
512.458	31243.84
512.826	31661.68
513.193	31894.9
513.561	32094.89
513.929	32375.79
514.297	32619.17
514.664	32961.99
515.032	33081.76
515.4	33546.38
515.767	33619.6
516.135	33927.61
516.502	33748.41
516.869	34366.7
517.237	34455.51
517.604	34514.26
517.972	35087.81
518.339	35266.11
518.706	35263.39
519.073	35400.34
519.44	35764.17
519.808	36150.38
520.175	36178.85
520.542	36567.54
520.909	36855.67
521.276	36864.48
521.643	37283.45
522.009	37474.18
522.376	37714.4
522.743	37964.34
523.11	38263.77
523.477	38646.36
523.843	38908.72
524.21	39273.68
524.577	39553.68
524.943	39630.96
525.31	39914.35
525.676	40423.03
526.043	40644.04
526.409	40831.61
526.776	41294.87
527.142	41568.31
527.508	41703.68
527.874	42137.34
528.241	42274.28
528.607	42484.45
528.973	43013.7
529.339	42970.54
529.705	43454.14
530.071	43767.13
530.437	43829.95
530.803	44144.97
531.169	44349.48
531.535	44295.25
531.901	44552.19
532.267	44704.5
532.632	44958.96
532.998	45019.3
533.364	45239.63
533.73	45459.74
534.095	45744.02
534.461	45857.01
534.826	46208.87
535.192	46262.65
535.557	46495.64
535.923	46512.59
536.288	46727.27
536.653	46945.35
537.019	46846.14
537.384	46994.16
537.749	47206.58
538.114	47401.15
538.479	47487.71
538.845	47537.87
539.21	47745.78
539.575	47946
539.94	48024.42
540.305	48461.24
540.67	48439.09
541.034	48569.26
541.399	48905.3
541.764	49036.82
542.129	49079.08
542.494	49190.03
542.858	49423.47
543.223	49555
543.587	49714.31
543.952	49710.25
544.316	49860.3
544.681	49741.43
545.045	49976.45
545.41	50133.51
545.774	50262.1
546.138	50332.6
546.503	50229.55
546.867	50356.11
547.231	50721.97
547.595	50653.95
547.959	50756.77
548.324	50827.51
548.688	50921.97
549.052	51078.57
549.416	51119.7
549.779	51159.02
550.143	51318.34
550.507	51512.23
550.871	51627.26
551.235	51622.51
551.599	51969.62
551.962	52036.29
552.326	52207.13
552.689	52295.94
553.053	52267.47
553.417	52350.86
553.78	52795.82
554.143	52659.32
554.507	52984.96
554.87	53089.59
555.234	53368.68
555.597	53200.78
555.96	53373.2
556.323	53575.68
556.686	53625.62
557.05	53882.34
557.413	53905.62
557.776	53996.46
558.139	54167.3
558.502	54244.59
558.865	54252.5
559.228	54472.61
559.59	54450.01
559.953	54550.8
560.316	54885.48
560.679	54845.93
561.041	55064.46
561.404	55108.52
561.767	55352.58
562.129	55216.09
562.492	55552.35
562.854	55495.86
563.217	55589.19
563.579	55703.99
563.941	55873.47
564.304	55932.46
564.666	56077.99
565.028	56240.02
565.39	56311.65
565.753	56522.95
566.115	56558.2
566.477	56656.05
566.839	56689.72
567.201	56960
567.563	56986.21
567.925	57176.26
568.287	57131.75
568.648	57223.72
569.01	57338.29
569.372	57576.03
569.734	57454.22
570.095	57684.05
570.457	57773.76
570.819	57840.2
571.18	57899.64
571.542	58065.96
571.903	58083.13
572.265	58139.18
572.626	58203.36
572.987	58211.27
573.349	58354.09
573.71	58411.71
574.071	58364.48
574.432	58511.37
574.794	58656
575.155	58538.49
575.516	58446.06
575.877	58615.55
576.238	58684.93
576.599	58759.27
576.96	58818.03
577.32	58811.48
577.681	58916.78
578.042	58966.5
578.403	58996.1
578.763	58950.23
579.124	58952.49
579.485	59114.52
579.845	59216.66
580.206	59115.2
580.566	59173.95
580.927	59233.39
581.287	59389.31
581.648	59216.44
582.008	59354.29
582.368	59342.99
582.728	59367.62
583.089	59384.12
583.449	59415.53
583.809	59427.28
584.169	59552.7
584.529	59417.56
584.889	59614.17
585.249	59541.4
585.609	59541.63
585.969	59655.52
586.329	59479.26
586.688	59545.92
587.048	59581.17
587.408	59498.01
587.768	59524.9
588.127	59490.33
588.487	59408.75
588.846	59588.4
589.206	59397.9
589.565	59455.53
589.925	59528.07
590.284	59440.84
590.643	59476.09
591.003	59456.43
591.362	59538.46
591.721	59474.96
592.08	59416.21
592.44	59524.9
592.799	59514.51
593.158	59526.94
593.517	59465.24
593.876	59512.25
594.235	59515.41
594.593	59554.73
594.952	59552.02
595.311	59506.37
595.67	59547.05
596.029	59700.94
596.387	59694.84
596.746	59688.97
597.104	59635.64
597.463	59640.61
597.822	59744.11
598.18	59696.88
598.538	59710.66
598.897	59947.04
599.255	59649.42
599.613	60013.93
599.972	59920.6
600.33	59993.82
600.688	59939.36
601.046	60027.72
601.404	60098.22
601.762	60051.67
602.12	60112.46
602.478	60124.44
602.836	60166.47
603.194	59991.11
603.552	60055.29
603.91	59982.74
604.268	60114.49
604.625	59968.96
604.983	60050.09
605.341	59948.17
605.698	60113.59
606.056	60059.58
606.413	59994.27
606.771	60179.12
607.128	60103.19
607.485	60012.8
607.843	60034.72
608.2	60148.39
608.557	60186.36
608.914	60136.19
609.272	60238.33
609.629	60238.11
609.986	60328.05
610.343	60260.03
610.7	60451.21
611.057	60412.11
611.414	60375.73
611.771	60430.19
612.127	60495.5
612.484	60540.24
612.841	60622.95
613.198	60504.99
613.554	60617.53
613.911	60721.03
614.267	60669.05
614.624	60649.62
614.98	60805.77
615.337	60892.78
615.693	60833.8
616.05	60793.8
616.406	60954.24
616.762	60809.39
617.118	60862.5
617.475	60915.6
617.831	60953.57
618.187	60962.38
618.543	60978.42
618.899	61111.98
619.255	61056.84
619.611	61017.75
619.967	61080.12
620.323	61105.65
620.678	60982.04
621.034	60945.21
621.39	60932.1
621.746	60898.2
622.101	61143.62
622.457	60923.06
622.812	60939.1
623.168	60965.54
623.523	61010.51
623.879	60926.45
624.234	60815.04
624.589	60850.74
624.945	60888.71
625.3	60848.71
625.655	60815.49
626.01	60823.63
626.365	60811.42
626.72	60806.68
627.075	60821.37
627.43	60783.4
627.785	60732.1
628.14	60755.38
628.495	60791.09
628.85	60807.58
629.205	60688.04
629.559	60848.71
629.914	60684.87
630.269	60773.01
630.623	60712.67
630.978	60652.78
631.332	60761.93
631.687	60865.66
632.041	60722.39
632.396	60777.75
632.75	60698.21
633.104	60790.41
633.459	60618.89
633.813	60609.4
634.167	60649.39
634.521	60676.96
634.875	60673.57
635.229	60599
635.583	60492.34
635.937	60564.2
636.291	60454.37
636.645	60505.89
636.999	60399.68
637.352	60522.39
637.706	60291.44
638.06	60406.91
638.413	60312
638.767	60175.96
639.121	60253.92
639.474	60010.77
639.828	60072.01
640.181	60116.75
640.534	60058.68
640.888	59912.69
641.241	59853.93
641.594	59832.24
641.947	59810.77
642.301	59771.22
642.654	59736.2
643.007	59699.36
643.36	59745.46
643.713	59634.51
644.066	59674.73
644.419	59450.56
644.771	59320.39
645.124	59101.86
645.477	59060.28
645.83	58885.15
646.182	58793.62
646.535	58682.44
646.888	58713.63
647.24	58555.44
647.593	58700.29
647.945	58656.68
648.298	58562.9
648.65	58558.15
649.002	58492.16
649.355	58617.58
649.707	58560.41
650.059	58710.24
650.411	58964.01
650.763	59020.96
651.115	59225.02
651.467	59143.22
651.819	59186.83
652.171	59130.34
652.523	59112.94
652.875	59091.47
653.227	59047.18
653.578	59244.46
653.93	59060.06
654.282	59022.54
654.633	58924.69
654.985	59033.84
655.337	58952.72
655.688	58961.08
656.039	59066.16
656.391	58834.75
656.742	58821.42
657.094	58833.62
657.445	58918.14
657.796	58832.49
658.147	58745.72
658.498	58731.93
658.849	58706.17
659.2	58689.22
659.551	58603.57
659.902	58681.54
660.253	58559.73
660.604	58555.66
660.955	58363.13
661.306	58432.73
661.656	58271.15
662.007	58338.95
662.358	58259.4
662.708	58282.68
663.059	58277.48
663.409	58038.39
663.76	58140.99
664.11	58143.02
664.461	58200.42
664.811	58144.6
665.161	58125.62
665.511	58032.97
665.862	58009.46
666.212	58181.44
666.562	58144.15
666.912	58147.09
667.262	58074.32
667.612	58131.95
667.962	58167.65
668.312	58111.83
668.662	58251.26
669.011	58154.77
669.361	58145.05
669.711	58141.89
670.06	58155.45
670.41	58145.51
670.76	58010.59
671.109	58212.17
671.459	58128.78
671.808	58065.51
672.157	58154.54
672.507	57940.54
672.856	57963.36
673.205	58035.23
673.554	58056.69
673.904	57984.61
674.253	58099.18
674.602	57971.05
674.951	57624.16
675.3	57457.84
675.649	57863.93
675.998	57903.03
676.346	57864.61
676.695	57913.19
677.044	57717.95
677.393	57784.16
677.741	57781.67
678.09	57732.18
678.438	57701.67
678.787	57672.3
679.135	57567.22
679.484	57375.36
679.832	57426.43
680.181	57316.6
680.529	57320.44
680.877	57264.4
681.225	57197.51
681.573	57315.92
681.922	57092.43
682.27	57014.69
682.618	56868.25
682.966	56905.09
683.314	56911.87
683.661	56827.35
684.009	56701.25
684.357	56628.93
684.705	56522.04
685.053	56631.19
685.4	56524.53
685.748	56376.51
686.095	56380.13
686.443	56398.43
686.79	56284.09
687.138	56248.38
687.485	56323.41
687.832	56254.03
688.18	56250.87
688.527	56070.53
688.874	56085.45
689.221	55960.93
689.568	55972
689.915	55934.49
690.262	55916.86
690.609	55759.13
690.956	55795.28
691.303	55689.52
691.65	55583.09
691.997	55601.17
692.344	55501.05
692.69	55481.85
693.037	55453.82
693.383	55217.9
693.73	55363.66
694.077	55197.11
694.423	55206.83
694.769	55168.86
695.116	55022.65
695.462	55130.44
695.808	54943.33
696.155	54931.58
696.501	54745.59
696.847	54747.63
697.193	54459.95
697.539	54605.03
697.885	54418.15
698.231	54230.81
698.577	54317.13
698.923	54275.1
699.269	54021.32
699.614	53951.27
699.96	53872.85
700.306	53789.24
700.651	53595.34
700.997	53593.31
701.342	53509.24
701.688	53385.63
702.033	53312.64
702.379	53380.21
702.724	53146.54
703.069	53212.08
703.415	52863.16
703.76	52800.11
704.105	52861.58
704.45	52613.67
704.795	52373.91
705.14	52250.74
705.485	52220.01
705.83	52127.36
706.175	52226.34
706.52	51907.02
706.865	51787.25
707.209	51801.27
707.554	51700.7
707.899	51614.6
708.243	51510.2
708.588	51458.68
708.932	51277.44
709.277	51304.33
709.621	51289.87
709.966	51159.47
710.31	51161.96
710.654	50820.5
710.998	50950.44
711.342	50899.14
711.687	50898.69
712.031	50703.67
712.375	50689.2
712.719	50763.1
713.063	50527.4
713.407	50765.81
713.75	50390
714.094	50439.04
714.438	50259.16
714.782	50340.06
715.125	50277.69
715.469	50298.71
715.812	50147.75
716.156	49953.18
716.499	50076.79
716.843	50232.49
717.186	49808.1
717.53	49947.08
717.873	49926.29
718.216	49814.42
718.559	49616.01
718.902	49412.18
719.246	49607.2
719.589	49348.22
719.932	49230.03
720.275	49337.83
720.617	49280.88
720.96	49056.03
721.303	49017.16
721.646	49025.29
721.989	48834.79
722.331	48996.82
722.674	48719.09
723.016	48683.15
723.359	48566.1
723.701	48663.95
724.044	48329.49
724.386	48242.49
724.729	48233.68
725.071	48273.9
725.413	48030.06
725.755	47993.68
726.097	47722.28
726.439	47682.05
726.782	47452
727.124	47775.61
727.465	47390.76
727.807	47351.44
728.149	47332.91
728.491	47201.39
728.833	47198.9
729.175	46897.89
729.516	46806.59
729.858	46816.76
730.199	46859.93
730.541	46671
730.882	46635.98
731.224	46636.43
731.565	46293.16
731.906	46406.38
732.248	46271.24
732.589	46091.36
732.93	45967.07
733.271	46014.07
733.612	46209.1
733.953	46161.87
734.294	45922.55
734.635	45810.69
734.976	45874.19
735.317	45628.32
735.658	45742.22
735.999	45619.96
736.339	45376.12
736.68	45753.51
737.021	45478.27
737.361	45376.58
737.702	45570.69
738.042	45429.68
738.383	45433.3
738.723	45413.64
739.063	45294.09
739.404	45272.4
739.744	45150.82
740.084	44931.39
740.424	45082.12
740.764	45022.01
741.104	45090.93
741.444	44733.2
741.784	44717.16
742.124	44729.36
742.464	44617.27
742.804	44543.83
743.143	44442.36
743.483	44502.93
743.823	44169.6
744.162	44337.28
744.502	44243.5
744.841	43983.39
745.181	44240.33
745.52	44065.88
745.86	44024.29
746.199	43884.19
746.538	43780.01
746.877	43813
747.216	43743.17
747.556	43472.9
747.895	43568.04
748.234	43392.67
748.573	43132.79
748.911	43126.92
749.25	43032.68
749.589	42906.81
749.928	43018.67
750.267	42974.38
750.605	42853.93
750.944	42718.34
751.283	42552.02
751.621	42635.86
751.96	42265.02
752.298	42391.57
752.636	42268.86
752.975	42056.21
753.313	41830.91
753.651	41951.81
753.989	41667.29
754.327	41573.74
754.666	41220.07
755.004	41286.29
755.342	41420.3
755.679	41290.35
756.017	41094.65
756.355	41076.35
756.693	40790.03
757.031	40984.6
757.368	40742.57
757.706	40499.19
758.044	40508.68
758.381	40467.33
758.719	40175.36
759.056	40159.09
759.394	40095.58
759.731	39795.93
760.068	39500.35
760.405	39617.4
760.743	39567.91
761.08	39578.76
761.417	39423.74
761.754	39323.63
762.091	39208.38
762.428	39091.77
762.765	38954.6
763.102	39007.93
763.438	38765.45
763.775	38656.53
764.112	38600.93
764.449	38588.96
764.785	38512.12
765.122	38263.54
765.458	38085.69
765.795	37932.93
766.131	38006.37
766.467	37984.68
766.804	37657
767.14	37548.08
767.476	37497.01
767.812	37400.51
768.148	37390.8
768.485	37029.68
768.821	36960.98
769.157	37005.27
769.492	36803.24
769.828	36620.2
770.164	36351.28
770.5	36304.27
770.836	36422.91
771.171	36083.26
771.507	35881.68
771.842	35779.09
772.178	35755.13
772.513	35556.27
772.849	35297.29
773.184	35276.05
773.519	35349.04
773.855	35112.44
774.19	34935.27
774.525	34935.95
774.86	34705.9
775.195	34689.4
775.53	34498.44
775.865	34145.01
776.2	34109.07
776.535	33946.14
776.87	33716.99
777.205	33576.43
777.539	33505.02
777.874	33646.94
778.209	33262.54
778.543	33237.01
778.878	32892.16
779.212	32905.49
779.547	32757.92
779.881	32726.74
780.215	32663.92
780.55	32604.71
780.884	32392.06
781.218	32238.16
781.552	32296.92
781.886	32019.41
782.22	31787.78
782.554	31717.5
782.888	31322.03
783.222	31311.63
783.556	31269.15
783.889	31163.39
784.223	30873.23
784.557	30810.63
784.89	30925.2
785.224	30801.82
785.557	30595.49
785.891	30441.15
786.224	30490.86
786.558	30353.92
786.891	30127.48
787.224	29994.15
787.557	29913.93
787.891	29820.15
788.224	29818.11
788.557	29732.47
788.89	29681.85
789.223	29570.89
789.556	29447.5
789.888	29297.68
790.221	29203.67
790.554	29140.17
790.887	29134.97
791.219	28877.8
791.552	28811.81
791.884	28660.18
792.217	28603.46
792.549	28471.93
792.882	28266.29
793.214	28207.08
793.546	28300.19
793.879	28121.44
794.211	27984.26
794.543	28043.02
794.875	27886.87
795.207	27958.95
795.539	27778.85
795.871	27660.88
796.203	27469.93
796.535	27297.73
796.867	27268.12
797.198	27276.49
797.53	27188.58
797.862	27060.45
798.193	27177.51
798.525	26895.93
798.856	26882.15
799.188	26497.07
799.519	26478.77
799.85	26382.05
800.182	26349.73
800.513	26326
800.844	26090.08
801.175	26341.14
801.506	26050.3
801.837	25960.36
802.168	25943.64
802.499	25865.45
802.83	25648.28
803.161	25520.15
803.491	25598.34
803.822	25593.59
804.153	25483.09
804.483	25121.51
804.814	25048.97
805.145	25067.05
805.475	25145.92
805.805	25081.97
806.136	25022.31
806.466	24966.26
806.796	24739.6
807.126	24523.79
807.457	24514.98
807.787	24532.6
808.117	24352.72
808.447	24279.95
808.777	24355.43
809.107	24225.27
809.436	24184.36
809.766	24247.87
810.096	24040.19
810.426	23943.24
810.755	24015.55
811.085	23897.14
811.414	23919.29
811.744	23637.71
812.073	23644.94
812.403	23666.86
812.732	23529.24
813.061	23446.08
813.39	23437.94
813.719	23167.44
814.049	23336.93
814.378	23239.53
814.707	23063.04
815.036	23021.23
815.365	23014.23
815.693	22965.19
816.022	22937.17
816.351	22788.02
816.68	22698.75
817.008	22756.38
817.337	22479.55
817.665	22556.38
817.994	22531.3
818.322	22491.75
818.651	22372.21
818.979	22367.24
819.307	22453.56
819.636	22351.19
819.964	22178.77
820.292	22257.86
820.62	22258.09
820.948	22155.04
821.276	22240.46
821.604	22245.66
821.932	22267.35
822.259	22282.95
822.587	22199.78
822.915	22166.79
823.243	22151.2
823.57	22120.69
823.898	22141.03
824.225	22087.02
824.553	22084.53
824.88	22067.13
825.207	22089.28
825.535	22107.36
825.862	22080.92
826.189	22127.24
826.516	22039.34
826.843	22242.27
827.17	22116.85
827.497	22176.51
827.824	22222.16
828.151	22142.38
828.478	22104.87
828.805	22206.56
829.131	22118.43
829.458	22122.27
829.785	21993.24
830.111	22028.49
830.438	22126.11
830.764	21963.63
831.09	22018.77
831.417	21894.48
831.743	22118.66
832.069	21976.51
832.395	21852.45
832.722	21966.57
833.048	21840.92
833.374	21910.75
833.7	21907.36
834.026	21725.45
834.351	21853.8
834.677	21733.36
835.003	21781.26
835.329	21766.35
835.654	21750.53
835.98	21605.9
836.306	21531.55
836.631	21556.64
836.956	21608.39
837.282	21483.19
837.607	21421.5
837.932	21461.27
838.258	21459.46
838.583	21408.84
838.908	21243.2
839.233	21309.41
839.558	21195.29
839.883	21025.13
840.208	21027.16
840.533	21132.01
840.858	21014.96
841.182	21164.78
841.507	21106.25
841.832	20989.19
842.156	20953.26
842.481	21052.7
842.805	20779.48
843.13	20799.82
843.454	20712.36
843.778	20621.29
844.103	20659.03
844.427	20610.9
844.751	20675.08
845.075	20666.72
845.399	20527.96
845.723	20284.58
846.047	20348.53
846.371	20185.15
846.695	20148.76
847.019	20016.79
847.343	19953.06
847.666	19877.36
847.99	19847.75
848.313	19984.25
848.637	19896.79
848.96	19732.28
849.284	19738.61
849.607	19562.56
849.931	19518.5
850.254	19376.81
850.577	19362.57
850.9	19106.31
851.223	19101.11
851.546	19015.69
851.869	18888.01
852.192	19031.28
852.515	18819.99
852.838	18736.6
853.161	18746.54
853.483	18546.55
853.806	18624.74
854.129	18554.91
854.451	18505.42
854.774	18428.13
855.096	18380.9
855.419	18359.21
855.741	18349.26
856.063	18276.27
856.385	18188.14
856.708	18029.05
857.03	18046.45
857.352	18050.29
857.674	17990.18
857.996	17945.66
858.318	17845.32
858.64	17784.53
858.961	17838.09
859.283	17766.45
859.605	17735.95
859.926	17777.98
860.248	17611.2
860.57	17515.39
860.891	17488.04
861.212	17392.45
861.534	17379.35
861.855	17302.96
862.176	17382.06
862.498	17334.83
862.819	17304.09
863.14	17324.43
863.461	17108.39
863.782	17199.69
864.103	17122.4
864.424	17145.68
864.745	17109.52
865.065	16975.29
865.386	16911.79
865.707	16884.44
866.027	16933.71
866.348	16966.47
866.668	16944.78
866.989	16896.65
867.309	16759.02
867.63	16785.91
867.95	16659.59
868.27	16690.1
868.59	16724
868.91	16685.8
869.23	16577.56
869.55	16515.87
869.87	16669.08
870.19	16604
870.51	16510.67
870.83	16586.6
871.15	16403.55
871.469	16440.84
871.789	16450.78
872.109	16466.6
872.428	16321.07
872.748	16409.88
873.067	16261.18
873.386	16408.52
873.706	16298.47
874.025	16309.99
874.344	16271.13
874.663	16283.1
874.982	16208.08
875.301	16230.22
875.62	16182.09
875.939	16045.14
876.258	16144.12
876.577	15967.18
876.896	16032.49
877.214	16021.87
877.533	16007.86
877.852	15967.63
878.17	15994.3
878.489	16003.79
878.807	15995.2
879.125	15912.04
879.444	15943.45
879.762	15846.5
880.08	15940.97
880.398	15758.37
880.716	15902.1
881.034	15832.72
881.352	15780.29
881.67	15755.89
881.988	15756.11
882.306	15711.37
882.624	15687.41
882.941	15632.27
883.259	15617.36
883.577	15535.1
883.894	15535.78
884.212	15487.19
884.529	15477.47
884.846	15409.45
885.164	15340.08
885.481	15461.2
885.798	15300.76
886.115	15353.64
886.432	15306.86
886.75	15308.89
887.067	15253.3
887.383	15230.93
887.7	15273.64
888.017	15113.87
888.334	15128.78
888.651	15075
888.967	15095.34
889.284	15039.75
889.6	14964.27
889.917	14917.04
890.233	14847.43
890.55	14755.69
890.866	14793.88
891.182	14762.01
891.498	14701.68
891.815	14707.55
892.131	14685.4
892.447	14578.97
892.763	14590.49
893.079	14434.79
893.395	14598.18
893.71	14460.1
894.026	14439.31
894.342	14368.35
894.657	14320.44
894.973	14246.55
895.289	14239.54
895.604	14164.29
895.92	14065.53
896.235	14159.09
896.55	14065.53
896.865	13983.05
897.181	13991.19
897.496	13898.98
897.811	13941.02
898.126	13769.95
898.441	13798.2
898.756	13741.93
899.071	13635.04
899.386	13681.14
899.7	13467.58
900.015	13481.82
900.33	13419.45
900.644	13441.14
900.959	13470.3
901.273	13313.69
901.588	13227.59
901.902	13249.06
902.216	13203.64
902.531	13099.91
902.845	13122.96
903.159	12984.43
903.473	13019.46
903.787	12953.92
904.101	12853.59
904.415	12877.99
904.729	12832.12
905.042	12833.7
905.356	12743.53
905.67	12736.53
905.984	12737.43
906.297	12691.11
906.611	12518.91
906.924	12511.22
907.237	12490.43
907.551	12450.44
907.864	12344.22
908.177	12382.41
908.491	12314.85
908.804	12207.28
909.117	12234.85
909.43	12172.02
909.743	12054.29
910.056	12127.51
910.368	12010.9
910.681	11990.11
910.994	11907.17
911.307	11912.37
911.619	11840.73
911.932	11786.27
912.244	11700.62
912.557	11632.83
912.869	11631.25
913.181	11550.8
913.494	11560.52
913.806	11455.21
914.118	11476.68
914.43	11385.15
914.742	11400.07
915.054	11347.87
915.366	11303.57
915.678	11268.32
915.99	11241.88
916.302	11134.99
916.613	11109.91
916.925	11114.43
917.236	11038.95
917.548	10963.24
917.859	11000.98
918.171	10873.75
918.482	10839.18
918.794	10862.68
919.105	10844.15
919.416	10768.9
919.727	10690.71
920.038	10656.13
920.349	10630.14
920.66	10531.84
920.971	10541.11
921.282	10555.12
921.593	10436.7
921.903	10389.7
922.214	10424.27
922.525	10300.89
922.835	10365.07
923.146	10230.61
923.456	10223.6
923.767	10106.77
924.077	10194.22
924.387	10098.86
924.697	10055.7
925.008	10024.74
925.318	10015.25
925.628	10023.61
925.938	10003.49
926.248	9843.95
926.558	9930.73
926.867	9808.92
927.177	9780.45
927.487	9694.8
927.796	9629.27
928.106	9667.01
928.416	9607.12
928.725	9530.51
929.034	9488.71
929.344	9527.12
929.653	9485.99
929.962	9283.06
930.271	9324.42
930.581	9315.15
930.89	9278.54
931.199	9162.16
931.508	9182.5
931.817	9191.09
932.125	9116.96
932.434	9081.26
932.743	8948.38
933.051	9029.73
933.36	8956.74
933.669	8905.67
933.977	8847.82
934.286	8803.75
934.594	8792.68
934.902	8745.9
935.21	8681.27
935.519	8643.53
935.827	8590.65
936.135	8526.7
936.443	8455.51
936.751	8466.13
937.059	8567.6
937.367	8430.88
937.674	8382.52
937.982	8401.5
938.29	8249.42
938.597	8332.58
938.905	8150.21
939.213	8209.87
939.52	8190.89
939.827	8112.24
940.135	8073.15
940.442	8087.16
940.749	8044.68
941.056	8056.88
941.363	7944.57
941.67	7896.88
941.977	7918.8
942.284	7805.36
942.591	7829.09
942.898	7742.99
943.205	7733.95
943.511	7763.1
943.818	7723.78
944.125	7621.18
944.431	7627.74
944.738	7568.76
945.044	7582.77
945.35	7505.48
945.657	7451.47
945.963	7414.64
946.269	7406.05
946.575	7374.64
946.881	7427.74
947.187	7319.72
947.493	7340.97
947.799	7251.7
948.105	7189.1
948.41	7172.61
948.716	7189.1
949.022	7115.66
949.327	7131.03
949.633	7003.57
949.938	7061.42
950.244	7050.58
950.549	6981.2
950.854	6900.75
951.16	6911.15
951.465	6801.54
951.77	6828.66
952.075	6832.96
952.38	6739.4
952.685	6806.52
952.99	6729.23
953.294	6734.65
953.599	6669.57
953.904	6643.81
954.209	6612.85
954.513	6644.03
954.818	6553.42
955.122	6510.25
955.426	6560.87
955.731	6486.3
956.035	6516.35
956.339	6504.38
956.643	6429.58
956.948	6362.69
957.252	6374.21
957.556	6317.26
957.86	6321.33
958.163	6291.5
958.467	6293.31
958.771	6291.73
959.075	6205.18
959.378	6159.75
959.682	6168.11
959.985	6118.85
960.289	6096.03
960.592	6086.08
960.896	6055.12
961.199	6016.71
961.502	6073.88
961.805	6016.48
962.108	5931.06
962.411	5917.73
962.714	5922.7
963.017	5895.81
963.32	5938.06
963.623	5839.76
963.926	5818.07
964.228	5814.68
964.531	5775.81
964.833	5791.85
965.136	5749.37
965.438	5701.69
965.741	5669.37
966.043	5655.59
966.345	5653.78
966.648	5592.08
966.95	5585.76
967.252	5546.66
967.554	5510.28
967.856	5547.57
968.158	5490.39
968.46	5443.61
968.761	5435.93
969.063	5402.49
969.365	5395.71
969.666	5342.6
969.968	5275.26
970.269	5308.02
970.571	5284.75
970.872	5329.49
971.174	5212.66
971.475	5247.69
971.776	5182.83
972.077	5177.63
972.378	5150.06
972.679	5110.06
972.98	5111.65
973.281	5064.19
973.582	5025.55
973.883	5002.72
974.183	5067.8
974.484	4964.08
974.785	4956.85
975.085	4974.47
975.386	4879.33
975.686	4871.43
975.986	4928.6
976.287	4843.86
976.587	4828.49
976.887	4867.13
977.187	4783.97
977.487	4754.59
977.787	4767.25
978.087	4720.7
978.387	4712.33
978.687	4643.18
978.987	4639.79
979.286	4598.21
979.586	4618.55
979.885	4588.72
980.185	4586.91
980.484	4493.81
980.784	4503.3
981.083	4497.88
981.382	4470.98
981.682	4459.68
981.981	4426.69
982.28	4411.1
982.579	4401.38
982.878	4365.22
983.177	4315.28
983.475	4329.29
983.774	4277.99
984.073	4283.42
984.372	4253.36
984.67	4224.44
984.969	4223.76
985.267	4231.44
985.566	4156.19
985.864	4127.49
986.162	4155.96
986.461	4153.93
986.759	4092.01
987.057	4073.03
987.355	4037.32
987.653	4046.36
987.951	4033.93
988.249	4021.73
988.547	4017.66
988.844	3976.08
989.142	3948.29
989.44	3949.19
989.737	3902.64
990.035	3889.76
990.332	3889.08
990.63	3856.76
990.927	3851.57
991.224	3783.54
991.521	3794.17
991.819	3781.74
992.116	3728.63
992.413	3754.39
992.71	3743.55
993.006	3734.05
993.303	3689.08
993.6	3664.23
993.897	3684.34
994.193	3669.42
994.49	3687.28
994.787	3576.09
995.083	3568.86
995.379	3560.5
995.676	3551.23
995.972	3544.91
996.268	3512.82
996.565	3483.89
996.861	3496.77
997.157	3452.25
997.453	3394.85
997.749	3429.66
998.044	3410.22
998.34	3420.16
998.636	3380.39
998.932	3349.88
999.227	3334.29
999.523	3321.86
999.818	3342.43
1000.114	3284.12
1000.409	3264.91
1000.704	3285.93
1001	3240.51
1001.295	3238.93
1001.59	3192.37
1001.885	3207.29
1002.18	3172.71
1002.475	3151.02
1002.77	3161.64
1003.065	3147.4
1003.359	3099.27
1003.654	3101.3
1003.949	3055.2
1004.243	3081.64
1004.538	3014.53
1004.832	3008.2
1005.127	3011.36
1005.421	2995.77
1005.715	3008.2
1006.009	2960.97
1006.304	2953.74
1006.598	2931.82
1006.892	2921.42
1007.186	2876.22
1007.48	2881.87
1007.773	2830.35
1008.067	2868.09
1008.361	2799.62
1008.655	2809.11
1008.948	2830.35
1009.242	2798.49
1009.535	2719.84
1009.829	2757.13
1010.122	2706.96
1010.415	2740.18
1010.708	2671.94
1011.001	2676
1011.295	2666.06
1011.588	2612.05
1011.881	2590.36
1012.173	2591.49
1012.466	2611.15
1012.759	2518.72
1013.052	2582.9
1013.344	2508.1
1013.637	2542.9
1013.93	2497.7
1014.222	2508.1
1014.514	2508.78
1014.807	2437.37
1015.099	2494.31
1015.391	2425.84
1015.683	2403.69
1015.976	2407.31
1016.268	2390.81
1016.56	2345.84
1016.851	2347.88
1017.143	2330.93
1017.435	2314.66
1017.727	2293.19
1018.018	2279.86
1018.31	2322.34
1018.602	2271.95
1018.893	2264.26
1019.185	2253.19
1019.476	2251.61
1019.767	2202.8
1020.058	2193.53
1020.35	2186.75
1020.641	2149.46
1020.932	2165.96
1021.223	2113.08
1021.514	2086.87
1021.804	2068.79
1022.095	2115.34
1022.386	2051.16
1022.677	2064.72
1022.967	2017.04
1023.258	2005.06
1023.548	1970.26
1023.839	1983.59
1024.129	1955.12
1024.419	1958.73
1024.709	1912.18
1025	1923.93
1025.29	1918.28
1025.58	1923.48
1025.87	1887.32
1026.16	1830.83
1026.449	1879.19
1026.739	1869.47
1027.029	1849.36
1027.319	1852.52
1027.608	1817.72
1027.898	1789.47
1028.187	1769.81
1028.477	1775.24
1028.766	1752.64
1029.055	1728.68
1029.344	1754.67
1029.634	1704.73
1029.923	1715.12
1030.212	1720.1
1030.501	1677.84
1030.79	1683.26
1031.078	1649.14
1031.367	1619.76
1031.656	1615.92
1031.945	1626.09
1032.233	1620.66
1032.522	1600.55
1032.81	1571.4
1033.099	1551.29
1033.387	1581.79
1033.675	1566.43
1033.963	1512.87
1034.251	1522.81
1034.54	1504.51
1034.828	1481.01
1035.116	1510.16
1035.403	1463.83
1035.691	1466.32
1035.979	1484.17
1036.267	1446.2
1036.554	1429.71
1036.842	1459.54
1037.129	1407.11
1037.417	1415.02
1037.704	1400.33
1037.992	1408.69
1038.279	1375.7
1038.566	1387.9
1038.853	1387.9
1039.14	1387.9
