Data from aluminium_macbook_case_FLMS001491_020.txt Node
Date: Tue Feb 07 10:43:17 GMT 2017
User: dcchb
Spectrometer: FLMS00149
Trigger mode: 0
Integration Time (sec): 2.000000E-2
Scans to average: 10
Electric dark correction enabled: true
Nonlinearity correction enabled: false
Boxcar width: 0
XAxis mode: Wavelengths
Number of Pixels in Spectrum: 2048
>>>>>Begin Spectral Data<<<<<
341.393	-7.63
341.776	-7.63
342.16	-7.63
342.543	-61.18
342.927	-51.02
343.31	-64.35
343.693	-82.43
344.077	-61.64
344.46	-67.96
344.843	-47.17
345.226	-57.57
345.61	-34.52
345.993	-20.28
346.376	-11.47
346.759	26.04
347.142	24.91
347.525	49.55
347.908	51.35
348.291	68.53
348.674	101.97
349.057	125.02
349.44	133.61
349.823	162.76
350.206	186.94
350.588	253.38
350.971	253.38
351.354	270.11
351.737	287.51
352.119	310.56
352.502	331.57
352.884	316.88
353.267	344
353.65	338.13
354.032	368.41
354.414	360.5
354.797	372.93
355.179	367.5
355.562	383.78
355.944	404.11
356.326	388.29
356.709	414.28
357.091	387.84
357.473	407.73
357.855	419.93
358.238	440.95
358.62	416.77
359.002	402.31
359.384	404.79
359.766	443.43
360.148	415.64
360.53	415.19
360.912	421.74
361.294	425.36
361.676	423.55
362.057	435.53
362.439	403.66
362.821	427.84
363.203	407.73
363.584	408.63
363.966	424.23
364.348	443.43
364.729	412.7
365.111	421.06
365.493	434.4
365.874	418.58
366.256	436.88
366.637	424.68
367.019	421.29
367.4	429.42
367.781	429.42
368.163	434.4
368.544	443.21
368.925	420.38
369.306	441.17
369.688	445.47
370.069	438.69
370.45	429.2
370.831	439.82
371.212	447.73
371.593	470.33
371.974	461.51
372.355	464.68
372.736	475.98
373.117	467.39
373.498	455.64
373.879	471
374.26	462.87
374.641	466.48
375.021	469.42
375.402	466.03
375.783	489.31
376.163	522.75
376.544	519.36
376.925	508.29
377.305	518.46
377.686	525.69
378.066	518.91
378.447	519.59
378.827	514.62
379.208	532.25
379.588	529.76
379.968	535.64
380.349	555.52
380.729	542.64
381.109	545.8
381.489	582.64
381.87	564.11
382.25	547.84
382.63	602.98
383.01	585.35
383.39	576.99
383.77	602.07
384.15	596.88
384.53	612.47
384.91	589.42
385.29	624.22
385.67	625.35
386.049	664.45
386.429	656.99
386.809	645.24
387.189	675.07
387.568	654.28
387.948	669.64
388.328	698.57
388.707	671
389.087	689.53
389.466	703.99
389.846	734.05
390.225	727.49
390.605	736.99
390.984	744.9
391.363	760.26
391.743	768.17
392.122	770.66
392.501	775.86
392.881	777.21
393.26	811.79
393.639	817.44
394.018	817.44
394.397	819.92
394.776	845.46
395.155	848.85
395.534	835.06
395.913	878.23
396.292	865.57
396.671	883.2
397.05	897.21
397.429	900.82
397.808	901.28
398.186	921.39
398.565	929.75
398.944	930.2
399.323	954.16
399.701	937.66
400.08	987.15
400.458	982.63
400.837	976.08
401.215	985.79
401.594	1012.91
401.972	993.48
402.351	1028.73
402.729	1063.08
403.107	1059.01
403.486	1063.31
403.864	1064.66
404.242	1124.32
404.62	1118.67
404.999	1119.8
405.377	1129.52
405.755	1148.5
406.133	1182.4
406.511	1174.94
406.889	1200.02
407.267	1217.2
407.645	1239.12
408.023	1254.94
408.401	1259.68
408.779	1281.83
409.156	1311.21
409.534	1290.87
409.912	1327.03
410.29	1335.84
410.667	1373.13
411.045	1391.66
411.422	1426.01
411.8	1430.75
412.178	1468.72
412.555	1472.33
412.933	1495.38
413.31	1535.84
413.687	1548.72
414.065	1580.13
414.442	1569.51
414.819	1581.26
415.197	1627.58
415.574	1628.49
415.951	1642.95
416.328	1680.69
416.705	1693.57
417.082	1712.78
417.46	1719.11
417.837	1769.95
418.214	1768.6
418.591	1789.16
418.967	1812.89
419.344	1822.38
419.721	1861.02
420.098	1842.04
420.475	1888.14
420.852	1894.02
421.228	1928.59
421.605	1950.06
421.982	1995.48
422.358	1992.09
422.735	2021.92
423.111	2021.7
423.488	2050.62
423.864	2092.43
424.241	2102.83
424.617	2117.29
424.994	2151.41
425.37	2203.61
425.746	2203.39
426.123	2220.11
426.499	2270.96
426.875	2256.27
427.251	2333.1
427.627	2368.81
428.003	2426.21
428.379	2431.4
428.756	2438.64
429.132	2486.77
429.507	2562.47
429.883	2553.66
430.259	2579.65
430.635	2638.86
431.011	2684.28
431.387	2726.76
431.763	2796.14
432.138	2765.63
432.514	2820.55
432.89	2821
433.265	2938.51
433.641	3004.72
434.016	3014.89
434.392	3031.39
434.767	3104.16
435.143	3111.39
435.518	3131.73
435.894	3160.88
436.269	3281.33
436.644	3283.81
437.02	3333.08
437.395	3333.75
437.77	3371.72
438.145	3474.99
438.52	3452.4
438.895	3499.17
439.271	3562
439.646	3594.76
440.021	3655.55
440.395	3648.77
440.77	3603.8
441.145	3671.82
441.52	3749.34
441.895	3750.69
442.27	3839.5
442.645	3809
443.019	3862.1
443.394	3852.38
443.769	3940.29
444.143	3931.93
444.518	3997.24
444.892	3955.88
445.267	4027.07
445.641	4093.51
446.016	4083.79
446.39	4154.52
446.764	4156.11
447.139	4181.19
447.513	4207.63
447.887	4221.41
448.262	4239.04
448.636	4283.33
449.01	4382.31
449.384	4458.24
449.758	4439.49
450.132	4535.98
450.506	4529.65
450.88	4555.42
451.254	4627.51
451.628	4680.84
452.002	4732.36
452.376	4702.53
452.75	4805.13
453.123	4867.95
453.497	4964.22
453.871	4948.17
454.244	5068.85
454.618	5158.34
454.992	5235.85
455.365	5224.1
455.739	5366.02
456.112	5430.65
456.486	5389.75
456.859	5499.8
457.232	5592.23
457.606	5620.25
457.979	5682.84
458.352	5854.82
458.725	5866.12
459.099	5954.93
459.472	6050.29
459.845	6121.7
460.218	6201.25
460.591	6236.28
460.964	6267.01
461.337	6420.23
461.71	6537.74
462.083	6681.24
462.456	6636.49
462.829	6673.1
463.201	6828.58
463.574	6783.83
463.947	6984.96
464.32	7098.63
464.692	7147.21
465.065	7279.41
465.438	7397.6
465.81	7468.79
466.183	7516.7
466.555	7701.55
466.928	7755.78
467.3	7714.66
467.672	7838.27
468.045	8080.07
468.417	8142.22
468.789	8237.81
469.161	8291.59
469.534	8494.07
469.906	8674.63
470.278	8754.4
470.65	8907.62
471.022	8961.4
471.394	9149.19
471.766	9296.99
472.138	9428.06
472.51	9568.84
472.882	9755.28
473.253	9843.64
473.625	10081.83
473.997	10179.45
474.369	10270.97
474.74	10438.43
475.112	10600.91
475.484	10769.49
475.855	10983.04
476.227	11099.2
476.598	11388.68
476.97	11496.25
477.341	11744.38
477.713	11976.01
478.084	12009.46
478.455	12405.61
478.827	12521.76
479.198	12847.85
479.569	12969.88
479.94	13362.64
480.311	13457.1
480.682	13800.15
481.053	14028.16
481.424	14316.74
481.795	14482.39
482.166	14720.8
482.537	14866.78
482.908	15212.31
483.279	15301.12
483.65	15628.57
484.021	15885.29
484.391	16011.61
484.762	16181.33
485.133	16335.67
485.503	16592.84
485.874	16982.43
486.244	17155.99
486.615	17468.07
486.985	17711.91
487.356	18000.04
487.726	18185.12
488.097	18590.08
488.467	18648.61
488.837	19083.85
489.207	19332.66
489.578	19527.68
489.948	19837.5
490.318	20048.57
490.688	20306.87
491.058	20646.29
491.428	20892.61
491.798	21133.29
492.168	21466.61
492.538	21529.43
492.908	21755.42
493.278	22082.41
493.648	22165.8
494.017	22319.7
494.387	22595.17
494.757	22866.57
495.126	23058.43
495.496	23070.41
495.866	23372.78
496.235	23584.07
496.605	23737.29
496.974	23874.01
497.344	24180.66
497.713	24273.77
498.082	24487.32
498.452	24830.59
498.821	25047.08
499.19	25049.57
499.559	25363.68
499.928	25482.55
500.298	25741.75
500.667	26015.64
501.036	25970.67
501.405	26473.26
501.774	26376.76
502.143	26707.38
502.512	26819.46
502.88	27005.67
503.249	27253.8
503.618	27488.37
503.987	27446.57
504.356	27763.39
504.724	27919.1
505.093	28017.4
505.462	28112.31
505.83	28289.48
506.199	28560.66
506.567	28832.29
506.936	28873.87
507.304	29155.9
507.672	29420.07
508.041	29450.81
508.409	29697.58
508.777	29904.13
509.145	30124.91
509.514	30274.74
509.882	30630.66
510.25	30759.93
510.618	31093.93
510.986	31045.79
511.354	31551.77
511.722	31755.15
512.09	31907.69
512.458	32031.98
512.826	32483.27
513.193	32627.45
513.561	32874.22
513.929	32989.7
514.297	33434.66
514.664	33645.73
515.032	33692.73
515.4	34145.15
515.767	34131.36
516.135	34525.02
516.502	34244.35
516.869	35032.81
517.237	34981.06
517.604	34960.49
517.972	35439.8
518.339	35592.79
518.706	35762.05
519.073	36006.57
519.44	36288.82
519.808	36627.79
520.175	36558.64
520.542	37190.27
520.909	37378.06
521.276	37284.73
521.643	37810.81
522.009	38209.45
522.376	38357.01
522.743	38801.3
523.11	39099.37
523.477	39523.09
523.843	39710.88
524.21	40072.45
524.577	40407.36
524.943	40683.05
525.31	40750.17
525.676	41275.58
526.043	41678.28
526.409	41787.21
526.776	42337.7
527.142	42245.27
527.508	42541.31
527.874	42919.83
528.241	42936.55
528.607	43063.56
528.973	43447.95
529.339	43471.68
529.705	43889.07
530.071	44302.39
530.437	44365.22
530.803	44641.37
531.169	44839.1
531.535	44830.52
531.901	45013.34
532.267	45329.94
532.632	45659.65
532.998	45686.09
533.364	45792.52
533.73	46064.83
534.095	46540.3
534.461	46649.45
534.826	46840.86
535.192	46908.43
535.557	47427.28
535.923	47519.26
536.288	47646.94
536.653	47947.5
537.019	47813.26
537.384	47940.94
537.749	48286.02
538.114	48380.48
538.479	48479.23
538.845	48642.62
539.21	48632.22
539.575	48791.32
539.94	48892.33
540.305	49239.89
540.67	49090.97
541.034	49270.85
541.399	49347.23
541.764	49514.91
542.129	49639.43
542.494	49639.43
542.858	49951.74
543.223	49841.23
543.587	50150.15
543.952	50146.99
544.316	50276.7
544.681	50327.32
545.045	50565.28
545.41	50502.46
545.774	50705.16
546.138	50778.83
546.503	50983.12
546.867	51108.32
547.231	51481.64
547.595	51366.16
547.959	51587.17
548.324	51656.78
548.688	51793.04
549.052	51897.22
549.416	52039.14
549.779	52143.77
550.143	52203.66
550.507	52475.74
550.871	52609.07
551.235	52597.32
551.599	52835.73
551.962	52937.42
552.326	53039.79
552.689	53220.35
553.053	53029.85
553.417	53144.65
553.78	53564.75
554.143	53332.21
554.507	53567.24
554.87	53642.04
555.234	53914.12
555.597	53775.59
555.96	53803.16
556.323	54087
556.686	54082.93
557.05	54292.41
557.413	54372.86
557.776	54316.37
558.139	54593.88
558.502	54673.87
558.865	54781.67
559.228	54978.05
559.59	55036.12
559.953	55098.95
560.316	55469.78
560.679	55442.21
561.041	55610.57
561.404	55725.6
561.767	55957.91
562.129	55882.43
562.492	56182.53
562.854	56177.56
563.217	56216.66
563.579	56432.47
563.941	56683.54
564.304	56789.75
564.666	56937.32
565.028	57042.85
565.39	57024.77
565.753	57230.87
566.115	57325.1
566.477	57369.4
566.839	57466.79
567.201	57562.84
567.563	57631.31
567.925	57695.26
568.287	57824.52
568.648	57888.03
569.01	57951.08
569.372	58134.12
569.734	58067.23
570.095	58187.23
570.457	58305.42
570.819	58331.18
571.18	58311.52
571.542	58453.21
571.903	58479.65
572.265	58633.54
572.626	58641.68
572.987	58758.74
573.349	58782.24
573.71	58868.34
574.071	58897.26
574.432	58949.69
574.794	59163.7
575.155	59153.76
575.516	59097.49
575.877	59255.67
576.238	59333.19
576.599	59420.42
576.96	59526.63
577.32	59499.51
577.681	59596.46
578.042	59720.75
578.403	59686.17
578.763	59707.41
579.124	59825.38
579.485	59917.13
579.845	59916
580.206	59931.36
580.566	59937.92
580.927	59971.13
581.287	60080.74
581.648	59945.82
582.008	60069.66
582.368	59991.02
582.728	60087.29
583.089	60061.53
583.449	59970.01
583.809	59988.76
584.169	60040.51
584.529	59934.07
584.889	60186.27
585.249	59928.88
585.609	59860.86
585.969	59988.31
586.329	59929.78
586.688	60035.31
587.048	60020.85
587.408	59951.02
587.768	59993.28
588.127	60024.01
588.487	59910.35
588.846	60100.17
589.206	59937.69
589.565	59934.07
589.925	60073.51
590.284	60022.21
590.643	60116.89
591.003	60156.21
591.362	60184.46
591.721	60107.4
592.08	60115.31
592.44	60230.11
592.799	60211.81
593.158	60271.92
593.517	60217.68
593.876	60296.78
594.235	60257
594.593	60264.69
594.952	60357.34
595.311	60283.67
595.67	60284.57
596.029	60421.97
596.387	60499.71
596.746	60464.68
597.104	60401.18
597.463	60399.15
597.822	60492.48
598.18	60379.03
598.538	60367.96
598.897	60451.8
599.255	60239.38
599.613	60562.98
599.972	60415.42
600.33	60513.72
600.688	60387.62
601.046	60442.54
601.404	60535.64
601.762	60515.08
602.12	60655.64
602.478	60633.94
602.836	60558.92
603.194	60455.87
603.552	60473.04
603.91	60434.17
604.268	60603.66
604.625	60489.54
604.983	60624.45
605.341	60498.58
605.698	60707.39
606.056	60648.86
606.413	60634.85
606.771	60690.89
607.128	60779.02
607.485	60644.56
607.843	60735.86
608.2	60868.51
608.557	60948.06
608.914	60864.9
609.272	60973.59
609.629	60990.09
609.986	61136.75
610.343	61041.84
610.7	61230.54
611.057	61214.27
611.414	61182.18
611.771	61163.19
612.127	61255.4
612.484	61280.93
612.841	61351.21
613.198	61195.06
613.554	61273.93
613.911	61390.08
614.267	61409.74
614.624	61319.35
614.98	61370.19
615.337	61411.1
615.693	61426.01
616.05	61344.88
616.406	61483.86
616.762	61448.61
617.118	61356.86
617.475	61389.18
617.831	61412.9
618.187	61500.36
618.543	61504.88
618.899	61559.79
619.255	61554.82
619.611	61543.3
619.967	61534.71
620.323	61518.66
620.678	61497.65
621.034	61430.98
621.39	61491.55
621.746	61421.27
622.101	61712.33
622.457	61431.44
622.812	61565.44
623.168	61518.44
623.523	61567.25
623.879	61617.42
624.234	61502.17
624.589	61562.73
624.945	61582.84
625.3	61631.66
625.655	61528.38
626.01	61594.6
626.365	61638.66
626.72	61577.65
627.075	61628.94
627.43	61600.24
627.785	61487.03
628.14	61576.74
628.495	61607.48
628.85	61585.56
629.205	61501.72
629.559	61673.46
629.914	61554.82
630.269	61525.22
630.623	61501.26
630.978	61409.06
631.332	61556.18
631.687	61559.12
632.041	61466.46
632.396	61410.42
632.75	61374.49
633.104	61390.31
633.459	61199.8
633.813	61240.93
634.167	61194.15
634.521	61188.5
634.875	61132.46
635.229	61204.77
635.583	61093.82
635.937	61074.38
636.291	61015.4
636.645	61001.84
636.999	60947.15
637.352	60965.69
637.706	60811.11
638.06	60918.23
638.413	60829.64
638.767	60767.95
639.121	60827.16
639.474	60643.89
639.828	60695.86
640.181	60652.25
640.534	60683.43
640.888	60571.35
641.241	60460.84
641.594	60505.81
641.947	60554.4
642.301	60480.73
642.654	60448.64
643.007	60433.5
643.36	60377
643.713	60329.54
644.066	60426.04
644.419	60234.63
644.771	60090
645.124	59977.69
645.477	59844.36
645.83	59707.41
646.182	59619.28
646.535	59558.04
646.888	59691.82
647.24	59490.02
647.593	59690.92
647.945	59562.78
648.298	59422.45
648.65	59479.4
649.002	59386.29
649.355	59490.02
649.707	59446.85
650.059	59569.56
650.411	59784.93
650.763	59741.54
651.115	59988.76
651.467	59946.28
651.819	59906.05
652.171	59795.09
652.523	59808.65
652.875	59772.04
653.227	59594.65
653.578	59812.04
653.93	59767.07
654.282	59623.12
654.633	59610.01
654.985	59587.64
655.337	59582.22
655.688	59541.77
656.039	59600.52
656.391	59430.36
656.742	59356.01
657.094	59412.05
657.445	59491.83
657.796	59327.54
658.147	59346.52
658.498	59231.04
658.849	59314.88
659.2	59361.21
659.551	59203.47
659.902	59268.78
660.253	59183.81
660.604	59240.31
660.955	59040.09
661.306	59176.58
661.656	59069.24
662.007	59095.45
662.358	59080.08
662.708	59069.24
663.059	58968.68
663.409	58823.37
663.76	58992.18
664.11	59025.4
664.461	59042.12
664.811	59054.77
665.161	58987.43
665.511	58995.12
665.862	59073.76
666.212	59115.34
666.562	59150.14
666.912	59085.28
667.262	59057.03
667.612	59004.61
667.962	59068.11
668.312	59021.1
668.662	59124.83
669.011	59058.84
669.361	58955.57
669.711	58999.41
670.06	58949.69
670.41	58877.6
670.76	58830.83
671.109	58948.56
671.459	58925.74
671.808	58852.52
672.157	58878.96
672.507	58770.26
672.856	58713.54
673.205	58677.38
673.554	58790.38
673.904	58645.75
674.253	58768.23
674.602	58627.89
674.951	58240.79
675.3	58202.37
675.649	58576.14
675.998	58512.19
676.346	58525.52
676.695	58555.58
677.044	58346.09
677.393	58371.18
677.741	58431.29
678.09	58324.17
678.438	58257.96
678.787	58324.17
679.135	58346.32
679.484	58099.32
679.832	58134.12
680.181	57967.35
680.529	58069.26
680.877	58045.54
681.225	57938.19
681.573	58004.41
681.922	57900.45
682.27	57702.72
682.618	57756.73
682.966	57698.43
683.314	57658.43
683.661	57525.55
684.009	57529.84
684.357	57477.19
684.705	57394.93
685.053	57477.64
685.4	57437.64
685.748	57300.02
686.095	57321.71
686.443	57221.6
686.79	57174.15
687.138	57225.67
687.485	57275.16
687.832	57198.33
688.18	57135.96
688.527	57082.85
688.874	56968.73
689.221	56981.84
689.568	56918.79
689.915	56967.15
690.262	56869.52
690.609	56846.02
690.956	56750.65
691.303	56671.79
691.65	56570.77
691.997	56536.42
692.344	56394.51
692.69	56388.4
693.037	56425.47
693.383	56197.9
693.73	56237.22
694.077	56041.97
694.423	56010.11
694.769	55943.22
695.116	55812.15
695.462	55798.14
695.808	55618.71
696.155	55743.9
696.501	55520.4
696.847	55524.02
697.193	55248.32
697.539	55421.2
697.885	55134.2
698.231	55026.41
698.577	55072.51
698.923	54998.61
699.269	54876.35
699.614	54652.63
699.96	54670.94
700.306	54617.6
700.651	54539.87
700.997	54383.71
701.342	54299.42
701.688	54261.45
702.033	54131.29
702.379	54055.81
702.724	54101.46
703.069	54047
703.415	53573.79
703.76	53646.56
704.105	53668.48
704.45	53514.36
704.795	53348.03
705.14	53249.5
705.485	53233.23
705.83	53092.45
706.175	53179.9
706.52	53077.98
706.865	52943.3
707.209	52849.29
707.554	52815.39
707.899	52787.6
708.243	52590.54
708.588	52593.7
708.932	52391.9
709.277	52390.09
709.621	52498.34
709.966	52294.73
710.31	52439.36
710.654	52047.28
710.998	52184.67
711.342	52191
711.687	52096.99
712.031	51993.49
712.375	51847.51
712.719	51960.27
713.063	51922.31
713.407	51975.41
713.75	51696.32
714.094	51842.08
714.438	51640.73
714.782	51659.94
715.125	51519.15
715.469	51518.02
715.812	51188.09
716.156	51144.7
716.499	51170.46
716.843	51235.09
717.186	50942.45
717.53	51060.41
717.873	50975.44
718.216	50881.43
718.559	50785.39
718.902	50516.92
719.246	50673.98
719.589	50417.26
719.932	50378.84
720.275	50191.05
720.617	50216.36
720.96	50144.27
721.303	50115.35
721.646	50060.89
721.989	49690.28
722.331	49948.35
722.674	49785.19
723.016	49837.16
723.359	49722.14
723.701	49653.67
724.044	49311.75
724.386	49077.18
724.729	49361.24
725.071	49152.44
725.413	49129.39
725.755	49095.71
726.097	48807.13
726.439	48601.94
726.782	48552.45
727.124	48681.49
727.465	48547.25
727.807	48451.89
728.149	48423.42
728.491	48224.33
728.833	48323.53
729.175	48132.58
729.516	48022.52
729.858	47940.72
730.199	48082.41
730.541	47938.23
730.882	47774.85
731.224	47987.95
731.565	47629.31
731.906	47731.23
732.248	47779.14
732.589	47599.03
732.93	47405.14
733.271	47457.57
733.612	47495.3
733.953	47519.71
734.294	47164.92
734.635	47293.28
734.976	47468.64
735.317	47067.52
735.658	47253.05
735.999	47185.93
736.339	47172.15
736.68	47145.71
737.021	47108.2
737.361	46903.68
737.702	47164.01
738.042	46973.96
738.383	46883.34
738.723	46998.59
739.063	46772.39
739.404	46858.71
739.744	46552.5
740.084	46524.93
740.424	46512.96
740.764	46387.31
741.104	46432.06
741.444	46150.48
741.784	46123.82
742.124	46280.87
742.464	46115.45
742.804	45926.76
743.143	45889.92
743.483	45864.84
743.823	45598.18
744.162	45521.35
744.502	45712.3
744.841	45540.1
745.181	45548.92
745.52	45291.52
745.86	45338.98
746.199	45054.24
746.538	44990.96
746.877	45139.89
747.216	44939.44
747.556	44922.04
747.895	44801.59
748.234	44633.69
748.573	44508.94
748.911	44510.98
749.25	44330.64
749.589	44200.7
749.928	44124.77
750.267	44217.65
750.605	43918.9
750.944	43859.47
751.283	43593.94
751.621	43771.79
751.96	43302.65
752.298	43350.1
752.636	43328.18
752.975	43046.16
753.313	43014.52
753.651	43103.78
753.989	42883.45
754.327	42670.35
754.666	42539.05
755.004	42466.06
755.342	42350.81
755.679	42471.93
756.017	42216.8
756.355	42050.48
756.693	42166.86
757.031	42213.18
757.368	41912.85
757.706	41735.91
758.044	41774.55
758.381	41757.6
758.719	41501.34
759.056	41605.52
759.394	41523.94
759.731	41269.71
760.068	41248.46
760.405	41050.5
760.743	40903.61
761.08	41107.9
761.417	40897.51
761.754	40857.06
762.091	40747.69
762.428	40457.07
762.765	40291.88
763.102	40412.78
763.438	40115.39
763.775	40166.46
764.112	40167.59
764.449	40068.16
764.785	39820.7
765.122	39640.37
765.458	39625.91
765.795	39544.1
766.131	39409.64
766.467	39407.83
766.804	39099.59
767.14	38953.38
767.476	38988.86
767.812	38704.35
768.148	38691.47
768.485	38460.06
768.821	38331.93
769.157	38296.9
769.492	38067.76
769.828	38132.16
770.164	37738.05
770.5	37576.92
770.836	37646.98
771.171	37302.35
771.507	37315.91
771.842	36896.49
772.178	37009.7
772.513	36892.87
772.849	36716.61
773.184	36575.82
773.519	36491.98
773.855	36303.06
774.19	35990.75
774.525	35913.01
774.86	35904.65
775.195	35852
775.53	35512.57
775.865	35347.83
776.2	35085.24
776.535	34969.08
776.87	35005.69
777.205	34828.97
777.539	34583.78
777.874	34510.34
778.209	34187.41
778.543	34156.9
778.878	33927.98
779.212	33995.32
779.547	33730.02
779.881	33806.63
780.215	33347.88
780.55	33483.47
780.884	33082.12
781.218	33123.25
781.552	33192.63
781.886	32908.57
782.22	32751.96
782.554	32678.52
782.888	32345.42
783.222	32246.44
783.556	31998.54
783.889	32216.84
784.223	31789.5
784.557	31750.63
784.89	31952.44
785.224	31791.31
785.557	31525.33
785.891	31587.25
786.224	31454.37
786.558	31342.51
786.891	31016.42
787.224	31015.96
787.557	30960.82
787.891	30994.27
788.224	30899.58
788.557	30893.71
788.89	30715.41
789.223	30787.04
789.556	30512.02
789.888	30464.57
790.221	30326.49
790.554	30132.37
790.887	30148.64
791.219	30017.12
791.552	29844.24
791.884	29768.09
792.217	29658.03
792.549	29571.71
792.882	29588.66
793.214	29376.46
793.546	29406.51
793.879	29171.94
794.211	29119.74
794.543	29220.08
794.875	28951.39
795.207	29037.03
795.539	28809.47
795.871	28959.52
796.203	28635.69
796.535	28523.6
796.867	28452.42
797.198	28499.65
797.53	28225.3
797.862	28163.84
798.193	28137.62
798.525	27856.73
798.856	27850.85
799.188	27714.58
799.519	27572.89
799.85	27463.29
800.182	27466.45
800.513	27348.49
800.844	27152.56
801.175	27132.45
801.506	27228.27
801.837	27013.81
802.168	26911.89
802.499	26798.9
802.83	26618.79
803.161	26571.11
803.491	26457.21
803.822	26387.39
804.153	26233.94
804.483	26019.26
804.814	25979.49
805.145	25935.87
805.475	25861.98
805.805	25695.88
806.136	25687.74
806.466	25697.46
806.796	25669.89
807.126	25402.55
807.457	25242.78
807.787	25213.63
808.117	25217.7
808.447	24973.86
808.777	25152.39
809.107	24897.03
809.436	24910.14
809.766	24825.17
810.096	24648.45
810.426	24649.8
810.755	24608.67
811.085	24559.86
811.414	24484.38
811.744	24294.11
812.073	24190.38
812.403	24308.8
812.732	24111.51
813.061	24173.66
813.39	23989.48
813.719	23888.69
814.049	24088.24
814.378	23936.15
814.707	23869.71
815.036	23836.49
815.365	23765.31
815.693	23510.85
816.022	23574.35
816.351	23577.97
816.68	23367.58
817.008	23636.05
817.337	23353.11
817.665	23288.48
817.994	23416.39
818.322	23338.2
818.651	23298.88
818.979	23269.5
819.307	23356.5
819.636	23260.69
819.964	23040.35
820.292	23118.09
820.62	23084.87
820.948	23076.06
821.276	23178.2
821.604	23193.12
821.932	23144.31
822.259	23277.18
822.587	23096.4
822.915	23064.76
823.243	23124.87
823.57	23011.2
823.898	23168.26
824.225	23093.91
824.553	23038.77
824.88	23033.12
825.207	23103.18
825.535	22919.23
825.862	23009.17
826.189	22956.29
826.516	23122.39
826.843	23116.51
827.17	23086.46
827.497	23030.64
827.824	23060.24
828.151	23038.09
828.478	23124.87
828.805	23058.66
829.131	22975.27
829.458	22928.72
829.785	22824.32
830.111	22943.18
830.438	23018.66
830.764	22798.78
831.09	22878.1
831.417	22795.16
831.743	22817.54
832.069	22792.68
832.395	22663.64
832.722	22893.24
833.048	22606.47
833.374	22744.32
833.7	22540.71
834.026	22627.03
834.351	22648.95
834.677	22686.92
835.003	22627.03
835.329	22413.93
835.654	22380.26
835.98	22260.94
836.306	22449.18
836.631	22310.43
836.956	22291.22
837.282	22257.55
837.607	22071.34
837.932	22025.47
838.258	22062.3
838.583	22120.83
838.908	21854.62
839.233	22020.27
839.558	21799.26
839.883	21747.06
840.208	21612.14
840.533	21746.6
840.858	21752.25
841.182	21653.95
841.507	21575.53
841.832	21494.86
842.156	21463.9
842.481	21465.71
842.805	21423.45
843.13	21385.71
843.454	21362.66
843.778	21178.03
844.103	21267.75
844.427	21111.82
844.751	21215.32
845.075	21082.89
845.399	20996.11
845.723	20919.96
846.047	20899.85
846.371	20773.3
846.695	20777.14
847.019	20592.06
847.343	20587.54
847.666	20479.29
847.99	20334.21
848.313	20493.75
848.637	20242.01
848.96	20242.91
849.284	20260.09
849.607	20122.47
849.931	20142.8
850.254	20028
850.577	19937.16
850.9	19848.57
851.223	19867.1
851.546	19805.19
851.869	19575.81
852.192	19780.78
852.515	19435.48
852.838	19494.01
853.161	19483.84
853.483	19400.22
853.806	19333.33
854.129	19304.41
854.451	19161.13
854.774	19162.49
855.096	19066.45
855.419	19160
855.741	19051.31
856.063	18892.22
856.385	18848.37
856.708	18830.07
857.03	18698.1
857.352	18819.67
857.674	18748.49
857.996	18646.8
858.318	18612
858.64	18701.94
858.961	18520.47
859.283	18475.05
859.605	18419.46
859.926	18447.93
860.248	18434.83
860.57	18343.53
860.891	18300.37
861.212	18199.8
861.534	18108.51
861.855	18072.35
862.176	18138.11
862.498	18143.99
862.819	18047.04
863.14	18053.14
863.461	17905.8
863.782	17857.44
864.103	17906.25
864.424	17847.95
864.745	17827.16
865.065	17738.57
865.386	17752.13
865.707	17621.74
866.027	17682.98
866.348	17614.96
866.668	17531.8
866.989	17434.85
867.309	17387.17
867.63	17347.4
867.95	17399.6
868.27	17196.89
868.59	17394.4
868.91	17319.6
869.23	17150.57
869.55	17148.76
869.87	17294.52
870.19	17170.68
870.51	17139.94
870.83	17164.58
871.15	16998.93
871.469	17035.99
871.789	17096.56
872.109	16942.44
872.428	16875.09
872.748	16985.15
873.067	16945.15
873.386	16814.76
873.706	16896.34
874.025	16828.99
874.344	16716.45
874.663	16796.9
874.982	16674.42
875.301	16665.83
875.62	16587.19
875.939	16546.97
876.258	16513.29
876.577	16459.96
876.896	16537.7
877.214	16339.29
877.533	16406.18
877.852	16386.74
878.17	16489.11
878.489	16456.57
878.807	16401.21
879.125	16429
879.444	16382.45
879.762	16252.96
880.08	16280.31
880.398	16173.87
880.716	16284.6
881.034	16266.3
881.352	16209.57
881.67	16230.14
881.988	16172.74
882.306	16173.19
882.624	16077.83
882.941	16087.77
883.259	16045.06
883.577	16030.14
883.894	16077.6
884.212	15988.34
884.529	15955.34
884.846	15875.8
885.164	15843.93
885.481	15756.25
885.798	15866.76
886.115	15754.22
886.432	15723.48
886.75	15717.16
887.067	15720.77
887.383	15702.92
887.7	15745.18
888.017	15649.36
888.334	15653.43
888.651	15629.7
888.967	15503.83
889.284	15589.48
889.6	15470.38
889.917	15427.9
890.233	15491.4
890.55	15435.81
890.866	15461.12
891.182	15398.3
891.498	15300.22
891.815	15325.98
892.131	15276.26
892.447	15210.28
892.763	15175.7
893.079	15156.95
893.395	15024.07
893.71	15083.95
894.026	15050.06
894.342	14982.04
894.657	14926.22
894.973	14883.73
895.289	14808.48
895.604	14902.49
895.92	14728.26
896.235	14673.79
896.55	14592.44
896.865	14613.01
897.181	14553.35
897.496	14586.57
897.811	14480.35
898.126	14504.08
898.441	14443.07
898.756	14290.3
899.071	14251.89
899.386	14259.12
899.7	14175.73
900.015	14101.38
900.33	14063.42
900.644	13992
900.959	14031.55
901.273	13882.63
901.588	13780.94
901.902	13811.22
902.216	13738.45
902.531	13666.82
902.845	13664.78
903.159	13500.72
903.473	13544.56
903.787	13422.08
904.101	13401.06
904.415	13437.44
904.729	13282.19
905.042	13211.01
905.356	13167.39
905.67	13191.8
905.984	13234.51
906.297	13072.26
906.611	12940.51
906.924	12942.99
907.237	12938.47
907.551	12852.83
907.864	12770.12
908.177	12720.63
908.491	12728.31
908.804	12639.95
909.117	12612.15
909.43	12526.96
909.743	12464.81
910.056	12507.75
910.368	12375.55
910.681	12363.12
910.994	12234.54
911.307	12254.2
911.619	12128.78
911.932	12193.41
912.244	12083.58
912.557	12016.46
912.869	11910.25
913.181	11873.87
913.494	11888.56
913.806	11809.01
914.118	11757.04
914.43	11677.94
914.742	11668.68
915.054	11597.94
915.366	11524.05
915.678	11473.2
915.99	11503.48
916.302	11387.1
916.613	11399.76
916.925	11329.93
917.236	11327.22
917.548	11246.77
917.859	11295.35
918.171	11131.29
918.482	11100.56
918.794	11146.88
919.105	11063.95
919.416	11075.7
919.727	10991.18
920.038	10948.02
920.349	10896.04
920.66	10835.93
920.971	10849.26
921.282	10768.13
921.593	10738.98
921.903	10688.14
922.214	10701.47
922.525	10611.53
922.835	10578.31
923.146	10584.64
923.456	10559.1
923.767	10495.6
924.077	10475.94
924.387	10382.38
924.697	10415.83
925.008	10383.29
925.318	10350.74
925.628	10244.98
925.938	10272.33
926.248	10204.53
926.558	10142.84
926.867	10153.24
927.177	10131.99
927.487	9962.51
927.796	9992.79
928.106	9909.4
928.416	9941.72
928.725	9906.46
929.034	9883.41
929.344	9823.53
929.653	9788.73
929.962	9741.5
930.271	9676.64
930.581	9598
930.89	9631.22
931.199	9577.66
931.508	9532.24
931.817	9513.03
932.125	9513.48
932.434	9481.39
932.743	9334.73
933.051	9315.29
933.36	9348.96
933.669	9327.95
933.977	9237.55
934.286	9246.37
934.594	9209.31
934.902	9159.82
935.21	9085.02
935.519	9159.14
935.827	9024.23
936.135	8986.71
936.443	8939.71
936.751	8886.6
937.059	8894.74
937.367	8786.72
937.674	8834.63
937.982	8755.98
938.29	8675.31
938.597	8668.53
938.905	8581.98
939.213	8556.89
939.52	8554.63
939.827	8568.19
940.135	8413.39
940.442	8426.05
940.749	8353.28
941.056	8433.28
941.363	8292.04
941.67	8281.42
941.977	8237.58
942.284	8160.29
942.591	8119.62
942.898	8112.61
943.205	8060.18
943.511	7994.65
943.818	8031.26
944.125	7929.11
944.431	7964.14
944.738	7877.36
945.044	7851.38
945.35	7752.4
945.657	7737.71
945.963	7720.98
946.269	7641.44
946.575	7649.8
946.881	7585.17
947.187	7600.99
947.493	7517.82
947.799	7510.82
948.105	7419.75
948.41	7401.44
948.716	7353.99
949.022	7329.36
949.327	7358.51
949.633	7241.67
949.938	7211.39
950.244	7273.31
950.549	7124.39
950.854	7086.88
951.16	7138.17
951.465	7059.98
951.77	7035.8
952.075	6972.3
952.38	6985.64
952.685	6989.93
952.99	6941.12
953.294	6892.76
953.599	6826.32
953.904	6838.97
954.209	6806.21
954.513	6751.29
954.818	6709.48
955.122	6678.52
955.426	6635.81
955.731	6658.86
956.035	6629.94
956.339	6596.72
956.643	6579.32
956.948	6488.7
957.252	6556.49
957.556	6488.25
957.86	6406.67
958.163	6477.4
958.467	6442.37
958.771	6440.11
959.075	6391.53
959.378	6322.83
959.682	6305.43
959.985	6271.3
960.289	6234.02
960.592	6208.25
960.896	6184.07
961.199	6215.03
961.502	6125.32
961.805	6133
962.108	6070.18
962.411	6073.12
962.714	6069.28
963.017	6066.11
963.32	6019.33
963.623	6008.71
963.926	6025.21
964.228	5954.02
964.531	5954.93
964.833	5884.65
965.136	5873.12
965.438	5863.86
965.741	5842.16
966.043	5826.12
966.345	5777.98
966.648	5764.42
966.95	5674.26
967.252	5701.6
967.554	5668.16
967.856	5673.58
968.158	5643.52
968.46	5601.72
968.761	5615.5
969.063	5600.59
969.365	5552.45
969.666	5534.37
969.968	5521.72
970.269	5497.77
970.571	5482.17
970.872	5443.76
971.174	5431.78
971.475	5405.56
971.776	5406.47
972.077	5343.87
972.378	5315.62
972.679	5337.77
972.98	5299.8
973.281	5297.54
973.582	5272.23
973.883	5235.63
974.183	5208.51
974.484	5203.76
974.785	5168.06
975.085	5148.85
975.386	5154.5
975.686	5091.45
975.986	5066.14
976.287	5065.01
976.587	5002.18
976.887	5012.35
977.187	4999.02
977.487	4990.89
977.787	4909.76
978.087	4892.81
978.387	4845.35
978.687	4889.65
978.987	4851.91
979.286	4815.75
979.586	4822.3
979.885	4803.55
980.185	4724.45
980.484	4767.39
980.784	4728.97
981.083	4651.01
981.382	4706.6
981.682	4632.7
981.981	4685.13
982.28	4616.66
982.579	4527.4
982.878	4608.3
983.177	4517.23
983.475	4510.67
983.774	4520.62
984.073	4473.16
984.372	4444.69
984.67	4371.02
984.969	4400.84
985.267	4365.82
985.566	4388.42
985.864	4303.9
986.162	4292.37
986.461	4279.72
986.759	4226.39
987.057	4188.19
987.355	4195.65
987.653	4227.06
987.951	4212.15
988.249	4173.51
988.547	4168.31
988.844	4091.25
989.142	4096.67
989.44	4094.41
989.737	4094.86
990.035	4033.4
990.332	3979.61
990.63	3981.65
990.927	4008.54
991.224	3947.52
991.521	3985.49
991.819	3920.18
992.116	3894.87
992.413	3865.94
992.71	3832.5
993.006	3857.81
993.303	3785.49
993.6	3813.52
993.897	3716.12
994.193	3758.83
994.49	3798.37
994.787	3712.05
995.083	3679.96
995.379	3687.87
995.676	3667.3
995.972	3611.49
996.268	3626.63
996.565	3571.49
996.861	3569.23
997.157	3546.86
997.453	3586.85
997.749	3500.98
998.044	3504.82
998.34	3504.37
998.636	3442.9
998.932	3445.62
999.227	3407.42
999.523	3412.85
999.818	3362.23
1000.114	3369.91
1000.409	3344.38
1000.704	3333.75
1001	3332.62
1001.295	3333.75
1001.59	3290.59
1001.885	3293.76
1002.18	3268.67
1002.475	3241.78
1002.77	3201.1
1003.065	3231.61
1003.359	3192.97
1003.654	3183.02
1003.949	3172.4
1004.243	3129.92
1004.538	3078.85
1004.832	3082.24
1005.127	3085.85
1005.421	3061.67
1005.715	3068.22
1006.009	3055.12
1006.304	2985.97
1006.598	2995.68
1006.892	2967.89
1007.186	2950.94
1007.48	2956.14
1007.773	2920.43
1008.067	2920.88
1008.361	2890.38
1008.655	2868.23
1008.948	2840.66
1009.242	2858.29
1009.535	2846.08
1009.829	2844.28
1010.122	2759.31
1010.415	2788.23
1010.708	2756.82
1011.001	2771.74
1011.295	2722.02
1011.588	2723.37
1011.881	2695.13
1012.173	2677.05
1012.466	2661.23
1012.759	2631.17
1013.052	2656.03
1013.344	2630.95
1013.637	2604.96
1013.93	2604.96
1014.222	2585.75
1014.514	2542.14
1014.807	2516.37
1015.099	2541.68
1015.391	2524.51
1015.683	2478.64
1015.976	2494.45
1016.268	2481.8
1016.56	2428.47
1016.851	2420.33
1017.143	2436.38
1017.435	2385.76
1017.727	2385.76
1018.018	2372.42
1018.31	2380.33
1018.602	2312.99
1018.893	2289.94
1019.185	2316.61
1019.476	2270.96
1019.767	2263.95
1020.058	2292.43
1020.35	2272.54
1020.641	2250.39
1020.932	2208.36
1021.223	2183.05
1021.514	2213.11
1021.804	2145.08
1022.095	2150.73
1022.386	2136.72
1022.677	2157.97
1022.967	2104.41
1023.258	2112.09
1023.548	2077.06
1023.839	2073.45
1024.129	2049.49
1024.419	2044.52
1024.709	2009.5
1025	1998.65
1025.29	1997.07
1025.58	1988.7
1025.87	1944.86
1026.16	1951.87
1026.449	1952.77
1026.739	1924.3
1027.029	1911.87
1027.319	1883.85
1027.608	1898.76
1027.898	1839.33
1028.187	1843.17
1028.477	1809.05
1028.766	1824.19
1029.055	1796.85
1029.344	1781.93
1029.634	1809.05
1029.923	1786.68
1030.212	1733.57
1030.501	1729.5
1030.79	1743.29
1031.078	1738.99
1031.367	1721.37
1031.656	1701.25
1031.945	1727.92
1032.233	1628.04
1032.522	1656.96
1032.81	1636.85
1033.099	1655.38
1033.387	1602.95
1033.675	1616.51
1033.963	1571.77
1034.251	1566.34
1034.54	1592.33
1034.828	1576.29
1035.116	1523.41
1035.403	1525.67
1035.691	1537.64
1035.979	1494.93
1036.267	1504.88
1036.554	1513.24
1036.842	1476.63
1037.129	1483.41
1037.417	1454.93
1037.704	1453.13
1037.992	1418.78
1038.279	1410.41
1038.566	1394.14
1038.853	1394.14
1039.14	1394.14
