Data from aluminium_surface_pro_back_FLMS001491_00071.txt Node
Date: Wed Feb 08 15:34:30 GMT 2017
User: dcchb
Spectrometer: FLMS00149
Trigger mode: 0
Integration Time (sec): 2.000000E-2
Scans to average: 10
Electric dark correction enabled: true
Nonlinearity correction enabled: false
Boxcar width: 0
XAxis mode: Wavelengths
Number of Pixels in Spectrum: 2048
>>>>>Begin Spectral Data<<<<<
341.393	2.84
341.776	2.84
342.16	2.84
342.543	-73.32
342.927	-49.14
343.31	-39.87
343.693	-75.58
344.077	-64.05
344.46	-61.79
344.843	-55.24
345.226	-42.36
345.61	-24.73
345.993	-30.15
346.376	3.06
346.759	23.18
347.142	25.21
347.525	22.73
347.908	41.71
348.291	68.15
348.674	116.96
349.057	92.78
349.44	126.23
349.823	147.69
350.206	159.9
350.588	230.86
350.971	243.06
351.354	248.93
351.737	258.43
352.119	265.88
352.502	304.75
352.884	297.75
353.267	316.5
353.65	324.64
354.032	334.58
354.414	328.48
354.797	337.52
355.179	359.89
355.562	349.72
355.944	350.17
356.326	358.08
356.709	371.64
357.091	336.62
357.473	384.75
357.855	369.61
358.238	380.68
358.62	402.6
359.002	389.04
359.384	377.52
359.766	357.63
360.148	381.59
360.53	383.62
360.912	371.42
361.294	379.78
361.676	351.3
362.057	357.63
362.439	362.83
362.821	366.9
363.203	377.74
363.584	361.7
363.966	366.67
364.348	384.75
364.729	377.07
365.111	393.11
365.493	375.71
365.874	352.21
366.256	341.59
366.637	356.05
367.019	374.13
367.4	355.82
367.781	369.83
368.163	364.64
368.544	364.64
368.925	365.99
369.306	372.32
369.688	358.54
370.069	368.25
370.45	384.98
370.831	382.26
371.212	379.55
371.593	373.22
371.974	401.7
372.355	365.99
372.736	389.04
373.117	377.52
373.498	400.79
373.879	410.06
374.26	389.72
374.641	389.27
375.021	388.14
375.402	406.67
375.783	394.92
376.163	406.22
376.544	418.2
376.925	405.77
377.305	408.48
377.686	422.26
378.066	435.14
378.447	424.07
378.827	420.46
379.208	418.42
379.588	441.25
379.968	435.82
380.349	430.4
380.729	449.38
381.109	464.75
381.489	468.59
381.87	452.09
382.25	452.32
382.63	483.73
383.01	463.17
383.39	478.08
383.77	480.79
384.15	476.27
384.53	493.22
384.91	493.9
385.29	495.48
385.67	511.75
386.049	488.25
386.429	485.09
386.809	516.05
387.189	518.98
387.568	526.21
387.948	540.23
388.328	550.17
388.707	535.03
389.087	536.16
389.466	552.88
389.846	552.2
390.225	567.8
390.605	583.84
390.984	591.07
391.363	584.29
391.743	597.17
392.122	607.34
392.501	603.95
392.881	598.76
393.26	623.39
393.639	624.07
394.018	636.04
394.397	628.59
394.776	632.88
395.155	661.58
395.534	656.38
395.913	664.52
396.292	658.41
396.671	681.24
397.05	682.82
397.429	693.44
397.808	687.11
398.186	723.72
398.565	716.49
398.944	711.29
399.323	715.14
399.701	747.9
400.08	738.41
400.458	728.24
400.837	732.09
401.215	754.68
401.594	774.57
401.972	739.32
402.351	794.91
402.729	805.3
403.107	779.09
403.486	828.81
403.864	844.17
404.242	817.28
404.62	833.1
404.999	853.89
405.377	860.44
405.755	856.83
406.133	893.21
406.511	899.31
406.889	898.18
407.267	956.71
407.645	904.06
408.023	942.7
408.401	943.83
408.779	956.49
409.156	982.7
409.534	1017.5
409.912	1011.4
410.29	1025.64
410.667	1032.87
411.045	1032.87
411.422	1060.44
411.8	1085.75
412.178	1091.62
412.555	1096.37
412.933	1134.79
413.31	1142.92
413.687	1149.25
414.065	1175.46
414.442	1159.42
414.819	1170.27
415.197	1207.1
415.574	1222.02
415.951	1234.22
416.328	1252.3
416.705	1256.82
417.082	1261.56
417.46	1293.88
417.837	1261.11
418.214	1306.99
418.591	1313.54
418.967	1323.48
419.344	1324.61
419.721	1337.49
420.098	1379.07
420.475	1420.65
420.852	1405.51
421.228	1425.4
421.605	1419.52
421.982	1429.69
422.358	1432.41
422.735	1453.42
423.111	1495.46
423.488	1480.77
423.864	1560.99
424.241	1540.65
424.617	1539.52
424.994	1566.64
425.37	1605.73
425.746	1600.09
426.123	1612.51
426.499	1632.85
426.875	1635.56
427.251	1699.52
427.627	1716.69
428.003	1753.3
428.379	1750.14
428.756	1764.37
429.132	1807.76
429.507	1800.98
429.883	1812.28
430.259	1885.05
430.635	1875.11
431.011	1882.11
431.387	1946.52
431.763	1976.57
432.138	1977.93
432.514	2006.4
432.89	2016.8
433.265	2088.89
433.641	2101.31
434.016	2108.09
434.392	2178.83
434.767	2182.22
435.143	2159.84
435.518	2223.57
435.894	2243.01
436.269	2269.67
436.644	2282.1
437.02	2347.41
437.395	2350.57
437.77	2388.54
438.145	2426.73
438.52	2407.3
438.895	2470.12
439.271	2453.62
439.646	2490.01
440.021	2514.19
440.395	2545.14
440.77	2497.01
441.145	2584.92
441.52	2577.91
441.895	2598.48
442.27	2644.13
442.645	2629.21
443.019	2699.27
443.394	2693.62
443.769	2740.39
444.143	2698.59
444.518	2747.17
444.892	2761.86
445.267	2770.22
445.641	2787.4
446.016	2819.26
446.39	2840.96
446.764	2872.14
447.139	2859.94
447.513	2929.09
447.887	2902.65
448.262	2934.51
448.636	2986.04
449.01	3007.28
449.384	3061.52
449.758	3042.98
450.132	3097.22
450.506	3111.91
450.88	3090.44
451.254	3145.81
451.628	3208.86
452.002	3280.94
452.376	3268.97
452.75	3292.47
453.123	3283.43
453.497	3381.06
453.871	3387.16
454.244	3447.72
454.618	3507.15
454.992	3529.75
455.365	3543.99
455.739	3657.43
456.112	3646.36
456.486	3722.97
456.859	3739.69
457.232	3834.83
457.606	3810.2
457.979	3880.25
458.352	3917.31
458.725	3955.96
459.099	4026.69
459.472	4098.32
459.845	4156.18
460.218	4186.01
460.591	4193.24
460.964	4235.5
461.337	4345.55
461.71	4370.18
462.083	4434.59
462.456	4477.98
462.829	4458.77
463.201	4592.77
463.574	4611.98
463.947	4692.21
464.32	4699.66
464.692	4823.05
465.065	4875.48
465.438	4933.78
465.81	4975.36
466.183	4960.45
466.555	5166.32
466.928	5244.06
467.3	5190.5
467.672	5247.67
468.045	5405.63
468.417	5422.13
468.789	5486.99
469.161	5560.88
469.534	5639.75
469.906	5785.96
470.278	5824.38
470.65	5929.01
471.022	5938.05
471.394	6057.82
471.766	6152.06
472.138	6199.06
472.51	6388.43
472.882	6425.72
473.253	6477.92
473.625	6616.9
473.997	6719.05
474.369	6821.19
474.74	6877.91
475.112	6992.71
475.484	7136.21
475.855	7265.47
476.227	7339.37
476.598	7577.1
476.97	7592.02
477.341	7777.78
477.713	7850.09
478.084	7890.32
478.455	8168.05
478.827	8270.19
479.198	8479.68
479.569	8588.6
479.94	8725.55
480.311	8818.2
480.682	8988.14
481.053	9210.05
481.424	9349.94
481.795	9429.71
482.166	9603.94
482.537	9761
482.908	9939.98
483.279	10050.26
483.65	10179.29
484.021	10444.82
484.391	10499.29
484.762	10711.48
485.133	10795.1
485.503	10947.18
485.874	11194.41
486.244	11240.06
486.615	11496.1
486.985	11643.89
487.356	11879.14
487.726	12046.14
488.097	12191.67
488.467	12206.81
488.837	12536.29
489.207	12618.55
489.578	12833.01
489.948	12933.12
490.318	13223.51
490.688	13234.81
491.058	13418.98
491.428	13589.15
491.798	13759.09
492.168	13953.21
492.538	14061.9
492.908	14188.91
493.278	14462.12
493.648	14484.72
494.017	14639.06
494.387	14834.77
494.757	14928.32
495.126	15143.46
495.496	15157.69
495.866	15333.06
496.235	15518.82
496.605	15597.01
496.974	15739.15
497.344	15881.52
497.713	16036.09
498.082	16080.16
498.452	16383.65
498.821	16487.38
499.19	16500.03
499.559	16729.63
499.928	16732.79
500.298	16922.62
500.667	17118.32
501.036	17104.76
501.405	17426.11
501.774	17278.99
502.143	17591.98
502.512	17680.34
502.88	17748.59
503.249	17871.3
503.618	17975.47
503.987	18021.57
504.356	18191.51
504.724	18345.41
505.093	18451.39
505.462	18473.54
505.83	18686.87
506.199	18810.71
506.567	19010.25
506.936	19000.53
507.304	19312.61
507.672	19432.61
508.041	19559.39
508.409	19697.24
508.777	19861.75
509.145	19975.2
509.514	20017.68
509.882	20119.15
510.25	20199.37
510.618	20526.37
510.986	20503.99
511.354	20766.59
511.722	20913.02
512.09	21083.41
512.458	21154.15
512.826	21413.58
513.193	21587.81
513.561	21579.67
513.929	21791.87
514.297	22054.69
514.664	22169.71
515.032	22245.87
515.4	22492.87
515.767	22583.71
516.135	22821
516.502	22743.94
516.869	23257.14
517.237	23369.46
517.604	23302.57
517.972	23649.45
518.339	23880.18
518.706	23911.14
519.073	24031.81
519.44	24221.41
519.808	24505.47
520.175	24540.5
520.542	24820.04
520.909	25005.35
521.276	24944.56
521.643	25358.33
522.009	25502.73
522.376	25652.33
522.743	25870.86
523.11	26276.27
523.477	26470.62
523.843	26544.51
524.21	26908.57
524.577	27039.19
524.943	27188.56
525.31	27365.51
525.676	27714.65
526.043	27892.28
526.409	27991.26
526.776	28385.6
527.142	28495.2
527.508	28589.21
527.874	28835.53
528.241	28894.51
528.607	29011.12
528.973	29358.9
529.339	29293.37
529.705	29607.03
530.071	29948.04
530.437	30080.69
530.803	30206.34
531.169	30460.12
531.535	30401.81
531.901	30550.06
532.267	30712.99
532.632	31005.41
532.998	30957.51
533.364	31253.09
533.73	31372.64
534.095	31616.92
534.461	31678.62
534.826	31992.28
535.192	32132.62
535.557	32304.36
535.923	32240.86
536.288	32411.7
536.653	32590.23
537.019	32606.28
537.384	32802.65
537.749	33040.39
538.114	33060.27
538.479	33199.71
538.845	33433.37
539.21	33342.98
539.575	33607.61
539.94	33702.52
540.305	33895.51
540.67	33853.02
541.034	34007.59
541.399	34169.62
541.764	34201.94
542.129	34499.11
542.494	34623.62
542.858	34586.34
543.223	34718.31
543.587	34937.74
543.952	34948.36
544.316	35060.67
544.681	34993.78
545.045	35202.59
545.41	35499.31
545.774	35633.99
546.138	35464.73
546.503	35784.72
546.867	35758.51
547.231	36102.45
547.595	35993.98
547.959	36174.32
548.324	36393.52
548.688	36491.82
549.052	36655.43
549.416	36636.68
549.779	36568.66
550.143	36817.01
550.507	37118.47
550.871	37351.24
551.235	37257
551.599	37550.33
551.962	37555.75
552.326	37742.64
552.689	37959.36
553.053	37870.54
553.417	38007.49
553.78	38486.12
554.143	38375.16
554.507	38474.37
554.87	38774.93
555.234	38979.44
555.597	38946.9
555.96	39122.26
556.323	39261.47
556.686	39461.46
557.05	39719.08
557.413	39748.23
557.776	39782.58
558.139	40094.67
558.502	40238.17
558.865	40331.95
559.228	40627.53
559.59	40793.86
559.953	40938.49
560.316	41334.86
560.679	41379.83
561.041	41686.94
561.404	41747.73
561.767	42026.37
562.129	42017.78
562.492	42397.2
562.854	42437.88
563.217	42423.87
563.579	42653.69
563.941	43094.36
564.304	43166
564.666	43388.14
565.028	43525.54
565.39	43739.54
565.753	43955.81
566.115	44115.13
566.477	44357.38
566.839	44476.47
567.201	44774.54
567.563	44840.76
567.925	45100.86
568.287	45181.31
568.648	45252.5
569.01	45566.84
569.372	45767.29
569.734	45813.84
570.095	46172.92
570.457	46176.54
570.819	46321.85
571.18	46565.46
571.542	46604.78
571.903	46884.54
572.265	47034.37
572.626	47277.98
572.987	47167.7
573.349	47331.31
573.71	47564.53
574.071	47496.05
574.432	47793.22
574.794	47944.18
575.155	47979.43
575.516	47841.36
575.877	48172.65
576.238	48234.34
576.599	48377.61
576.96	48385.3
577.32	48562.24
577.681	48592.3
578.042	48675.46
578.403	48753.87
578.763	48829.58
579.124	49067.09
579.485	49111.83
579.845	49292.84
580.206	49244.71
580.566	49337.81
580.927	49312.05
581.287	49631.82
581.648	49347.53
582.008	49589.56
582.368	49561.31
582.728	49624.13
583.089	49593.17
583.449	49636.56
583.809	49703.9
584.169	49875.43
584.529	49672.72
584.889	49955.65
585.249	49736.45
585.609	49756.11
585.969	49931.47
586.329	49816.67
586.688	49919.72
587.048	49821.42
587.408	49848.31
587.768	49739.84
588.127	49968.53
588.487	49879.04
588.846	50112.03
589.206	49734.19
589.565	49921.75
589.925	50142.09
590.284	49995.65
590.643	50013.28
591.003	50117.68
591.362	50223.21
591.721	50091.69
592.08	50140.5
592.44	50203.55
592.799	50335.98
593.158	50187.06
593.517	50183.44
593.876	50196.1
594.235	50184.34
594.593	50290.78
594.952	50339.37
595.311	50254.17
595.67	50227.06
596.029	50502.53
596.387	50509.99
596.746	50600.6
597.104	50364.23
597.463	50424.34
597.822	50529.65
598.18	50405.36
598.538	50348.41
598.897	50595.86
599.255	50361.97
599.613	50799.02
599.972	50612.81
600.33	50776.42
600.688	50674.73
601.046	50786.14
601.404	50948.17
601.762	50832.91
602.12	51008.5
602.478	51010.54
602.836	51032.91
603.194	50789.53
603.552	50933.03
603.91	50834.95
604.268	51041.04
604.625	50897.55
604.983	51127.37
605.341	50908.85
605.698	51099.8
606.056	51196.07
606.413	51200.14
606.771	51267.71
607.128	51239.01
607.485	51210.98
607.843	51137.09
608.2	51377.76
608.557	51390.87
608.914	51321.04
609.272	51541.37
609.629	51501.15
609.986	51531.43
610.343	51406.69
610.7	51714.7
611.057	51660.46
611.414	51567.36
611.771	51569.39
612.127	51646.9
612.484	51729.61
612.841	51827.92
613.198	51716.06
613.554	51657.75
613.911	51822.95
614.267	51836.28
614.624	51798.31
614.98	51772.33
615.337	51956.73
615.693	51859.1
616.05	51941.36
616.406	52061.13
616.762	51956.73
617.118	52045.31
617.475	51849.16
617.831	52062.26
618.187	52059.78
618.543	52174.35
618.899	52210.96
619.255	52159.43
619.611	52212.77
619.967	52264.97
620.323	52424.96
620.678	52295.7
621.034	52195.36
621.39	52251.86
621.746	52221.58
622.101	52543.38
622.457	52274.01
622.812	52412.76
623.168	52483.94
623.523	52460.44
623.879	52587.67
624.234	52307
624.589	52409.14
624.945	52442.14
625.3	52407.34
625.655	52413.89
626.01	52401.91
626.365	52486.2
626.72	52465.19
627.075	52424.74
627.43	52336.38
627.785	52269.71
628.14	52335.7
628.495	52422.03
628.85	52398.3
629.205	52220.22
629.559	52468.35
629.914	52253.22
630.269	52369.37
630.623	52203.95
630.978	52108.81
631.332	52361.01
631.687	52334.12
632.041	52127.34
632.396	52328.02
632.75	52134.35
633.104	52244.63
633.459	52005.31
633.813	52017.29
634.167	52003.05
634.521	52041.47
634.875	51948.37
635.229	51875.15
635.583	51730.52
635.937	51809.84
636.291	51798.77
636.645	51735.49
636.999	51641.93
637.352	51706.11
637.706	51535.04
638.06	51686.45
638.413	51620.46
638.767	51419.57
639.121	51604.87
639.474	51344.31
639.828	51317.2
640.181	51362.84
640.534	51375.5
640.888	51178.67
641.241	51027.94
641.594	51209.18
641.947	51269.51
642.301	51063.64
642.654	51126.69
643.007	51135.96
643.36	51052.34
643.713	51021.38
644.066	51169.4
644.419	50822.29
644.771	50666.59
645.124	50265.02
645.477	50218.24
645.83	49896.89
646.182	49872.94
646.535	49920.85
646.888	49804.24
647.24	49706.84
647.593	49889.66
647.945	49700.29
648.298	49478.15
648.65	49366.29
649.002	49289.68
649.355	49504.36
649.707	49449.22
650.059	49574.87
650.411	49835.43
650.763	49972.37
651.115	50270.9
651.467	50066.61
651.819	50105.93
652.171	49855.09
652.523	49945.93
652.875	49911.58
653.227	49869.32
653.578	50053.95
653.93	49961.07
654.282	49809.89
654.633	49681.08
654.985	49735.09
655.337	49794.52
655.688	49930.11
656.039	49900.74
656.391	49551.37
656.742	49631.14
657.094	49599.73
657.445	49684.92
657.796	49638.14
658.147	49487.87
658.498	49354.08
658.849	49502.1
659.2	49422.33
659.551	49263.24
659.902	49335.33
660.253	49241.32
660.604	49397.7
660.955	49121.32
661.306	49319.51
661.656	49246.97
662.007	49215.33
662.358	49152.73
662.708	49240.41
663.059	49251.71
663.409	48920.87
663.76	49312.5
664.11	49168.1
664.461	49341.43
664.811	49138.27
665.161	49112.73
665.511	49064.37
665.862	49129
666.212	49079.06
666.562	49122.45
666.912	48936.24
667.262	48862.12
667.612	48970.59
667.962	48863.7
668.312	48916.58
668.662	49015.56
669.011	48879.75
669.361	48870.93
669.711	48813.76
670.06	48741.9
670.41	48755.68
670.76	48715
671.109	48796.13
671.459	48733.99
671.808	48723.37
672.157	48757.49
672.507	48332.64
672.856	48419.87
673.205	48557.95
673.554	48621.9
673.904	48509.81
674.253	48676.14
674.602	48390.95
674.951	47969.49
675.3	47823.95
675.649	48370.61
675.998	48287.9
676.346	48189.37
676.695	48326.31
677.044	48008.81
677.393	48098.98
677.741	48125.42
678.09	48061.24
678.438	47872.99
678.787	47950.5
679.135	47914.35
679.484	47589.16
679.832	47878.42
680.181	47685.65
680.529	47764.97
680.877	47575.15
681.225	47564.53
681.573	47744.41
681.922	47379.9
682.27	47409.95
682.618	47446.34
682.966	47360.46
683.314	47160.47
683.661	47142.16
684.009	46932.9
684.357	46997.31
684.705	46960.93
685.053	46940.81
685.4	46838.9
685.748	46652.01
686.095	46514.16
686.443	46367.27
686.79	46378.57
687.138	46412.92
687.485	46423.09
687.832	46241.17
688.18	46207.73
688.527	46077.11
688.874	46044.57
689.221	45960.27
689.568	45866.94
689.915	45732.71
690.262	45627.63
690.609	45628.76
690.956	45549.66
691.303	45427.63
691.65	45255.43
691.997	45129.79
692.344	45023.12
692.69	44953.75
693.037	44933.86
693.383	44535.68
693.73	44584.72
694.077	44504.49
694.423	44445.96
694.769	44259.3
695.116	44241
695.462	44061.34
695.808	44001.68
696.155	44108.57
696.501	43539.32
696.847	43658.87
697.193	43511.75
697.539	43608.02
697.885	43299.33
698.231	43159.67
698.577	43239.22
698.923	43027.47
699.269	43033.12
699.614	42751.55
699.96	42728.04
700.306	42624.32
700.651	42363.08
700.997	42370.76
701.342	42253.71
701.688	42239.92
702.033	42019.14
702.379	42007.16
702.724	41827.73
703.069	41986.82
703.415	41455.31
703.76	41514.52
704.105	41535.76
704.45	41319.49
704.795	41014.42
705.14	40989.78
705.485	40961.08
705.83	40715.44
706.175	40810.35
706.52	40664.59
706.865	40489.01
707.209	40459.18
707.554	40298.95
707.899	40411.49
708.243	40031.84
708.588	40048.57
708.932	39910.04
709.277	39880.43
709.621	39758.18
709.966	39421.69
710.31	39742.36
710.654	39314.12
710.998	39380.79
711.342	39331.07
711.687	39199.1
712.031	39108.03
712.375	38948.93
712.719	38934.7
713.063	38934.24
713.407	39009.5
713.75	38762.05
714.094	38804.53
714.438	38611.09
714.782	38632.33
715.125	38408.61
715.469	38577.87
715.812	38290.87
716.156	38133.81
716.499	38087.94
716.843	38195.28
717.186	37897.21
717.53	38081.61
717.873	37934.72
718.216	37969.07
718.559	37692.47
718.902	37412.02
719.246	37555.52
719.589	37310.11
719.932	37315.53
720.275	37267.85
720.617	37233.72
720.96	37213.16
721.303	37062.2
721.646	37101.07
721.989	36883.9
722.331	36971.36
722.674	36820.85
723.016	36815.2
723.359	36693.17
723.701	36720.07
724.044	36523.46
724.386	36398.04
724.729	36637.13
725.071	36477.36
725.413	36428.32
725.755	36383.8
726.097	36250.93
726.439	36281.43
726.782	36217.48
727.124	36350.81
727.465	36021.55
727.807	36033.3
728.149	35849.58
728.491	35851.16
728.833	36003.25
729.175	35703.37
729.516	35691.17
729.858	35609.13
730.199	35723.03
730.541	35437.84
730.882	35377.95
731.224	35410.27
731.565	35313.32
731.906	35317.16
732.248	35311.06
732.589	35086.21
732.93	34827.23
733.271	34958.08
733.612	34969.6
733.953	34863.84
734.294	34688.48
734.635	34564.64
734.976	34707.01
735.317	34554.02
735.658	34401.48
735.999	34467.92
736.339	34199.68
736.68	34424.31
737.021	34260.02
737.361	34167.36
737.702	34231.77
738.042	34105.67
738.383	33938.9
738.723	34223.86
739.063	33957.88
739.404	33880.14
739.744	33970.53
740.084	33686.7
740.424	33779.13
740.764	33522.41
741.104	33606.48
741.444	33562.18
741.784	33434.05
742.124	33485.8
742.464	33427.5
742.804	33258.69
743.143	33258.46
743.483	33259.82
743.823	33150.89
744.162	33071.57
744.502	33123.78
744.841	32844.69
745.181	33038.81
745.52	32927.85
745.86	32863.22
746.199	32807.17
746.538	32752.26
746.877	32693.5
747.216	32645.37
747.556	32439.5
747.895	32467.3
748.234	32211.03
748.573	32211.48
748.911	32238.38
749.25	32269.34
749.589	31957.7
749.928	31969.46
750.267	32095.1
750.605	31984.82
750.944	31883.13
751.283	31713.87
751.621	31838.16
751.96	31614.66
752.298	31519.98
752.636	31484.72
752.975	31390.26
753.313	31261.23
753.651	31378.06
753.989	31121.79
754.327	31112.3
754.666	30930.39
755.004	30914.12
755.342	30916.6
755.679	30959.31
756.017	30686.55
756.355	30705.53
756.693	30578.31
757.031	30532.88
757.368	30406.11
757.706	30437.97
758.044	30318.88
758.381	30260.12
758.719	30248.15
759.056	30169.05
759.394	30002.5
759.731	29876.4
760.068	29779.68
760.405	29750.08
760.743	29524.1
761.08	29732.23
761.417	29541.95
761.754	29421.05
762.091	29426.47
762.428	29179.25
762.765	28990.55
763.102	29179.47
763.438	28905.36
763.775	28849.09
764.112	28761.86
764.449	28837.79
764.785	28626.04
765.122	28333.17
765.458	28363.45
765.795	28370.45
766.131	28234.86
766.467	28198.48
766.804	27910.35
767.14	27972.95
767.476	27983.35
767.812	27769.11
768.148	27897.92
768.485	27558.27
768.821	27465.85
769.157	27476.01
769.492	27413.87
769.828	27227.66
770.164	26991.28
770.5	26951.96
770.836	26873.09
771.171	26739.31
771.507	26568.02
771.842	26514.91
772.178	26353.11
772.513	26450.28
772.849	26394.69
773.184	26134.81
773.519	26091.87
773.855	25947.92
774.19	25943.4
774.525	25784.99
774.86	25851.65
775.195	25770.97
775.53	25468.84
775.865	25324.43
776.2	25259.12
776.535	25192.91
776.87	25143.19
777.205	24984.78
777.539	24863.43
777.874	24888.06
778.209	24823.66
778.543	24612.59
778.878	24484.68
779.212	24506.83
779.547	24341.86
779.881	24312.03
780.215	24103
780.55	24079.04
780.884	24054.18
781.218	24006.05
781.552	23851.48
781.886	23820.97
782.22	23581.43
782.554	23664.36
782.888	23416.69
783.222	23275.67
783.556	23183.92
783.889	23230.93
784.223	23001.1
784.557	22900.77
784.89	23029.58
785.224	22881.11
785.557	22823.26
785.891	22804.05
786.224	22605.86
786.558	22715.91
786.891	22358.86
787.224	22374.23
787.557	22280.9
787.891	22237.96
788.224	22171.07
788.557	22233.89
788.89	22120.9
789.223	22031.64
789.556	21880
789.888	21749.16
790.221	21711.87
790.554	21594.81
790.887	21619.45
791.219	21447.7
791.552	21368.83
791.884	21197.08
792.217	21163.19
792.549	21033.47
792.882	20913.7
793.214	21012.46
793.546	20910.76
793.879	20732.01
794.211	20620.15
794.543	20783.99
794.875	20560.72
795.207	20675.97
795.539	20400.27
795.871	20409.53
796.203	20283.44
796.535	20148.07
796.867	20047.96
797.198	20012.03
797.53	19979.04
797.862	19822.43
798.193	19793.96
798.525	19759.83
798.856	19784.47
799.188	19518.03
799.519	19500.86
799.85	19404.81
800.182	19431.48
800.513	19372.5
800.844	19139.74
801.175	19300.86
801.506	19175.22
801.837	19074.65
802.168	19046.86
802.499	19028.1
802.83	18977.71
803.161	18791.72
803.491	18799.86
803.822	18889.57
804.153	18676.7
804.483	18659.3
804.814	18530.71
805.145	18526.19
805.475	18516.48
805.805	18450.26
806.136	18533.88
806.466	18384.5
806.796	18325.07
807.126	18123.94
807.457	18181.57
807.787	18302.92
808.117	18167.56
808.447	18026.77
808.777	18120.55
809.107	18067.9
809.436	17919.66
809.766	17906.77
810.096	17856.61
810.426	17727.34
810.755	17725.76
811.085	17666.1
811.414	17560.57
811.744	17457.75
812.073	17467.69
812.403	17498.88
812.732	17431.99
813.061	17401.7
813.39	17258.88
813.719	17271.99
814.049	17276.06
814.378	17172.56
814.707	17149.05
815.036	17132.33
815.365	16902.51
815.693	16753.81
816.022	16836.07
816.351	16718.11
816.68	16648.28
817.008	16686.69
817.337	16545.91
817.665	16542.74
817.994	16555.4
818.322	16512.46
818.651	16389.3
818.979	16381.62
819.307	16431.79
819.636	16274.73
819.964	16174.17
820.292	16290.77
820.62	16351.34
820.948	16255.07
821.276	16286.25
821.604	16248.74
821.932	16218.01
822.259	16301.62
822.587	16333.93
822.915	16291
823.243	16244.45
823.57	16189.53
823.898	16185.24
824.225	16180.72
824.553	16160.61
824.88	16136.43
825.207	16300.94
825.535	16087.39
825.862	16192.92
826.189	16102.08
826.516	16237.21
826.843	16154.5
827.17	16184.11
827.497	16187.27
827.824	16141.4
828.151	16213.94
828.478	16237.89
828.805	16202.19
829.131	16051.23
829.458	16002.42
829.785	15982.31
830.111	15947.96
830.438	16071.34
830.764	16105.69
831.09	16161.06
831.417	16076.54
831.743	16135.3
832.069	16051.68
832.395	16036.77
832.722	16038.12
833.048	15972.14
833.374	16081.96
833.7	15961.06
834.026	16014.62
834.351	16035.19
834.677	16029.31
835.003	15961.74
835.329	15976.2
835.654	15942.76
835.98	15813.27
836.306	15757.9
836.631	15781.41
836.956	15762.2
837.282	15745.93
837.607	15616.67
837.932	15677.46
838.258	15718.81
838.583	15643.78
838.908	15551.13
839.233	15642.2
839.558	15527.85
839.883	15484.47
840.208	15405.82
840.533	15457.35
840.858	15463.45
841.182	15455.99
841.507	15413.73
841.832	15321.76
842.156	15225.94
842.481	15314.3
842.805	15285.83
843.13	15197.24
843.454	15185.72
843.778	15156.34
844.103	15100.75
844.427	15142.55
844.751	15123.12
845.075	15046.29
845.399	15032.5
845.723	14946.63
846.047	14996.12
846.371	14816.23
846.695	14797.7
847.019	14738.95
847.343	14645.62
847.666	14656.01
847.99	14548.67
848.313	14627.99
848.637	14454.66
848.96	14480.42
849.284	14369.47
849.607	14335.12
849.931	14261.67
850.254	14293.76
850.577	14107.55
850.9	14029.81
851.223	14088.57
851.546	13997.73
851.869	13853.55
852.192	13971.06
852.515	13814.23
852.838	13808.35
853.161	13728.13
853.483	13647
853.806	13592.31
854.129	13598.87
854.451	13545.31
854.774	13518.64
855.096	13459.66
855.419	13438.87
855.741	13390.74
856.063	13275.26
856.385	13285.2
856.708	13270.96
857.03	13161.81
857.352	13241.13
857.674	13132.21
857.996	13133.34
858.318	13049.73
858.64	13122.49
858.961	12992.33
859.283	12975.61
859.605	12923.18
859.926	12886.12
860.248	12851.99
860.57	12836.4
860.891	12840.92
861.212	12820.58
861.534	12802.95
861.855	12762.28
862.176	12750.98
862.498	12709.17
862.819	12739.23
863.14	12634.37
863.461	12729.28
863.782	12646.12
864.103	12634.82
864.424	12659.91
864.745	12646.57
865.065	12510.98
865.386	12511.66
865.707	12510.31
866.027	12584.65
866.348	12506.92
866.668	12469.86
866.989	12492
867.309	12396.86
867.63	12443.64
867.95	12370.42
868.27	12404.09
868.59	12389.86
868.91	12400.25
869.23	12338.79
869.55	12281.16
869.87	12307.6
870.19	12233.48
870.51	12285.68
870.83	12204.55
871.15	12185.57
871.469	12138.34
871.789	12105.12
872.109	12139.47
872.428	12162.52
872.748	12128.4
873.067	12077.1
873.386	12160.49
873.706	12086.36
874.025	12033.71
874.344	11987.38
874.663	11958.68
874.982	11951.9
875.301	11970.43
875.62	11948.74
875.939	11932.92
876.258	11923.66
876.577	11885.24
876.896	11916.2
877.214	11803.21
877.533	11906.71
877.852	11831.23
878.17	11832.58
878.489	11866.48
878.807	11841.62
879.125	11775.18
879.444	11859.02
879.762	11762.3
880.08	11780.61
880.398	11740.16
880.716	11680.72
881.034	11669.88
881.352	11696.54
881.67	11615.41
881.988	11627.39
882.306	11541.74
882.624	11556.43
882.941	11499.94
883.259	11533.16
883.577	11481.18
883.894	11450.67
884.212	11395.31
884.529	11423.78
884.846	11460.16
885.164	11379.71
885.481	11319.6
885.798	11331.35
886.115	11241.87
886.432	11252.94
886.75	11172.49
887.067	11200.74
887.383	11175.88
887.7	11157.12
888.017	11160.06
888.334	11131.81
888.651	11125.48
888.967	11094.98
889.284	10999.39
889.6	11044.13
889.917	10931.37
890.233	10997.8
890.55	10912.16
890.866	10834.19
891.182	10791.71
891.498	10737.92
891.815	10848.2
892.131	10792.39
892.447	10757.58
892.763	10779.5
893.079	10714.42
893.395	10619.73
893.71	10701.54
894.026	10587.87
894.342	10486.41
894.657	10484.82
894.973	10440.53
895.289	10478.27
895.604	10556.69
895.92	10413.86
896.235	10351.95
896.55	10372.28
896.865	10409.34
897.181	10309.69
897.496	10334.32
897.811	10305.39
898.126	10217.71
898.441	10253.19
898.756	10202.34
899.071	10106.75
899.386	10156.47
899.7	10098.84
900.015	10027.66
900.33	10003.03
900.644	9980.2
900.959	9989.02
901.273	9931.17
901.588	9852.75
901.902	9836.7
902.216	9825.86
902.531	9758.51
902.845	9748.57
903.159	9767.33
903.473	9686.2
903.787	9721
904.101	9657.05
904.415	9694.79
904.729	9573.66
905.042	9573.43
905.356	9539.09
905.67	9495.47
905.984	9572.98
906.297	9487.34
906.611	9398.3
906.924	9382.93
907.237	9398.07
907.551	9325.76
907.864	9280.56
908.177	9272.2
908.491	9256.38
908.804	9225.2
909.117	9194.46
909.43	9154.46
909.743	9128.02
910.056	9074.01
910.368	9030.85
910.681	8927.35
910.994	8901.14
911.307	8861.36
911.619	8869.95
911.932	8893.45
912.244	8788.82
912.557	8813
912.869	8787.69
913.181	8686.68
913.494	8636.74
913.806	8581.37
914.118	8610.75
914.43	8484.65
914.742	8523.97
915.054	8474.71
915.366	8451.66
915.678	8429.06
915.99	8403.07
916.302	8344.54
916.613	8353.81
916.925	8389.74
917.236	8314.71
917.548	8269.29
917.859	8226.13
918.171	8184.77
918.482	8177.99
918.794	8101.61
919.105	8078.33
919.416	8038.79
919.727	8033.81
920.038	8060.48
920.349	7949.75
920.66	7920.14
920.971	7965.12
921.282	7855.06
921.593	7854.38
921.903	7886.93
922.214	7759.02
922.525	7785.23
922.835	7736.65
923.146	7692.13
923.456	7581.62
923.767	7650.77
924.077	7617.1
924.387	7630.21
924.697	7492.81
925.008	7494.39
925.318	7522.19
925.628	7485.35
925.938	7437.9
926.248	7380.72
926.558	7362.19
926.867	7340.27
927.177	7338.24
927.487	7322.19
927.796	7256.89
928.106	7278.35
928.416	7173.5
928.725	7157.45
929.034	7177.11
929.344	7123.1
929.653	7139.15
929.962	7103.67
930.271	7061.41
930.581	7016.44
930.89	6968.08
931.199	7000.4
931.508	6963.33
931.817	6929.44
932.125	6892.6
932.434	6883.34
932.743	6827.07
933.051	6823.9
933.36	6801.53
933.669	6681.99
933.977	6752.94
934.286	6703.45
934.594	6746.39
934.902	6669.56
935.21	6650.35
935.519	6585.26
935.827	6592.04
936.135	6586.39
936.443	6557.47
936.751	6521.31
937.059	6442.22
937.367	6401.54
937.674	6421.65
937.982	6382.78
938.29	6413.74
938.597	6395.21
938.905	6252.39
939.213	6244.03
939.52	6207.65
939.827	6250.81
940.135	6209.68
940.442	6177.14
940.749	6182.56
941.056	6166.74
941.363	6118.61
941.67	6075.22
941.977	6057.14
942.284	5985.28
942.591	5931.5
942.898	5967.2
943.205	5958.16
943.511	5898.05
943.818	5880.2
944.125	5901.44
944.431	5852.4
944.738	5813.99
945.044	5771.73
945.35	5777.38
945.657	5743.48
945.963	5761.56
946.269	5715.23
946.575	5701.9
946.881	5674.1
947.187	5686.08
947.493	5686.76
947.799	5589.58
948.105	5552.75
948.41	5526.08
948.716	5520.21
949.022	5492.86
949.327	5486.99
949.633	5400.21
949.938	5408.8
950.244	5407.44
950.549	5426.2
950.854	5355.24
951.16	5354.56
951.465	5316.82
951.77	5298.52
952.075	5264.62
952.38	5238.86
952.685	5214.68
952.99	5207.45
953.294	5186.43
953.599	5095.81
953.904	5122.93
954.209	5024.4
954.513	5072.08
954.818	5107.34
955.122	5076.38
955.426	5000.9
955.731	5011.75
956.035	4966.1
956.339	4962.93
956.643	4944.18
956.948	4930.17
957.252	4870.73
957.556	4874.8
957.86	4828.93
958.163	4848.36
958.467	4833.22
958.771	4837.97
959.075	4815.59
959.378	4769.04
959.682	4762.71
959.985	4734.92
960.289	4698.76
960.592	4649.04
960.896	4685.43
961.199	4672.32
961.502	4665.54
961.805	4610.63
962.108	4609.05
962.411	4603.17
962.714	4569.5
963.017	4534.25
963.32	4541.25
963.623	4528.14
963.926	4484.98
964.228	4490.18
964.531	4453.8
964.833	4419.67
965.136	4355.27
965.438	4390.07
965.741	4356.4
966.043	4348.04
966.345	4349.62
966.648	4373.12
966.95	4336.06
967.252	4269.17
967.554	4279.11
967.856	4244.76
968.158	4193.69
968.46	4214.03
968.761	4171.32
969.063	4174.03
969.365	4167.25
969.666	4140.36
969.968	4107.59
970.269	4075.27
970.571	4074.14
970.872	4080.02
971.174	4036.41
971.475	4042.28
971.776	4028.27
972.077	3965.22
972.378	4001.83
972.679	3975.16
972.98	3950.08
973.281	3934.49
973.582	3902.17
973.883	3887.03
974.183	3847.26
974.484	3851.33
974.785	3830.53
975.085	3830.53
975.386	3825.79
975.686	3805
975.986	3809.07
976.287	3784.21
976.587	3718.45
976.887	3726.81
977.187	3701.95
977.487	3677.77
977.787	3673.25
978.087	3623.31
978.387	3639.58
978.687	3636.42
978.987	3602.52
979.286	3586.25
979.586	3599.35
979.885	3551.22
980.185	3540.15
980.484	3479.13
980.784	3494.72
981.083	3517.1
981.382	3439.58
981.682	3454.5
981.981	3480.49
982.28	3402.3
982.579	3421.28
982.878	3402.98
983.177	3417.21
983.475	3398.91
983.774	3360.94
984.073	3381.73
984.372	3359.81
984.67	3341.06
984.969	3325.92
985.267	3324.11
985.566	3323.88
985.864	3267.39
986.162	3261.06
986.461	3254.96
986.759	3210.44
987.057	3182.87
987.355	3197.78
987.653	3164.34
987.951	3205.69
988.249	3171.12
988.547	3139.03
988.844	3141.51
989.142	3125.24
989.44	3113.49
989.737	3092.93
990.035	3077.33
990.332	3035.98
990.63	3054.74
990.927	3031.69
991.224	3035.98
991.521	2979.71
991.819	2996.21
992.116	2973.61
992.413	2958.47
992.71	2944.91
993.006	2923.21
993.303	2926.6
993.6	2896.32
993.897	2896.55
994.193	2871.01
994.49	2858.13
994.787	2834.4
995.083	2843.44
995.379	2821.75
995.676	2797.12
995.972	2803.9
996.268	2812.03
996.565	2767.06
996.861	2705.82
997.157	2767.29
997.453	2753.5
997.749	2734.07
998.044	2696.55
998.34	2676.89
998.636	2644.13
998.932	2676.21
999.227	2652.49
999.523	2594.64
999.818	2628.08
1000.114	2587.86
1000.409	2569.55
1000.704	2580.4
1001	2574.75
1001.295	2546.73
1001.59	2543.34
1001.885	2534.98
1002.18	2483
1002.475	2506.05
1002.77	2492.04
1003.065	2477.58
1003.359	2473.73
1003.654	2424.47
1003.949	2426.73
1004.243	2374.08
1004.538	2405.71
1004.832	2395.77
1005.127	2359.39
1005.421	2376.11
1005.715	2326.39
1006.009	2357.35
1006.304	2324.81
1006.598	2297.47
1006.892	2281.88
1007.186	2281.88
1007.48	2250.01
1007.773	2263.8
1008.067	2239.62
1008.361	2210.24
1008.655	2196.68
1008.948	2186.06
1009.242	2195.32
1009.535	2201.65
1009.829	2164.36
1010.122	2153.06
1010.415	2140.41
1010.708	2141.77
1011.001	2109.68
1011.295	2120.52
1011.588	2129.11
1011.881	2092.05
1012.173	2069
1012.466	2063.12
1012.759	2083.01
1013.052	2048.43
1013.344	2044.37
1013.637	1989.68
1013.93	1983.8
1014.222	2004.14
1014.514	1983.13
1014.807	1954.88
1015.099	1948.32
1015.391	1968.21
1015.683	1957.14
1015.976	1917.36
1016.268	1877.14
1016.56	1925.27
1016.851	1857.03
1017.143	1881.66
1017.435	1875.33
1017.727	1865.39
1018.018	1833.75
1018.31	1801.66
1018.602	1825.16
1018.893	1802.11
1019.185	1812.96
1019.476	1799.18
1019.767	1795.56
1020.058	1741.78
1020.35	1749.23
1020.641	1733.87
1020.932	1740.42
1021.223	1690.93
1021.514	1688.9
1021.804	1685.51
1022.095	1672.4
1022.386	1661.78
1022.677	1636.92
1022.967	1634.21
1023.258	1662.23
1023.548	1614.1
1023.839	1642.34
1024.129	1620.65
1024.419	1592.85
1024.709	1576.58
1025	1586.53
1025.29	1586.53
1025.58	1546.3
1025.87	1544.72
1026.16	1513.53
1026.449	1544.72
1026.739	1495.91
1027.029	1512.63
1027.319	1497.94
1027.608	1500.2
1027.898	1476.02
1028.187	1443.48
1028.477	1441.9
1028.766	1437.83
1029.055	1417.26
1029.344	1428.56
1029.634	1409.36
1029.923	1400.99
1030.212	1379.07
1030.501	1397.6
1030.79	1368.68
1031.078	1373.42
1031.367	1340.43
1031.656	1362.8
1031.945	1332.52
1032.233	1305.18
1032.522	1311.51
1032.81	1310.6
1033.099	1291.39
1033.387	1299.53
1033.675	1274.9
1033.963	1290.26
1034.251	1265.63
1034.54	1250.94
1034.828	1233.09
1035.116	1233.77
1035.403	1208.68
1035.691	1228.34
1035.979	1194.67
1036.267	1207.78
1036.554	1177.27
1036.842	1176.14
1037.129	1164.62
1037.417	1179.98
1037.704	1161.45
1037.992	1159.87
1038.279	1130.27
1038.566	1152.19
1038.853	1152.19
1039.14	1152.19
