Data from aluminium_surface_pro_back_FLMS001491_00021.txt Node
Date: Wed Feb 08 15:33:49 GMT 2017
User: dcchb
Spectrometer: FLMS00149
Trigger mode: 0
Integration Time (sec): 2.000000E-2
Scans to average: 10
Electric dark correction enabled: true
Nonlinearity correction enabled: false
Boxcar width: 0
XAxis mode: Wavelengths
Number of Pixels in Spectrum: 2048
>>>>>Begin Spectral Data<<<<<
341.393	-11.1
341.776	-11.1
342.16	-11.1
342.543	-62.85
342.927	-67.6
343.31	-65.11
343.693	-71.21
344.077	-76.64
344.46	-61.95
344.843	-53.81
345.226	-29.18
345.61	-27.37
345.993	-23.98
346.376	-20.59
346.759	12.4
347.142	30.93
347.525	35.68
347.908	49.91
348.291	84.04
348.674	87.2
349.057	129.69
349.44	134.43
349.823	136.01
350.206	161.78
350.588	220.76
350.971	248.1
351.354	241.1
351.737	263.47
352.119	276.12
352.502	280.42
352.884	309.34
353.267	319.51
353.65	335.1
354.032	331.26
354.414	318.38
354.797	331.04
355.179	365.84
355.562	359.74
355.944	346.63
356.326	362.22
356.709	379.17
357.091	362.67
357.473	383.69
357.855	362
358.238	370.36
358.62	386.63
359.002	376.69
359.384	367.65
359.766	375.1
360.148	366.06
360.53	383.92
360.912	382.56
361.294	373.3
361.676	370.36
362.057	373.52
362.439	366.97
362.821	401.32
363.203	367.19
363.584	381.43
363.966	369.23
364.348	380.98
364.729	348.66
365.111	360.87
365.493	366.97
365.874	386.4
366.256	362.22
366.637	381.2
367.019	359.74
367.4	372.84
367.781	377.59
368.163	383.69
368.544	350.7
368.925	340.98
369.306	387.76
369.688	361.32
370.069	377.59
370.45	387.08
370.831	376.23
371.212	385.5
371.593	397.02
371.974	379.4
372.355	380.75
372.736	386.85
373.117	373.75
373.498	385.5
373.879	397.93
374.26	399.51
374.641	405.16
375.021	374.65
375.402	413.75
375.783	385.05
376.163	429.56
376.544	404.71
376.925	416.01
377.305	407.42
377.686	400.64
378.066	402.67
378.447	426.4
378.827	419.85
379.208	429.56
379.588	419.85
379.968	438.6
380.349	440.86
380.729	443.8
381.109	435.67
381.489	457.36
381.87	435.67
382.25	438.38
382.63	471.6
383.01	449.68
383.39	471.37
383.77	464.59
384.15	463.24
384.53	474.99
384.91	485.16
385.29	479.51
385.67	505.95
386.049	511.82
386.429	484.93
386.809	521.31
387.189	514.76
387.568	499.85
387.948	504.82
388.328	523.35
388.707	516.79
389.087	535.78
389.466	522.44
389.846	547.3
390.225	566.06
390.605	530.35
390.984	574.87
391.363	553.4
391.743	570.58
392.122	611.48
392.501	581.43
392.881	621.65
393.26	633.18
393.639	622.1
394.018	593.4
394.397	617.58
394.776	613.97
395.155	670.91
395.534	642.67
395.913	641.54
396.292	678.37
396.671	674.08
397.05	668.43
397.429	688.77
397.808	676.34
398.186	695.55
398.565	675.89
398.944	686.51
399.323	723.34
399.701	700.29
400.08	699.39
400.458	745.04
400.837	744.13
401.215	760.86
401.594	747.75
401.972	771.25
402.351	760.18
402.729	776
403.107	806.05
403.486	788.2
403.864	822.1
404.242	842.66
404.62	816.67
404.999	836.56
405.377	847.41
405.755	852.15
406.133	865.26
406.511	866.62
406.889	898.93
407.267	906.16
407.645	927.4
408.023	919.04
408.401	947.29
408.779	942.09
409.156	965.14
409.534	968.31
409.912	959.72
410.29	1008.98
410.667	1007.85
411.045	1019.15
411.422	1047.4
411.8	1047.4
412.178	1085.37
412.555	1090.34
412.933	1087.63
413.31	1139.6
413.687	1147.96
414.065	1156.1
414.442	1161.07
414.819	1189.09
415.197	1215.31
415.574	1191.35
415.951	1203.56
416.328	1222.09
416.705	1211.92
417.082	1247.85
417.46	1253.05
417.837	1261.86
418.214	1271.12
418.591	1289.2
418.967	1280.84
419.344	1310.22
419.721	1363.78
420.098	1311.12
420.475	1356.32
420.852	1344.34
421.228	1400.39
421.605	1422.99
421.982	1421.4
422.358	1431.8
422.735	1464.79
423.111	1451.91
423.488	1465.47
423.864	1479.48
424.241	1499.82
424.617	1531
424.994	1537.11
425.37	1526.49
425.746	1556.54
426.123	1607.16
426.499	1598.57
426.875	1629.08
427.251	1634.05
427.627	1704.79
428.003	1711.79
428.379	1742.07
428.756	1739.36
429.132	1761.51
429.507	1797.44
429.883	1813.71
430.259	1840.38
430.635	1828.17
431.011	1862.07
431.387	1892.8
431.763	1949.3
432.138	1947.49
432.514	1989.3
432.89	1991.56
433.265	2037.88
433.641	2053.93
434.016	2061.39
434.392	2119.46
434.767	2165.34
435.143	2165.79
435.518	2207.37
435.894	2217.09
436.269	2227.03
436.644	2263.19
437.02	2262.51
437.395	2276.75
437.77	2337.09
438.145	2371.43
438.52	2417.99
438.895	2419.12
439.271	2385.67
439.646	2482.39
440.021	2509.51
440.395	2542.5
440.77	2493.47
441.145	2524.65
441.52	2566.46
441.895	2613.01
442.27	2631.77
442.645	2610.07
443.019	2689.17
443.394	2683.52
443.769	2681.03
444.143	2643.52
444.518	2759.67
444.892	2725.32
445.267	2791.76
445.641	2795.6
446.016	2802.16
446.39	2836.28
446.764	2809.84
447.139	2849.16
447.513	2891.65
447.887	2911.99
448.262	2878.77
448.636	2879.22
449.01	2977.07
449.384	3009.16
449.758	3043.28
450.132	3048.93
450.506	3079.89
450.88	3133.9
451.254	3113.56
451.628	3152.88
452.002	3210.51
452.376	3220.45
452.75	3259.1
453.123	3267
453.497	3329.38
453.871	3335.93
454.244	3393.1
454.618	3462.48
454.992	3508.58
455.365	3511.07
455.739	3594
456.112	3607.33
456.486	3657.73
456.859	3717.39
457.232	3754.22
457.606	3787.89
457.979	3834.67
458.352	3932.75
458.725	3951.96
459.099	3972.75
459.472	4091.84
459.845	4069.92
460.218	4143.59
460.591	4149.02
460.964	4172.29
461.337	4271.27
461.71	4346.75
462.083	4426.3
462.456	4420.42
462.829	4468.1
463.201	4552.85
463.574	4587.65
463.947	4655.89
464.32	4768.21
464.692	4783.12
465.065	4794.65
465.438	4853.86
465.81	4944.7
466.183	5008.65
466.555	5091.14
466.928	5122.32
467.3	5170.91
467.672	5224.47
468.045	5362.32
468.417	5431.92
468.789	5433.95
469.161	5494.52
469.534	5646.83
469.906	5712.36
470.278	5751.01
470.65	5858.57
471.022	5960.94
471.394	6051.56
471.766	6102.18
472.138	6232.12
472.51	6321.16
472.882	6421.95
473.253	6504.89
473.625	6578.33
473.997	6728.38
474.369	6783.07
474.74	6808.15
475.112	6923.86
475.484	7089.28
475.855	7182.38
476.227	7251.53
476.598	7415.37
476.97	7519.32
477.341	7700.11
477.713	7823.95
478.084	7844.96
478.455	8048.57
478.827	8192.75
479.198	8464.16
479.569	8377.83
479.94	8662.57
480.311	8786.86
480.682	8960.64
481.053	9072.73
481.424	9341.2
481.795	9381.65
482.166	9496.9
482.537	9672.49
482.908	9833.84
483.279	9960.39
483.65	10135.3
484.021	10370.55
484.391	10492.58
484.762	10602.18
485.133	10686.7
485.503	10817.31
485.874	11118.55
486.244	11227.7
486.615	11401.03
486.985	11587.24
487.356	11721.92
487.726	11910.17
488.097	12056.6
488.467	12141.35
488.837	12477.38
489.207	12525.74
489.578	12772.07
489.948	12903.14
490.318	13107.42
490.688	13058.39
491.058	13333.41
491.428	13494.31
491.798	13668.09
492.168	13909.66
492.538	13966.61
492.908	14119.6
493.278	14386.03
493.648	14413.6
494.017	14651.34
494.387	14691.34
494.757	14848.85
495.126	15077.32
495.496	15080.71
495.866	15248.84
496.235	15403.86
496.605	15511.65
496.974	15709.16
497.344	15763.4
497.713	15838.65
498.082	16068.93
498.452	16188.7
498.821	16327.23
499.19	16381.24
499.559	16590.5
499.928	16651.51
500.298	16780.77
500.667	16987.77
501.036	17057.38
501.405	17219.63
501.774	17165.85
502.143	17388.89
502.512	17438.61
502.88	17593.41
503.249	17632.95
503.618	17748.21
503.987	17881.31
504.356	17990.01
504.724	18157.69
505.093	18156.78
505.462	18368.3
505.83	18445.14
506.199	18633.38
506.567	18893.71
506.936	18914.5
507.304	19054.61
507.672	19204.21
508.041	19335.96
508.409	19473.13
508.777	19646.23
509.145	19854.14
509.514	19855.04
509.882	20089.61
510.25	20153.57
510.618	20339.32
510.986	20431.75
511.354	20617.51
511.722	20785.64
512.09	20951.51
512.458	20992.64
512.826	21185.63
513.193	21319.64
513.561	21397.6
513.929	21643.47
514.297	21756.24
514.664	22008.43
515.032	21941.54
515.4	22332.27
515.767	22357.12
516.135	22456.78
516.502	22470.57
516.869	22870.1
517.237	22928.63
517.604	22918.01
517.972	23236.2
518.339	23491.78
518.706	23490.43
519.073	23546.7
519.44	23761.61
519.808	24128.15
520.175	24121.15
520.542	24513.45
520.909	24635.48
521.276	24657.85
521.643	24980.33
522.009	25155.24
522.376	25366.76
522.743	25503.03
523.11	25882.68
523.477	26041.32
523.843	26241.99
524.21	26671.59
524.577	26875.88
524.943	26794.97
525.31	27031.8
525.676	27280.84
526.043	27419.14
526.409	27645.57
526.776	27928.73
527.142	28086.24
527.508	28130.53
527.874	28372.79
528.241	28480.8
528.607	28699.33
528.973	28940.68
529.339	28838.54
529.705	29225.19
530.071	29328.69
530.437	29635.8
530.803	29771.39
531.169	29971.61
531.535	29916.02
531.901	30144.49
532.267	30327.76
532.632	30451.15
532.998	30666.28
533.364	30872.61
533.73	31002.77
534.095	31291.13
534.461	31319.6
534.826	31483.89
535.192	31599.82
535.557	31882.75
535.923	31788.06
536.288	32054.04
536.653	32170.43
537.019	32160.48
537.384	32249.52
537.749	32382.4
538.114	32478.21
538.479	32519.57
538.845	32756.62
539.21	32569.51
539.575	32926.34
539.94	33010.18
540.305	33301.47
540.67	33213.79
541.034	33357.74
541.399	33467.57
541.764	33553.89
542.129	33786.2
542.494	33806.31
542.858	33997.72
543.223	33923.37
543.587	34254.21
543.952	34315.23
544.316	34306.19
544.681	34375.57
545.045	34615.33
545.41	34795.89
545.774	34795.67
546.138	34995.89
546.503	35043.57
546.867	35094.42
547.231	35498.02
547.595	35385.93
547.959	35549.55
548.324	35721.52
548.688	35764.23
549.052	35884
549.416	35994.96
549.779	36093.49
550.143	36117.21
550.507	36311.79
550.871	36399.24
551.235	36418.9
551.599	36722.85
551.962	36885.33
552.326	36919
552.689	37194.93
553.053	37029.73
553.417	37211.2
553.78	37587.68
554.143	37540.45
554.507	37846.43
554.87	37834.23
555.234	38298.4
555.597	38147.22
555.96	38476.02
556.323	38637.6
556.686	38691.16
557.05	38949.68
557.413	38962.34
557.776	39183.57
558.139	39492.94
558.502	39480.74
558.865	39709.21
559.228	39978.13
559.59	39975.87
559.953	40006.15
560.316	40517.32
560.679	40434.16
561.041	40877.09
561.404	40947.14
561.767	41229.85
562.129	41114.14
562.492	41478.2
562.854	41526.11
563.217	41571.53
563.579	41804.07
563.941	42094.01
564.304	42263.72
564.666	42528.12
565.028	42764.72
565.39	42812.86
565.753	43174.43
566.115	43209.01
566.477	43490.13
566.839	43585.94
567.201	43889.44
567.563	44007.85
567.925	44289.65
568.287	44292.37
568.648	44355.19
569.01	44648.06
569.372	44916.98
569.734	44910.43
570.095	45206.47
570.457	45308.38
570.819	45442.84
571.18	45600.35
571.542	45854.36
571.903	46023.62
572.265	46052.55
572.626	46118.76
572.987	46190.62
573.349	46362.82
573.71	46582.93
574.071	46746.99
574.432	46820.44
574.794	47097.49
575.155	47062.24
575.516	47120.54
575.877	47192.63
576.238	47350.59
576.599	47486.63
576.96	47682.56
577.32	47611.6
577.681	47820.64
578.042	47991.03
578.403	47898.15
578.763	48012.49
579.124	48109.89
579.485	48454.52
579.845	48431.47
580.206	48391.47
580.566	48310.79
580.927	48419.94
581.287	48557.79
581.648	48455.87
582.008	48658.81
582.368	48628.3
582.728	48654.06
583.089	48692.02
583.449	48806.6
583.809	48753.94
584.169	48968.4
584.529	48762.76
584.889	49074.16
585.249	48874.62
585.609	48864.45
585.969	49074.84
586.329	49073.26
586.688	49024.22
587.048	49130.66
587.408	48895.18
587.768	48964.79
588.127	48918.23
588.487	48834.62
588.846	49113.71
589.206	48757.79
589.565	48903.32
589.925	49122.75
590.284	48986.48
590.643	49075.29
591.003	49201.84
591.362	49264.21
591.721	49112.13
592.08	49221.28
592.44	49333.59
592.799	49401.61
593.158	49232.58
593.517	49298.79
593.876	49390.76
594.235	49285
594.593	49323.87
594.952	49464.43
595.311	49360.26
595.67	49391.22
596.029	49697.87
596.387	49686.12
596.746	49624.43
597.104	49497.2
597.463	49521.16
597.822	49713.24
598.18	49566.35
598.538	49560.7
598.897	49721.38
599.255	49417.43
599.613	49981.48
599.972	49747.59
600.33	49862.16
600.688	49788.95
601.046	49860.13
601.404	49991.2
601.762	49956.4
602.12	50056.73
602.478	50103.51
602.836	50135.38
603.194	49915.95
603.552	50020.13
603.91	49947.13
604.268	50140.8
604.625	50006.11
604.983	50048.15
605.341	50012.44
605.698	50171.31
606.056	50242.04
606.413	50121.14
606.771	50249.72
607.128	50411.3
607.485	50261.48
607.843	50451.3
608.2	50546.67
608.557	50535.37
608.914	50585.08
609.272	50670.73
609.629	50817.62
609.986	50883.38
610.343	50748.47
610.7	51028.46
611.057	50884.51
611.414	50777.85
611.771	50834.79
612.127	51109.14
612.484	51010.83
612.841	51123.6
613.198	50979.65
613.554	51178.29
613.911	51236.82
614.267	51234.33
614.624	51203.6
614.98	51151.17
615.337	51463.93
615.693	51283.37
616.05	51256.93
616.406	51506.64
616.762	51289.7
617.118	51320.66
617.475	51366.76
617.831	51517.94
618.187	51489.01
618.543	51476.13
618.899	51652.85
619.255	51661.66
619.611	51573.3
619.967	51668.9
620.323	51746.41
620.678	51584.83
621.034	51497.37
621.39	51465.74
621.746	51369.02
622.101	51712.96
622.457	51450.6
622.812	51604.94
623.168	51651.72
623.523	51605.85
623.879	51677.03
624.234	51575.11
624.589	51536.92
624.945	51713.64
625.3	51706.18
625.655	51684.26
626.01	51675
626.365	51681.55
626.72	51726.52
627.075	51669.8
627.43	51594.77
627.785	51537.15
628.14	51648.33
628.495	51680.42
628.85	51625.73
629.205	51404.95
629.559	51662.34
629.914	51458.73
630.269	51483.82
630.623	51419.86
630.978	51270.94
631.332	51447.21
631.687	51483.82
632.041	51397.94
632.396	51357.72
632.75	51309.58
633.104	51369.69
633.459	51211.96
633.813	51148.91
634.167	51148.01
634.521	51203.15
634.875	51290.37
635.229	51266.65
635.583	51046.99
635.937	51077.95
636.291	51033.66
636.645	50991.85
636.999	50786.43
637.352	50974.68
637.706	50702.37
638.06	50919.76
638.413	50765.19
638.767	50613.78
639.121	50751.41
639.474	50436.61
639.828	50491.53
640.181	50532.65
640.534	50603.84
640.888	50477.29
641.241	50250.85
641.594	50391.87
641.947	50415.37
642.301	50220.57
642.654	50256.05
643.007	50277.52
643.36	50195.71
643.713	50070.75
644.066	50160.01
644.419	49955.95
644.771	49671.21
645.124	49296.3
645.477	49262.41
645.83	48972.02
646.182	48938.35
646.535	48731.12
646.888	48889.99
647.24	48572.03
647.593	48948.29
647.945	48694.51
648.298	48591.01
648.65	48377.46
649.002	48367.51
649.355	48579.71
649.707	48409.32
650.059	48520.96
650.411	48927.95
650.763	49055.63
651.115	49394.15
651.467	49174.95
651.819	49199.36
652.171	49031
652.523	49004.11
652.875	48970.66
653.227	48960.04
653.578	49140.15
653.93	48967.05
654.282	48775.19
654.633	48555.53
654.985	48714.62
655.337	48716.43
655.688	48777.9
656.039	48878.46
656.391	48497.45
656.742	48639.6
657.094	48647.96
657.445	48836.2
657.796	48659.48
658.147	48590.33
658.498	48596.89
658.849	48610.45
659.2	48496.32
659.551	48415.2
659.902	48598.47
660.253	48432.37
660.604	48473.5
660.955	48272.83
661.306	48367.29
661.656	48280.51
662.007	48245.71
662.358	48088.2
662.708	48215.65
663.059	48178.82
663.409	48071.25
663.76	48311.02
664.11	48207.52
664.461	48222.66
664.811	48239.83
665.161	48116.22
665.511	47970.01
665.862	48095.43
666.212	48164.58
666.562	48163.23
666.912	47977.69
667.262	48020.63
667.612	48046.17
667.962	48004.13
668.312	48003
668.662	48172.26
669.011	47921.2
669.361	47980.86
669.711	47788.32
670.06	47816.57
670.41	47698.15
670.76	47648.21
671.109	47728.43
671.459	47791.48
671.808	47648.44
672.157	47696.57
672.507	47456.35
672.856	47421.78
673.205	47553.75
673.554	47697.7
673.904	47462
674.253	47736.57
674.602	47543.58
674.951	46969.58
675.3	46821.11
675.649	47384.04
675.998	47391.04
676.346	47329.12
676.695	47323.93
677.044	46995.57
677.393	47113.76
677.741	47164.38
678.09	46983.6
678.438	47022.24
678.787	46866.31
679.135	46968.68
679.484	46749.93
679.832	46891.85
680.181	46658.18
680.529	46777.5
680.877	46545.87
681.225	46553.55
681.573	46764.17
681.922	46331.41
682.27	46322.14
682.618	46230.62
682.966	46314.69
683.314	46175.25
683.661	46035.37
684.009	45844.87
684.357	45822.27
684.705	45647.81
685.053	45747.02
685.4	45872.89
685.748	45594.25
686.095	45484.88
686.443	45406.24
686.79	45379.34
687.138	45469.06
687.485	45358.33
687.832	45206.24
688.18	45248.73
688.527	45019.35
688.874	44853.93
689.221	44907.27
689.568	44884.67
689.915	44624.11
690.262	44787.04
690.609	44546.37
690.956	44480.38
691.303	44531.91
691.65	44336.89
691.997	44233.16
692.344	43940.96
692.69	44059.83
693.037	44013.5
693.383	43696
693.73	43846.28
694.077	43621.88
694.423	43578.49
694.769	43334.65
695.116	43370.36
695.462	43366.29
695.808	43148.22
696.155	43295.33
696.501	42666.42
696.847	42862.12
697.193	42393.21
697.539	42773.08
697.885	42458.29
698.231	42224.85
698.577	42353.89
698.923	42294
699.269	41889.94
699.614	41875.71
699.96	41761.59
700.306	41726.56
700.651	41498.32
700.997	41388.94
701.342	41346.68
701.688	41298.32
702.033	41155.27
702.379	41195.5
702.724	41027.14
703.069	41063.3
703.415	40644.78
703.76	40607.94
704.105	40700.82
704.45	40501.73
704.795	40325.92
705.14	40263.09
705.485	40262.42
705.83	39977.68
706.175	40067.17
706.52	39896.78
706.865	39676.44
707.209	39625.37
707.554	39575.65
707.899	39693.39
708.243	39338.37
708.588	39320.07
708.932	39310.12
709.277	39001.88
709.621	39061.32
709.966	38738.84
710.31	38839.4
710.654	38510.15
710.998	38487.55
711.342	38592.86
711.687	38642.8
712.031	38317.61
712.375	38288.46
712.719	38347.89
713.063	38466.76
713.407	38384.95
713.75	38036.49
714.094	38094.11
714.438	37953.32
714.782	37979.09
715.125	37667.68
715.469	37865.64
715.812	37581.13
716.156	37394.24
716.499	37477.63
716.843	37480.12
717.186	37320.57
717.53	37503.84
717.873	37565.99
718.216	37208.94
718.559	37173.91
718.902	36847.82
719.246	36914.26
719.589	36825.9
719.932	36723.98
720.275	36727.14
720.617	36578.22
720.96	36655.73
721.303	36559.69
721.646	36606.92
721.989	36218.91
722.331	36514.49
722.674	36330.77
723.016	36359.92
723.359	36165.8
723.701	36142.98
724.044	36015.3
724.386	35830.44
724.729	35983.43
725.071	35920.61
725.413	35866.37
725.755	35677.9
726.097	35559.94
726.439	35383.67
726.782	35420.74
727.124	35576.66
727.465	35432.49
727.807	35204.7
728.149	35180.29
728.491	35169.89
728.833	35255.99
729.175	35013.29
729.516	34975.78
729.858	34952.05
730.199	34896
730.541	34814.65
730.882	34827.98
731.224	34900.75
731.565	34649.46
731.906	34557.93
732.248	34806.06
732.589	34526.97
732.93	34419.86
733.271	34467.09
733.612	34493.75
733.953	34469.35
734.294	34293.53
734.635	34117.27
734.976	34025.97
735.317	34003.82
735.658	34063.93
735.999	33975.8
736.339	33793.89
736.68	33950.27
737.021	33777.61
737.361	33680.89
737.702	33797.5
738.042	33744.62
738.383	33558.41
738.723	33616.71
739.063	33445.87
739.404	33698.52
739.744	33458.08
740.084	33512.08
740.424	33297.18
740.764	33261.7
741.104	33330.62
741.444	33152.55
741.784	33051.98
742.124	32999.1
742.464	32957.07
742.804	33026.67
743.143	32954.36
743.483	32934.02
743.823	32766.57
744.162	32722.28
744.502	32813.12
744.841	32643.86
745.181	32770.86
745.52	32659.68
745.86	32602.28
746.199	32538.1
746.538	32454.49
746.877	32471.66
747.216	32377.2
747.556	32346.69
747.895	32304.43
748.234	32014.05
748.573	32019.02
748.911	32049.07
749.25	31894.95
749.589	31766.37
749.928	31850.89
750.267	31720.95
750.605	31660.38
750.944	31579.48
751.283	31512.82
751.621	31483.89
751.96	31291.8
752.298	31165.71
752.636	31351.46
752.975	31228.53
753.313	31084.58
753.651	31333.61
753.989	31013.62
754.327	31128.42
754.666	30865.83
755.004	30858.37
755.342	30895.2
755.679	30862.44
756.017	30690.46
756.355	30786.28
756.693	30490.47
757.031	30491.15
757.368	30333.64
757.706	30310.81
758.044	30193.98
758.381	30104.49
758.719	30035.34
759.056	30071.95
759.394	29914.21
759.731	29723.71
760.068	29721
760.405	29711.96
760.743	29511.06
761.08	29556.26
761.417	29313.55
761.754	29264.96
762.091	29283.5
762.428	29105.2
762.765	28906.1
763.102	29021.58
763.438	28711.99
763.775	28690.06
764.112	28640.8
764.449	28652.1
764.785	28556.96
765.122	28300.24
765.458	28353.58
765.795	28210.98
766.131	28122.62
766.467	27989.97
766.804	27829.07
767.14	27741.16
767.476	27620.04
767.812	27629.53
768.148	27469.08
768.485	27420.27
768.821	27155.42
769.157	27229.09
769.492	27043.33
769.828	26997.45
770.164	26803.11
770.5	26746.39
770.836	26737.57
771.171	26669.78
771.507	26571.02
771.842	26375.32
772.178	26290.35
772.513	26232.5
772.849	26182.79
773.184	26038.61
773.519	26022.56
773.855	25939.63
774.19	25824.15
774.525	25737.83
774.86	25761.1
775.195	25716.36
775.53	25562.01
775.865	25237.95
776.2	25211.29
776.535	25074.34
776.87	25055.36
777.205	24957.06
777.539	24779.43
777.874	24804.07
778.209	24583.96
778.543	24521.13
778.878	24421.25
779.212	24487.92
779.547	24205.89
779.881	24221.03
780.215	24080.92
780.55	24150.98
780.884	23941.49
781.218	23916.41
781.552	23857.42
781.886	23754.6
782.22	23550.31
782.554	23391.45
782.888	23225.35
783.222	23117.1
783.556	23087.73
783.889	22933.38
784.223	22864.68
784.557	22788.98
784.89	22868.97
785.224	22734.52
785.557	22503.79
785.891	22625.37
786.224	22524.35
786.558	22534.07
786.891	22374.98
787.224	22289.33
787.557	22186.06
787.891	22157.13
788.224	22189.67
788.557	22096.34
788.89	21948.77
789.223	21948.77
789.556	21733.41
789.888	21717.14
790.221	21579.74
790.554	21562.34
790.887	21587.43
791.219	21344.72
791.552	21290.71
791.884	21182.47
792.217	21147.89
792.549	21101.56
792.882	20840.33
793.214	20836.71
793.546	20921.68
793.879	20692.54
794.211	20678.07
794.543	20673.1
794.875	20600.33
795.207	20577.28
795.539	20516.49
795.871	20454.58
796.203	20219.78
796.535	20196.28
796.867	20181.36
797.198	20045.09
797.53	20055.04
797.862	19796.51
798.193	19968.03
798.525	19742.5
798.856	19785.44
799.188	19633.13
799.519	19575.5
799.85	19358.11
800.182	19456.41
800.513	19418.22
800.844	19310.42
801.175	19275.62
801.506	19294.15
801.837	19223.65
802.168	19242.18
802.499	19097.55
802.83	18977.1
803.161	18934.16
803.491	18949.3
803.822	18829.31
804.153	18724.9
804.483	18676.54
804.814	18532.37
805.145	18668.86
805.475	18514.29
805.805	18513.38
806.136	18502.99
806.466	18364.01
806.796	18390
807.126	18249.44
807.457	18123.11
807.787	18164.69
808.117	18040.18
808.447	17952.72
808.777	18159.95
809.107	17879.95
809.436	17873.17
809.766	17888.99
810.096	17822.78
810.426	17670.47
810.755	17716.79
811.085	17691.48
811.414	17652.61
811.744	17527.65
812.073	17483.13
812.403	17533.3
812.732	17372.4
813.061	17399.51
813.39	17299.63
813.719	17246.98
814.049	17291.95
814.378	17298.27
814.707	17111.61
815.036	17116.36
815.365	16987.77
815.693	16842.69
816.022	16891.28
816.351	16835.69
816.68	16765.41
817.008	16805.86
817.337	16672.98
817.665	16617.39
817.994	16597.28
818.322	16598.41
818.651	16628.24
818.979	16405.87
819.307	16463.49
819.636	16471.63
819.964	16250.84
820.292	16408.35
820.62	16336.94
820.948	16398.64
821.276	16418.75
821.604	16302.14
821.932	16364.29
822.259	16328.58
822.587	16316.15
822.915	16273.67
823.243	16251.97
823.57	16286.1
823.898	16331.52
824.225	16251.07
824.553	16185.08
824.88	16316.83
825.207	16293.78
825.535	16247.91
825.862	16274.57
826.189	16242.26
826.516	16278.87
826.843	16319.99
827.17	16341.91
827.497	16442.7
827.824	16334.68
828.151	16402.03
828.478	16298.53
828.805	16327.45
829.131	16241.58
829.458	16274.35
829.785	16074.8
830.111	16236.38
830.438	16329.03
830.764	16217.85
831.09	16260.11
831.417	16190.96
831.743	16230.05
832.069	16148.7
832.395	16061.02
832.722	16151.64
833.048	16033.45
833.374	16097.4
833.7	16009.95
834.026	16020.79
834.351	16134.69
834.677	16044.3
835.003	15995.94
835.329	16008.82
835.654	16041.36
835.98	15976.73
836.306	15914.81
836.631	15973.79
836.956	15983.51
837.282	15928.14
837.607	15880.01
837.932	15830.97
838.258	15850.4
838.583	15797.07
838.908	15729.05
839.233	15662.38
839.558	15629.84
839.883	15679.56
840.208	15558.66
840.533	15554.37
840.858	15539.45
841.182	15573.57
841.507	15613.12
841.832	15448.83
842.156	15402.73
842.481	15437.76
842.805	15424.65
843.13	15397.53
843.454	15358.44
843.778	15274.6
844.103	15297.42
844.427	15306.24
844.751	15269.17
845.075	15205.45
845.399	15165.45
845.723	15014.72
846.047	15149.4
846.371	14910.09
846.695	14894.72
847.019	14839.36
847.343	14759.81
847.666	14677.78
847.99	14630.77
848.313	14663.32
848.637	14605.92
848.96	14556.88
849.284	14539.93
849.607	14357.33
849.931	14365.7
850.254	14283.44
850.577	14261.74
850.9	14112.82
851.223	14085.93
851.546	14029.43
851.869	13890
852.192	14003.67
852.515	13906.95
852.838	13906.27
853.161	13840.74
853.483	13757.58
853.806	13636.68
854.129	13651.36
854.451	13661.99
854.774	13612.5
855.096	13490.69
855.419	13453.18
855.741	13476
856.063	13300.86
856.385	13450.69
856.708	13307.87
857.03	13296.57
857.352	13260.19
857.674	13246.18
857.996	13121.43
858.318	13126.63
858.64	13136.58
858.961	13089.12
859.283	13036.69
859.605	12948.11
859.926	12909.69
860.248	12960.53
860.57	12821.78
860.891	12864.27
861.212	12820.65
861.534	12818.17
861.855	12768.9
862.176	12806.87
862.498	12705.85
862.819	12761.9
863.14	12637.61
863.461	12695.23
863.782	12638.96
864.103	12707.89
864.424	12582.24
864.745	12569.58
865.065	12563.26
865.386	12502.69
865.707	12556.48
866.027	12490.94
866.348	12476.71
866.668	12359.65
866.989	12347.9
867.309	12345.41
867.63	12481.45
867.95	12395.58
868.27	12252.3
868.59	12389.02
868.91	12260.21
869.23	12228.35
869.55	12222.93
869.87	12276.71
870.19	12181.8
870.51	12230.61
870.83	12215.02
871.15	12147.45
871.469	12139.09
871.789	12127.11
872.109	12079.88
872.428	12059.99
872.748	12113.33
873.067	12031.97
873.386	12125.3
873.706	12058.86
874.025	11980.67
874.344	11940
874.663	11997.85
874.982	11995.59
875.301	12039.66
875.62	11940.9
875.939	11898.87
876.258	11912.65
876.577	11836.95
876.896	11859.09
877.214	11834.01
877.533	11847.12
877.852	11789.04
878.17	11764.41
878.489	11846.44
878.807	11852.32
879.125	11793.56
879.444	11726.44
879.762	11803.96
880.08	11757.18
880.398	11732.54
880.716	11747.46
881.034	11707.69
881.352	11767.12
881.67	11697.97
881.988	11754.01
882.306	11654.81
882.624	11661.36
882.941	11525.32
883.259	11608.93
883.577	11542.95
883.894	11494.58
884.212	11492.32
884.529	11541.36
884.846	11525.32
885.164	11431.31
885.481	11441.48
885.798	11478.31
886.115	11406.23
886.432	11393.57
886.75	11342.72
887.067	11390.41
887.383	11355.61
887.7	11293.46
888.017	11266.57
888.334	11301.82
888.651	11275.16
888.967	11207.81
889.284	11097.99
889.6	11152.9
889.917	11017.31
890.233	11083.07
890.55	11046.69
890.866	11009.17
891.182	11003.75
891.498	10919.91
891.815	10948.61
892.131	10883.98
892.447	10848.73
892.763	10792.23
893.079	10876.52
893.395	10767.82
893.71	10742.51
894.026	10705.9
894.342	10725.79
894.657	10667.49
894.973	10632.69
895.289	10623.2
895.604	10597.66
895.92	10575.74
896.235	10525.57
896.55	10490.54
896.865	10431.34
897.181	10430.66
897.496	10399.02
897.811	10380.04
898.126	10383.88
898.441	10327.84
898.756	10253.49
899.071	10258.01
899.386	10306.14
899.7	10125.58
900.015	10135.75
900.33	10060.05
900.644	10083.1
900.959	10033.61
901.273	9996.77
901.588	9958.81
901.902	9964.68
902.216	9923.1
902.531	9899.37
902.845	9857.11
903.159	9775.31
903.473	9764.91
903.787	9744.35
904.101	9698.93
904.415	9790.9
904.729	9763.33
905.042	9618.25
905.356	9631.36
905.67	9662.32
905.984	9583.45
906.297	9568.76
906.611	9491.47
906.924	9503
907.237	9484.47
907.551	9376.67
907.864	9370.35
908.177	9385.26
908.491	9307.52
908.804	9246.73
909.117	9201.76
909.43	9126.51
909.743	9160.18
910.056	9115.44
910.368	9169.45
910.681	9098.49
910.994	9012.84
911.307	9024.82
911.619	8935.1
911.932	8917.25
912.244	8853.75
912.557	8835.9
912.869	8874.54
913.181	8761.78
913.494	8799.51
913.806	8753.41
914.118	8664.6
914.43	8637.71
914.742	8603.14
915.054	8623.02
915.366	8653.98
915.678	8539.86
915.99	8573.53
916.302	8505.96
916.613	8456.7
916.925	8483.59
917.236	8341.67
917.548	8347.77
917.859	8348.45
918.171	8250.83
918.482	8265.97
918.794	8190.49
919.105	8278.17
919.416	8140.32
919.727	8134.45
920.038	8134.9
920.349	8062.58
920.66	8036.6
920.971	8004.06
921.282	7995.47
921.593	7896.26
921.903	7924.51
922.214	7891.52
922.525	7825.53
922.835	7767
923.146	7761.12
923.456	7751.86
923.767	7689.04
924.077	7674.35
924.387	7638.87
924.697	7617.17
925.008	7568.81
925.318	7538.98
925.628	7551.86
925.938	7481.81
926.248	7401.59
926.558	7386.67
926.867	7388.03
927.177	7394.35
927.487	7301.47
927.796	7240.91
928.106	7299.67
928.416	7301.93
928.725	7223.06
929.034	7204.98
929.344	7209.27
929.653	7169.05
929.962	7160.01
930.271	7065.77
930.581	7033.91
930.89	7024.65
931.199	6990.3
931.508	6950.98
931.817	6935.83
932.125	6900.36
932.434	6912.33
932.743	6846.8
933.051	6795.95
933.36	6775.39
933.669	6699
933.977	6679.8
934.286	6705.78
934.594	6663.75
934.902	6646.12
935.21	6587.14
935.519	6617.65
935.827	6606.35
936.135	6504.43
936.443	6468.5
936.751	6424.21
937.059	6473.47
937.367	6419.46
937.674	6425.11
937.982	6386.47
938.29	6355.06
938.597	6340.6
938.905	6255.85
939.213	6214.5
939.52	6217.89
939.827	6262.63
940.135	6181.73
940.442	6180.37
940.749	6175.85
941.056	6141.96
941.363	6096.31
941.67	6035.97
941.977	6032.81
942.284	5961.62
942.591	6008.18
942.898	5944
943.205	5968.85
943.511	5913.26
943.818	5893.15
944.125	5866.03
944.431	5827.84
944.738	5782.42
945.044	5843.43
945.35	5799.37
945.657	5715.3
945.963	5744.68
946.269	5697.9
946.575	5649.31
946.881	5673.49
947.187	5671.01
947.493	5606.83
947.799	5593.27
948.105	5554.4
948.41	5522.54
948.716	5570.45
949.022	5464.01
949.327	5449.32
949.633	5439.38
949.938	5453.61
950.244	5451.35
950.549	5357.57
950.854	5385.14
951.16	5408.87
951.465	5329.32
951.77	5312.15
952.075	5288.65
952.38	5301.08
952.685	5275.77
952.99	5220.63
953.294	5177.01
953.599	5159.61
953.904	5144.7
954.209	5104.7
954.513	5150.12
954.818	5076.67
955.122	5088.2
955.426	5033.06
955.731	4981.76
956.035	5003
956.339	4966.85
956.643	4956.45
956.948	4979.73
957.252	4869.22
957.556	4896.57
957.86	4879.62
958.163	4846.4
958.467	4840.97
958.771	4832.16
959.075	4804.82
959.378	4797.59
959.682	4738.38
959.985	4735.67
960.289	4729.56
960.592	4687.98
960.896	4627.42
961.199	4667.65
961.502	4677.36
961.805	4647.08
962.108	4614.31
962.411	4613.41
962.714	4563.92
963.017	4521.43
963.32	4528.89
963.623	4518.27
963.926	4498.61
964.228	4475.79
964.531	4431.95
964.833	4472.62
965.136	4408.67
965.438	4372.51
965.741	4361.66
966.043	4344.49
966.345	4375.9
966.648	4333.64
966.95	4304.04
967.252	4291.38
967.554	4253.87
967.856	4246.87
968.158	4260.2
968.46	4192.86
968.761	4167.32
969.063	4159.86
969.365	4164.61
969.666	4101.11
969.968	4106.3
970.269	4119.86
970.571	4104.27
970.872	4088
971.174	4033.54
971.475	4035.57
971.776	3982.69
972.077	3984.5
972.378	3965.07
972.679	3963.48
972.98	3969.13
973.281	3903.37
973.582	3920.32
973.883	3896.59
974.183	3879.19
974.484	3853.88
974.785	3863.15
975.085	3830.61
975.386	3811.62
975.686	3796.71
975.986	3812.75
976.287	3772.53
976.587	3736.37
976.887	3707.67
977.187	3745.18
977.487	3710.61
977.787	3664.28
978.087	3661.57
978.387	3666.09
978.687	3638.75
978.987	3653.44
979.286	3611.63
979.586	3583.38
979.885	3581.8
980.185	3574.12
980.484	3556.04
980.784	3547.9
981.083	3519.2
981.382	3457.73
981.682	3462.48
981.981	3476.49
982.28	3442.82
982.579	3444.85
982.878	3489.15
983.177	3452.54
983.475	3413.67
983.774	3383.39
984.073	3379.54
984.372	3375.93
984.67	3360.56
984.969	3345.42
985.267	3304.74
985.566	3340.22
985.864	3276.72
986.162	3284.41
986.461	3278.08
986.759	3231.75
987.057	3247.34
987.355	3250.28
987.653	3215.71
987.951	3195.82
988.249	3187.46
988.547	3198.53
988.844	3149.49
989.142	3160.34
989.44	3150.4
989.737	3083.28
990.035	3078.53
990.332	3060.46
990.63	3016.84
990.927	3039.44
991.224	3060.23
991.521	3016.39
991.819	3000.12
992.116	3034.24
992.413	2978.2
992.71	2984.53
993.006	2952.21
993.303	2934.58
993.6	2918.54
993.897	2893.91
994.193	2886.68
994.49	2875.6
994.787	2836.73
995.083	2842.61
995.379	2806.23
995.676	2869.73
995.972	2809.39
996.268	2774.59
996.565	2752.22
996.861	2745.89
997.157	2777.98
997.453	2734.82
997.749	2704.53
998.044	2727.81
998.34	2658.66
998.636	2705.89
998.932	2667.92
999.227	2640.81
999.523	2605.1
999.818	2608.26
1000.114	2611.65
1000.409	2569.17
1000.704	2552.9
1001	2557.42
1001.295	2543.18
1001.59	2531.88
1001.885	2546.8
1002.18	2500.92
1002.475	2478.55
1002.77	2494.14
1003.065	2498.21
1003.359	2452.79
1003.654	2463.64
1003.949	2432.9
1004.243	2415.28
1004.538	2396.07
1004.832	2395.39
1005.127	2397.87
1005.421	2358.33
1005.715	2344.77
1006.009	2348.61
1006.304	2326.46
1006.598	2339.35
1006.892	2315.39
1007.186	2272
1007.48	2302.96
1007.773	2290.08
1008.067	2250.76
1008.361	2262.51
1008.655	2234.94
1008.948	2243.75
1009.242	2217.77
1009.535	2189.97
1009.829	2174.15
1010.122	2151.78
1010.415	2136.86
1010.708	2132.12
1011.001	2161.72
1011.295	2133.93
1011.588	2079.01
1011.881	2094.38
1012.173	2104.1
1012.466	2076.53
1012.759	2074.49
1013.052	2062.06
1013.344	2037.88
1013.637	2021.61
1013.93	2009.41
1014.222	2022.29
1014.514	1967.15
1014.807	1997.21
1015.099	1956.3
1015.391	1968.73
1015.683	1942.29
1015.976	1929.41
1016.268	1900.71
1016.56	1912.46
1016.851	1923.99
1017.143	1881.28
1017.435	1888.96
1017.727	1851.67
1018.018	1885.57
1018.31	1843.31
1018.602	1793.14
1018.893	1827.72
1019.185	1791.34
1019.476	1790.43
1019.767	1793.37
1020.058	1769.64
1020.35	1767.16
1020.641	1743.65
1020.932	1720.15
1021.223	1737.1
1021.514	1680.61
1021.804	1702.53
1022.095	1669.08
1022.386	1678.12
1022.677	1643.77
1022.967	1649.87
1023.258	1639.93
1023.548	1625.47
1023.839	1610.55
1024.129	1630.89
1024.419	1594.96
1024.709	1565.81
1025	1558.35
1025.29	1565.81
1025.58	1538.69
1025.87	1526.94
1026.16	1512.02
1026.449	1531.46
1026.739	1485.13
1027.029	1503.44
1027.319	1488.75
1027.608	1462.53
1027.898	1488.75
1028.187	1479.03
1028.477	1453.04
1028.766	1439.03
1029.055	1430.22
1029.344	1445.81
1029.634	1409.2
1029.923	1397
1030.212	1417.56
1030.501	1408.52
1030.79	1404.68
1031.078	1361.52
1031.367	1351.35
1031.656	1339.6
1031.945	1346.6
1032.233	1332.82
1032.522	1307.73
1032.81	1304.12
1033.099	1306.15
1033.387	1296.43
1033.675	1289.88
1033.963	1265.7
1034.251	1260.96
1034.54	1278.58
1034.828	1246.27
1035.116	1227.28
1035.403	1229.54
1035.691	1232.71
1035.979	1205.14
1036.267	1194.52
1036.554	1178.7
1036.842	1173.73
1037.129	1164.01
1037.417	1162.2
1037.704	1159.72
1037.992	1160.39
1038.279	1128.3
1038.566	1110.23
1038.853	1110.23
1039.14	1110.23
