Data from aluminium_surface_pro_back_FLMS001491_00049.txt Node
Date: Wed Feb 08 15:34:07 GMT 2017
User: dcchb
Spectrometer: FLMS00149
Trigger mode: 0
Integration Time (sec): 2.000000E-2
Scans to average: 10
Electric dark correction enabled: true
Nonlinearity correction enabled: false
Boxcar width: 0
XAxis mode: Wavelengths
Number of Pixels in Spectrum: 2048
>>>>>Begin Spectral Data<<<<<
341.393	-8.49
341.776	-8.49
342.16	-8.49
342.543	-74.93
342.927	-71.09
343.31	-50.97
343.693	-64.31
344.077	-67.92
344.46	-44.65
344.843	-41.71
345.226	-54.36
345.61	-47.36
345.993	-15.72
346.376	-13.46
346.759	8.46
347.142	18.63
347.525	38.97
347.908	78.06
348.291	61.57
348.674	99.53
349.057	95.24
349.44	112.41
349.823	167.55
350.206	176.82
350.588	228.34
350.971	215.01
351.354	227.21
351.737	243.71
352.119	284.84
352.502	285.97
352.884	295.46
353.267	317.15
353.65	332.07
354.032	334.33
354.414	332.75
354.797	326.42
355.179	370.26
355.562	352.41
355.944	347.89
356.326	358.73
356.709	360.99
357.091	358.28
357.473	364.16
357.855	345.85
358.238	365.74
358.62	396.02
359.002	375.68
359.384	344.27
359.766	366.64
360.148	383.14
360.53	387.89
360.912	369.58
361.294	385.17
361.676	362.58
362.057	360.09
362.439	363.25
362.821	367.55
363.203	371.16
363.584	361.22
363.966	371.16
364.348	364.38
364.729	362.58
365.111	343.82
365.493	369.13
365.874	355.12
366.256	356.25
366.637	377.94
367.019	350.37
367.4	364.16
367.781	353.54
368.163	370.94
368.544	369.81
368.925	359.86
369.306	372.97
369.688	354.44
370.069	365.06
370.45	363.25
370.831	398.28
371.212	352.86
371.593	352.63
371.974	369.81
372.355	376.36
372.736	391.73
373.117	368.22
373.498	378.85
373.879	372.97
374.26	368
374.641	391.5
375.021	368.45
375.402	385.63
375.783	395.12
376.163	407.55
376.544	401.9
376.925	396.02
377.305	413.87
377.686	411.84
378.066	416.13
378.447	426.3
378.827	425.4
379.208	425.62
379.588	432.4
379.968	424.04
380.349	439.18
380.729	422.91
381.109	428.11
381.489	441.22
381.87	431.73
382.25	440.77
382.63	427.66
383.01	449.13
383.39	452.29
383.77	442.8
384.15	467.66
384.53	481.89
384.91	470.82
385.29	494.32
385.67	495.68
386.049	491.61
386.429	497.71
386.809	505.85
387.189	485.74
387.568	513.76
387.948	515.79
388.328	512.85
388.707	518.73
389.087	511.05
389.466	539.97
389.846	549.69
390.225	546.98
390.605	563.47
390.984	558.05
391.363	531.16
391.743	559.63
392.122	561.89
392.501	586.52
392.881	579.52
393.26	597.82
393.639	602.79
394.018	612.06
394.397	602.34
394.776	611.16
395.155	635.11
395.534	640.31
395.913	617.48
396.292	635.34
396.671	629.91
397.05	654.77
397.429	656.35
397.808	670.14
398.186	660.42
398.565	674.88
398.944	701.32
399.323	689.35
399.701	694.09
400.08	696.13
400.458	720.08
400.837	696.13
401.215	741.55
401.594	730.02
401.972	739.29
402.351	716.24
402.729	739.74
403.107	764.37
403.486	758.27
403.864	760.98
404.242	800.3
404.62	800.98
404.999	820.64
405.377	832.17
405.755	839.85
406.133	836.46
406.511	830.81
406.889	876.69
407.267	872.62
407.645	879.4
408.023	885.05
408.401	898.15
408.779	909.23
409.156	930.24
409.534	916.68
409.912	938.61
410.29	951.49
410.667	985.16
411.045	1013.86
411.422	1004.37
411.8	1005.95
412.178	1015.89
412.555	1019.28
412.933	1052.27
413.31	1078.71
413.687	1087.53
414.065	1079.17
414.442	1113.52
414.819	1118.94
415.197	1124.59
415.574	1141.09
415.951	1131.82
416.328	1147.19
416.705	1157.58
417.082	1199.84
417.46	1174.98
417.837	1215.66
418.214	1234.19
418.591	1233.74
418.967	1245.72
419.344	1269.22
419.721	1275.77
420.098	1277.58
420.475	1292.72
420.852	1300.63
421.228	1295.43
421.605	1350.8
421.982	1334.98
422.358	1334.3
422.735	1385.6
423.111	1376.79
423.488	1388.08
423.864	1411.36
424.241	1449.1
424.617	1470.57
424.994	1444.58
425.37	1481.19
425.746	1482.55
426.123	1509.21
426.499	1517.12
426.875	1534.3
427.251	1556.67
427.627	1589.66
428.003	1602.99
428.379	1609.1
428.756	1638.25
429.132	1649.55
429.507	1679.15
429.883	1704.91
430.259	1734.97
430.635	1739.94
431.011	1720.96
431.387	1811.58
431.763	1818.58
432.138	1854.74
432.514	1872.37
432.89	1882.99
433.265	1929.09
433.641	1970.44
434.016	1965.24
434.392	1995.3
434.767	2042.98
435.143	2052.02
435.518	2084.79
435.894	2078.69
436.269	2118.24
436.644	2148.06
437.02	2165.01
437.395	2169.76
437.77	2172.47
438.145	2246.82
438.52	2270.1
438.895	2264.9
439.271	2299.7
439.646	2325.46
440.021	2370.43
440.395	2348.29
440.77	2377.89
441.145	2394.61
441.52	2423.54
441.895	2434.16
442.27	2482.52
442.645	2457.44
443.019	2494.04
443.394	2525.91
443.769	2553.93
444.143	2527.26
444.518	2602.97
444.892	2598.67
445.267	2602.74
445.641	2631.67
446.016	2701.72
446.39	2656.53
446.764	2724.32
447.139	2664.44
447.513	2706.69
447.887	2737.65
448.262	2751.21
448.636	2791.44
449.01	2836.86
449.384	2822.62
449.758	2878.67
450.132	2918.44
450.506	2897.2
450.88	2933.58
451.254	2917.54
451.628	2956.63
452.002	2994.82
452.376	3036.4
452.75	3044.54
453.123	3086.35
453.497	3176.29
453.871	3190.07
454.244	3231.88
454.618	3307.36
454.992	3325.89
455.365	3313.91
455.739	3363.4
456.112	3378.54
456.486	3446.11
456.859	3457.64
457.232	3562.49
457.606	3539.67
457.979	3609.72
458.352	3688.14
458.725	3737.63
459.099	3717.06
459.472	3822.6
459.845	3834.57
460.218	3863.05
460.591	3932.42
460.964	3938.53
461.337	4044.74
461.71	4080.9
462.083	4185.07
462.456	4188.69
462.829	4172.87
463.201	4273.88
463.574	4322.7
463.947	4350.94
464.32	4406.31
464.692	4506.65
465.065	4517.04
465.438	4574.22
465.81	4642.46
466.183	4671.61
466.555	4786.19
466.928	4852.17
467.3	4845.17
467.672	4923.36
468.045	5057.59
468.417	5065.05
468.789	5140.53
469.161	5148.66
469.534	5269.79
469.906	5409.22
470.278	5466.62
470.65	5533.06
471.022	5608.99
471.394	5702.1
471.766	5741.42
472.138	5799.49
472.51	5976.66
472.882	6009.66
473.253	6117
473.625	6216.43
473.997	6294.17
474.369	6429.99
474.74	6448.97
475.112	6594.95
475.484	6703.88
475.855	6797.66
476.227	6848.28
476.598	7025.45
476.97	7124.88
477.341	7310.19
477.713	7385.89
478.084	7433.12
478.455	7688.48
478.827	7716.05
479.198	7904.75
479.569	7975.71
479.94	8168.25
480.311	8212.31
480.682	8392.65
481.053	8662.92
481.424	8759.64
481.795	8845.97
482.166	9036.25
482.537	9141.1
482.908	9346.29
483.279	9406.86
483.65	9560.3
484.021	9824.02
484.391	9839.84
484.762	9979.95
485.133	10088.65
485.503	10231.47
485.874	10428.3
486.244	10568.18
486.615	10768.86
486.985	10810.66
487.356	11133.82
487.726	11206.13
488.097	11423.08
488.467	11456.07
488.837	11674.37
489.207	11879.56
489.578	12001.82
489.948	12102.15
490.318	12231.87
490.688	12343.5
491.058	12644.51
491.428	12745.3
491.798	12879.76
492.168	13186.87
492.538	13203.14
492.908	13338.51
493.278	13507.99
493.648	13616.01
494.017	13764.48
494.387	13852.16
494.757	14065.04
495.126	14253.06
495.496	14230.23
495.866	14365.82
496.235	14524.69
496.605	14649.43
496.974	14739.82
497.344	14825.7
497.713	14983.21
498.082	15142.75
498.452	15342.97
498.821	15379.81
499.19	15402.41
499.559	15481.5
499.928	15680.14
500.298	15765.33
500.667	15905.9
501.036	15928.04
501.405	16087.36
501.774	16152.44
502.143	16296.17
502.512	16381.14
502.88	16617.52
503.249	16569.83
503.618	16782.48
503.987	16861.12
504.356	16903.84
504.724	17076.26
505.093	17159.42
505.462	17313.32
505.83	17427.44
506.199	17513.76
506.567	17810.25
506.936	17792.63
507.304	17983.81
507.672	18061.09
508.041	18175.44
508.409	18254.31
508.777	18408.88
509.145	18566.39
509.514	18657.69
509.882	18845.71
510.25	18931.58
510.618	19045.7
510.986	19218.8
511.354	19473.03
511.722	19563.2
512.09	19768.39
512.458	19737.66
512.826	19887.71
513.193	20054.94
513.561	20149.85
513.929	20264.65
514.297	20464.87
514.664	20639.56
515.032	20650.63
515.4	20964.29
515.767	21117.96
516.135	21222.82
516.502	21084.74
516.869	21524.5
517.237	21670.72
517.604	21644.28
517.972	21873.87
518.339	22131.27
518.706	22175.79
519.073	22283.35
519.44	22463.46
519.808	22760.86
520.175	22758.14
520.542	23087.85
520.909	23244.01
521.276	23335.3
521.643	23688.29
522.009	23657.1
522.376	23926.93
522.743	24080.82
523.11	24333.24
523.477	24592.22
523.843	24628.6
524.21	25002.15
524.577	25222.49
524.943	25421.35
525.31	25536.38
525.676	25790.83
526.043	25873.09
526.409	26005.52
526.776	26254.1
527.142	26461.1
527.508	26567.31
527.874	26669.23
528.241	26919.17
528.607	27054.3
528.973	27353.73
529.339	27423.33
529.705	27629.2
530.071	27890.21
530.437	27967.95
530.803	28138.12
531.169	28354.83
531.535	28491.33
531.901	28638.22
532.267	28628.72
532.632	28987.81
532.998	29094.25
533.364	29365.43
533.73	29360.68
534.095	29646.33
534.461	29814.68
534.826	29919.09
535.192	30151.85
535.557	30371.5
535.923	30138.06
536.288	30424.16
536.653	30552.52
537.019	30515
537.384	30799.29
537.749	31011.94
538.114	30907.99
538.479	31043.12
538.845	31113.18
539.21	31155.21
539.575	31314.76
539.94	31417.13
540.305	31582.77
540.67	31532.83
541.034	31790.68
541.399	31829.54
541.764	31941.18
542.129	32123.1
542.494	32122.87
542.858	32112.7
543.223	32323.77
543.587	32515.63
543.952	32438.57
544.316	32638.34
544.681	32629.75
545.045	32810.31
545.41	33016.41
545.774	33071.77
546.138	33163.52
546.503	33216.85
546.867	33287.59
547.231	33616.62
547.595	33748.14
547.959	33776.84
548.324	33767.57
548.688	33995.59
549.052	34054.34
549.416	34098.41
549.779	34234.23
550.143	34324.62
550.507	34687.32
550.871	34811.84
551.235	34807.55
551.599	35068.33
551.962	35021.32
552.326	35247.31
552.689	35549.9
553.053	35418.83
553.417	35397.59
553.78	35978.14
554.143	35826.95
554.507	36111.24
554.87	36077.79
555.234	36543.32
555.597	36476.43
555.96	36534.73
556.323	36633.03
556.686	36798.23
557.05	37067.37
557.413	37108.05
557.776	37242.28
558.139	37382.39
558.502	37515.72
558.865	37624.65
559.228	38023.96
559.59	38112.32
559.953	38202.94
560.316	38748.68
560.679	38642.7
561.041	38897.61
561.404	38952.3
561.767	39225.28
562.129	39164.94
562.492	39721.77
562.854	39531.26
563.217	39547.31
563.579	39857.81
563.941	40021.42
564.304	40212.83
564.666	40658.69
565.028	40606.04
565.39	40671.35
565.753	41079.24
566.115	41221.84
566.477	41391.78
566.839	41560.36
567.201	41702.96
567.563	41806.23
567.925	42107.01
568.287	42203.73
568.648	42297.29
569.01	42575.93
569.372	42911.51
569.734	42686.66
570.095	43160.09
570.457	43251.39
570.819	43375.91
571.18	43449.13
571.542	43558.05
571.903	43736.8
572.265	43981.32
572.626	44003.24
572.987	44150.35
573.349	44206.39
573.71	44483.9
574.071	44625.37
574.432	44545.14
574.794	44925.02
575.155	44992.36
575.516	44980.39
575.877	45184
576.238	45372.24
576.599	45499.02
576.96	45471.9
577.32	45590.09
577.681	45726.81
578.042	45885.9
578.403	45897.88
578.763	45907.82
579.124	46115.04
579.485	46296.73
579.845	46416.51
580.206	46422.38
580.566	46535.6
580.927	46467.8
581.287	46714.58
581.648	46619.44
582.008	46783.73
582.368	46669.15
582.728	46734.46
583.089	46845.65
583.449	46899.43
583.809	46841.58
584.169	46933.1
584.529	46847.68
584.889	47215.81
585.249	46866.44
585.609	46884.52
585.969	47147.56
586.329	47010.61
586.688	47158.18
587.048	47074.34
587.408	47122.48
587.768	47000.44
588.127	47064.4
588.487	47100.78
588.846	47322.24
589.206	47200.67
589.565	47124.28
589.925	47350.04
590.284	47305.52
590.643	47256.71
591.003	47424.61
591.362	47418.97
591.721	47245.18
592.08	47272.53
592.44	47410.83
592.799	47366.31
593.158	47363.37
593.517	47372.41
593.876	47507.78
594.235	47370.38
594.593	47414.9
594.952	47593.65
595.311	47409.47
595.67	47519.98
596.029	47795.68
596.387	47752.74
596.746	47831.38
597.104	47651.28
597.463	47684.49
597.822	47930.14
598.18	47596.36
598.538	47728.34
598.897	47993.64
599.255	47767.66
599.613	48281.32
599.972	48007.42
600.33	48073.19
600.688	47910.48
601.046	48088.55
601.404	48134.2
601.762	48022.56
602.12	48300.75
602.478	48304.59
602.836	48425.27
603.194	48169.68
603.552	48168.32
603.91	48231.37
604.268	48335.55
604.625	48159.51
604.983	48420.97
605.341	48283.8
605.698	48441.76
606.056	48567.86
606.413	48572.16
606.771	48587.3
607.128	48491.25
607.485	48580.97
607.843	48547.07
608.2	48689.21
608.557	48702.1
608.914	48591.36
609.272	48879.94
609.629	49076.1
609.986	49028.41
610.343	48832.94
610.7	49043.1
611.057	48974.86
611.414	48900.06
611.771	48997.45
612.127	49212.14
612.484	49271.12
612.841	49188.41
613.198	49032.93
613.554	49187.05
613.911	49485.13
614.267	49349.08
614.624	49381.17
614.98	49356.99
615.337	49642.64
615.693	49470.66
616.05	49471.57
616.406	49698
616.762	49608.96
617.118	49566.03
617.475	49620.49
617.831	49668.17
618.187	49807.38
618.543	49724.67
618.899	49840.14
619.255	49878.56
619.611	49878.79
619.967	49892.8
620.323	50080.36
620.678	49800.37
621.034	49823.87
621.39	49921.72
621.746	49879.01
622.101	50227.03
622.457	49852.8
622.812	50059.8
623.168	49867.71
623.523	50005.79
623.879	50147.93
624.234	49906.13
624.589	49988.16
624.945	49959.24
625.3	50132.11
625.655	50034.72
626.01	50067.26
626.365	50093.7
626.72	49922.4
627.075	49855.96
627.43	49952.91
627.785	49865
628.14	50069.29
628.495	49990.65
628.85	49967.6
629.205	49797.89
629.559	50010.31
629.914	49850.77
630.269	49887.6
630.623	49726.02
630.978	49839.92
631.332	49879.01
631.687	49914.04
632.041	49825
632.396	49875.62
632.75	49673.37
633.104	49660.94
633.459	49567.38
633.813	49563.77
634.167	49468.4
634.521	49502.53
634.875	49592.47
635.229	49446.03
635.583	49207.62
635.937	49409.65
636.291	49262.53
636.645	49208.52
636.999	49222.76
637.352	49143.67
637.706	49004.46
638.06	49159.03
638.413	49075.19
638.767	48861.86
639.121	48942.31
639.474	48688.76
639.828	48855.09
640.181	48878.81
640.534	48844.92
640.888	48793.17
641.241	48633.17
641.594	48681.3
641.947	48723.11
642.301	48593.17
642.654	48655.09
643.007	48608.09
643.36	48635.2
643.713	48330.58
644.066	48593.4
644.419	48313.18
644.771	48123.58
645.124	47755.91
645.477	47637.26
645.83	47406.08
646.182	47257.61
646.535	47119.31
646.888	47116.6
647.24	47005.19
647.593	47285.41
647.945	46989.15
648.298	46798.87
648.65	46746.21
649.002	46580.57
649.355	46759.32
649.707	46605.2
650.059	47011.29
650.411	47356.37
650.763	47414.45
651.115	47618.06
651.467	47486.53
651.819	47511.62
652.171	47334.9
652.523	47333.32
652.875	47259.65
653.227	47138.75
653.578	47318.63
653.93	47125.19
654.282	46995.25
654.633	46931.29
654.985	46865.31
655.337	46966.55
655.688	46981.24
656.039	47058.3
656.391	46723.62
656.742	46687.91
657.094	46727.91
657.445	46889.04
657.796	46677.97
658.147	46725.42
658.498	46620.79
658.849	46760.9
659.2	46578.54
659.551	46519.78
659.902	46731.07
660.253	46642.71
660.604	46477.07
660.955	46455.6
661.306	46425.09
661.656	46462.15
662.007	46324.3
662.358	46350.74
662.708	46424.87
663.059	46401.59
663.409	46045.44
663.76	46385.09
664.11	46391.65
664.461	46239.11
664.811	46313.68
665.161	46246.79
665.511	46097.64
665.862	46164.31
666.212	46123.18
666.562	46284.53
666.912	46167.25
667.262	46032.33
667.612	46062.84
667.962	46058.32
668.312	45895.84
668.662	46104.65
669.011	46035.95
669.361	45947.59
669.711	45986.69
670.06	45898.1
670.41	45809.06
670.76	45657.88
671.109	45813.13
671.459	45901.49
671.808	45752.34
672.157	45868.27
672.507	45628.5
672.856	45580.82
673.205	45560.26
673.554	45683.42
673.904	45552.35
674.253	45748.95
674.602	45543.31
674.951	44987.62
675.3	44774.97
675.649	45468.51
675.998	45434.16
676.346	45323.2
676.695	45458.79
677.044	45151.91
677.393	45270.09
677.741	45355.06
678.09	45136.09
678.438	45126.14
678.787	45153.04
679.135	45344.9
679.484	44959.59
679.832	45088.86
680.181	44866.94
680.529	45008.63
680.877	44818.81
681.225	44706.27
681.573	44915.75
681.922	44586.05
682.27	44432.6
682.618	44503.34
682.966	44389.21
683.314	44537.23
683.661	44351.25
684.009	44318.71
684.357	44231.7
684.705	44098.37
685.053	44003.46
685.4	44109.67
685.748	43851.83
686.095	43861.54
686.443	43727.54
686.79	43654.32
687.138	43663.58
687.485	43652.06
687.832	43447.54
688.18	43503.14
688.527	43356.25
688.874	43148.79
689.221	43164.61
689.568	43131.39
689.915	42938.63
690.262	42839.2
690.609	42626.32
690.956	42552.65
691.303	42617.28
691.65	42403.28
691.997	42401.92
692.344	42161.25
692.69	42160.35
693.037	42153.34
693.383	41694.37
693.73	42020.46
694.077	41761.71
694.423	41615.5
694.769	41397.2
695.116	41563.98
695.462	41254.61
695.808	41263.42
696.155	41248.73
696.501	40923.54
696.847	40945.24
697.193	40712.7
697.539	40961.96
697.885	40594.96
698.231	40582.08
698.577	40500.95
698.923	40348.19
699.269	40216.44
699.614	40078.59
699.96	40052.61
700.306	39878.37
700.651	39733.97
700.997	39569
701.342	39549.79
701.688	39458.95
702.033	39239.75
702.379	39207.88
702.724	39114.55
703.069	39159.75
703.415	38930.37
703.76	38915.69
704.105	38934.22
704.45	38896.48
704.795	38518.63
705.14	38505.98
705.485	38507.79
705.83	38214.46
706.175	38323.38
706.52	38223.95
706.865	37993.45
707.209	37932.21
707.554	37722.27
707.899	37705.1
708.243	37700.8
708.588	37661.26
708.932	37311.89
709.277	37206.8
709.621	37361.83
709.966	36974.49
710.31	37174.04
710.654	36802.97
710.998	36898.79
711.342	36825.57
711.687	36732.47
712.031	36546.71
712.375	36487.73
712.719	36614.73
713.063	36450.44
713.407	36703.99
713.75	36365.47
714.094	36251.12
714.438	36029.21
714.782	36188.98
715.125	36070.34
715.469	36045.93
715.812	35793.73
716.156	35660.86
716.499	35628.77
716.843	35644.13
717.186	35406.63
717.53	35579.73
717.873	35527.75
718.216	35302.67
718.559	35247.99
718.902	34944.49
719.246	35056.58
719.589	34953.53
719.932	34861.1
720.275	34806.42
720.617	34798.96
720.96	34685.74
721.303	34647.78
721.646	34689.13
721.989	34394.45
722.331	34412.75
722.674	34396.26
723.016	34294.11
723.359	34138.86
723.701	34301.8
724.044	34047.34
724.386	33825.42
724.729	34033.1
725.071	33917.85
725.413	34054.34
725.755	33909.49
726.097	33676.73
726.439	33590.63
726.782	33638.54
727.124	33680.57
727.465	33537.3
727.807	33510.18
728.149	33522.61
728.491	33412.33
728.833	33478.77
729.175	33307.92
729.516	33234.03
729.858	33249.62
730.199	33111.32
730.541	33146.12
730.882	33076.07
731.224	33165.55
731.565	32803.53
731.906	32867.94
732.248	32874.26
732.589	32603.99
732.93	32599.47
733.271	32500.94
733.612	32561.95
733.953	32590.65
734.294	32233.83
734.635	32311.11
734.976	32408.06
735.317	32243.09
735.658	32196.31
735.999	32154.28
736.339	32081.52
736.68	32190.66
737.021	31920.62
737.361	31824.57
737.702	31970.11
738.042	31720.85
738.383	31722.88
738.723	31689.44
739.063	31472.94
739.404	31757.46
739.744	31610.57
740.084	31330.8
740.424	31543.9
740.764	31353.62
741.104	31494.19
741.444	31253.97
741.784	31117.25
742.124	31293.06
742.464	31041.32
742.804	31132.39
743.143	31049
743.483	30998.15
743.823	30879.29
744.162	30745.51
744.502	30807.65
744.841	30628.45
745.181	30786.41
745.52	30540.09
745.86	30632.74
746.199	30487.21
746.538	30471.61
746.877	30513.19
747.216	30360.88
747.556	30278.17
747.895	30256.03
748.234	30250.15
748.573	30172.86
748.911	30042.25
749.25	30117.5
749.589	30028.01
749.928	30014.22
750.267	30062.13
750.605	29862.59
750.944	29832.53
751.283	29842.25
751.621	29836.6
751.96	29546.44
752.298	29554.8
752.636	29549.15
752.975	29436.84
753.313	29443.39
753.651	29450.4
753.989	29321.36
754.327	29103.06
754.666	29115.27
755.004	29084.31
755.342	29118.2
755.679	29003.4
756.017	28967.7
756.355	28861.94
756.693	28745.56
757.031	28696.29
757.368	28501.27
757.706	28504.21
758.044	28349.86
758.381	28488.62
758.719	28281.84
759.056	28322.52
759.394	28010.89
759.731	27910.55
760.068	27979.7
760.405	27936.99
760.743	27736.32
761.08	27740.84
761.417	27562.76
761.754	27597.79
762.091	27449.77
762.428	27344.92
762.765	27167.75
763.102	27269.44
763.438	27013.4
763.775	27047.3
764.112	26905.61
764.449	27029.44
764.785	26923.01
765.122	26626.52
765.458	26508.78
765.795	26572.28
766.131	26415
766.467	26488.89
766.804	26233.31
767.14	26047.78
767.476	26102.46
767.812	25953.31
768.148	25913.54
768.485	25806.43
768.821	25605.98
769.157	25552.87
769.492	25422.93
769.828	25545.87
770.164	25329.15
770.5	25278.76
770.836	25194.01
771.171	25088.25
771.507	25049.16
771.842	24820.24
772.178	24807.36
772.513	24781.37
772.849	24774.81
773.184	24522.17
773.519	24514.93
773.855	24377.99
774.19	24302.96
774.525	24346.58
774.86	24203.08
775.195	24001.73
775.53	23860.94
775.865	23804.44
776.2	23699.36
776.535	23543.66
776.87	23511.8
777.205	23428.41
777.539	23295.98
777.874	23394.06
778.209	23073.84
778.543	23018.93
778.878	22865.71
779.212	22878.37
779.547	22681.54
779.881	22661.2
780.215	22515.67
780.55	22642.44
780.884	22394.54
781.218	22433.18
781.552	22438.6
781.886	22311.38
782.22	22195.45
782.554	22089.01
782.888	21930.37
783.222	21793.65
783.556	21717.27
783.889	21718.17
784.223	21543.04
784.557	21530.38
784.89	21573.99
785.224	21567.89
785.557	21378.97
785.891	21282.48
786.224	21262.14
786.558	21134.91
786.891	21045.87
787.224	20904.41
787.557	20956.38
787.891	20895.82
788.224	20827.8
788.557	20744.41
788.89	20608.14
789.223	20691.31
789.556	20481.14
789.888	20402.27
790.221	20377.64
790.554	20141.26
790.887	20223.75
791.219	20061.49
791.552	20084.54
791.884	19955.28
792.217	19803.65
792.549	19839.8
792.882	19629.64
793.214	19604.78
793.546	19697.21
793.879	19570.43
794.211	19388.97
794.543	19405.69
794.875	19287.05
795.207	19383.32
795.539	19263.32
795.871	19300.16
796.203	18961.41
796.535	18958.47
796.867	18957.34
797.198	18825.37
797.53	18882.09
797.862	18640.29
798.193	18766.84
798.525	18539.72
798.856	18516.22
799.188	18372.27
799.519	18383.8
799.85	18303.35
800.182	18249.56
800.513	18245.27
800.844	18059.74
801.175	18178.83
801.506	18101.32
801.837	18087.98
802.168	17950.59
802.499	17889.8
802.83	17866.52
803.161	17777.03
803.491	17738.84
803.822	17657.49
804.153	17593.31
804.483	17393.31
804.814	17360.77
805.145	17296.82
805.475	17364.61
805.805	17251.17
806.136	17206.43
806.466	17208.91
806.796	17138.41
807.126	17051.63
807.457	16923.95
807.787	16947.45
808.117	16885.3
808.447	16849.83
808.777	16904.06
809.107	16802.37
809.436	16634.92
809.766	16667.91
810.096	16629.49
810.426	16475.82
810.755	16608.25
811.085	16474.24
811.414	16426.33
811.744	16242.84
812.073	16272.21
812.403	16234.02
812.732	16210.29
813.061	16172.33
813.39	16112.9
813.719	16089.62
814.049	16113.12
814.378	16030.86
814.707	15943.18
815.036	16033.58
815.365	15803.3
815.693	15871.55
816.022	15807.82
816.351	15701.38
816.68	15561.72
817.008	15590.65
817.337	15477.21
817.665	15609.41
817.994	15598.56
818.322	15559.01
818.651	15449.18
818.979	15381.39
819.307	15378
819.636	15427.49
819.964	15326.93
820.292	15404.21
820.62	15396.08
820.948	15256.42
821.276	15359.02
821.604	15300.04
821.932	15269.53
822.259	15339.13
822.587	15296.87
822.915	15320.37
823.243	15358.79
823.57	15189.3
823.898	15259.81
824.225	15231.34
824.553	15174.62
824.88	15241.28
825.207	15259.36
825.535	15287.15
825.862	15258.91
826.189	15163.09
826.516	15233.6
826.843	15215.29
827.17	15252.13
827.497	15200.38
827.824	15188.85
828.151	15214.84
828.478	15152.92
828.805	15193.37
829.131	15123.99
829.458	15012.36
829.785	15039.48
830.111	15060.04
830.438	15062.3
830.764	15095.52
831.09	15175.07
831.417	14994.28
831.743	15059.14
832.069	15053.49
832.395	15003.77
832.722	15058.46
833.048	14956.77
833.374	15082.87
833.7	14895.98
834.026	14997.67
834.351	14988.86
834.677	14979.14
835.003	14960.61
835.329	14866.6
835.654	14931.01
835.98	14810.78
836.306	14836.54
836.631	14778.24
836.956	14876.54
837.282	14859.82
837.607	14754.51
837.932	14631.35
838.258	14713.38
838.583	14714.74
838.908	14590.45
839.233	14641.75
839.558	14628.19
839.883	14598.13
840.208	14546.84
840.533	14592.48
840.858	14496.44
841.182	14571.02
841.507	14541.41
841.832	14462.32
842.156	14394.97
842.481	14436.78
842.805	14440.85
843.13	14407.4
843.454	14347.74
843.778	14258.93
844.103	14307.97
844.427	14267.75
844.751	14314.3
845.075	14306.62
845.399	14190.69
845.723	14092.61
846.047	14090.12
846.371	13974.42
846.695	13988.43
847.019	13897.81
847.343	13703.02
847.666	13796.12
847.99	13680.87
848.313	13722.22
848.637	13553.41
848.96	13672.51
849.284	13615.11
849.607	13470.03
849.931	13399.07
850.254	13400.88
850.577	13278.62
850.9	13139.64
851.223	13251.05
851.546	13187.77
851.869	13005.41
852.192	13144.84
852.515	12960.66
852.838	12930.83
853.161	12997.5
853.483	12913.66
853.806	12850.83
854.129	12830.5
854.451	12730.16
854.774	12719.76
855.096	12676.15
855.419	12622.59
855.741	12642.25
856.063	12522.71
856.385	12513.89
856.708	12419.21
857.03	12481.35
857.352	12515.25
857.674	12388.47
857.996	12384.63
858.318	12327.01
858.64	12303.73
858.961	12294.69
859.283	12225.09
859.605	12194.13
859.926	12181.7
860.248	12174.02
860.57	12104.87
860.891	12140.12
861.212	12122.72
861.534	12029.84
861.855	11981.48
862.176	12011.99
862.498	11947.13
862.819	12007.47
863.14	12003.4
863.461	11953.23
863.782	11961.37
864.103	11981.25
864.424	11906.9
864.745	11858.09
865.065	11765.89
865.386	11803.18
865.707	11774.25
866.027	11732.45
866.348	11733.58
866.668	11739
866.989	11742.39
867.309	11604.54
867.63	11718.66
867.95	11609.06
868.27	11510.76
868.59	11570.19
868.91	11520.02
869.23	11569.29
869.55	11470.31
869.87	11598.44
870.19	11514.6
870.51	11513.92
870.83	11603.18
871.15	11530.42
871.469	11414.94
871.789	11444.77
872.109	11489.51
872.428	11424.88
872.748	11421.27
873.067	11348.73
873.386	11489.29
873.706	11435.5
874.025	11402.51
874.344	11360.7
874.663	11424.66
874.982	11292.23
875.301	11304.66
875.62	11326.35
875.939	11246.58
876.258	11333.13
876.577	11200.93
876.896	11230.54
877.214	11108.73
877.533	11185.79
877.852	11231.89
878.17	11110.99
878.489	11104.21
878.807	11189.41
879.125	11161.84
879.444	11167.04
879.762	11042.29
880.08	11029.41
880.398	11035.74
880.716	11024.89
881.034	11026.48
881.352	10981.96
881.67	10970.88
881.988	10912.58
882.306	10935.63
882.624	10821.51
882.941	10784.67
883.259	10781.06
883.577	10849.98
883.894	10749.65
884.212	10732.02
884.529	10713.49
884.846	10635.98
885.164	10700.16
885.481	10672.36
885.798	10718.24
886.115	10536.32
886.432	10606.15
886.75	10554.4
887.067	10688.41
887.383	10595.98
887.7	10603.21
888.017	10563.44
888.334	10602.53
888.651	10530.44
888.967	10421.75
889.284	10414.29
889.6	10489.31
889.917	10354.85
890.233	10358.02
890.55	10313.27
890.866	10412.93
891.182	10363.22
891.498	10254.97
891.815	10221.3
892.131	10204.58
892.447	10288.87
892.763	10177.68
893.079	10213.16
893.395	10168.87
893.71	10092.49
894.026	10121.41
894.342	10035.99
894.657	9972.49
894.973	10063.11
895.289	9997.58
895.604	9984.24
895.92	9950.12
896.235	9859.73
896.55	9881.19
896.865	9826.51
897.181	9808.65
897.496	9854.76
897.811	9739.96
898.126	9812.72
898.441	9727.07
898.756	9694.99
899.071	9647.98
899.386	9660.64
899.7	9585.84
900.015	9569.34
900.33	9453.41
900.644	9467.42
900.959	9455.44
901.273	9437.82
901.588	9382.9
901.902	9318.95
902.216	9294.54
902.531	9290.93
902.845	9278.27
903.159	9168.9
903.473	9137.71
903.787	9153.3
904.101	9103.81
904.415	9057.94
904.729	9062.01
905.042	8999.86
905.356	8980.2
905.67	8985.17
905.984	8947.66
906.297	8970.94
906.611	8845.97
906.924	8851.62
907.237	8841.9
907.551	8771.17
907.864	8687.1
908.177	8709.47
908.491	8708.8
908.804	8630.15
909.117	8591.74
909.43	8632.64
909.743	8554.22
910.056	8579.08
910.368	8513.1
910.681	8469.48
910.994	8477.39
911.307	8405.3
911.619	8336.83
911.932	8374.79
912.244	8325.98
912.557	8292.99
912.869	8256.6
913.181	8272.42
913.494	8194.46
913.806	8201.92
914.118	8137.74
914.43	8113.33
914.742	8146.55
915.054	8137.96
915.366	8074.24
915.678	8033.11
915.99	8014.35
916.302	7979.55
916.613	7925.54
916.925	7906.11
917.236	7861.14
917.548	7821.81
917.859	7801.7
918.171	7811.42
918.482	7726
918.794	7652.1
919.105	7725.55
919.416	7638.09
919.727	7628.37
920.038	7636.51
920.349	7568.49
920.66	7519.22
920.971	7496.62
921.282	7468.38
921.593	7411.88
921.903	7393.35
922.214	7389.28
922.525	7398.1
922.835	7309.74
923.146	7256.41
923.456	7246.24
923.767	7176.41
924.077	7219.12
924.387	7166.92
924.697	7164.43
925.008	7095.73
925.318	7104.32
925.628	7038.33
925.938	7036.52
926.248	6986.13
926.558	6942.74
926.867	6933.93
927.177	6916.75
927.487	6847.38
927.796	6813.48
928.106	6796.76
928.416	6794.04
928.725	6765.57
929.034	6707.49
929.344	6733.48
929.653	6729.19
929.962	6678.57
930.271	6628.4
930.581	6586.82
930.89	6534.62
931.199	6535.52
931.508	6543.2
931.817	6516.76
932.125	6475.41
932.434	6474.73
932.743	6411.46
933.051	6408.97
933.36	6361.06
933.669	6322.42
933.977	6283.78
934.286	6258.24
934.594	6267.05
934.902	6250.33
935.21	6170.11
935.519	6200.84
935.827	6159.03
936.135	6161.97
936.443	6100.73
936.751	6103.22
937.059	6115.19
937.367	6080.62
937.674	6056.89
937.982	6037.91
938.29	5954.74
938.597	5928.53
938.905	5885.37
939.213	5907.74
939.52	5876.78
939.827	5864.58
940.135	5855.31
940.442	5791.36
940.749	5813.51
941.056	5820.06
941.363	5721.08
941.67	5718.59
941.977	5651.7
942.284	5638.82
942.591	5672.94
942.898	5597.92
943.205	5617.13
943.511	5579.16
943.818	5566.51
944.125	5551.14
944.431	5480.63
944.738	5541.42
945.044	5521.31
945.35	5475.89
945.657	5441.31
945.963	5415.32
946.269	5404.25
946.575	5399.5
946.881	5343.01
947.187	5300.07
947.493	5337.13
947.799	5270.69
948.105	5253.29
948.41	5187.08
948.716	5218.94
949.022	5187.99
949.327	5202.9
949.633	5059.63
949.938	5116.57
950.244	5094.2
950.549	5074.32
950.854	5076.8
951.16	5054.66
951.465	4983.47
951.77	5000.87
952.075	4997.48
952.38	4947.77
952.685	4968.1
952.99	4884.04
953.294	4861.89
953.599	4865.28
953.904	4812.18
954.209	4838.62
954.513	4845.85
954.818	4762.91
955.122	4834.1
955.426	4733.08
955.731	4712.29
956.035	4750.93
956.339	4701.9
956.643	4694.44
956.948	4599.3
957.252	4655.34
957.556	4646.98
957.86	4606.08
958.163	4619.86
958.467	4612.18
958.771	4560.88
959.075	4576.48
959.378	4502.58
959.682	4490.6
959.985	4470.72
960.289	4445.18
960.592	4406.08
960.896	4413.09
961.199	4388.46
961.502	4415.12
961.805	4372.19
962.108	4369.25
962.411	4311.17
962.714	4318.4
963.017	4295.81
963.32	4277.5
963.623	4237.73
963.926	4254.68
964.228	4228.01
964.531	4192.31
964.833	4189.82
965.136	4206.77
965.438	4168.8
965.741	4138.97
966.043	4106.21
966.345	4107.11
966.648	4100.56
966.95	4099.2
967.252	4082.03
967.554	4080.44
967.856	3981.92
968.158	4015.13
968.46	3994.57
968.761	3968.36
969.063	3992.08
969.365	3945.98
969.666	3942.14
969.968	3879.32
970.269	3899.66
970.571	3862.37
970.872	3866.21
971.174	3856.27
971.475	3835.03
971.776	3829.38
972.077	3824.41
972.378	3817.85
972.679	3735.14
972.98	3748.7
973.281	3733.56
973.582	3766.78
973.883	3687.23
974.183	3683.62
974.484	3651.08
974.785	3651.75
975.085	3664.41
975.386	3653.11
975.686	3630.51
975.986	3614.47
976.287	3598.87
976.587	3586.9
976.887	3546.67
977.187	3548.48
977.487	3547.35
977.787	3502.15
978.087	3477.52
978.387	3442.27
978.687	3474.81
978.987	3455.15
979.286	3433.68
979.586	3393.46
979.885	3361.82
980.185	3365.66
980.484	3366.56
980.784	3364.98
981.083	3345.32
981.382	3346
981.682	3313.91
981.981	3331.99
982.28	3286.11
982.579	3243.86
982.878	3255.38
983.177	3227.58
983.475	3227.36
983.774	3241.14
984.073	3178.32
984.372	3194.14
984.67	3167.7
984.969	3137.64
985.267	3170.64
985.566	3143.07
985.864	3149.17
986.162	3104.42
986.461	3126.8
986.759	3059.91
987.057	3049.96
987.355	3049.74
987.653	3012.22
987.951	3008.38
988.249	2986.01
988.547	2995.27
988.844	2993.92
989.142	2958.44
989.44	2945.11
989.737	2943.3
990.035	2968.61
990.332	2910.3
990.63	2922.28
990.927	2923.86
991.224	2899.91
991.521	2869.85
991.819	2834.15
992.116	2846.13
992.413	2864.2
992.71	2794.6
993.006	2811.55
993.303	2820.82
993.6	2822.62
993.897	2773.81
994.193	2783.75
994.49	2751.44
994.787	2711.67
995.083	2758.44
995.379	2689.07
995.676	2661.5
995.972	2707.15
996.268	2669.63
996.565	2651.78
996.861	2643.87
997.157	2627.37
997.453	2631.22
997.749	2603.65
998.044	2592.35
998.34	2589.86
998.636	2561.16
998.932	2516.19
999.227	2516.19
999.523	2522.97
999.818	2506.02
1000.114	2515.06
1000.409	2488.17
1000.704	2472.12
1001	2458.79
1001.295	2447.49
1001.59	2458.11
1001.885	2449.53
1002.18	2407.04
1002.475	2356.65
1002.77	2415.18
1003.065	2358
1003.359	2351.9
1003.654	2373.82
1003.949	2316.87
1004.243	2332.01
1004.538	2309.19
1004.832	2293.82
1005.127	2296.76
1005.421	2258.12
1005.715	2252.02
1006.009	2275.29
1006.304	2199.36
1006.598	2234.62
1006.892	2181.96
1007.186	2223.09
1007.48	2175.86
1007.773	2162.98
1008.067	2177.89
1008.361	2164.56
1008.655	2141.51
1008.948	2132.02
1009.242	2122.75
1009.535	2084.11
1009.829	2093.15
1010.122	2063.32
1010.415	2074.39
1010.708	2027.84
1011.001	2026.94
1011.295	2036.88
1011.588	1986.26
1011.881	2013.38
1012.173	1970.22
1012.466	1973.83
1012.759	1983.55
1013.052	1978.35
1013.344	1944.45
1013.637	1925.92
1013.93	1911.24
1014.222	1880.05
1014.514	1874.17
1014.807	1891.8
1015.099	1880.28
1015.391	1858.13
1015.683	1858.58
1015.976	1833.05
1016.268	1836.66
1016.56	1822.88
1016.851	1817.45
1017.143	1800.28
1017.435	1795.76
1017.727	1811.8
1018.018	1755.31
1018.31	1773.84
1018.602	1737
1018.893	1741.52
1019.185	1728.19
1019.476	1692.03
1019.767	1708.75
1020.058	1679.6
1020.35	1638.02
1020.641	1673.73
1020.932	1635.76
1021.223	1649.1
1021.514	1599.15
1021.804	1632.15
1022.095	1628.98
1022.386	1609.55
1022.677	1565.26
1022.967	1569.55
1023.258	1563.45
1023.548	1555.31
1023.839	1555.99
1024.129	1529.55
1024.419	1535.88
1024.709	1530.45
1025	1515.09
1025.29	1505.6
1025.58	1478.7
1025.87	1481.19
1026.16	1463.11
1026.449	1473.51
1026.739	1448.65
1027.029	1437.35
1027.319	1431.7
1027.608	1409.78
1027.898	1411.81
1028.187	1407.29
1028.477	1414.3
1028.766	1366.62
1029.055	1383.79
1029.344	1376.33
1029.634	1349.89
1029.923	1344.92
1030.212	1336.33
1030.501	1342.21
1030.79	1312.38
1031.078	1302.66
1031.367	1289.33
1031.656	1294.75
1031.945	1276
1032.233	1285.26
1032.522	1265.38
1032.81	1278.26
1033.099	1240.07
1033.387	1281.65
1033.675	1238.03
1033.963	1226.06
1034.251	1211.82
1034.54	1216.11
1034.828	1203.01
1035.116	1198.94
1035.403	1159.16
1035.691	1168.66
1035.979	1164.59
1036.267	1177.24
1036.554	1156.68
1036.842	1176.79
1037.129	1126.17
1037.417	1132.27
1037.704	1120.75
1037.992	1133.85
1038.279	1093.18
1038.566	1099.96
1038.853	1099.96
1039.14	1099.96
