Data from aluminium_surface_pro_back_FLMS001491_00028.txt Node
Date: Wed Feb 08 15:33:50 GMT 2017
User: dcchb
Spectrometer: FLMS00149
Trigger mode: 0
Integration Time (sec): 2.000000E-2
Scans to average: 10
Electric dark correction enabled: true
Nonlinearity correction enabled: false
Boxcar width: 0
XAxis mode: Wavelengths
Number of Pixels in Spectrum: 2048
>>>>>Begin Spectral Data<<<<<
341.393	-31.36
341.776	-31.36
342.16	-31.36
342.543	-51.69
342.927	-77
343.31	-75.42
343.693	-61.64
344.077	-76.55
344.46	-58.47
344.843	-54.18
345.226	-35.2
345.61	-33.39
345.993	-25.71
346.376	6.16
346.759	10
347.142	21.75
347.525	40.96
347.908	81.64
348.291	53.61
348.674	100.84
349.057	105.59
349.44	122.09
349.823	132.71
350.206	172.71
350.588	236.43
350.971	252.25
351.354	246.6
351.737	253.16
352.119	282.53
352.502	278.02
352.884	303.1
353.267	308.97
353.65	346.49
354.032	334.28
354.414	344.91
354.797	342.87
355.179	341.74
355.562	348.97
355.944	353.95
356.326	349.2
356.709	365.02
357.091	364.57
357.473	369.31
357.855	375.41
358.238	365.02
358.62	370.44
359.002	379.26
359.384	378.13
359.766	370.89
360.148	386.49
360.53	393.27
360.912	393.04
361.294	365.02
361.676	366.83
362.057	370.89
362.439	352.59
362.821	360.5
363.203	386.94
363.584	360.5
363.966	366.15
364.348	368.18
364.729	358.24
365.111	363.66
365.493	356.88
365.874	380.84
366.256	369.76
366.637	372.02
367.019	377.67
367.4	384
367.781	363.89
368.163	351.69
368.544	360.27
368.925	356.88
369.306	357.11
369.688	382.19
370.069	366.37
370.45	374.28
370.831	370.89
371.212	384.68
371.593	381.74
371.974	386.71
372.355	396.2
372.736	396.2
373.117	402.31
373.498	379.03
373.879	381.97
374.26	401.85
374.641	376.32
375.021	395.3
375.402	383.32
375.783	413.38
376.163	440.27
376.544	416.99
376.925	419.71
377.305	419.71
377.686	407.73
378.066	418.35
378.447	440.72
378.827	438.92
379.208	438.01
379.588	426.94
379.968	443.66
380.349	445.24
380.729	455.41
381.109	426.71
381.489	439.59
381.87	450.67
382.25	460.38
382.63	439.82
383.01	457.9
383.39	485.24
383.77	470.1
384.15	459.71
384.53	477.56
384.91	485.24
385.29	485.92
385.67	489.76
386.049	516.43
386.429	491.79
386.809	512.81
387.189	511.68
387.568	529.08
387.948	519.59
388.328	518.69
388.707	505.35
389.087	549.19
389.466	533.6
389.846	556.2
390.225	527.73
390.605	548.97
390.984	561.62
391.363	591.68
391.743	586.71
392.122	591.68
392.501	582.64
392.881	595.3
393.26	599.59
393.639	621.96
394.018	622.86
394.397	629.19
394.776	639.14
395.155	636.42
395.534	621.28
395.913	646.59
396.292	659.02
396.671	663.77
397.05	662.86
397.429	679.13
397.808	674.39
398.186	672.81
398.565	706.7
398.944	694.73
399.323	711.45
399.701	699.93
400.08	705.8
400.458	743.31
400.837	752.13
401.215	756.65
401.594	759.58
401.972	747.61
402.351	766.59
402.729	779.47
403.107	791
403.486	809.98
403.864	841.84
404.242	824.22
404.62	836.19
404.999	846.59
405.377	837.55
405.755	846.81
406.133	863.54
406.511	867.83
406.889	907.6
407.267	883.2
407.645	913.25
408.023	918.45
408.401	936.76
408.779	970.65
409.156	953.48
409.534	980.14
409.912	999.35
410.29	1012.91
410.667	1004.32
411.045	1018.33
411.422	1052.68
411.8	1058.11
412.178	1079.35
412.555	1105.34
412.933	1101.5
413.31	1110.76
413.687	1142.85
414.065	1132
414.442	1155.05
414.819	1124.55
415.197	1169.52
415.574	1208.39
415.951	1207.48
416.328	1215.39
416.705	1234.6
417.082	1252
417.46	1266.24
417.837	1283.19
418.214	1289.74
418.591	1306.01
418.967	1325.9
419.344	1305.78
419.721	1323.86
420.098	1351.89
420.475	1368.16
420.852	1354.82
421.228	1393.92
421.605	1389.62
421.982	1413.35
422.358	1437.53
422.735	1459.45
423.111	1473.69
423.488	1471.66
423.864	1488.83
424.241	1483.18
424.617	1519.79
424.994	1522.28
425.37	1554.14
425.746	1566.34
426.123	1575.83
426.499	1605.66
426.875	1613.12
427.251	1636.4
427.627	1689.73
428.003	1684.31
428.379	1716.4
428.756	1722.05
429.132	1750.74
429.507	1760.01
429.883	1782.83
430.259	1828.48
430.635	1831.19
431.011	1872.32
431.387	1943.73
431.763	1951.87
432.138	1967.01
432.514	2003.62
432.89	2010.63
433.265	2073.67
433.641	2095.37
434.016	2072.32
434.392	2144.41
434.767	2138.76
435.143	2143.05
435.518	2190.28
435.894	2208.81
436.269	2240.22
436.644	2257.17
437.02	2277.74
437.395	2308.7
437.77	2322.48
438.145	2366.77
438.52	2370.16
438.895	2416.94
439.271	2411.74
439.646	2475.92
440.021	2476.83
440.395	2478.41
440.77	2488.35
441.145	2522.02
441.52	2593.89
441.895	2617.39
442.27	2606.32
442.645	2608.12
443.019	2635.47
443.394	2621.23
443.769	2672.3
444.143	2686.54
444.518	2735.8
444.892	2730.38
445.267	2775.35
445.641	2783.49
446.016	2766.31
446.39	2817.16
446.764	2838.85
447.139	2837.5
447.513	2874.33
447.887	2916.14
448.262	2864.39
448.636	2916.36
449.01	2941.67
449.384	2999.75
449.758	3004.05
450.132	3101.67
450.506	3116.58
450.88	3093.99
451.254	3079.75
451.628	3186.87
452.002	3180.99
452.376	3209.46
452.75	3232.74
453.123	3279.29
453.497	3366.97
453.871	3393.19
454.244	3462.79
454.618	3462.34
454.992	3513.41
455.365	3471.83
455.739	3602.9
456.112	3617.59
456.486	3668.89
456.859	3699.85
457.232	3760.64
457.606	3738.94
457.979	3784.36
458.352	3932.16
458.725	3948.2
459.099	4001.76
459.472	4079.27
459.845	4106.84
460.218	4126.28
460.591	4171.7
460.964	4202.66
461.337	4222.54
461.71	4345.93
462.083	4380.96
462.456	4412.6
462.829	4446.49
463.201	4553.16
463.574	4595.64
463.947	4648.52
464.32	4746.82
464.692	4768.29
465.065	4791.12
465.438	4921.28
465.81	4976.65
466.183	4974.84
466.555	5115.63
466.928	5144.78
467.3	5117.66
467.672	5231.78
468.045	5376.19
468.417	5373.7
468.789	5424.77
469.161	5496.41
469.534	5560.14
469.906	5673.35
470.278	5814.82
470.65	5833.35
471.022	5940.47
471.394	6047.81
471.766	6118.77
472.138	6126
472.51	6291.64
472.882	6421.13
473.253	6498.64
473.625	6506.1
473.997	6673.78
474.369	6747.68
474.74	6827.9
475.112	6961.23
475.484	7094.11
475.855	7155.12
476.227	7177.72
476.598	7479.41
476.97	7516.7
477.341	7697.93
477.713	7878.04
478.084	7894.09
478.455	8175.43
478.827	8099.96
479.198	8407.52
479.569	8406.84
479.94	8679.83
480.311	8735.87
480.682	8993.04
481.053	9151
481.424	9305.8
481.795	9427.38
482.166	9569.07
482.537	9656.75
482.908	9843.87
483.279	9966.8
483.65	10145.55
484.021	10337.86
484.391	10480.68
484.762	10617.4
485.133	10642.94
485.503	10870.73
485.874	11100.78
486.244	11144.17
486.615	11398.85
486.985	11553.2
487.356	11727.66
487.726	11851.5
488.097	12031.83
488.467	12097.59
488.837	12440.86
489.207	12598.82
489.578	12698.93
489.948	12910.9
490.318	13021.64
490.688	13147.96
491.058	13338.24
491.428	13484
491.798	13610.32
492.168	13890.76
492.538	13940.48
492.908	14161.94
493.278	14338.21
493.648	14439.45
494.017	14620.91
494.387	14747.24
494.757	14830.18
495.126	15044.18
495.496	15097.06
495.866	15201.69
496.235	15476.26
496.605	15578.18
496.974	15682.81
497.344	15846.65
497.713	15896.81
498.082	16014.1
498.452	16213.64
498.821	16278.27
499.19	16370.02
499.559	16577.25
499.928	16653.63
500.298	16738.37
500.667	16968.65
501.036	16968.42
501.405	17027.41
501.774	17104.69
502.143	17305.59
502.512	17480.27
502.88	17577.67
503.249	17601.18
503.618	17696.31
503.987	17859.93
504.356	17924.1
504.724	18045.91
505.093	18269.63
505.462	18292.23
505.83	18536.52
506.199	18570.87
506.567	18880.01
506.936	18967.24
507.304	19122.94
507.672	19155.49
508.041	19340.79
508.409	19395.7
508.777	19656.04
509.145	19832.08
509.514	19808.58
509.882	20033.43
510.25	20098.06
510.618	20300.99
510.986	20397.49
511.354	20611.04
511.722	20757.48
512.09	21043.34
512.458	20928.55
512.826	21120.18
513.193	21231.36
513.561	21383.22
513.929	21529.21
514.297	21733.04
514.664	21893.94
515.032	22108.4
515.4	22253.26
515.767	22328.28
516.135	22523.08
516.502	22429.52
516.869	22881.94
517.237	22955.39
517.604	22956.06
517.972	23215.27
518.339	23382.72
518.706	23461.81
519.073	23612.77
519.44	23810.5
519.808	24072.64
520.175	24149.93
520.542	24495.91
520.909	24602.12
521.276	24643.93
521.643	25061.09
522.009	25255.44
522.376	25291.14
522.743	25480.97
523.11	25788.08
523.477	26176.54
523.843	26179.26
524.21	26549.19
524.577	26747.83
524.943	26872.12
525.31	27006.13
525.676	27218.32
526.043	27483.85
526.409	27554.36
526.776	27827.57
527.142	27928.14
527.508	28252.19
527.874	28467.78
528.241	28506.65
528.607	28542.81
528.973	28890.37
529.339	28892.4
529.705	29182.34
530.071	29370.36
530.437	29611.93
530.803	29736.68
531.169	29883.34
531.535	29973.05
531.901	30143.9
532.267	30175.99
532.632	30460.72
532.998	30651.45
533.364	30937.55
533.73	30893.71
534.095	31277.2
534.461	31239.46
534.826	31405.78
535.192	31522.84
535.557	31819.33
535.923	31879.67
536.288	32046.67
536.653	32023.62
537.019	32103.17
537.384	32281.92
537.749	32355.82
538.114	32513.55
538.479	32504.96
538.845	32678.29
539.21	32652.31
539.575	32945.18
539.94	33082.12
540.305	33190.82
540.67	33219.97
541.034	33443.7
541.399	33586.52
541.764	33694.09
542.129	33654.54
542.494	33815.21
542.858	33936.34
543.223	34059.05
543.587	34168.2
543.952	34211.81
544.316	34369.77
544.681	34336.33
545.045	34616.77
545.41	34753.72
545.774	34945.13
546.138	34829.88
546.503	34964.33
546.867	35128.85
547.231	35485.68
547.595	35433.25
547.959	35597.99
548.324	35567.26
548.688	35705.78
549.052	35706.24
549.416	35885.89
549.779	36011.31
550.143	36043.63
550.507	36292.44
550.871	36439.78
551.235	36430.29
551.599	36680.22
551.962	36846.77
552.326	36981.01
552.689	37052.19
553.053	37049.93
553.417	37296.02
553.78	37715.67
554.143	37498.96
554.507	37696.69
554.87	37993.41
555.234	38235.44
555.597	38160.18
555.96	38327.18
556.323	38613.5
556.686	38597.01
557.05	38939.37
557.413	38979.37
557.776	39161.96
558.139	39450.54
558.502	39540.03
558.865	39577.77
559.228	39850.53
559.59	40070.87
559.953	40077.42
560.316	40563.74
560.679	40528.71
561.041	40761.24
561.404	41021.35
561.767	41194.91
562.129	41110.61
562.492	41497.95
562.854	41580.21
563.217	41542.24
563.579	41822.91
563.941	42007.31
564.304	42253.63
564.666	42612.95
565.028	42709.22
565.39	42934.29
565.753	43076.89
566.115	43328.63
566.477	43488.4
566.839	43614.28
567.201	43995.74
567.563	43918.68
567.925	44299.23
568.287	44165.22
568.648	44399.34
569.01	44517.76
569.372	44924.3
569.734	44926.33
570.095	45158.64
570.457	45296.72
570.819	45498.75
571.18	45503.94
571.542	45849.25
571.903	45833.43
572.265	45954.55
572.626	46078.84
572.987	46239.74
573.349	46503.24
573.71	46627.31
574.071	46586.18
574.432	46820.97
574.794	47092.15
575.155	47161.3
575.516	47141.42
575.877	47306.61
576.238	47241.3
576.599	47420.5
576.96	47519.48
577.32	47775.75
577.681	47805.81
578.042	47935.52
578.403	47826.6
578.763	48020.71
579.124	48196.76
579.485	48267.49
579.845	48406.69
580.206	48262.74
580.566	48431.78
580.927	48460.7
581.287	48611.66
581.648	48381.84
582.008	48598.33
582.368	48597.2
582.728	48659.34
583.089	48592.45
583.449	48607.59
583.809	48737.08
584.169	48814.59
584.529	48760.13
584.889	49083.51
585.249	48784.99
585.609	48785.89
585.969	49084.19
586.329	48906.12
586.688	48970.75
587.048	48930.75
587.408	48937.75
587.768	48920.35
588.127	48871.09
588.487	48870.41
588.846	49114.92
589.206	49034.7
589.565	48945.89
589.925	49044.42
590.284	48919.45
590.643	48988.6
591.003	49120.12
591.362	49234.92
591.721	49073.12
592.08	49051.2
592.44	49313.79
592.799	49380.68
593.158	49155.6
593.517	49308.59
593.876	49425.88
594.235	49269.72
594.593	49374.13
594.952	49535.25
595.311	49282.38
595.67	49375.71
596.029	49642.14
596.387	49644.4
596.746	49707.9
597.104	49511.97
597.463	49412.54
597.822	49626.77
598.18	49494.35
598.538	49560.56
598.897	49662.25
599.255	49472.2
599.613	50017.27
599.972	49610.28
600.33	49793.78
600.688	49714.68
601.046	49926.88
601.404	49998.52
601.762	50049.36
602.12	50044.16
602.478	50115.8
602.836	50120.77
603.194	49899.31
603.552	49954.22
603.91	49868.8
604.268	50066.54
604.625	49995.13
604.983	50171.39
605.341	49985.18
605.698	50117.83
606.056	50265.4
606.413	50249.36
606.771	50320.32
607.128	50302.01
607.485	50113.77
607.843	50198.51
608.2	50431.05
608.557	50665.16
608.914	50519.18
609.272	50739.97
609.629	50703.13
609.986	50797.14
610.343	50630.36
610.7	50972.73
611.057	50891.15
611.414	50815.22
611.771	50873.07
612.127	50959.62
612.484	50869
612.841	51156.9
613.198	50969.11
613.554	51022.22
613.911	51185.6
614.267	51187.19
614.624	51139.95
614.98	51137.69
615.337	51341.53
615.693	51331.36
616.05	51300.18
616.406	51495.2
616.762	51447.52
617.118	51274.41
617.475	51318.93
617.831	51417.91
618.187	51509.44
618.543	51406.39
618.899	51598.7
619.255	51567.97
619.611	51525.26
619.967	51659.94
620.323	51670.56
620.678	51468.53
621.034	51564.35
621.39	51490.23
621.746	51399.16
622.101	51825.81
622.457	51452.94
622.812	51451.36
623.168	51648.64
623.523	51567.29
623.879	51658.13
624.234	51411.13
624.589	51575.2
624.945	51680.05
625.3	51739.71
625.655	51654.07
626.01	51695.42
626.365	51657.68
626.72	51544.01
627.075	51640.05
627.43	51596.44
627.785	51487.29
628.14	51494.3
628.495	51633.73
628.85	51521.19
629.205	51371.36
629.559	51599.83
629.914	51485.48
630.269	51529.78
630.623	51365.71
630.978	51252.49
631.332	51366.84
631.687	51415.43
632.041	51327.75
632.396	51464.24
632.75	51242.32
633.104	51291.82
633.459	51188.54
633.813	51141.76
634.167	51228.31
634.521	51186.28
634.875	51272.61
635.229	51186.28
635.583	50977.02
635.937	51068.32
636.291	51006.85
636.645	50999.85
636.999	50777.03
637.352	50913.52
637.706	50768.89
638.06	50807.99
638.413	50734.54
638.767	50656.58
639.121	50713.07
639.474	50471.5
639.828	50488.45
640.181	50555.79
640.534	50529.35
640.888	50384.04
641.241	50139.3
641.594	50303.14
641.947	50467.2
642.301	50330.94
642.654	50296.36
643.007	50244.61
643.36	50125.74
643.713	50128
644.066	50142.47
644.419	49812.31
644.771	49705.64
645.124	49228.82
645.477	49189.27
645.83	48986.11
646.182	48821.37
646.535	48697.31
646.888	48870.18
647.24	48654.6
647.593	48847.13
647.945	48649.62
648.298	48511.32
648.65	48622.51
649.002	48380.93
649.355	48436.07
649.707	48400.14
650.059	48644.2
650.411	48979.56
650.763	49011.42
651.115	49343.39
651.467	49186.79
651.819	49217.75
652.171	48990.63
652.523	49099.56
652.875	49105.43
653.227	48879.45
653.578	49097.52
653.93	49006.9
654.282	48869.51
654.633	48637.2
654.985	48758.1
655.337	48709.51
655.688	48652.34
656.039	48860.24
656.391	48536.18
656.742	48536.86
657.094	48515.62
657.445	48772.11
657.796	48624.54
658.147	48537.31
658.498	48436.52
658.849	48590.87
659.2	48548.16
659.551	48351.1
659.902	48542.73
660.253	48357.66
660.604	48486.24
660.955	48274.49
661.306	48394.04
661.656	48312.91
662.007	48271.33
662.358	48254.38
662.708	48241.73
663.059	48110.43
663.409	48042.86
663.76	48307.94
664.11	48119.7
664.461	48220.03
664.811	48156.3
665.161	48173.25
665.511	47869.08
665.862	48081.05
666.212	48188.39
666.562	48126.93
666.912	47967.61
667.262	48026.36
667.612	48021.17
667.962	47977.78
668.312	47976.2
668.662	48077.21
669.011	47938.01
669.361	47942.07
669.711	47819.36
670.06	47705.92
670.41	47679.48
670.76	47640.39
671.109	47717.22
671.459	47613.04
671.808	47528.98
672.157	47695.98
672.507	47450.33
672.856	47469.77
673.205	47594.51
673.554	47625.24
673.904	47433.16
674.253	47609.43
674.602	47522.87
674.951	46938.71
675.3	46746.85
675.649	47159.72
675.998	47292.37
676.346	47322.65
676.695	47469.09
677.044	46919.27
677.393	47198.14
677.741	47091.93
678.09	46947.52
678.438	46933.06
678.787	47020.74
679.135	46969.67
679.484	46612.39
679.832	46868.43
680.181	46534.88
680.529	46708.43
680.877	46585.72
681.225	46456.24
681.573	46733.29
681.922	46373.98
682.27	46373.3
682.618	46251.5
682.966	46226.86
683.314	46139.18
683.661	46047.89
684.009	45775.58
684.357	45833.2
684.705	45708.01
685.053	45849.02
685.4	45661.45
685.748	45544.85
686.095	45542.59
686.443	45452.65
686.79	45321.35
687.138	45234.8
687.485	45254.91
687.832	45144.18
688.18	45267.34
688.527	44937.41
688.874	44810.63
689.221	44916.84
689.568	44773.79
689.915	44582.61
690.262	44556.17
690.609	44482.28
690.956	44370.87
691.303	44334.48
691.65	44247.71
691.997	44233.02
692.344	44001.16
692.69	43991.44
693.037	43908.96
693.383	43649.08
693.73	43814.05
694.077	43617.44
694.423	43529.08
694.769	43380.61
695.116	43328.86
695.462	43214.29
695.808	43081.86
696.155	43092.93
696.501	42863.56
696.847	42901.75
697.193	42531.82
697.539	42748.99
697.885	42394.87
698.231	42131.83
698.577	42123.92
698.923	42135.22
699.269	41990.82
699.614	41793.76
699.96	41807.54
700.306	41663.14
700.651	41462.02
700.997	41363.94
701.342	41421.57
701.688	41347.22
702.033	41100.67
702.379	41157.39
702.724	41055.47
703.069	41124.62
703.415	40660.68
703.76	40657.07
704.105	40729.83
704.45	40561.48
704.795	40284.42
705.14	40165.1
705.485	40269.51
705.83	39942.96
706.175	39956.07
706.52	39856.86
706.865	39683.53
707.209	39569.86
707.554	39382.98
707.899	39465.69
708.243	39257.33
708.588	39390.89
708.932	39129.2
709.277	38961.29
709.621	38977.79
709.966	38694.41
710.31	38917.68
710.654	38527.86
710.998	38736.21
711.342	38625.71
711.687	38513.62
712.031	38369.44
712.375	38271.37
712.719	38414.64
713.063	38413.96
713.407	38362.66
713.75	38100.07
714.094	38149.56
714.438	37930.81
714.782	37893.98
715.125	37772.85
715.469	37770.36
715.812	37599.75
716.156	37458.28
716.499	37500.31
716.843	37560.65
717.186	37211.73
717.53	37430.03
717.873	37351.16
718.216	37152.75
718.559	37107.1
718.902	36913.44
719.246	36901.46
719.589	36732.42
719.932	36645.87
720.275	36610.17
720.617	36580.11
720.96	36548.25
721.303	36529.72
721.646	36451.53
721.989	36270.52
722.331	36507.12
722.674	36328.82
723.016	36371.53
723.359	36206.11
723.701	36295.15
724.044	36082.05
724.386	35817.19
724.729	35931.99
725.071	35761.6
725.413	35715.05
725.755	35550.08
726.097	35573.13
726.439	35429.86
726.782	35333.82
727.124	35542.17
727.465	35274.61
727.807	35325.46
728.149	35261.95
728.491	35167.95
728.833	35372.23
729.175	35114.84
729.516	34916.43
729.858	34877.78
730.199	34982.87
730.541	34860.38
730.882	34875.52
731.224	34946.26
731.565	34667.39
731.906	34675.08
732.248	34662.87
732.589	34560.96
732.93	34482.31
733.271	34534.74
733.612	34340.85
733.953	34464.69
734.294	34243
734.635	34141.31
734.976	34111.93
735.317	33884.59
735.658	33970.24
735.999	33941.76
736.339	33914.87
736.68	33911.26
737.021	33817.25
737.361	33709
737.702	33781.77
738.042	33693.63
738.383	33533.64
738.723	33662.45
739.063	33523.69
739.404	33637.36
739.744	33477.14
740.084	33358.5
740.424	33421.32
740.764	33154.21
741.104	33444.15
741.444	33191.5
741.784	33008.23
742.124	33061.11
742.464	33010.49
742.804	33012.97
743.143	33041.22
743.483	33005.52
743.823	32581.8
744.162	32547.68
744.502	32726.2
744.841	32592.42
745.181	32645.75
745.52	32568.01
745.86	32640.1
746.199	32493.21
746.538	32420
746.877	32427
747.216	32410.96
747.556	32288.25
747.895	32325.08
748.234	32040.12
748.573	32019.78
748.911	31899.56
749.25	31911.53
749.589	31790.63
749.928	31777.53
750.267	31761.26
750.605	31661.14
750.944	31548.15
751.283	31337.09
751.621	31611.43
751.96	31247.14
752.298	31336.86
752.636	31363.75
752.975	31099.35
753.313	31129.41
753.651	31222.96
753.989	30908.85
754.327	31009.64
754.666	30820.94
755.004	30881.73
755.342	30808.51
755.679	30889.87
756.017	30679.93
756.355	30605.58
756.693	30468.63
757.031	30615.3
757.368	30260.05
757.706	30300.5
758.044	30148.64
758.381	30126.04
758.719	30032.04
759.056	30050.34
759.394	30012.37
759.731	29684.47
760.068	29757.92
760.405	29516.57
760.743	29502.11
761.08	29582.78
761.417	29338.72
761.754	29321.32
762.091	29223.02
762.428	29018.5
762.765	28931.27
763.102	28965.4
763.438	28902.12
763.775	28746.42
764.112	28721.56
764.449	28812.41
764.785	28397.73
765.122	28284.06
765.458	28297.84
765.795	28104.4
766.131	28164.74
766.467	28008.59
766.804	27797.97
767.14	27781.47
767.476	27738.54
767.812	27531.99
768.148	27664.19
768.485	27291.32
768.821	27166.57
769.157	27140.59
769.492	27084.54
769.828	27074.37
770.164	26805.23
770.5	26709.86
770.836	26779.24
771.171	26555.29
771.507	26449.3
771.842	26375.63
772.178	26322.3
772.513	26269.65
772.849	26162.31
773.184	26079.82
773.519	26036.43
773.855	25922.54
774.19	25842.99
774.525	25872.82
774.86	25661.53
775.195	25593.28
775.53	25539.5
775.865	25399.39
776.2	25128.21
776.535	25120.53
776.87	25036.01
777.205	24859.52
777.539	24847.31
777.874	24704.49
778.209	24579.75
778.543	24584.27
778.878	24339.08
779.212	24389.47
779.547	24142.92
779.881	24177.27
780.215	24061.8
780.55	24105.86
780.884	23932.53
781.218	23869.03
781.552	23896.38
781.886	23635.14
782.22	23592.88
782.554	23515.6
782.888	23155.83
783.222	23091.43
783.556	23060.69
783.889	23033.58
784.223	22822.06
784.557	22768.5
784.89	22908.61
785.224	22740.48
785.557	22548.62
785.891	22577.99
786.224	22448.96
786.558	22510.65
786.891	22250.54
787.224	22173.03
787.557	22189.3
787.891	22189.76
788.224	22142.07
788.557	22041.74
788.89	21888.97
789.223	21964.22
789.556	21814.17
789.888	21699.15
790.221	21562.2
790.554	21542.31
790.887	21496.67
791.219	21288.31
791.552	21321.08
791.884	21189.78
792.217	21159.5
792.549	21146.39
792.882	20922.67
793.214	20778.04
793.546	20841.99
793.879	20823.92
794.211	20730.13
794.543	20648.78
794.875	20514.32
795.207	20513.64
795.539	20439.97
795.871	20480.65
796.203	20279.07
796.535	20261.9
796.867	20097.83
797.198	20001.79
797.53	19994.33
797.862	19897.61
798.193	19937.16
798.525	19737.39
798.856	19773.77
799.188	19640.22
799.519	19454.01
799.85	19390.51
800.182	19407.46
800.513	19397.51
800.844	19197.52
801.175	19318.64
801.506	19283.17
801.837	19216.05
802.168	19213.56
802.499	19126.79
802.83	19003.4
803.161	18916.85
803.491	18958.2
803.822	18867.81
804.153	18852.44
804.483	18689.96
804.814	18630.53
805.145	18571.32
805.475	18525.67
805.805	18511.43
806.136	18448.38
806.466	18380.59
806.796	18351.21
807.126	18155.96
807.457	18153.25
807.787	18114.38
808.117	18062.41
808.447	17962.3
808.777	18024.44
809.107	17974.27
809.436	17807.72
809.766	17817.89
810.096	17760.27
810.426	17640.5
810.755	17696.31
811.085	17635.75
811.414	17689.31
811.744	17471.91
812.073	17488.41
812.403	17463.55
812.732	17416.32
813.061	17399.15
813.39	17294.97
813.719	17195.54
814.049	17320.51
814.378	17229.89
814.707	17094.3
815.036	17079.83
815.365	17102.88
815.693	16856.79
816.022	16809.11
816.351	16815.43
816.68	16737.24
817.008	16772.95
817.337	16606.4
817.665	16617.02
817.994	16653.63
818.322	16639.39
818.651	16535.21
818.979	16472.17
819.307	16457.93
819.636	16382.22
819.964	16351.72
820.292	16384.48
820.62	16347.2
820.948	16274.2
821.276	16363.02
821.604	16227.88
821.932	16260.87
822.259	16365.05
822.587	16266.75
822.915	16286.86
823.243	16346.29
823.57	16352.62
823.898	16352.85
824.225	16187.2
824.553	16142.23
824.88	16215.68
825.207	16277.59
825.535	16264.94
825.862	16283.02
826.189	16255.67
826.516	16329.8
826.843	16344.71
827.17	16453.64
827.497	16286.86
827.824	16304.03
828.151	16308.1
828.478	16247.09
828.805	16297.93
829.131	16149.46
829.458	16158.05
829.785	16166.86
830.111	16156.24
830.438	16246.63
830.764	16222.45
831.09	16210.7
831.417	16165.51
831.743	16146.3
832.069	16147.2
832.395	16006.87
832.722	16167.54
833.048	16035.34
833.374	16022.91
833.7	15957.38
834.026	16049.58
834.351	16121.67
834.677	16020.43
835.003	16091.84
835.329	16069.24
835.654	16057.49
835.98	15982.24
836.306	15977.04
836.631	15896.14
836.956	15965.74
837.282	15996.02
837.607	15815.69
837.932	15811.17
838.258	15835.35
838.583	15814.1
838.908	15659.53
839.233	15700.21
839.558	15644.84
839.883	15617.72
840.208	15575.47
840.533	15585.41
840.858	15593.32
841.182	15574.56
841.507	15459.31
841.832	15477.39
842.156	15517.16
842.481	15440.1
842.805	15328.92
843.13	15319.2
843.454	15312.2
843.778	15296.38
844.103	15236.04
844.427	15215.48
844.751	15179.77
845.075	15196.49
845.399	15139.77
845.723	15042.6
846.047	15109.49
846.371	14911.3
846.695	14971.19
847.019	14838.76
847.343	14809.61
847.666	14651.2
847.99	14654.13
848.313	14638.77
848.637	14561.93
848.96	14538.21
849.284	14505.89
849.607	14334.82
849.931	14337.53
850.254	14180.02
850.577	14148.84
850.9	14157.88
851.223	14081.04
851.546	14076.52
851.869	13992.46
852.192	13995.85
852.515	13836.3
852.838	13910.43
853.161	13870.2
853.483	13763.99
853.806	13625.46
854.129	13668.4
854.451	13561.73
854.774	13498.91
855.096	13375.75
855.419	13509.31
855.741	13488.74
856.063	13300.27
856.385	13322.64
856.708	13336.88
857.03	13277.9
857.352	13286.49
857.674	13179.14
857.996	13149.77
858.318	13105.25
858.64	13090.79
858.961	13064.12
859.283	12969.43
859.605	12954.52
859.926	12991.58
860.248	12958.81
860.57	12826.84
860.891	12940.96
861.212	12808.53
861.534	12812.6
861.855	12758.59
862.176	12751.13
862.498	12822.32
862.819	12710
863.14	12669.1
863.461	12635.2
863.782	12596.34
864.103	12590.69
864.424	12586.84
864.745	12630.23
865.065	12470.46
865.386	12500.52
865.707	12571.7
866.027	12521.99
866.348	12461.88
866.668	12381.43
866.989	12394.08
867.309	12398.15
867.63	12436.11
867.95	12321.99
868.27	12205.16
868.59	12254.42
868.91	12251.26
869.23	12310.69
869.55	12193.86
869.87	12197.02
870.19	12212.39
870.51	12311.15
870.83	12236.34
871.15	12171.26
871.469	12171.49
871.789	12096.01
872.109	12105.5
872.428	12000.19
872.748	12132.84
873.067	12014.66
873.386	12019.85
873.706	12093.75
874.025	11945.51
874.344	12017.37
874.663	12001.1
874.982	11938.05
875.301	11935.11
875.62	11918.84
875.939	11878.39
876.258	11919.97
876.577	11854.66
876.896	11851.5
877.214	11844.04
877.533	11826.41
877.852	11783.25
878.17	11790.93
878.489	11821.21
878.807	11797.94
879.125	11798.84
879.444	11821.21
879.762	11805.62
880.08	11748.45
880.398	11712.06
880.716	11773.53
881.034	11721.33
881.352	11692.63
881.67	11626.87
881.988	11642.01
882.306	11631.39
882.624	11605.63
882.941	11499.87
883.259	11555.68
883.577	11503.93
883.894	11579.19
884.212	11490.38
884.529	11547.1
884.846	11504.39
885.164	11471.62
885.481	11398.85
885.798	11512.3
886.115	11392.53
886.432	11409.93
886.75	11320.44
887.067	11437.72
887.383	11325.18
887.7	11338.06
888.017	11252.19
888.334	11312.75
888.651	11217.61
888.967	11195.47
889.284	11111.4
889.6	11117.05
889.917	11031.4
890.233	11084.28
890.55	10984.17
890.866	11042.25
891.182	10893.1
891.498	10988.47
891.815	10837.06
892.131	10803.16
892.447	10864.86
892.763	10853.78
893.079	10814.24
893.395	10710.96
893.71	10787.34
894.026	10745.08
894.342	10682.04
894.657	10620.79
894.973	10606.56
895.289	10627.8
895.604	10569.95
895.92	10545.99
896.235	10461.93
896.55	10566.33
896.865	10505.09
897.181	10406.56
897.496	10397.52
897.811	10315.72
898.126	10299.9
898.441	10239.56
898.756	10265.1
899.071	10238.43
899.386	10228.26
899.7	10162.5
900.015	10054.71
900.33	10024.88
900.644	10063.07
900.959	10073.01
901.273	10009.74
901.588	10023.97
901.902	9937.2
902.216	9843.87
902.531	9882.96
902.845	9803.64
903.159	9856.07
903.473	9772.45
903.787	9750.53
904.101	9706.24
904.415	9791.66
904.729	9727.71
905.042	9654.94
905.356	9586.92
905.67	9599.8
905.984	9544.21
906.297	9550.54
906.611	9489.98
906.924	9503.76
907.237	9456.98
907.551	9413.14
907.864	9361.39
908.177	9294.95
908.491	9308.51
908.804	9261.06
909.117	9260.83
909.43	9151.45
909.743	9150.78
910.056	9078.69
910.368	9053.6
910.681	9053.15
910.994	9029.2
911.307	8989.88
911.619	8904.91
911.932	8922.53
912.244	8863.1
912.557	8838.24
912.869	8794.85
913.181	8841.63
913.494	8821.52
913.806	8647.29
914.118	8694.97
914.43	8657
914.742	8606.84
915.054	8617.01
915.366	8562.77
915.678	8513.28
915.99	8531.13
916.302	8429.44
916.613	8457.24
916.925	8404.81
917.236	8358.93
917.548	8403.45
917.859	8348.09
918.171	8205.94
918.482	8159.84
918.794	8175.66
919.105	8231.03
919.416	8186.73
919.727	8125.27
920.038	8116.23
920.349	8040.52
920.66	7999.62
920.971	8001.88
921.282	8007.08
921.593	7905.16
921.903	7876.69
922.214	7948.55
922.525	7913.52
922.835	7779.74
923.146	7778.84
923.456	7757.59
923.767	7645.28
924.077	7682.57
924.387	7627.88
924.697	7623.58
925.008	7542.23
925.318	7522.57
925.628	7541.33
925.938	7448.67
926.248	7432.86
926.558	7415.23
926.867	7424.95
927.177	7401.22
927.487	7290.26
927.796	7322.8
928.106	7292.97
928.416	7201.22
928.725	7208.91
929.034	7166.65
929.344	7171.17
929.653	7147.21
929.962	7108.34
930.271	7148.34
930.581	7032.87
930.89	7001.91
931.199	7039.87
931.508	6999.65
931.817	7003.04
932.125	6972.98
932.434	6932.76
932.743	6808.47
933.051	6759.88
933.36	6799.88
933.669	6792.42
933.977	6728.02
934.286	6745.87
934.594	6628.58
934.902	6610.28
935.21	6562.14
935.519	6595.14
935.827	6584.52
936.135	6535.25
936.443	6478.3
936.751	6456.38
937.059	6455.25
937.367	6427.91
937.674	6412.32
937.982	6402.15
938.29	6308.37
938.597	6353.56
938.905	6251.19
939.213	6295.94
939.52	6217.07
939.827	6227.46
940.135	6196.5
940.442	6120.35
940.749	6124.42
941.056	6134.36
941.363	6082.83
941.67	6067.92
941.977	6040.35
942.284	5976.4
942.591	5995.38
942.898	5943.18
943.205	5942.27
943.511	5845.55
943.818	5875.16
944.125	5885.78
944.431	5838.32
944.738	5816.17
945.044	5776.85
945.35	5776.18
945.657	5716.06
945.963	5750.19
946.269	5723.75
946.575	5645.33
946.881	5652.34
947.187	5647.37
947.493	5628.38
947.799	5573.92
948.105	5573.24
948.41	5547.93
948.716	5533.02
949.022	5489.4
949.327	5507.93
949.633	5435.39
949.938	5439.24
950.244	5435.17
950.549	5369.18
950.854	5346.81
951.16	5332.8
951.465	5319.92
951.77	5342.29
952.075	5318.11
952.38	5243.53
952.685	5216.19
952.99	5174.61
953.294	5173.93
953.599	5131.45
953.904	5145.68
954.209	5111.56
954.513	5116.53
954.818	5061.62
955.122	5062.97
955.426	5034.73
955.731	5016.2
956.035	4970.55
956.339	5008.74
956.643	4959.02
956.948	4874.05
957.252	4907.27
957.556	4875.18
957.86	4857.56
958.163	4873.15
958.467	4827.95
958.771	4853.04
959.075	4738.91
959.378	4761.97
959.682	4737.33
959.985	4749.31
960.289	4694.4
960.592	4646.71
960.896	4615.98
961.199	4642.19
961.502	4606.49
961.805	4595.42
962.108	4622.76
962.411	4588.64
962.714	4561.07
963.017	4512.71
963.32	4505.47
963.623	4494.63
963.926	4485.14
964.228	4461.63
964.531	4423.22
964.833	4437.23
965.136	4373.5
965.438	4422.99
965.741	4391.81
966.043	4315.88
966.345	4363.78
966.648	4292.82
966.95	4340.96
967.252	4267.29
967.554	4267.97
967.856	4236.1
968.158	4200.17
968.46	4258.7
968.761	4187.07
969.063	4185.03
969.365	4192.94
969.666	4161.98
969.968	4153.17
970.269	4095.32
970.571	4079.05
970.872	4013.06
971.174	4065.94
971.475	4052.83
971.776	4045.15
972.077	4005.15
972.378	3968.54
972.679	3989.33
972.98	3906.85
973.281	3881.99
973.582	3868.2
973.883	3861.42
974.183	3844.93
974.484	3837.24
974.785	3864.59
975.085	3859.62
975.386	3774.19
975.686	3787.75
975.986	3820.3
976.287	3768.32
976.587	3740.3
976.887	3768.09
977.187	3720.86
977.487	3697.59
977.787	3700.75
978.087	3689
978.387	3672.28
978.687	3685.61
978.987	3666.17
979.286	3554.54
979.586	3603.8
979.885	3578.49
980.185	3527.2
980.484	3524.71
980.784	3518.61
981.083	3497.59
981.382	3477.48
981.682	3469.12
981.981	3540.53
982.28	3477.93
982.579	3439.06
982.878	3433.19
983.177	3420.08
983.475	3434.32
983.774	3416.01
984.073	3376.01
984.372	3406.97
984.67	3322.68
984.969	3346.41
985.267	3357.93
985.566	3296.47
985.864	3312.29
986.162	3284.04
986.461	3279.52
986.759	3268.45
987.057	3186.87
987.355	3227.32
987.653	3193.87
987.951	3195.23
988.249	3198.39
988.547	3163.36
988.844	3143.48
989.142	3133.76
989.44	3115.68
989.737	3109.13
990.035	3085.4
990.332	3123.59
990.63	3064.16
990.927	3051.5
991.224	3031.62
991.521	3022.58
991.819	3041.11
992.116	2969.47
992.413	2951.17
992.71	2961.11
993.006	2958.4
993.303	2916.59
993.6	2924.27
993.897	2901
994.193	2862.81
994.49	2877.49
994.787	2850.15
995.083	2843.15
995.379	2843.15
995.676	2816.71
995.972	2776.25
996.268	2789.59
996.565	2746.65
996.861	2768.12
997.157	2762.24
997.453	2708.23
997.749	2716.6
998.044	2681.12
998.34	2663.49
998.636	2658.74
998.932	2651.29
999.227	2658.07
999.523	2615.35
999.818	2609.03
1000.114	2579.2
1000.409	2553.21
1000.704	2606.09
1001	2522.25
1001.295	2552.53
1001.59	2538.97
1001.885	2536.94
1002.18	2557.73
1002.475	2485.41
1002.77	2468.01
1003.065	2492.65
1003.359	2446.09
1003.654	2439.09
1003.949	2414
1004.243	2400.9
1004.538	2392.54
1004.832	2383.27
1005.127	2409.48
1005.421	2361.12
1005.715	2348.92
1006.009	2364.29
1006.304	2334.68
1006.598	2311.63
1006.892	2303.5
1007.186	2293.56
1007.48	2294.23
1007.773	2280.45
1008.067	2266.89
1008.361	2232.54
1008.655	2229.38
1008.948	2198.64
1009.242	2204.52
1009.535	2192.99
1009.829	2173.56
1010.122	2161.81
1010.415	2176.27
1010.708	2142.37
1011.001	2132.43
1011.295	2095.82
1011.588	2080.91
1011.881	2078.42
1012.173	2039.32
1012.466	2070.06
1012.759	2056.73
1013.052	2049.04
1013.344	2042.26
1013.637	2033.45
1013.93	1996.16
1014.222	1984.64
1014.514	1964.75
1014.807	1950.51
1015.099	1946.22
1015.391	1962.49
1015.683	1967.46
1015.976	1935.6
1016.268	1928.82
1016.56	1911.19
1016.851	1895.15
1017.143	1872.55
1017.435	1870.74
1017.727	1854.92
1018.018	1852.21
1018.31	1833.45
1018.602	1783.96
1018.893	1787.13
1019.185	1775.38
1019.476	1775.15
1019.767	1761.59
1020.058	1774.25
1020.35	1738.32
1020.641	1737.19
1020.932	1721.59
1021.223	1731.08
1021.514	1712.1
1021.804	1699.45
1022.095	1719.56
1022.386	1667.58
1022.677	1664.42
1022.967	1648.6
1023.258	1640.47
1023.548	1610.18
1023.839	1592.56
1024.129	1576.06
1024.419	1574.25
1024.709	1606.12
1025	1539.9
1025.29	1547.13
1025.58	1560.02
1025.87	1504.88
1026.16	1513.01
1026.449	1523.86
1026.739	1524.76
1027.029	1518.21
1027.319	1503.52
1027.608	1485.22
1027.898	1485.44
1028.187	1433.69
1028.477	1447.48
1028.766	1440.7
1029.055	1419.91
1029.344	1404.77
1029.634	1394.37
1029.923	1389.4
1030.212	1390.3
1030.501	1402.28
1030.79	1354.82
1031.078	1369.06
1031.367	1308.04
1031.656	1322.06
1031.945	1329.74
1032.233	1310.08
1032.522	1324.09
1032.81	1331.55
1033.099	1297.2
1033.387	1290.19
1033.675	1288.61
1033.963	1247.71
1034.251	1271.66
1034.54	1269.85
1034.828	1236.41
1035.116	1229.4
1035.403	1233.24
1035.691	1216.52
1035.979	1199.8
1036.267	1218.78
1036.554	1204.09
1036.842	1173.58
1037.129	1158.67
1037.417	1141.27
1037.704	1141.5
1037.992	1126.13
1038.279	1151.21
1038.566	1115.73
1038.853	1115.73
1039.14	1115.73
