Data from aluminium_macbook_case_FLMS001491_064.txt Node
Date: Tue Feb 07 10:44:01 GMT 2017
User: dcchb
Spectrometer: FLMS00149
Trigger mode: 0
Integration Time (sec): 2.000000E-2
Scans to average: 10
Electric dark correction enabled: true
Nonlinearity correction enabled: false
Boxcar width: 0
XAxis mode: Wavelengths
Number of Pixels in Spectrum: 2048
>>>>>Begin Spectral Data<<<<<
341.393	-26.27
341.776	-26.27
342.16	-26.27
342.543	-59.94
342.927	-61.3
343.31	-74.18
343.693	-76.21
344.077	-63.78
344.46	-77.34
344.843	-48.64
345.226	-27.85
345.61	-14.07
345.993	-12.71
346.376	-11.58
346.759	13.73
347.142	29.1
347.525	37.91
347.908	55.31
348.291	66.38
348.674	91.47
349.057	112.48
349.44	94.18
349.823	119.94
350.206	180.28
350.588	249.43
350.971	252.37
351.354	279.94
351.737	284.46
352.119	304.57
352.502	321.07
352.884	327.62
353.267	346.6
353.65	356.77
354.032	320.39
354.414	378.01
354.797	361.52
355.179	367.17
355.562	385.7
355.944	399.71
356.326	383.66
356.709	396.09
357.091	415.07
357.473	389.76
357.855	414.62
358.238	409.88
358.62	416.2
359.002	393.83
359.384	429.76
359.766	407.39
360.148	422.76
360.53	425.47
360.912	437.9
361.294	395.64
361.676	399.48
362.057	399.48
362.439	429.76
362.821	409.65
363.203	412.36
363.584	426.82
363.966	420.72
364.348	402.87
364.729	416.88
365.111	419.37
365.493	440.61
365.874	433.15
366.256	420.27
366.637	425.02
367.019	433.6
367.4	424.34
367.781	416.66
368.163	445.81
368.544	412.59
368.925	420.5
369.306	433.15
369.688	442.87
370.069	454.39
370.45	447.84
370.831	456.65
371.212	443.55
371.593	464.34
371.974	437.22
372.355	431.34
372.736	467.28
373.117	450.1
373.498	452.81
373.879	471.57
374.26	450.55
374.641	451.01
375.021	458.01
375.402	474.51
375.783	497.56
376.163	535.75
376.544	525.13
376.925	508.4
377.305	503.66
377.686	514.73
378.066	519.25
378.447	503.89
378.827	531.68
379.208	513.15
379.588	528.29
379.968	517.67
380.349	551.34
380.729	545.47
381.109	564.22
381.489	578.69
381.87	552.02
382.25	571.45
382.63	592.92
383.01	574.39
383.39	604.67
383.77	593.83
384.15	590.66
384.53	596.99
384.91	643.54
385.29	628.18
385.67	642.19
386.049	614.16
386.429	628.18
386.809	646.03
387.189	674.05
387.568	658.68
387.948	673.37
388.328	681.06
388.707	702.98
389.087	693.71
389.466	701.39
389.846	733.26
390.225	736.87
390.605	698.68
390.984	745.01
391.363	753.14
391.743	749.53
392.122	776.42
392.501	766.93
392.881	796.76
393.26	783.2
393.639	821.62
394.018	812.13
394.397	810.32
394.776	845.12
395.155	811.45
395.534	835.4
395.913	853.93
396.292	879.69
396.671	881.05
397.05	916.08
397.429	899.81
397.808	900.71
398.186	896.19
398.565	930.77
398.944	925.57
399.323	947.26
399.701	944.1
400.08	949.75
400.458	994.49
400.837	982.29
401.215	1010.31
401.594	1001.05
401.972	1025.45
402.351	1028.62
402.729	1050.31
403.107	1062.06
403.486	1085.34
403.864	1075.4
404.242	1084.43
404.62	1096.86
404.999	1111.33
405.377	1148.61
405.755	1141.38
406.133	1171.21
406.511	1160.14
406.889	1180.7
407.267	1204.43
407.645	1229.74
408.023	1214.15
408.401	1250.31
408.779	1284.2
409.156	1306.8
409.534	1321.94
409.912	1330.76
410.29	1386.35
410.667	1398.55
411.045	1403.3
411.422	1412.79
411.8	1435.61
412.178	1460.47
412.555	1482.16
412.933	1461.83
413.31	1472.22
413.687	1555.16
414.065	1549.51
414.442	1571.2
414.819	1599.22
415.197	1599.9
415.574	1638.09
415.951	1674.93
416.328	1681.71
416.705	1694.14
417.082	1681.03
417.46	1723.74
417.837	1780.91
418.214	1787.47
418.591	1765.77
418.967	1821.59
419.344	1844.64
419.721	1849.61
420.098	1853
420.475	1878.09
420.852	1913.34
421.228	1952.89
421.605	1964.64
421.982	1977.07
422.358	2003.05
422.735	2003.05
423.111	1998.76
423.488	2067.01
423.864	2073.11
424.241	2114.92
424.617	2132.32
424.994	2161.69
425.37	2179.1
425.746	2195.14
426.123	2243.05
426.499	2247.79
426.875	2290.05
427.251	2350.62
427.627	2356.27
428.003	2429.48
428.379	2441.69
428.756	2431.52
429.132	2458.64
429.507	2537.73
429.883	2572.31
430.259	2602.36
430.635	2620.44
431.011	2629.03
431.387	2729.82
431.763	2810.94
432.138	2784.5
432.514	2848.23
432.89	2811.85
433.265	2878.51
433.641	2960.32
434.016	2964.84
434.392	3063.82
434.767	3088.68
435.143	3106.3
435.518	3139.75
435.894	3193.53
436.269	3248.45
436.644	3285.96
437.02	3327.09
437.395	3356.01
437.77	3386.75
438.145	3444.15
438.52	3466.52
438.895	3498.61
439.271	3520.08
439.646	3592.17
440.021	3614.54
440.395	3645.05
440.77	3664.93
441.145	3682.56
441.52	3789.67
441.895	3763.46
442.27	3802.1
442.645	3830.8
443.019	3847.98
443.394	3913.96
443.769	3960.52
444.143	3916.68
444.518	4021.76
444.892	3990.12
445.267	4045.71
445.641	4083.9
446.016	4097.91
446.39	4168.87
446.764	4171.81
447.139	4190.79
447.513	4263.79
447.887	4302.66
448.262	4320.06
448.636	4344.01
449.01	4403.44
449.384	4435.31
449.758	4437.79
450.132	4556.21
450.506	4534.74
450.88	4579.26
451.254	4585.13
451.628	4726.82
452.002	4732.93
452.376	4814.73
452.75	4872.81
453.123	4875.97
453.497	5009.76
453.871	4971.79
454.244	5065.35
454.618	5141.28
454.992	5190.99
455.365	5263.31
455.739	5375.17
456.112	5378.11
456.486	5470.99
456.859	5489.74
457.232	5640.47
457.606	5592.11
457.979	5716.18
458.352	5831.2
458.725	5890.86
459.099	5882.73
459.472	6053.57
459.845	6147.13
460.218	6189.16
460.591	6223.96
460.964	6223.96
461.337	6455.14
461.71	6526.1
462.083	6657.4
462.456	6639.77
462.829	6682.71
463.201	6808.35
463.574	6849.93
463.947	6989.82
464.32	7122.02
464.692	7150.72
465.065	7220.77
465.438	7363.14
465.81	7493.98
466.183	7563.59
466.555	7720.42
466.928	7707.76
467.3	7767.65
467.672	7977.59
468.045	8113.63
468.417	8183.68
468.789	8160.18
469.161	8340.52
469.534	8466.84
469.906	8690.56
470.278	8750
470.65	8837.9
471.022	9051.68
471.394	9190.66
471.766	9287.83
472.138	9392.92
472.51	9608.73
472.882	9754.04
473.253	9823.41
473.625	10006.69
473.997	10237.64
474.369	10279.22
474.74	10448.26
475.112	10695.71
475.484	10853.22
475.855	11049.14
476.227	11041.46
476.598	11428.57
476.97	11594.67
477.341	11757.83
477.713	11913.53
478.084	12097.93
478.455	12348.55
478.827	12452.05
479.198	12876.89
479.569	12859.72
479.94	13268.07
480.311	13399.37
480.682	13580.6
481.053	13995.73
481.424	14143.53
481.795	14336.97
482.166	14562.72
482.537	14798.42
482.908	15207.23
483.279	15313.21
483.65	15572.42
484.021	15960.43
484.391	16113.42
484.762	16197.48
485.133	16404.03
485.503	16611.03
485.874	17119.04
486.244	17220.06
486.615	17526.26
486.985	17864.11
487.356	18093.25
487.726	18260.25
488.097	18531.66
488.467	18681.49
488.837	19092.77
489.207	19306.55
489.578	19539.54
489.948	19779.54
490.318	20014.56
490.688	20180.2
491.058	20447.54
491.428	20750.81
491.798	20897.25
492.168	21316.67
492.538	21461.75
492.908	21801.4
493.278	22049.76
493.648	22100.61
494.017	22386.25
494.387	22646.35
494.757	22850.42
495.126	23085.21
495.496	23047.47
495.866	23432.55
496.235	23679.32
496.605	23852.2
496.974	23999.76
497.344	24236.37
497.713	24367.44
498.082	24617.83
498.452	24882.23
498.821	25061.66
499.19	25037.48
499.559	25398.6
499.928	25583.68
500.298	25659.38
500.667	25866.83
501.036	25896.44
501.405	26230.21
501.774	26336.65
502.143	26544.78
502.512	26673.59
502.88	26829.52
503.249	27009.18
503.618	27190.87
503.987	27379.11
504.356	27591.31
504.724	27821.81
505.093	27839.21
505.462	28064.06
505.83	28374.79
506.199	28475.35
506.567	28931.61
506.936	29048.22
507.304	29223.81
507.672	29466.97
508.041	29623.12
508.409	29883.9
508.777	30050.23
509.145	30349.88
509.514	30422.65
509.882	30624
510.25	30700.38
510.618	30995.74
510.986	31092.69
511.354	31343.07
511.722	31675.72
512.09	31879.78
512.458	31935.37
512.826	32255.82
513.193	32611.97
513.561	32530.61
513.929	32841.79
514.297	33018.51
514.664	33343.02
515.032	33510.47
515.4	33814.2
515.767	33967.19
516.135	34223.68
516.502	34112.72
516.869	34833.15
517.237	35017.78
517.604	34942.3
517.972	35423.42
518.339	35654.37
518.706	35820.92
519.073	35924.87
519.44	36148.6
519.808	36709.26
520.175	36821.35
520.542	37216.82
520.909	37439.64
521.276	37557.37
521.643	37884.6
522.009	38190.8
522.376	38358.93
522.743	38654.07
523.11	39083.44
523.477	39416.53
523.843	39592.12
524.21	40087.03
524.577	40113.92
524.943	40498.31
525.31	40543.51
525.676	41072.54
526.043	41150.5
526.409	41267.78
526.776	41707.32
527.142	41910.48
527.508	42148.21
527.874	42481.31
528.241	42715.43
528.607	42879.49
528.973	43337.11
529.339	43307.51
529.705	43805.12
530.071	44114.04
530.437	44244.43
530.803	44584.31
531.169	44853.45
531.535	44940.23
531.901	45222.03
532.267	45290.28
532.632	45621.79
532.998	45675.13
533.364	46102.23
533.73	46192.18
534.095	46600.75
534.461	46623.12
534.826	46810.24
535.192	47087.29
535.557	47192.83
535.923	47201.19
536.288	47434.18
536.653	47600.05
537.019	47554.63
537.384	47734.28
537.749	47883.43
538.114	47914.62
538.479	48093.14
538.845	48188.05
539.21	48178.11
539.575	48435.96
539.94	48557.31
540.305	48862.61
540.67	48821.26
541.034	48942.16
541.399	49126.11
541.764	49260.12
542.129	49495.14
542.494	49500.79
542.858	49730.84
543.223	49758.86
543.587	50113.65
543.952	50115.69
544.316	50199.53
544.681	50307.77
545.045	50554.09
545.41	50664.37
545.774	50720.87
546.138	50808.33
546.503	50970.81
546.867	51028.66
547.231	51320.63
547.595	51441.98
547.959	51564.69
548.324	51531.02
548.688	51625.48
549.052	51733.05
549.416	51800.16
549.779	51956.54
550.143	52081.06
550.507	52132.36
550.871	52228.4
551.235	52195.86
551.599	52553.59
551.962	52498.22
552.326	52601.05
552.689	52829.06
553.053	52641.72
553.417	52825
553.78	53289.39
554.143	53021.6
554.507	53275.83
554.87	53464.3
555.234	53751.98
555.597	53555.37
555.96	53739.1
556.323	53869.49
556.686	53955.59
557.05	54095.02
557.413	54263.15
557.776	54397.84
558.139	54576.14
558.502	54621.78
558.865	54706.53
559.228	54963.92
559.59	55004.6
559.953	55178.61
560.316	55407.07
560.679	55398.49
561.041	55661.53
561.404	55741.53
561.767	55950.79
562.129	55850.45
562.492	56154.63
562.854	56144.46
563.217	56209.99
563.579	56268.07
563.941	56377.67
564.304	56514.16
564.666	56717.77
565.028	56769.75
565.39	56828.73
565.753	56915.28
566.115	56954.15
566.477	57103.75
566.839	57154.6
567.201	57346.68
567.563	57348.04
567.925	57435.95
568.287	57438.66
568.648	57576.06
569.01	57778.54
569.372	57819.89
569.734	57829.84
570.095	58022.37
570.457	58142.6
570.819	58180.33
571.18	58221.46
571.542	58325.19
571.903	58433.21
572.265	58485.19
572.626	58505.52
572.987	58601.11
573.349	58771.28
573.71	58833.2
574.071	58797.95
574.432	58987.09
574.794	59183.25
575.155	59138.5
575.516	59104.15
575.877	59246.07
576.238	59340.53
576.599	59388.89
576.96	59405.39
577.32	59502.79
577.681	59545.72
578.042	59580.52
578.403	59637.25
578.763	59627.98
579.124	59634.76
579.485	59698.71
579.845	59773.97
580.206	59693.52
580.566	59672.05
580.927	59650.58
581.287	59736.68
581.648	59564.48
582.008	59748.2
582.368	59675.44
582.728	59796.11
583.089	59699.84
583.449	59704.59
583.809	59765.6
584.169	59784.13
584.529	59735.77
584.889	59952.49
585.249	59800.86
585.609	59744.81
585.969	59915.43
586.329	59776.22
586.688	59852.83
587.048	59791.82
587.408	59835.21
587.768	59812.61
588.127	59800.41
588.487	59828.43
588.846	59992.49
589.206	59864.81
589.565	59901.19
589.925	60043.56
590.284	59984.58
590.643	60059.16
591.003	60115.88
591.362	60154.97
591.721	60090.79
592.08	60150.45
592.44	60208.53
592.799	60185.71
593.158	60204.01
593.517	60186.84
593.876	60257.79
594.235	60112.94
594.593	60151.13
594.952	60247.17
595.311	60068.19
595.67	60154.75
596.029	60197.23
596.387	60233.39
596.746	60245.59
597.104	60116.55
597.463	60094.18
597.822	60152.49
598.18	60086.05
598.538	60027.07
598.897	60194.07
599.255	60028.2
599.613	60382.08
599.972	60195.65
600.33	60303.22
600.688	60196.78
601.046	60253.05
601.404	60337.34
601.762	60282.88
602.12	60460.5
602.478	60455.76
602.836	60339.37
603.194	60282.2
603.552	60335.98
603.91	60306.83
604.268	60413.5
604.625	60347.28
604.983	60470.44
605.341	60440.39
605.698	60517.22
606.056	60650.78
606.413	60563.1
606.771	60720.15
607.128	60788.85
607.485	60588.86
607.843	60736.2
608.2	60832.92
608.557	60888.29
608.914	60874.73
609.272	60939.58
609.629	61010.54
609.986	61071.78
610.343	60953.82
610.7	61041.05
611.057	61102.29
611.414	61029.75
611.771	61067.26
612.127	61102.29
612.484	61025.23
612.841	61126.02
613.198	61019.58
613.554	61015.74
613.911	61154.49
614.267	61056.19
614.624	61021.16
614.98	61081.05
615.337	61222.29
615.693	61144.78
616.05	61071.11
616.406	61240.14
616.762	61101.84
617.118	61111.11
617.475	61167.37
617.831	61187.04
618.187	61259.58
618.543	61237.43
618.899	61306.13
619.255	61267.49
619.611	61305
619.967	61335.73
620.323	61355.62
620.678	61264.32
621.034	61311.78
621.39	61258.45
621.746	61299.57
622.101	61525.11
622.457	61303.19
622.812	61415.5
623.168	61449.85
623.523	61527.14
623.879	61538.66
624.234	61455.73
624.589	61493.02
624.945	61520.36
625.3	61561.71
625.655	61536.63
626.01	61576.86
626.365	61593.8
626.72	61518.55
627.075	61559.68
627.43	61525.78
627.785	61441.27
628.14	61543.18
628.495	61555.84
628.85	61488.95
629.205	61389.52
629.559	61513.35
629.914	61346.13
630.269	61354.26
630.623	61301.61
630.978	61166.02
631.332	61284.43
631.687	61293.02
632.041	61124.21
632.396	61225.68
632.75	61072.91
633.104	61080.6
633.459	60981.16
633.813	60978.23
634.167	60982.75
634.521	60948.4
634.875	60914.05
635.229	60916.53
635.583	60738.23
635.937	60833.37
636.291	60773.71
636.645	60735.75
636.999	60743.66
637.352	60782.07
637.706	60586.83
638.06	60667.73
638.413	60596.09
638.767	60532.82
639.121	60591.12
639.474	60438.13
639.828	60411.24
640.181	60538.46
640.534	60472.48
640.888	60386.38
641.241	60265.03
641.594	60366.49
641.947	60425.25
642.301	60366.49
642.654	60415.53
643.007	60353.84
643.36	60327.4
643.713	60331.69
644.066	60417.79
644.419	60262.54
644.771	60079.04
645.124	59901.42
645.477	59818.71
645.83	59718.15
646.182	59546.63
646.535	59562.9
646.888	59513.18
647.24	59389.79
647.593	59481.32
647.945	59379.4
648.298	59293.3
648.65	59270.25
649.002	59164.94
649.355	59228.89
649.707	59244.04
650.059	59258.72
650.411	59525.38
650.763	59611.03
651.115	59774.42
651.467	59642.44
651.819	59630.24
652.171	59523.58
652.523	59506.63
652.875	59497.81
653.227	59298.72
653.578	59520.41
653.93	59356.57
654.282	59197.93
654.633	59181.89
654.985	59192.96
655.337	59260.53
655.688	59213.3
656.039	59291.27
656.391	59057.37
656.742	59068.9
657.094	59148.44
657.445	59103.47
657.796	59026.41
658.147	59016.24
658.498	58919.98
658.849	59049.69
659.2	58965.17
659.551	58939.18
659.902	59035.23
660.253	58906.64
660.604	58996.81
660.955	58882.24
661.306	58996.13
661.656	58897.6
662.007	58984.16
662.358	58915.91
662.708	58942.57
663.059	58970.82
663.409	58747.1
663.76	58983.93
664.11	58990.71
664.461	58992.97
664.811	59023.48
665.161	59011.73
665.511	58947.09
665.862	58985.74
666.212	59038.39
666.562	59028.22
666.912	58922.69
667.262	58884.5
667.612	58804.72
667.962	58817.61
668.312	58809.92
668.662	58886.3
669.011	58786.65
669.361	58773.77
669.711	58740.32
670.06	58658.51
670.41	58689.7
670.76	58622.36
671.109	58578.06
671.459	58541.46
671.808	58461.23
672.157	58508.24
672.507	58329.03
672.856	58337.17
673.205	58323.16
673.554	58324.06
673.904	58186.89
674.253	58375.58
674.602	58289.26
674.951	57842.72
675.3	57710.74
675.649	58141.92
675.998	58116.83
676.346	58101.69
676.695	58187.11
677.044	57907.12
677.393	58035.93
677.741	58022.6
678.09	57880.46
678.438	57851.08
678.787	57902.15
679.135	57887.23
679.484	57772.66
679.832	57838.65
680.181	57673.46
680.529	57785.32
680.877	57651.53
681.225	57646.34
681.573	57780.8
681.922	57646.34
682.27	57578.99
682.618	57633.91
682.966	57539.67
683.314	57658.09
683.661	57545.78
684.009	57419.9
684.357	57351.2
684.705	57473.69
685.053	57448.15
685.4	57390.07
685.748	57275.27
686.095	57228.27
686.443	57125.9
686.79	57164.99
687.138	57177.88
687.485	57121.83
687.832	56960.71
688.18	57014.04
688.527	56865.34
688.874	56855.85
689.221	56744.21
689.568	56778.79
689.915	56645.69
690.262	56685.46
690.609	56576.99
690.956	56464.45
691.303	56429.65
691.65	56256.09
691.997	56247.5
692.344	55979.26
692.69	56038.02
693.037	56024.69
693.383	55770.68
693.73	55845.93
694.077	55628.09
694.423	55608.88
694.769	55447.3
695.116	55375.21
695.462	55345.83
695.808	55306.29
696.155	55181.09
696.501	54920.53
696.847	54899.29
697.193	54708.79
697.539	54935.45
697.885	54689.13
698.231	54552.86
698.577	54436.48
698.923	54472.18
699.269	54285.52
699.614	54208.69
699.96	54171.4
700.306	54230.16
700.651	54050.95
700.997	53952.2
701.342	53740.45
701.688	53866.32
702.033	53654.58
702.379	53696.16
702.724	53583.85
703.069	53665.88
703.415	53336.85
703.76	53399.44
704.105	53387.47
704.45	53188.38
704.795	53003.75
705.14	53054.37
705.485	53062.96
705.83	52871.77
706.175	52914.26
706.52	52769.18
706.865	52811.89
707.209	52779.57
707.554	52669.97
707.899	52722.4
708.243	52698.67
708.588	52650.76
708.932	52419.58
709.277	52336.87
709.621	52392.01
709.966	52146.37
710.31	52341.62
710.654	51900.95
710.998	52045.58
711.342	52120.61
711.687	51916.77
712.031	51739.37
712.375	51623.67
712.719	51695.76
713.063	51435.2
713.407	51627.51
713.75	51371.25
714.094	51286.73
714.438	51189.78
714.782	51167.86
715.125	51006.29
715.469	50990.24
715.812	50797.25
716.156	50549.8
716.499	50569.46
716.843	50590.03
717.186	50353.2
717.53	50625.73
717.873	50571.04
718.216	50305.29
718.559	50081.79
718.902	49917.28
719.246	49954.34
719.589	49879.08
719.932	49622.37
720.275	49609.03
720.617	49502.37
720.96	49410.4
721.303	49365.43
721.646	49246.78
721.989	49011.31
722.331	49163.4
722.674	48985.1
723.016	49024.87
723.359	48848.83
723.701	48869.17
724.044	48674.37
724.386	48509.63
724.729	48584.88
725.071	48399.35
725.413	48562.73
725.755	48404.55
726.097	48157.55
726.439	48130.88
726.782	48204.55
727.124	48333.81
727.465	48053.6
727.807	47998.68
728.149	48029.64
728.491	47876.2
728.833	48027.16
729.175	47834.84
729.516	47814.73
729.858	47796.2
730.199	47776.77
730.541	47690.44
730.882	47687.73
731.224	47781.51
731.565	47334.07
731.906	47572.25
732.248	47586.94
732.589	47399.6
732.93	47266.72
733.271	47212.71
733.612	47393.95
733.953	47275.76
734.294	47238.7
734.635	47015.2
734.976	47261.53
735.317	46886.17
735.658	46907.18
735.999	46810.24
736.339	46617.47
736.68	46828.09
737.021	46544.26
737.361	46379.74
737.702	46612.28
738.042	46385.62
738.383	46281.66
738.723	46373.19
739.063	46204.15
739.404	46168
739.744	46105.62
740.084	45867.21
740.424	45902.92
740.764	45660.66
741.104	45792.86
741.444	45510.16
741.784	45333.67
742.124	45365.08
742.464	45232.43
742.804	45274.69
743.143	45023.39
743.483	45055.71
743.823	44878.99
744.162	44772.55
744.502	44739.78
744.841	44431.32
745.181	44671.09
745.52	44426.8
745.86	44473.8
746.199	44230.64
746.538	44149.52
746.877	44263.86
747.216	44041.27
747.556	43867.04
747.895	43877.89
748.234	43684.9
748.573	43635.63
748.911	43582.98
749.25	43374.85
749.589	43328.75
749.928	43373.94
750.267	43267.28
750.605	43104.35
750.944	43043.33
751.283	42895.76
751.621	42970.11
751.96	42719.72
752.298	42819.38
752.636	42698.26
752.975	42480.41
753.313	42589.56
753.651	42634.98
753.989	42343.01
754.327	42346.17
754.666	42239.28
755.004	42146.18
755.342	42109.12
755.679	42137.37
756.017	41861.44
756.355	42039.29
756.693	41768.34
757.031	41910.25
757.368	41656.02
757.706	41536.93
758.044	41530.83
758.381	41510.04
758.719	41280.67
759.056	41451.51
759.394	41286.09
759.731	41229.59
760.068	41106.43
760.405	40832.09
760.743	40673.45
761.08	40818.31
761.417	40543.96
761.754	40610.63
762.091	40375.61
762.428	40108.04
762.765	40124.76
763.102	40170.41
763.438	39856.97
763.775	39681.39
764.112	39746.92
764.449	39611.11
764.785	39478.23
765.122	39276.2
765.458	39002.08
765.795	38916.89
766.131	38952.14
766.467	38728.64
766.804	38426.73
767.14	38339.73
767.476	38411.36
767.812	38070.13
768.148	38222.89
768.485	37911.94
768.821	37665.62
769.157	37584.04
769.492	37450.03
769.828	37275.57
770.164	36846.88
770.5	36779.54
770.836	36800.11
771.171	36518.31
771.507	36419.78
771.842	36140.46
772.178	36310.63
772.513	35967.13
772.849	35995.61
773.184	35696.63
773.519	35633.36
773.855	35487.37
774.19	35310.88
774.525	35091
774.86	35015.52
775.195	34894.85
775.53	34753.15
775.865	34642.65
776.2	34319.49
776.535	34254.64
776.87	34094.41
777.205	34138.25
777.539	33801.09
777.874	33970.8
778.209	33559.29
778.543	33562.45
778.878	33278.62
779.212	33442.91
779.547	33296.92
779.881	33257.15
780.215	32918.17
780.55	33170.82
780.884	32932.18
781.218	32748.23
781.552	32724.28
781.886	32555.92
782.22	32441.12
782.554	32327
782.888	32151.64
783.222	32074.13
783.556	31931.31
783.889	31793.91
784.223	31612.67
784.557	31569.28
784.89	31643.63
785.224	31460.13
785.557	31262.4
785.891	31244.77
786.224	31165.9
786.558	31179.46
786.891	30864.44
787.224	30807.5
787.557	30903.99
787.891	30895.85
788.224	30687.05
788.557	30713.71
788.89	30579.03
789.223	30674.62
789.556	30267.4
789.888	30283.89
790.221	30028.31
790.554	29862.66
790.887	29911.25
791.219	29741.31
791.552	29701.31
791.884	29518.26
792.217	29412.73
792.549	29228.78
792.882	29073.08
793.214	28902.46
793.546	29052.74
793.879	28748.79
794.211	28586.08
794.543	28695.23
794.875	28486.65
795.207	28660.66
795.539	28348.35
795.871	28315.58
796.203	28041.24
796.535	27943.39
796.867	27860.23
797.198	27790.4
797.53	27695.49
797.862	27560.12
798.193	27541.59
798.525	27429.28
798.856	27374.14
799.188	26995.17
799.519	26905.45
799.85	26801.27
800.182	26830.88
800.513	26925.34
800.844	26482.64
801.175	26741.16
801.506	26575.52
801.837	26378.01
802.168	26309.76
802.499	26136.66
802.83	25954.74
803.161	25944.8
803.491	25804.24
803.822	25832.94
804.153	25682.21
804.483	25465.94
804.814	25321.99
805.145	25323.12
805.475	25335.55
805.805	25204.7
806.136	25194.08
806.466	25140.98
806.796	25085.39
807.126	24946.41
807.457	24884.03
807.787	24796.13
808.117	24714.77
808.447	24630.48
808.777	24649.24
809.107	24544.16
809.436	24497.6
809.766	24419.19
810.096	24319.98
810.426	24315.46
810.755	24310.49
811.085	24247.67
811.414	24284.5
811.744	24061.46
812.073	24083.15
812.403	24052.42
812.732	23890.16
813.061	23929.94
813.39	23739.66
813.719	23801.13
814.049	23750.73
814.378	23715.93
814.707	23644.75
815.036	23672.09
815.365	23542.6
815.693	23421.7
816.022	23481.81
816.351	23518.2
816.68	23353
817.008	23425.32
817.337	23208.82
817.665	23264.87
817.994	23258.77
818.322	23157.75
818.651	23106
818.979	23023.97
819.307	23147.81
819.636	23177.87
819.964	22934.48
820.292	22976.97
820.62	22934.03
820.948	22779.91
821.276	22870.08
821.604	22672.57
821.932	22840.02
822.259	22906.46
822.587	22958.66
822.915	22772
823.243	22895.61
823.57	22734.71
823.898	22761.38
824.225	22675.51
824.553	22632.34
824.88	22704.88
825.207	22773.81
825.535	22610.42
825.862	22698.33
826.189	22569.97
826.516	22702.17
826.843	22679.57
827.17	22660.59
827.497	22788.5
827.824	22639.57
828.151	22596.86
828.478	22510.76
828.805	22521.16
829.131	22459.01
829.458	22506.24
829.785	22281.84
830.111	22464.66
830.438	22467.6
830.764	22411.78
831.09	22403.65
831.417	22305.8
831.743	22461.95
832.069	22331.11
832.395	22262.18
832.722	22287.04
833.048	22150.1
833.374	22175.18
833.7	22057.67
834.026	22125.24
834.351	22162.75
834.677	22101.51
835.003	22104
835.329	21994.39
835.654	21948.07
835.98	21790.56
836.306	21886.83
836.631	21746.72
836.956	21887.5
837.282	21711.69
837.607	21651.13
837.932	21560.73
838.258	21631.01
838.583	21670.33
838.908	21374.3
839.233	21534.52
839.558	21484.8
839.883	21439.38
840.208	21419.72
840.533	21324.81
840.858	21363.22
841.182	21373.39
841.507	21226.73
841.832	21207.07
842.156	21218.37
842.481	21138.14
842.805	21006.62
843.13	21101.08
843.454	21000.97
843.778	21031.03
844.103	20885.95
844.427	20911.26
844.751	20889.56
845.075	20895.67
845.399	20906.74
845.723	20811.37
846.047	20802.33
846.371	20609.8
846.695	20650.93
847.019	20475.34
847.343	20514.66
847.666	20336.13
847.99	20293.87
848.313	20325.51
848.637	20181.11
848.96	20123.93
849.284	20106.99
849.607	20013.88
849.931	19977.95
850.254	19837.39
850.577	19836.48
850.9	19729.14
851.223	19778.41
851.546	19665.64
851.869	19612.08
852.192	19751.06
852.515	19502.71
852.838	19409.6
853.161	19348.36
853.483	19218.87
853.806	19224.3
854.129	19202.83
854.451	19125.54
854.774	19066.79
855.096	18956.96
855.419	18865.66
855.741	18907.02
856.063	18856.4
856.385	18748.15
856.708	18612.79
857.03	18581.15
857.352	18596.29
857.674	18535.73
857.996	18437.2
858.318	18316.98
858.64	18341.16
858.961	18248.96
859.283	18273.14
859.605	18101.84
859.926	18133.25
860.248	18132.8
860.57	17991.33
860.891	17881.06
861.212	17894.61
861.534	17869.53
861.855	17800.38
862.176	17841.28
862.498	17816.88
862.819	17733.49
863.14	17633.6
863.461	17640.61
863.782	17583.66
864.103	17570.1
864.424	17519.03
864.745	17467.28
865.065	17379.6
865.386	17296.66
865.707	17323.1
866.027	17382.31
866.348	17271.35
866.668	17288.75
866.989	17052.15
867.309	17049.66
867.63	17081.75
867.95	16999.72
868.27	16925.6
868.59	17058.25
868.91	16925.83
869.23	16885.83
869.55	16783.46
869.87	16856.45
870.19	16791.59
870.51	16857.81
870.83	16719.28
871.15	16579.62
871.469	16664.82
871.789	16685.38
872.109	16543.92
872.428	16504.37
872.748	16616.46
873.067	16552.73
873.386	16559.51
873.706	16500.3
874.025	16456.69
874.344	16419.17
874.663	16524.25
874.982	16522.45
875.301	16488.78
875.62	16396.35
875.939	16398.38
876.258	16376.01
876.577	16326.75
876.896	16329.68
877.214	16235.67
877.533	16218.95
877.852	16242.45
878.17	16311.83
878.489	16309.12
878.807	16237.26
879.125	16294.66
879.444	16204.72
879.762	16223.47
880.08	16269.57
880.398	16179.86
880.716	16165.39
881.034	16128.56
881.352	16118.16
881.67	16140.54
881.988	16123.14
882.306	16051.05
882.624	16006.3
882.941	16039.07
883.259	15941.45
883.577	16009.92
883.894	15929.02
884.212	15898.51
884.529	15981.67
884.846	15808.79
885.164	15771.51
885.481	15874.1
885.798	15852.86
886.115	15717.5
886.432	15714.33
886.75	15643.6
887.067	15643.15
887.383	15587.33
887.7	15687.89
888.017	15579.19
888.334	15613.77
888.651	15550.27
888.967	15517.73
889.284	15436.6
889.6	15469.82
889.917	15343.27
890.233	15409.48
890.55	15421.46
890.866	15283.84
891.182	15196.83
891.498	15134.69
891.815	15148.47
892.131	15196.38
892.447	15110.05
892.763	15064.18
893.079	15013.11
893.395	14889.27
893.71	14913
894.026	14785.77
894.342	14900.34
894.657	14674.36
894.973	14710.29
895.289	14660.57
895.604	14604.98
895.92	14458.32
896.235	14466.46
896.55	14491.77
896.865	14404.08
897.181	14362.5
897.496	14324.09
897.811	14214.94
898.126	14212.68
898.441	14169.29
898.756	14154.83
899.071	14007.26
899.386	14014.26
899.7	13897.66
900.015	13890.88
900.33	13795.06
900.644	13674.39
900.959	13635.74
901.273	13665.35
901.588	13623.54
901.902	13507.84
902.216	13486.37
902.531	13462.87
902.845	13350.33
903.159	13268.52
903.473	13225.13
903.787	13144
904.101	13206.38
904.415	13096.1
904.729	13073.72
905.042	12863.11
905.356	13000.05
905.67	12898.59
905.984	12854.97
906.297	12759.38
906.611	12684.81
906.924	12795.31
907.237	12645.49
907.551	12729.1
907.864	12659.27
908.177	12587.18
908.491	12494.76
908.804	12402.33
909.117	12298.83
909.43	12268.32
909.743	12257.47
910.056	12238.27
910.368	12121.66
910.681	12196.46
910.994	12113.75
911.307	11947.43
911.619	11907.2
911.932	12008.89
912.244	11841.67
912.557	11809.58
912.869	11697.26
913.181	11767.09
913.494	11770.48
913.806	11640.77
914.118	11610.94
914.43	11496.14
914.742	11584.72
915.054	11477.61
915.366	11481
915.678	11438.51
915.99	11422.47
916.302	11310.38
916.613	11280.32
916.925	11364.62
917.236	11243.72
917.548	11227.22
917.859	11240.55
918.171	11179.54
918.482	11010.28
918.794	10984.97
919.105	10994.91
919.416	10947
919.727	10925.53
920.038	10872.88
920.349	10885.31
920.66	10836.72
920.971	10822.03
921.282	10791.52
921.593	10626.56
921.903	10670.85
922.214	10632.21
922.525	10645.31
922.835	10593.56
923.146	10506.11
923.456	10534.36
923.767	10452.1
924.077	10389.5
924.387	10424.3
924.697	10400.35
925.008	10354.47
925.318	10274.02
925.628	10201.94
925.938	10233.57
926.248	10170.52
926.558	10123.29
926.867	10114.48
927.177	10042.84
927.487	9985.9
927.796	9857.99
928.106	9901.38
928.416	9820.7
928.725	9871.1
929.034	9782.96
929.344	9825
929.653	9703.64
929.962	9653.47
930.271	9584.55
930.581	9612.35
930.89	9578
931.199	9437.66
931.508	9454.84
931.817	9437.21
932.125	9382.97
932.434	9364.22
932.743	9268.63
933.051	9281.51
933.36	9218.68
933.669	9159.25
933.977	9080.16
934.286	9135.07
934.594	9091.91
934.902	8962.87
935.21	8962.19
935.519	8926.71
935.827	8934.85
936.135	8821.18
936.443	8701.86
936.751	8716.78
937.059	8696.66
937.367	8637.91
937.674	8610.79
937.982	8584.58
938.29	8515.65
938.597	8523.79
938.905	8501.41
939.213	8399.04
939.52	8322.89
939.827	8355.2
940.135	8328.76
940.442	8227.52
940.749	8251.7
941.056	8249.22
941.363	8088.77
941.67	8132.84
941.977	8078.6
942.284	8016.68
942.591	7954.54
942.898	7953.18
943.205	7904.14
943.511	7891.04
943.818	7828.66
944.125	7823.24
944.431	7747.76
944.738	7732.17
945.044	7674.09
945.35	7632.51
945.657	7597.03
945.963	7579.86
946.269	7563.81
946.575	7553.42
946.881	7444.95
947.187	7440.2
947.493	7360.65
947.799	7369.24
948.105	7332.18
948.41	7280.66
948.716	7291.73
949.022	7230.26
949.327	7221.67
949.633	7156.59
949.938	7196.59
950.244	7099.19
950.549	7039.08
950.854	7089.02
951.16	7063.26
951.465	6975.81
951.77	6969.7
952.075	6934.9
952.38	6875.69
952.685	6935.13
952.99	6811.06
953.294	6851.51
953.599	6790.5
953.904	6780.56
954.209	6776.04
954.513	6658.98
954.818	6717.96
955.122	6669.6
955.426	6618.3
955.731	6588.47
956.035	6579.43
956.339	6513.22
956.643	6592.54
956.948	6436.84
957.252	6427.8
957.556	6455.82
957.86	6394.58
958.163	6407.91
958.467	6407.91
958.771	6318.87
959.075	6328.14
959.378	6297.86
959.682	6268.25
959.985	6231.87
960.289	6223.06
960.592	6224.19
960.896	6226.67
961.199	6200.01
961.502	6163.17
961.805	6154.13
962.108	6040.01
962.411	6081.37
962.714	5989.16
963.017	5964.76
963.32	6068.94
963.623	5922.73
963.926	5915.27
964.228	5902.39
964.531	5942.16
964.833	5914.36
965.136	5832.56
965.438	5837.76
965.741	5816.06
966.043	5791.2
966.345	5782.84
966.648	5709.62
966.95	5696.74
967.252	5747.36
967.554	5694.94
967.856	5628.27
968.158	5597.08
968.46	5567.48
968.761	5542.85
969.063	5527.03
969.365	5525.22
969.666	5519.12
969.968	5450.42
970.269	5456.52
970.571	5439.57
970.872	5436.41
971.174	5390.54
971.475	5379.69
971.776	5374.49
972.077	5278.45
972.378	5274.61
972.679	5277.32
972.98	5256.08
973.281	5194.61
973.582	5171.78
973.883	5198.22
974.183	5148.96
974.484	5136.31
974.785	5095.18
975.085	5098.57
975.386	5055.18
975.686	5003.65
975.986	5047.27
976.287	5022.41
976.587	4943.77
976.887	4961.17
977.187	4962.52
977.487	4925.01
977.787	4863.09
978.087	4837.56
978.387	4814.28
978.687	4765.92
978.987	4753.49
979.286	4732.02
979.586	4737.22
979.885	4673.27
980.185	4682.98
980.484	4625.36
980.784	4616.32
981.083	4622.87
981.382	4569.31
981.682	4545.59
981.981	4621.06
982.28	4506.27
982.579	4455.65
982.878	4479.15
983.177	4440.73
983.475	4452.48
983.774	4391.01
984.073	4367.96
984.372	4332.48
984.67	4393.27
984.969	4277.8
985.267	4318.47
985.566	4276.44
985.864	4258.36
986.162	4237.35
986.461	4206.61
986.759	4247.29
987.057	4170
987.355	4133.62
987.653	4150.79
987.951	4143.56
988.249	4080.51
988.547	4064.92
988.844	4023.11
989.142	4001.65
989.44	3957.81
989.737	3954.64
990.035	3964.59
990.332	3921.2
990.63	3890.46
990.927	3901.54
991.224	3908.54
991.521	3867.19
991.819	3862.89
992.116	3867.19
992.413	3798.71
992.71	3795.32
993.006	3730.24
993.303	3741.99
993.6	3705.16
993.897	3743.35
994.193	3717.59
994.49	3694.54
994.787	3645.27
995.083	3639.17
995.379	3623.13
995.676	3600.98
995.972	3631.03
996.268	3551.26
996.565	3559.62
996.861	3548.78
997.157	3485.5
997.453	3485.73
997.749	3489.57
998.044	3477.59
998.34	3469
998.636	3418.38
998.932	3436.92
999.227	3429.68
999.523	3375.67
999.818	3354.21
1000.114	3334.32
1000.409	3329.12
1000.704	3326.41
1001	3275.56
1001.295	3240.08
1001.59	3282.8
1001.885	3263.13
1002.18	3235.56
1002.475	3163.25
1002.77	3209.8
1003.065	3164.83
1003.359	3172.74
1003.654	3154.89
1003.949	3154.44
1004.243	3099.97
1004.538	3077.6
1004.832	3112.63
1005.127	3080.31
1005.421	3042.12
1005.715	3020.43
1006.009	3026.98
1006.304	3006.87
1006.598	2971.16
1006.892	2977.04
1007.186	2938.85
1007.48	2915.57
1007.773	2911.51
1008.067	2876.48
1008.361	2871.96
1008.655	2828.8
1008.948	2815.91
1009.242	2871.28
1009.535	2826.76
1009.829	2790.83
1010.122	2765.29
1010.415	2753.77
1010.708	2738.4
1011.001	2739.31
1011.295	2710.15
1011.588	2674.9
1011.881	2664.05
1012.173	2670.16
1012.466	2636.26
1012.759	2637.16
1013.052	2637.61
1013.344	2634.68
1013.637	2624.73
1013.93	2560.78
1014.222	2532.76
1014.514	2528.69
1014.807	2545.64
1015.099	2542.25
1015.391	2505.64
1015.683	2455.7
1015.976	2469.71
1016.268	2469.71
1016.56	2445.75
1016.851	2392.87
1017.143	2385.42
1017.435	2349.03
1017.727	2380.67
1018.018	2343.16
1018.31	2342.71
1018.602	2351.29
1018.893	2292.09
1019.185	2329.15
1019.476	2274.69
1019.767	2265.87
1020.058	2276.27
1020.35	2214.12
1020.641	2205.31
1020.932	2203.05
1021.223	2189.49
1021.514	2153.11
1021.804	2139.1
1022.095	2129.15
1022.386	2112.66
1022.677	2079.66
1022.967	2073.11
1023.258	2076.27
1023.548	2051.19
1023.839	2049.61
1024.129	2039.66
1024.419	1969.38
1024.709	1995.37
1025	1991.3
1025.29	2031.08
1025.58	1935.71
1025.87	1928.71
1026.16	1918.99
1026.449	1932.55
1026.739	1892.32
1027.029	1872.44
1027.319	1846.22
1027.608	1864.53
1027.898	1831.08
1028.187	1833.34
1028.477	1796.28
1028.766	1789.95
1029.055	1773.23
1029.344	1755.38
1029.634	1751.54
1029.923	1735.94
1030.212	1742.27
1030.501	1740.01
1030.79	1675.38
1031.078	1683.52
1031.367	1693.46
1031.656	1664.31
1031.945	1660.01
1032.233	1625.89
1032.522	1628.83
1032.81	1618.43
1033.099	1627.7
1033.387	1608.49
1033.675	1576.4
1033.963	1568.04
1034.251	1548.15
1034.54	1556.74
1034.828	1528.04
1035.116	1502.73
1035.403	1517.19
1035.691	1481.26
1035.979	1475.16
1036.267	1465.89
1036.554	1442.17
1036.842	1434.71
1037.129	1430.87
1037.417	1426.8
1037.704	1412.34
1037.992	1406.69
1038.279	1395.16
1038.566	1380.92
1038.853	1380.92
1039.14	1380.92
