Data from aluminium_macbook_case_FLMS001491_026.txt Node
Date: Tue Feb 07 10:43:26 GMT 2017
User: dcchb
Spectrometer: FLMS00149
Trigger mode: 0
Integration Time (sec): 2.000000E-2
Scans to average: 10
Electric dark correction enabled: true
Nonlinearity correction enabled: false
Boxcar width: 0
XAxis mode: Wavelengths
Number of Pixels in Spectrum: 2048
>>>>>Begin Spectral Data<<<<<
341.393	-43.25
341.776	-43.25
342.16	-43.25
342.543	-76.47
342.927	-77.37
343.31	-67.2
343.693	-64.49
344.077	-65.17
344.46	-51.61
344.843	-59.97
345.226	-52.29
345.61	-25.62
345.993	-12.29
346.376	-9.12
346.759	5.79
347.142	18.9
347.525	34.49
347.908	47.15
348.291	79.01
348.674	101.38
349.057	121.04
349.44	117.2
349.823	136.18
350.206	164.2
350.588	219.34
350.971	245.33
351.354	268.61
351.737	283.3
352.119	291.43
352.502	311.55
352.884	315.39
353.267	316.07
353.65	364.65
354.032	352
354.414	342.05
354.797	358.32
355.179	367.82
355.562	374.37
355.944	374.14
356.326	385.44
356.709	416.4
357.091	372.56
357.473	399
357.855	403.07
358.238	399.68
358.62	403.52
359.002	404.2
359.384	415.27
359.766	411.43
360.148	399.45
360.53	422.28
360.912	436.74
361.294	403.29
361.676	406.23
362.057	415.72
362.439	415.05
362.821	417.08
363.203	426.34
363.584	429.96
363.966	414.37
364.348	404.65
364.729	429.06
365.111	395.16
365.493	391.32
365.874	405.1
366.256	401.26
366.637	420.92
367.019	415.95
367.4	399.45
367.781	423.86
368.163	408.49
368.544	430.19
368.925	421.6
369.306	434.93
369.688	428.83
370.069	421.15
370.45	429.73
370.831	425.44
371.212	445.33
371.593	445.1
371.974	426.8
372.355	438.55
372.736	457.98
373.117	475.61
373.498	457.3
373.879	441.94
374.26	439
374.641	451.43
375.021	467.25
375.402	481.48
375.783	486
376.163	518.32
376.544	523.74
376.925	495.04
377.305	510.86
377.686	514.25
378.066	506.34
378.447	497.3
378.827	533.23
379.208	532.78
379.588	513.8
379.968	521.26
380.349	536.62
380.729	551.99
381.109	542.27
381.489	556.06
381.87	555.83
382.25	553.12
382.63	566.45
383.01	561.03
383.39	602.61
383.77	599.45
384.15	591.09
384.53	592.67
384.91	605.55
385.29	607.58
385.67	641.71
386.049	633.34
386.429	637.86
386.809	638.32
387.189	636.51
387.568	640.8
387.948	659.78
388.328	670.18
388.707	676.06
389.087	660.24
389.466	694.13
389.846	688.03
390.225	692.78
390.605	715.15
390.984	734.13
391.363	750.18
391.743	736.17
392.122	747.24
392.501	761.48
392.881	751.31
393.26	775.49
393.639	789.95
394.018	806.22
394.397	792.66
394.776	804.19
395.155	811.65
395.534	834.02
395.913	846.45
396.292	847.8
396.671	847.35
397.05	861.14
397.429	860.23
397.808	874.24
398.186	883.96
398.565	894.58
398.944	909.72
399.323	919.89
399.701	926.67
400.08	932.77
400.458	927.12
400.837	976.84
401.215	966.22
401.594	985.65
401.972	981.36
402.351	976.16
402.729	998.08
403.107	1028.14
403.486	1042.83
403.864	1054.35
404.242	1069.27
404.62	1071.75
404.999	1096.38
405.377	1114.01
405.755	1119.43
406.133	1125.76
406.511	1128.02
406.889	1135.48
407.267	1179.09
407.645	1205.31
408.023	1226.78
408.401	1216.83
408.779	1242.59
409.156	1268.81
409.534	1276.04
409.912	1319.2
410.29	1328.02
410.667	1338.86
411.045	1374.79
411.422	1380.67
411.8	1405.98
412.178	1462.93
412.555	1469.03
412.933	1463.61
413.31	1456.37
413.687	1517.39
414.065	1547.45
414.442	1524.17
414.819	1579.31
415.197	1565.98
415.574	1623.6
415.951	1613.21
416.328	1627.22
416.705	1640.1
417.082	1640.1
417.46	1691.85
417.837	1692.3
418.214	1735.46
418.591	1742.47
418.967	1755.12
419.344	1792.64
419.721	1826.76
420.098	1827.21
420.475	1837.83
420.852	1819.98
421.228	1902.24
421.605	1937.04
421.982	1935.91
422.358	1924.84
422.735	1976.59
423.111	1972.07
423.488	2011.84
423.864	2020.43
424.241	2085.51
424.617	2094.32
424.994	2111.95
425.37	2164.83
425.746	2147.88
426.123	2176.13
426.499	2187.2
426.875	2249.57
427.251	2303.81
427.627	2319.85
428.003	2380.42
428.379	2350.59
428.756	2394.2
429.132	2416.8
429.507	2448.89
429.883	2505.61
430.259	2559.4
430.635	2589.45
431.011	2610.02
431.387	2639.17
431.763	2704.02
432.138	2739.05
432.514	2767.53
432.89	2803.91
433.265	2861.31
433.641	2901.99
434.016	2911.03
434.392	2960.52
434.767	3021.3
435.143	3020.17
435.518	3062.43
435.894	3110.79
436.269	3137.01
436.644	3195.76
437.02	3273.95
437.395	3272.6
437.77	3326.83
438.145	3373.39
438.52	3409.09
438.895	3403.44
439.271	3438.24
439.646	3513.5
440.021	3543.78
440.395	3565.92
440.77	3554.4
441.145	3583.32
441.52	3692.93
441.895	3696.09
442.27	3716.2
442.645	3682.53
443.019	3767.27
443.394	3805.01
443.769	3839.81
444.143	3823.77
444.518	3932.47
444.892	3925.46
445.267	3974.73
445.641	3987.83
446.016	3958
446.39	4043.88
446.764	4084.55
447.139	4092.91
447.513	4129.98
447.887	4170.43
448.262	4167.04
448.636	4207.26
449.01	4304.43
449.384	4321.61
449.758	4317.77
450.132	4394.38
450.506	4419.46
450.88	4440.25
451.254	4496.52
451.628	4541.72
452.002	4626.46
452.376	4616.07
452.75	4739.9
453.123	4719.79
453.497	4819.9
453.871	4836.4
454.244	5000.24
454.618	5042.72
454.992	5101.93
455.365	5122.49
455.739	5263.96
456.112	5244.3
456.486	5315.26
456.859	5336.5
457.232	5504.86
457.606	5498.75
457.979	5543.27
458.352	5723.83
458.725	5747.56
459.099	5767.22
459.472	5882.47
459.845	5983.49
460.218	6061.45
460.591	6066.65
460.964	6101
461.337	6290.37
461.71	6345.29
462.083	6493.76
462.456	6495.11
462.829	6589.8
463.201	6717.03
463.574	6717.48
463.947	6800.64
464.32	7030.01
464.692	7029.79
465.065	7106.17
465.438	7226.84
465.81	7343.22
466.183	7361.08
466.555	7546.84
466.928	7594.74
467.3	7639.04
467.672	7796.55
468.045	7994.51
468.417	7928.97
468.789	7995.64
469.161	8115.63
469.534	8265.91
469.906	8480.6
470.278	8532.35
470.65	8680.59
471.022	8815.28
471.394	8974.37
471.766	9057.08
472.138	9180.69
472.51	9401.7
472.882	9575.48
473.253	9696.61
473.625	9822.03
473.997	10052.53
474.369	10130.5
474.74	10233.54
475.112	10467.44
475.484	10605.96
475.855	10809.12
476.227	10912.62
476.598	11242.56
476.97	11300.41
477.341	11589.89
477.713	11683.68
478.084	11785.14
478.455	12087.51
478.827	12221.06
479.198	12571.79
479.569	12609.08
479.94	12960.7
480.311	13153.02
480.682	13398.43
481.053	13701.93
481.424	13971.07
481.795	14049.94
482.166	14348.01
482.537	14574.67
482.908	14934.66
483.279	15028.45
483.65	15417.14
484.021	15681.31
484.391	15864.58
484.762	16037.01
485.133	16119.04
485.503	16419.82
485.874	16745.92
486.244	16867.72
486.615	17297.31
486.985	17427.93
487.356	17776.62
487.726	17846.45
488.097	18285.54
488.467	18411.86
488.837	18771.4
489.207	18903.15
489.578	19196.02
489.948	19365.28
490.318	19607.54
490.688	19700.19
491.058	20099.27
491.428	20290.46
491.798	20561.41
492.168	21107.38
492.538	21140.38
492.908	21302.41
493.278	21686.58
493.648	21795.5
494.017	22116.85
494.387	22283.62
494.757	22500.11
495.126	22730.39
495.496	22803.61
495.866	23129.48
496.235	23180.77
496.605	23480.43
496.974	23733.53
497.344	23770.59
497.713	23933.07
498.082	24119.73
498.452	24488.76
498.821	24579.16
499.19	24588.42
499.559	24856.44
499.928	25088.52
500.298	25138.69
500.667	25454.61
501.036	25372.36
501.405	25686.47
501.774	25639.92
502.143	25986.8
502.512	26248.94
502.88	26502.5
503.249	26569.16
503.618	26840.34
503.987	27023.39
504.356	27324.39
504.724	27326.2
505.093	27513.77
505.462	27708.79
505.83	27953.08
506.199	28212.51
506.567	28491.6
506.936	28497.25
507.304	28896.1
507.672	29032.37
508.041	29185.36
508.409	29345.58
508.777	29694.95
509.145	29775.63
509.514	29880.03
509.882	30159.8
510.25	30150.08
510.618	30387.82
510.986	30580.35
511.354	30915.71
511.722	31040
512.09	31331.52
512.458	31332.65
512.826	31811.28
513.193	31898.51
513.561	32066.87
513.929	32357.71
514.297	32557.03
514.664	32864.36
515.032	33064.58
515.4	33412.37
515.767	33480.16
516.135	33808.29
516.502	33738.69
516.869	34416.86
517.237	34623.86
517.604	34545.9
517.972	35105.43
518.339	35339.1
518.706	35357.63
519.073	35631.52
519.44	35802.14
519.808	36275.8
520.175	36117.16
520.542	36689.57
520.909	36851.83
521.276	36830.59
521.643	37326.39
522.009	37359.61
522.376	37690.45
522.743	38059.48
523.11	38314.61
523.477	38671.89
523.843	38944.43
524.21	39410.4
524.577	39617.18
524.943	39710.51
525.31	39955.02
525.676	40371.96
526.043	40560.66
526.409	40787.09
526.776	41273.63
527.142	41373.52
527.508	41701.42
527.874	42183.66
528.241	42403.77
528.607	42481.96
528.973	42792.46
529.339	42990.88
529.705	43433.58
530.071	43683.29
530.437	43944.97
530.803	44103.84
531.169	44426.09
531.535	44280.78
531.901	44577.05
532.267	44665.41
532.632	44957.38
532.998	44920.54
533.364	45296.58
533.73	45389.23
534.095	45808.65
534.461	45861.53
534.826	46125.03
535.192	46166.38
535.557	46485.7
535.923	46498.58
536.288	46764.34
536.653	46846.37
537.019	46843.66
537.384	47035.74
537.749	47224.89
538.114	47362.51
538.479	47452.45
538.845	47655.39
539.21	47753.24
539.575	47939.67
539.94	48117.29
540.305	48362.94
540.67	48388.02
541.034	48662.36
541.399	48700.56
541.764	48761.12
542.129	48960.66
542.494	49154.1
542.858	49415.34
543.223	49348.22
543.587	49682
543.952	49561.55
544.316	49776.01
544.681	49710.92
545.045	49950.24
545.41	50160.4
545.774	50212.83
546.138	50216.67
546.503	50345.48
546.867	50288.31
547.231	50693.27
547.595	50746.83
547.959	50768.98
548.324	50826.83
548.688	50952.02
549.052	51069.98
549.416	51160.83
549.779	51199.47
550.143	51306.36
550.507	51506.81
550.871	51691.66
551.235	51730.53
551.599	51990.64
551.962	52178.43
552.326	52171.2
552.689	52345.43
553.053	52283.06
553.417	52312.21
553.78	52733.44
554.143	52752.43
554.507	52954.91
554.87	53073.55
555.234	53335.91
555.597	53306.31
555.96	53411.39
556.323	53599.41
556.686	53688.67
557.05	53827.88
557.413	53956.69
557.776	54020.19
558.139	54125.72
558.502	54217.7
558.865	54321.42
559.228	54479.84
559.59	54553.06
559.953	54591.25
560.316	54835.76
560.679	54836.21
561.041	55059.71
561.404	55108.75
561.767	55316.43
562.129	55157.34
562.492	55542.64
562.854	55476.42
563.217	55545.8
563.579	55704.67
563.941	55874.6
564.304	56008.16
564.666	56099.01
565.028	56166.12
565.39	56276.85
565.753	56395.72
566.115	56580.8
566.477	56706.67
566.839	56730.18
567.201	56948.47
567.563	56964.97
567.925	57084.74
568.287	57168.13
568.648	57231.4
569.01	57408.58
569.372	57519.98
569.734	57471.85
570.095	57638.4
570.457	57813.76
570.819	57882.01
571.18	57866.87
571.542	58001.1
571.903	58055.56
572.265	58137.37
572.626	58205.39
572.987	58270.25
573.349	58320.19
573.71	58357.25
574.071	58398.38
574.432	58487.19
574.794	58619.16
575.155	58476.12
575.516	58491.94
575.877	58638.83
576.238	58625.49
576.599	58751.82
576.96	58765.83
577.32	58823.23
577.681	58923.79
578.042	58881.53
578.403	58863.68
578.763	58982.77
579.124	59019.83
579.485	59074.52
579.845	59128.53
580.206	59124.24
580.566	59135.76
580.927	59189.55
581.287	59319.03
581.648	59278.13
582.008	59394.96
582.368	59347.06
582.728	59487.62
583.089	59404.68
583.449	59403.1
583.809	59430.22
584.169	59512.02
584.529	59469.76
584.889	59691.23
585.249	59526.49
585.609	59492.59
585.969	59576.88
586.329	59418.01
586.688	59558.12
587.048	59532.59
587.408	59455.98
587.768	59498.46
588.127	59485.13
588.487	59362.87
588.846	59589.53
589.206	59347.28
589.565	59378.47
589.925	59526.49
590.284	59453.04
590.643	59368.75
591.003	59414.85
591.362	59486.94
591.721	59466.15
592.08	59418.92
592.44	59448.3
592.799	59399.94
593.158	59437.67
593.517	59448.3
593.876	59540.72
594.235	59424.12
594.593	59507.28
594.952	59557.9
595.311	59484.23
595.67	59516.32
596.029	59675.41
596.387	59725.12
596.746	59785.46
597.104	59641.51
597.463	59680.61
597.822	59822.98
598.18	59725.58
598.538	59728.51
598.897	59919.02
599.255	59684.9
599.613	60069.75
599.972	59939.81
600.33	59975.29
600.688	59873.14
601.046	59984.33
601.404	60033.82
601.762	60053.48
602.12	60122.4
602.478	60111.78
602.836	60113.81
603.194	60036.53
603.552	59968.73
603.91	59988.17
604.268	60103.87
604.625	60029.52
604.983	60087.6
605.341	59940.03
605.698	60034.72
606.056	60069.52
606.413	60008.51
606.771	60124.89
607.128	60159.46
607.485	60051.44
607.843	60022.97
608.2	60082.4
608.557	60193.81
608.914	60077.43
609.272	60232
609.629	60266.13
609.986	60302.51
610.343	60226.13
610.7	60343.19
611.057	60416.18
611.414	60350.42
611.771	60445.11
612.127	60476.74
612.484	60467.93
612.841	60539.11
613.198	60521.71
613.554	60557.42
613.911	60634.48
614.267	60665.89
614.624	60612.56
614.98	60777.75
615.337	60923.74
615.693	60895.04
616.05	60799.22
616.406	60908.82
616.762	60890.52
617.118	60914.7
617.475	60929.16
617.831	60937.75
618.187	60942.72
618.543	60968.26
618.899	61065.88
619.255	61053
619.611	60957.41
619.967	61084.18
620.323	61101.36
620.678	61025.43
621.034	60974.58
621.39	60954.92
621.746	60833.34
622.101	61168.7
622.457	60914.7
622.812	60930.52
623.168	60963.28
623.523	60912.89
623.879	60922.61
624.234	60777.75
624.589	60878.09
624.945	60889.61
625.3	60841.48
625.655	60767.13
626.01	60809.39
626.365	60761.26
626.72	60754.93
627.075	60772.33
627.43	60772.33
627.785	60730.97
628.14	60796.73
628.495	60763.06
628.85	60742.27
629.205	60680.58
629.559	60851.87
629.914	60752.67
630.269	60780.92
630.623	60727.58
630.978	60655.5
631.332	60769.16
631.687	60809.16
632.041	60729.62
632.396	60767.36
632.75	60662.5
633.104	60676.51
633.459	60587.25
633.813	60659.56
634.167	60679
634.521	60639
634.875	60615.5
635.229	60616.17
635.583	60486.69
635.937	60523.3
636.291	60489.17
636.645	60521.04
636.999	60380.02
637.352	60506.8
637.706	60310.42
638.06	60371.44
638.413	60346.13
638.767	60204.21
639.121	60230.42
639.474	60057.09
639.828	60062.74
640.181	60116.98
640.534	60014.61
640.888	59992.46
641.241	59829.75
641.594	59837.44
641.947	59849.64
642.301	59698.68
642.654	59769.19
643.007	59749.08
643.36	59680.83
643.713	59570.1
644.066	59675.86
644.419	59509.99
644.771	59335.08
645.124	59149.32
645.477	59028.65
645.83	58902.55
646.182	58742.78
646.535	58732.61
646.888	58760.63
647.24	58604.93
647.593	58728.54
647.945	58655.77
648.298	58513.86
648.65	58521.77
649.002	58527.64
649.355	58654.42
649.707	58559.05
650.059	58696.9
650.411	58973.51
650.763	59039.27
651.115	59234.97
651.467	59219.6
651.819	59205.36
652.171	59140.28
652.523	59116.78
652.875	59138.02
653.227	59022.32
653.578	59205.36
653.93	59139.6
654.282	58958.59
654.633	58928.31
654.985	58958.14
655.337	58954.07
655.688	58878.14
656.039	59017.57
656.391	58798.37
656.742	58769.9
657.094	58862.77
657.445	58906.84
657.796	58808.31
658.147	58777.35
658.498	58764.92
658.849	58659.62
659.2	58663.68
659.551	58577.81
659.902	58698.94
660.253	58566.51
660.604	58545.49
660.955	58423.46
661.306	58455.1
661.656	58339.17
662.007	58379.17
662.358	58341.21
662.708	58281.77
663.059	58268.89
663.409	58110.25
663.76	58162
664.11	58195.9
664.461	58188.67
664.811	58093.3
665.161	58094.88
665.511	58050.59
665.862	58143.25
666.212	58088.56
666.562	58116.13
666.912	58081.55
667.262	58018.95
667.612	58006.3
667.962	58054.21
668.312	58067.54
668.662	58186.41
669.011	58045.39
669.361	58087.43
669.711	58178.05
670.06	58130.14
670.41	58038.84
670.76	58083.13
671.109	58162.23
671.459	58125.62
671.808	58067.99
672.157	58138.5
672.507	57940.76
672.856	57931.05
673.205	58041.33
673.554	58045.39
673.904	57967.43
674.253	58105.73
674.602	57991.16
674.951	57661.45
675.3	57505.52
675.649	57957.26
675.998	57870.48
676.346	57823.03
676.695	57916.13
677.044	57704.39
677.393	57778.28
677.741	57733.99
678.09	57678.4
678.438	57656.03
678.787	57656.03
679.135	57626.2
679.484	57366.99
679.832	57456.48
680.181	57363.6
680.529	57342.36
680.877	57252.87
681.225	57181.24
681.573	57287.9
681.922	57108.47
682.27	56994.35
682.618	56955.48
682.966	56858.31
683.314	56907.12
683.661	56781.25
684.009	56754.13
684.357	56662.15
684.705	56588.71
685.053	56560.01
685.4	56521.59
685.748	56411.09
686.095	56359.11
686.443	56237.08
686.79	56295.38
687.138	56230.3
687.485	56266.01
687.832	56189.4
688.18	56270.98
688.527	56066.24
688.874	55998.89
689.221	56024.66
689.568	55934.72
689.915	55896.3
690.262	55873.25
690.609	55845.23
690.956	55751.9
691.303	55776.98
691.65	55657.66
691.997	55653.37
692.344	55473.03
692.69	55505.35
693.037	55481.17
693.383	55178.35
693.73	55372.92
694.077	55193.04
694.423	55187.39
694.769	55139.93
695.116	55014.29
695.462	55009.09
695.808	54878.7
696.155	54970.45
696.501	54821.07
696.847	54745.82
697.193	54556.9
697.539	54668.53
697.885	54433.06
698.231	54332.27
698.577	54358.26
698.923	54263.57
699.269	54178.6
699.614	53941.77
699.96	53926.63
700.306	53853.19
700.651	53730.25
700.997	53629.47
701.342	53550.37
701.688	53424.5
702.033	53322.58
702.379	53306.08
702.724	53165.07
703.069	53228.8
703.415	52765.76
703.76	52853.89
704.105	52695.25
704.45	52641.02
704.795	52444.86
705.14	52389.95
705.485	52232.44
705.83	52107.7
706.175	52164.42
706.52	51964.42
706.865	51955.84
707.209	51847.14
707.554	51596.3
707.899	51711.32
708.243	51557.2
708.588	51454.83
708.932	51220.94
709.277	51253.71
709.621	51313.59
709.966	51119.93
710.31	51138.68
710.654	50794.06
710.998	51014.17
711.342	50975.75
711.687	50831.12
712.031	50720.16
712.375	50615.76
712.719	50714.97
713.063	50581.86
713.407	50748.19
713.75	50530.34
714.094	50420.06
714.438	50413.28
714.782	50493.73
715.125	50274.75
715.469	50461.64
715.812	50264.81
716.156	49978.04
716.499	50006.96
716.843	50098.03
717.186	49737.36
717.53	50046.06
717.873	49955.66
718.216	49805.16
718.559	49821.2
718.902	49417.37
719.246	49500.76
719.589	49338.28
719.932	49261.9
720.275	49271.61
720.617	49144.16
720.96	49042.92
721.303	49012.86
721.646	48971.96
721.989	48896.03
722.331	49009.02
722.674	48759.76
723.016	48681.35
723.359	48589.82
723.701	48612.87
724.044	48299.44
724.386	48221.7
724.729	48306.89
725.071	48093.57
725.413	48017.41
725.755	47956.85
726.097	47793.91
726.439	47587.14
726.782	47609.51
727.124	47748.72
727.465	47475.5
727.807	47375.17
728.149	47252.46
728.491	47073.93
728.833	47211.78
729.175	46816.09
729.516	46903.31
729.858	46739.03
730.199	46795.07
730.541	46627.62
730.882	46700.16
731.224	46659.71
731.565	46388.98
731.906	46439.37
732.248	46370.45
732.589	46145.59
732.93	46012.49
733.271	46013.62
733.612	46170.23
733.953	46148.08
734.294	45852.27
734.635	45792.38
734.976	45898.14
735.317	45773.17
735.658	45509
735.999	45711.71
736.339	45583.35
736.68	45720.75
737.021	45421.55
737.361	45355.78
737.702	45529.57
738.042	45231.95
738.383	45473.3
738.723	45487.98
739.063	45280.76
739.404	45396.46
739.744	45174.55
740.084	45104.27
740.424	45037.83
740.764	44999.41
741.104	45105.17
741.444	44692.3
741.784	44709.47
742.124	44780.88
742.464	44605.52
742.804	44642.13
743.143	44607.78
743.483	44586.77
743.823	44313.55
744.162	44332.76
744.502	44408.47
744.841	44116.27
745.181	44329.82
745.52	43940.91
745.86	44076.72
746.199	43917.63
746.538	43754.92
746.877	43791.98
747.216	43721.7
747.556	43650.29
747.895	43606.45
748.234	43283.3
748.573	43269.06
748.911	43306.8
749.25	43103.41
749.589	42992.23
749.928	42988.39
750.267	42911.1
750.605	42733.93
750.944	42702.52
751.283	42453.71
751.621	42558.8
751.96	42247.84
752.298	42473.83
752.636	42186.83
752.975	42086.49
753.313	41880.85
753.651	41950.22
753.989	41620.52
754.327	41580.06
754.666	41305.04
755.004	41343.91
755.342	41272.05
755.679	41368.09
756.017	41050.59
756.355	41137.59
756.693	40804.49
757.031	40946.18
757.368	40733.31
757.706	40647.43
758.044	40449.02
758.381	40478.85
758.719	40287.9
759.056	40265.07
759.394	40081.8
759.731	39818.98
760.068	39720.23
760.405	39511.42
760.743	39474.81
761.08	39473.68
761.417	39339.67
761.754	39395.49
762.091	39291.09
762.428	39202.27
762.765	39066.46
763.102	39103.07
763.438	38789.63
763.775	38656.07
764.112	38742.17
764.449	38774.71
764.785	38580.6
765.122	38209.98
765.458	38228.74
765.795	38180.38
766.131	38092.47
766.467	37900.16
766.804	37769.32
767.14	37504.92
767.476	37630.56
767.812	37341.08
768.148	37276.68
768.485	37085.95
768.821	36933.86
769.157	36931.83
769.492	36850.7
769.828	36735.45
770.164	36320.09
770.5	36378.85
770.836	36317.38
771.171	36067.89
771.507	35930.27
771.842	35797.62
772.178	35791.74
772.513	35579.09
772.849	35472.2
773.184	35242.38
773.519	35294.13
773.855	35041.48
774.19	35062.95
774.525	34827.7
774.86	34672
775.195	34653.02
775.53	34495.96
775.865	34303.42
776.2	34101.84
776.535	33915.18
776.87	33842.19
777.205	33653.04
777.539	33552.48
777.874	33469.09
778.209	33151.81
778.543	33277.01
778.878	33099.16
779.212	32925.83
779.547	32919.5
779.881	32806.96
780.215	32597.25
780.55	32690.13
780.884	32341.66
781.218	32152.97
781.552	32328.33
781.886	31988.45
782.22	31835.01
782.554	31747.56
782.888	31487.22
783.222	31303.5
783.556	31274.57
783.889	31178.53
784.223	31023.28
784.557	30910.97
784.89	31014.24
785.224	30860.12
785.557	30491.54
785.891	30564.54
786.224	30505.78
786.558	30426.46
786.891	30238.89
787.224	29952.57
787.557	29821.28
787.891	29805.23
788.224	29794.84
788.557	29735.4
788.89	29591
789.223	29547.16
789.556	29337.45
789.888	29274.4
790.221	29279.37
790.554	28970.23
790.887	28970.45
791.219	29000.96
791.552	28827.41
791.884	28727.75
792.217	28550.13
792.549	28456.79
792.882	28320.3
793.214	28412.05
793.546	28321.66
793.879	28111.04
794.211	27974.77
794.543	28033.75
794.875	27875.11
795.207	27941.78
795.539	27826.75
795.871	27729.13
796.203	27513.99
796.535	27288.46
796.867	27263.38
797.198	27245.75
797.53	27312.64
797.862	27068.13
798.193	27176.15
798.525	26920.11
798.856	26957.17
799.188	26565.77
799.519	26458.43
799.85	26320.81
800.182	26368.94
800.513	26429.5
800.844	26117.42
801.175	26218.21
801.506	26179.11
801.837	25952.91
802.168	26002.62
802.499	25853.02
802.83	25694.38
803.161	25553.37
803.491	25644.89
803.822	25496.87
804.153	25408.06
804.483	25167.62
804.814	25091.23
805.145	25190.89
805.475	24982.99
805.805	24932.14
806.136	24872.48
806.466	24869.32
806.796	24774.86
807.126	24638.59
807.457	24453.51
807.787	24583.9
808.117	24379.61
808.447	24334.64
808.777	24298.26
809.107	24235.89
809.436	24146.4
809.766	24201.76
810.096	24018.94
810.426	23940.3
810.755	23897.59
811.085	23907.31
811.414	23895.78
811.744	23698.05
812.073	23613.31
812.403	23614.66
812.732	23456.02
813.061	23475.68
813.39	23352.52
813.719	23265.29
814.049	23397.94
814.378	23114.79
814.707	23192.3
815.036	23142.36
815.365	23058.52
815.693	22701.92
816.022	22785.98
816.351	22725.42
816.68	22737.85
817.008	22694.46
817.337	22590.73
817.665	22518.87
817.994	22704.63
818.322	22588.93
818.651	22479.78
818.979	22419.66
819.307	22482.94
819.636	22338.99
819.964	22291.31
820.292	22300.35
820.62	22183.06
820.948	22194.36
821.276	22256.73
821.604	22228.26
821.932	22205.89
822.259	22267.35
822.587	22179.67
822.915	22172.21
823.243	22245.66
823.57	22093.12
823.898	22063.06
824.225	22106.45
824.553	22069.62
824.88	22079.79
825.207	22194.13
825.535	22149.16
825.862	22140.35
826.189	22087.47
826.516	22149.84
826.843	22224.87
827.17	22107.58
827.497	22171.76
827.824	22121.14
828.151	22188.26
828.478	22068.49
828.805	22124.31
829.131	22075.72
829.458	22011.09
829.785	21927.02
830.111	21988.94
830.438	22046.57
830.764	22087.47
831.09	22030.97
831.417	21923.63
831.743	21920.47
832.069	21932.67
832.395	21862.62
832.722	21869.4
833.048	21830.08
833.374	21763.18
833.7	21663.53
834.026	21849.96
834.351	21690.64
834.677	21746.24
835.003	21747.14
835.329	21808.16
835.654	21684.77
835.98	21562.51
836.306	21652
836.631	21525.45
836.956	21591.66
837.282	21529.97
837.607	21401.84
837.932	21431.89
838.258	21405.23
838.583	21299.92
838.908	21259.02
839.233	21239.13
839.558	21177.44
839.883	21192.35
840.208	21114.61
840.533	21116.87
840.858	21169.08
841.182	21046.82
841.507	20993.26
841.832	20953.71
842.156	20921.85
842.481	20884.11
842.805	20828.97
843.13	20797.56
843.454	20821.97
843.778	20685.47
844.103	20595.98
844.427	20544.23
844.751	20676.43
845.075	20519.6
845.399	20559.15
845.723	20437.8
846.047	20382.2
846.371	20289.55
846.695	20200.29
847.019	19959.16
847.343	20007.52
847.666	19830.58
847.99	19850.24
848.313	19849.56
848.637	19729.57
848.96	19749.9
849.284	19626.07
849.607	19426.75
849.931	19504.71
850.254	19410.7
850.577	19286.64
850.9	19207.55
851.223	19128.23
851.546	19029.92
851.869	18923.94
852.192	19045.06
852.515	18848.91
852.838	18784.28
853.161	18802.36
853.483	18791.29
853.806	18647.56
854.129	18585.42
854.451	18460.22
854.774	18400.11
855.096	18350.85
855.419	18265.65
855.741	18302.26
856.063	18235.14
856.385	18211.87
856.708	18119.89
857.03	18106.11
857.352	17964.19
857.674	17948.14
857.996	17927.58
858.318	17848.71
858.64	17788.15
858.961	17768.04
859.283	17818.88
859.605	17634.71
859.926	17709.05
860.248	17661.6
860.57	17582.28
860.891	17482.85
861.212	17452.79
861.534	17328.27
861.855	17384.77
862.176	17387.71
862.498	17354.94
862.819	17375.28
863.14	17229.52
863.461	17203.76
863.782	17222.97
864.103	17064.33
864.424	16986.36
864.745	17098.9
865.065	17019.81
865.386	16872.69
865.707	16907.27
866.027	17114.72
866.348	16864.33
866.668	16988.85
866.989	16850.09
867.309	16718.35
867.63	16812.81
867.95	16752.47
868.27	16604
868.59	16709.31
868.91	16724.67
869.23	16651
869.55	16625.24
869.87	16672.7
870.19	16580.95
870.51	16496.2
870.83	16568.29
871.15	16367.39
871.469	16476.54
871.789	16477.67
872.109	16485.81
872.428	16321.75
872.748	16390.67
873.067	16305.25
873.386	16443.32
873.706	16349.32
874.025	16285.14
874.344	16224.8
874.663	16188.87
874.982	16239.26
875.301	16230.22
875.62	16160.17
875.939	16125.59
876.258	16187.74
876.577	16052.15
876.896	16020.06
877.214	16036.78
877.533	16020.74
877.852	15963.56
878.17	16018.03
878.489	15992.26
878.807	15960.17
879.125	15964.92
879.444	15880.18
879.762	15940.29
880.08	15920.4
880.398	15817.13
880.716	15864.36
881.034	15820.97
881.352	15788.88
881.67	15823.45
881.988	15754.53
882.306	15664.81
882.624	15711.59
882.941	15616.68
883.259	15639.5
883.577	15549.56
883.894	15521.32
884.212	15463.24
884.529	15570.13
884.846	15469.56
885.164	15436.8
885.481	15409.91
885.798	15478.38
886.115	15341.88
886.432	15314.99
886.75	15266.63
887.067	15198.61
887.383	15150.25
887.7	15223.24
888.017	15071.84
888.334	15076.13
888.651	15074.32
888.967	15017.6
889.284	15026.41
889.6	14952.29
889.917	14856.7
890.233	14856.7
890.55	14867.77
890.866	14849.47
891.182	14828.68
891.498	14713.65
891.815	14737.61
892.131	14658.51
892.447	14712.3
892.763	14602.92
893.079	14502.81
893.395	14477.05
893.71	14464.17
894.026	14453.09
894.342	14263.95
894.657	14341.91
894.973	14278.41
895.289	14202.71
895.604	14181.69
895.92	14136.72
896.235	14063.05
896.55	14150.28
896.865	14063.5
897.181	14009.04
897.496	13917.52
897.811	13878.65
898.126	13816.73
898.441	13749.84
898.756	13686.79
899.071	13692.21
899.386	13615.15
899.7	13531.08
900.015	13543.06
900.33	13421.94
900.644	13422.16
900.959	13488.6
901.273	13350.98
901.588	13335.61
901.902	13196.86
902.216	13254.26
902.531	13179.68
902.845	13153.92
903.159	13098.1
903.473	13025.56
903.787	12977.43
904.101	12901.72
904.415	12864.44
904.729	12772.69
905.042	12677.55
905.356	12750.09
905.67	12758.45
905.984	12692.91
906.297	12690.43
906.611	12525.69
906.924	12592.35
907.237	12498.57
907.551	12426.48
907.864	12311
908.177	12331.57
908.491	12310.1
908.804	12291.57
909.117	12162.08
909.43	12171.57
909.743	12111.01
910.056	12168.63
910.368	12018.81
910.681	11913.27
910.994	11945.82
911.307	11913.27
911.619	11791.92
911.932	11778.81
912.244	11624.24
912.557	11599.61
912.869	11564.13
913.181	11643.68
913.494	11636.45
913.806	11588.76
914.118	11469.44
914.43	11369.56
914.742	11434.19
915.054	11382.67
915.366	11264.25
915.678	11299.73
915.99	11185.38
916.302	11117.82
916.613	11160.75
916.925	11113.3
917.236	11038.95
917.548	10957.37
917.859	10988.78
918.171	10908.1
918.482	10840.76
918.794	10779.29
919.105	10831.27
919.416	10762.12
919.727	10700.88
920.038	10752.85
920.349	10622.91
920.66	10552.41
920.971	10613.87
921.282	10555.12
921.593	10398.96
921.903	10346.54
922.214	10441.45
922.525	10331.85
922.835	10290.27
923.146	10187.9
923.456	10259.98
923.767	10214.34
924.077	10159.2
924.387	10116.49
924.697	10026.77
925.008	10072.42
925.318	10006.21
925.628	9947.68
925.938	9936.15
926.248	9850.73
926.558	9807.57
926.867	9742.03
927.177	9763.05
927.487	9705.42
927.796	9630.4
928.106	9617.97
928.416	9515.15
928.725	9600.11
929.034	9499.33
929.344	9477.63
929.653	9427.01
929.962	9346.34
930.271	9324.19
930.581	9264.98
930.89	9198.32
931.199	9096.63
931.508	9245.55
931.817	9154.25
932.125	9062.95
932.434	9075.16
932.743	8994.03
933.051	8944.09
933.36	8916.97
933.669	8880.13
933.977	8835.62
934.286	8798.1
934.594	8755.17
934.902	8727.6
935.21	8629.07
935.519	8674.72
935.827	8565.57
936.135	8573.02
936.443	8498.45
936.751	8487.38
937.059	8488.73
937.367	8448.51
937.674	8373.03
937.982	8351.33
938.29	8292.35
938.597	8323.31
938.905	8220.26
939.213	8228.63
939.52	8164.67
939.827	8207.38
940.135	8107.05
940.442	8125.13
940.749	8063.21
941.056	8067.27
941.363	7926.94
941.67	7886.49
941.977	7877.9
942.284	7809.65
942.591	7846.04
942.898	7734.18
943.205	7734.18
943.511	7706.15
943.818	7696.44
944.125	7615.08
944.431	7587.74
944.738	7571.47
945.044	7554.07
945.35	7488.76
945.657	7516.33
945.963	7486.5
946.269	7348.2
946.575	7312.72
946.881	7332.38
947.187	7270.23
947.493	7275.43
947.799	7244.24
948.105	7184.36
948.41	7178.71
948.716	7168.77
949.022	7094.87
949.327	7069.56
949.633	7021.88
949.938	7050.35
950.244	7032.05
950.549	6948.89
950.854	6893.29
951.16	6906.63
951.465	6894.65
951.77	6757.93
952.075	6813.07
952.38	6787.76
952.685	6761.32
952.99	6710.02
953.294	6704.37
953.599	6684.71
953.904	6676.8
954.209	6615.79
954.513	6598.84
954.818	6601.1
955.122	6536.92
955.426	6538.27
955.731	6551.83
956.035	6463.02
956.339	6469.58
956.643	6411.05
956.948	6396.81
957.252	6383.48
957.556	6338.73
957.86	6328.79
958.163	6322.23
958.467	6236.14
958.771	6188.91
959.075	6191.84
959.378	6176.48
959.682	6159.98
959.985	6175.57
960.289	6130.38
960.592	6072.98
960.896	6070.04
961.199	6081.79
961.502	6031.85
961.805	6028.68
962.108	5971.96
962.411	5958.85
962.714	5873.66
963.017	5888.35
963.32	5930.15
963.623	5886.77
963.926	5873.21
964.228	5797.5
964.531	5775.58
964.833	5775.13
965.136	5703.04
965.438	5711.4
965.741	5697.39
966.043	5642.03
966.345	5636.6
966.648	5629.82
966.95	5612.65
967.252	5522.48
967.554	5576.72
967.856	5529.71
968.158	5435.93
968.46	5442.03
968.761	5385.31
969.063	5412.2
969.365	5408.36
969.666	5337.85
969.968	5320.45
970.269	5337.85
970.571	5338.08
970.872	5244.98
971.174	5188.25
971.475	5195.03
971.776	5191.42
972.077	5118.65
972.378	5145.77
972.679	5117.75
972.98	5105.32
973.281	5094.92
973.582	5045.88
973.883	5013.57
974.183	5036.62
974.484	4961.14
974.785	4981.93
975.085	4951.42
975.386	4937.19
975.686	4872.1
975.986	4824.65
976.287	4876.85
976.587	4799.56
976.887	4814.03
977.187	4787.13
977.487	4764.31
977.787	4700.13
978.087	4743.75
978.387	4682.28
978.687	4667.14
978.987	4627.36
979.286	4593.92
979.586	4623.52
979.885	4569.74
980.185	4564.54
980.484	4509.85
980.784	4463.75
981.083	4531.32
981.382	4490.42
981.682	4499.68
981.981	4435.73
982.28	4413.58
982.579	4343.76
982.878	4395.73
983.177	4379.91
983.475	4306.69
983.774	4308.5
984.073	4259.01
984.372	4264.89
984.67	4218.34
984.969	4196.42
985.267	4188.05
985.566	4209.52
985.864	4151.22
986.162	4133.59
986.461	4119.58
986.759	4090.88
987.057	4069.86
987.355	4046.81
987.653	4071.22
987.951	4040.26
988.249	4048.62
988.547	4013.82
988.844	3943.99
989.142	3941.28
989.44	3961.39
989.737	3926.59
990.035	3855.41
990.332	3892.92
990.63	3844.79
990.927	3834.84
991.224	3790.55
991.521	3801.4
991.819	3778.12
992.116	3772.92
992.413	3745.58
992.71	3734.51
993.006	3684.56
993.303	3730.89
993.6	3652.47
993.897	3624
994.193	3648.63
994.49	3617
994.787	3609.54
995.083	3579.71
995.379	3583.78
995.676	3584.45
995.972	3487.96
996.268	3498.13
996.565	3509.2
996.861	3442.08
997.157	3494.29
997.453	3394.18
997.749	3424.01
998.044	3409.77
998.34	3373.39
998.636	3360.05
998.932	3366.15
999.227	3336.32
999.523	3317.34
999.818	3292.94
1000.114	3290.22
1000.409	3263.78
1000.704	3284.12
1001	3231.47
1001.295	3219.94
1001.59	3236.44
1001.885	3164.13
1002.18	3150.57
1002.475	3172.49
1002.77	3160.51
1003.065	3123.45
1003.359	3092.26
1003.654	3107.63
1003.949	3075.54
1004.243	3084.81
1004.538	3033.28
1004.832	3037.35
1005.127	2998.25
1005.421	2986.5
1005.715	2949.22
1006.009	2953.06
1006.304	2920.29
1006.598	2913.96
1006.892	2916.45
1007.186	2860.86
1007.48	2901.76
1007.773	2871.03
1008.067	2844.59
1008.361	2789.22
1008.655	2821.99
1008.948	2815.21
1009.242	2777.02
1009.535	2731.37
1009.829	2745.15
1010.122	2709.22
1010.415	2673.07
1010.708	2718.49
1011.001	2676.46
1011.295	2642.11
1011.588	2640.3
1011.881	2653.4
1012.173	2603.46
1012.466	2595.78
1012.759	2564.82
1013.052	2563.69
1013.344	2557.81
1013.637	2529.11
1013.93	2508.1
1014.222	2512.39
1014.514	2484.14
1014.807	2493.18
1015.099	2433.75
1015.391	2428.1
1015.683	2444.37
1015.976	2432.39
1016.268	2378.38
1016.56	2376.58
1016.851	2346.75
1017.143	2390.13
1017.435	2348.33
1017.727	2303.13
1018.018	2279.86
1018.31	2264.04
1018.602	2256.13
1018.893	2288.67
1019.185	2257.71
1019.476	2214.77
1019.767	2223.81
1020.058	2194.89
1020.35	2169.12
1020.641	2175.68
1020.932	2158.95
1021.223	2120.31
1021.514	2138.84
1021.804	2140.2
1022.095	2058.84
1022.386	2054.32
1022.677	2033.99
1022.967	2036.7
1023.258	2031.5
1023.548	2036.7
1023.839	1991.28
1024.129	1966.42
1024.419	1947.21
1024.709	1949.24
1025	1934.55
1025.29	1901.79
1025.58	1916.93
1025.87	1929.81
1026.16	1875.12
1026.449	1850.94
1026.739	1865.85
1027.029	1840.77
1027.319	1831.73
1027.608	1805.29
1027.898	1775.69
1028.187	1792.41
1028.477	1765.97
1028.766	1720.32
1029.055	1746.54
1029.344	1732.07
1029.634	1708.34
1029.923	1704.5
1030.212	1689.81
1030.501	1668.35
1030.79	1665.63
1031.078	1641.23
1031.367	1625.18
1031.656	1612.53
1031.945	1603.94
1032.233	1603.49
1032.522	1605.07
1032.81	1573.43
1033.099	1563.72
1033.387	1563.94
1033.675	1535.24
1033.963	1532.3
1034.251	1549.48
1034.54	1497.05
1034.828	1493.44
1035.116	1519.88
1035.403	1469.26
1035.691	1478.52
1035.979	1463.83
1036.267	1479.88
1036.554	1457.5
1036.842	1421.35
1037.129	1419.31
1037.417	1393.78
1037.704	1405.53
1037.992	1379.31
1038.279	1365.76
1038.566	1376.83
1038.853	1376.83
1039.14	1376.83
