Data from aluminium_macbook_case_FLMS001491_054.txt Node
Date: Tue Feb 07 10:43:50 GMT 2017
User: dcchb
Spectrometer: FLMS00149
Trigger mode: 0
Integration Time (sec): 2.000000E-2
Scans to average: 10
Electric dark correction enabled: true
Nonlinearity correction enabled: false
Boxcar width: 0
XAxis mode: Wavelengths
Number of Pixels in Spectrum: 2048
>>>>>Begin Spectral Data<<<<<
341.393	-29.67
341.776	-29.67
342.16	-29.67
342.543	-68.32
342.927	-67.19
343.31	-78.03
343.693	-58.37
344.077	-76.68
344.46	-54.53
344.843	-57.92
345.226	-41.2
345.61	-33.74
345.993	-20.18
346.376	11.68
346.759	-2.33
347.142	34.28
347.525	42.19
347.908	75.18
348.291	81.74
348.674	85.58
349.057	92.36
349.44	125.12
349.823	134.16
350.206	183.88
350.588	252.8
350.971	258.23
351.354	269.3
351.737	286.48
352.119	293.26
352.502	338.9
352.884	319.47
353.267	323.99
353.65	330.99
354.032	359.24
354.414	351.33
354.797	389.98
355.179	373.03
355.562	389.3
355.944	393.82
356.326	383.87
356.709	415.74
357.091	417.55
357.473	406.25
357.855	413.93
358.238	425.45
358.62	408.28
359.002	407.83
359.384	432.69
359.766	401.27
360.148	425.45
360.53	429.52
360.912	400.82
361.294	418.9
361.676	446.47
362.057	433.14
362.439	413.03
362.821	426.81
363.203	424.1
363.584	422.74
363.966	428.39
364.348	427.71
364.729	418.45
365.111	429.07
365.493	431.33
365.874	436.3
366.256	426.58
366.637	417.77
367.019	437.66
367.4	450.31
367.781	438.79
368.163	448.05
368.544	424.78
368.925	428.39
369.306	450.54
369.688	460.26
370.069	450.76
370.45	456.64
370.831	465
371.212	471.56
371.593	447.83
371.974	465.68
372.355	459.8
372.736	465.91
373.117	483.31
373.498	449.86
373.879	475.4
374.26	482.4
374.641	446.7
375.021	456.41
375.402	497.09
375.783	514.49
376.163	538.45
376.544	556.75
376.925	529.86
377.305	526.92
377.686	508.62
378.066	536.64
378.447	523.53
378.827	534.38
379.208	532.12
379.588	543.19
379.968	560.59
380.349	594.04
380.729	573.47
381.109	568.5
381.489	625
381.87	592.46
382.25	594.72
382.63	599.69
383.01	614.15
383.39	638.1
383.77	619.35
384.15	595.17
384.53	650.99
384.91	644.88
385.29	643.98
385.67	657.77
386.049	670.42
386.429	682.85
386.809	679.46
387.189	687.82
387.568	663.87
387.948	703.87
388.328	721.27
388.707	726.69
389.087	720.36
389.466	746.8
389.846	748.61
390.225	760.14
390.605	748.84
390.984	766.91
391.363	795.39
391.743	819.34
392.122	819.12
392.501	803.98
392.881	826.35
393.26	839
393.639	857.76
394.018	864.99
394.397	861.15
394.776	887.14
395.155	872.22
395.534	891.43
395.913	910.19
396.292	896.63
396.671	927.36
397.05	938.21
397.429	953.35
397.808	932.56
398.186	935.72
398.565	966.68
398.944	994.48
399.323	989.51
399.701	1009.17
400.08	1012.33
400.458	1041.03
400.837	1030.86
401.215	1045.1
401.594	1043.97
401.972	1085.1
402.351	1116.06
402.729	1107.24
403.107	1135.72
403.486	1132.55
403.864	1139.33
404.242	1181.37
404.62	1147.02
404.999	1189.28
405.377	1187.69
405.755	1215.94
406.133	1216.39
406.511	1239.9
406.889	1278.31
407.267	1284.87
407.645	1303.85
408.023	1306.11
408.401	1338.88
408.779	1342.72
409.156	1374.81
409.534	1369.16
409.912	1448.25
410.29	1452.09
410.667	1490.96
411.045	1486.44
411.422	1498.2
411.8	1529.15
412.178	1544.75
412.555	1545.2
412.933	1565.99
413.31	1641.24
413.687	1682.15
414.065	1658.42
414.442	1669.49
414.819	1688.7
415.197	1731.41
415.574	1733.9
415.951	1778.19
416.328	1792.2
416.705	1805.76
417.082	1852.99
417.46	1849.82
417.837	1886.43
418.214	1862.25
418.591	1900.9
418.967	1924.17
419.344	1964.4
419.721	1975.02
420.098	1960.78
420.475	2018.41
420.852	2036.49
421.228	2063.38
421.605	2069.25
421.982	2128.24
422.358	2167.33
422.735	2162.36
423.111	2160.55
423.488	2210.27
423.864	2226.54
424.241	2256.59
424.617	2328.23
424.994	2324.39
425.37	2335.01
425.746	2360.77
426.123	2415.46
426.499	2432.18
426.875	2457.72
427.251	2502.24
427.627	2564.83
428.003	2553.99
428.379	2607.32
428.756	2666.75
429.132	2655.23
429.507	2711.72
429.883	2716.92
430.259	2781.33
430.635	2846.41
431.011	2856.35
431.387	2956.91
431.763	3014.99
432.138	3038.04
432.514	3087.98
432.89	3061.09
433.265	3172.5
433.641	3183.8
434.016	3217.02
434.392	3299.05
434.767	3344.47
435.143	3334.76
435.518	3376.56
435.894	3430.12
436.269	3492.27
436.644	3549.44
437.02	3551.25
437.395	3588.54
437.77	3663.56
438.145	3697.91
438.52	3768.87
438.895	3810.9
439.271	3804.35
439.646	3900.62
440.021	3951.46
440.395	3922.99
440.77	3926.61
441.145	3997.56
441.52	4051.12
441.895	4073.49
442.27	4144.45
442.645	4144.45
443.019	4204.34
443.394	4212.93
443.769	4296.99
444.143	4196.2
444.518	4301.06
444.892	4316.88
445.267	4387.61
445.641	4452.69
446.016	4417.67
446.39	4486.37
446.764	4525.91
447.139	4519.58
447.513	4610.2
447.887	4626.93
448.262	4666.02
448.636	4692.01
449.01	4757.09
449.384	4787.15
449.758	4889.07
450.132	4880.71
450.506	4915.96
450.88	4931.1
451.254	5020.14
451.628	5052.68
452.002	5108.72
452.376	5166.35
452.75	5189.4
453.123	5246.35
453.497	5361.37
453.871	5402.95
454.244	5495.38
454.618	5509.16
454.992	5611.08
455.365	5649.27
455.739	5833.45
456.112	5863.96
456.486	5916.16
456.859	5996.16
457.232	6144.4
457.606	6134.46
457.979	6154.8
458.352	6354.79
458.725	6387.56
459.099	6529.02
459.472	6592.07
459.845	6655.35
460.218	6727.89
460.591	6738.51
460.964	6837.04
461.337	7001.55
461.71	7087.88
462.083	7186.86
462.456	7206.97
462.829	7263.47
463.201	7415.1
463.574	7484.7
463.947	7622.1
464.32	7750.46
464.692	7856.22
465.065	7881.3
465.438	8044.69
465.81	8146.16
466.183	8190.9
466.555	8435.64
466.928	8430.89
467.3	8462.53
467.672	8654.17
468.045	8876.76
468.417	8927.6
468.789	8946.13
469.161	9115.62
469.534	9309.74
469.906	9428.38
470.278	9497.98
470.65	9592.22
471.022	9867.01
471.394	9971.19
471.766	10116.95
472.138	10205.54
472.51	10482.37
472.882	10590.84
473.253	10694.56
473.625	10929.81
473.997	11135.23
474.369	11217.71
474.74	11364.6
475.112	11722.56
475.484	11807.98
475.855	12039.61
476.227	12119.16
476.598	12478.25
476.97	12618.81
477.341	12944.45
477.713	13076.87
478.084	13208.62
478.455	13642.06
478.827	13694.03
479.198	14155.72
479.569	14106.23
479.94	14560
480.311	14617.85
480.682	14979.42
481.053	15256.7
481.424	15562.91
481.795	15762.68
482.166	15942.79
482.537	16190.01
482.908	16551.81
483.279	16748.64
483.65	17032.25
484.021	17404.44
484.391	17580.26
484.762	17787.48
485.133	17950.42
485.503	18270.18
485.874	18659.1
486.244	18820.23
486.615	19153.55
486.985	19439.64
487.356	19807.54
487.726	19892.29
488.097	20437.36
488.467	20459.28
488.837	20926.38
489.207	21224.46
489.578	21504.45
489.948	21636.87
490.318	22072.12
490.688	22058.33
491.058	22415.61
491.428	22728.82
491.798	22973.11
492.168	23427.79
492.538	23507.56
492.908	23825.74
493.278	23989.36
493.648	24163.14
494.017	24542.79
494.387	24736.68
494.757	25021.87
495.126	25239.49
495.496	25347.29
495.866	25660.5
496.235	25846.71
496.605	26155.17
496.974	26220.71
497.344	26637.2
497.713	26670.64
498.082	26926.23
498.452	27239.67
498.821	27328.25
499.19	27479.43
499.559	27872.19
499.928	28009.59
500.298	28245.29
500.667	28491.84
501.036	28438.73
501.405	28784.94
501.774	28957.13
502.143	28975.21
502.512	29186.73
502.88	29557.57
503.249	29537.01
503.618	29787.17
503.987	29904.23
504.356	30124.11
504.724	30447.72
505.093	30428.73
505.462	30649.97
505.83	30954.37
506.199	31208.15
506.567	31574.24
506.936	31728.81
507.304	32099.42
507.672	32165.19
508.041	32328.34
508.409	32793.42
508.777	32958.61
509.145	33147.76
509.514	33341.88
509.882	33534.19
510.25	33665.94
510.618	33980.96
510.986	34024.57
511.354	34373.26
511.722	34770.31
512.09	34945
512.458	35026.35
512.826	35473.12
513.193	35729.84
513.561	35911.08
513.929	36102.93
514.297	36310.61
514.664	36713.09
515.032	36751.28
515.4	36981.56
515.767	37106.07
516.135	37465.84
516.502	37129.57
516.869	37949.89
517.237	38158.02
517.604	38108.08
517.972	38564.11
518.339	38925.69
518.706	39036.64
519.073	39309.63
519.44	39548.72
519.808	39922.27
520.175	40018.09
520.542	40628.92
520.909	40703.94
521.276	40868.69
521.643	41395.23
522.009	41688.55
522.376	41983.91
522.743	42279.72
523.11	42629.09
523.477	42932.36
523.843	43166.93
524.21	43584.77
524.577	43910.41
524.943	44079.67
525.31	44336.62
525.676	44747.68
526.043	44890.05
526.409	45029.93
526.776	45573.65
527.142	45639.63
527.508	45896.8
527.874	46345.6
528.241	46462.21
528.607	46475.09
528.973	46951.24
529.339	46899.94
529.705	47455.63
530.071	47608.85
530.437	47822.63
530.803	48180.36
531.169	48362.5
531.535	48284.99
531.901	48636.39
532.267	48884.75
532.632	49141.24
532.998	49355.69
533.364	49437.5
533.73	49520.21
534.095	49796.59
534.461	49947.99
534.826	50173.3
535.192	50430.47
535.557	50632.27
535.923	50674.3
536.288	50855.54
536.653	51077.23
537.019	50976.22
537.384	51119.72
537.749	51207.85
538.114	51377.11
538.479	51467.73
538.845	51658.91
539.21	51678.8
539.575	51834.05
539.94	51942.97
540.305	52096.86
540.67	52054.38
541.034	52152.91
541.399	52334.82
541.764	52333.24
542.129	52480.13
542.494	52541.6
542.858	52717.19
543.223	52878.76
543.587	53001.47
543.952	53046.9
544.316	53175.71
544.681	53199.66
545.045	53432.2
545.41	53531.86
545.774	53690.72
546.138	53730.95
546.503	53746.31
546.867	53876.03
547.231	54173.19
547.595	54202.12
547.959	54267.2
548.324	54371.38
548.688	54442.11
549.052	54576.8
549.416	54603.92
549.779	54680.07
550.143	54801.65
550.507	54988.09
550.871	55063.11
551.235	55052.04
551.599	55379.04
551.962	55311.24
552.326	55510.33
552.689	55542.65
553.053	55510.56
553.417	55634.17
553.78	55972.47
554.143	55797.33
554.507	55922.75
554.87	56055.4
555.234	56241.39
555.597	56116.65
555.96	56280.26
556.323	56359.35
556.686	56470.31
557.05	56609.51
557.413	56677.08
557.776	56843.86
558.139	57010.18
558.502	57057.86
558.865	57097.41
559.228	57321.81
559.59	57425.31
559.953	57470.51
560.316	57782.36
560.679	57743.5
561.041	57883.61
561.404	58094.67
561.767	58215.8
562.129	58138.74
562.492	58395.46
562.854	58472.29
563.217	58469.13
563.579	58597.71
563.941	58741.66
564.304	58819.63
564.666	58956.35
565.028	59016.46
565.39	59147.75
565.753	59306.62
566.115	59397.01
566.477	59489.66
566.839	59560.4
567.201	59697.57
567.563	59722.2
567.925	59832.71
568.287	59915.64
568.648	59933.27
569.01	60024.57
569.372	60142.98
569.734	60059.37
570.095	60245.35
570.457	60341.62
570.819	60389.98
571.18	60423.65
571.542	60567.15
571.903	60522.18
572.265	60660.26
572.626	60730.76
572.987	60791.55
573.349	60873.81
573.71	60924.43
574.071	61003.98
574.432	61109.51
574.794	61327.36
575.155	61227.7
575.516	61227.47
575.877	61405.09
576.238	61369.84
576.599	61529.16
576.96	61478.31
577.32	61527.8
577.681	61577.52
578.042	61688.93
578.403	61631.53
578.763	61738.65
579.124	61774.35
579.485	61873.56
579.845	61853.9
580.206	61838.08
580.566	61821.13
580.927	61880.34
581.287	61978.64
581.648	61901.35
582.008	62008.69
582.368	61962.82
582.728	61993.1
583.089	62004.63
583.449	61957.62
583.809	62039.88
584.169	62016.6
584.529	61951.97
584.889	62123.49
585.249	61985.87
585.609	61868.13
585.969	62034.91
586.329	61949.26
586.688	62019.32
587.048	61966.66
587.408	61983.16
587.768	62010.95
588.127	61985.19
588.487	61988.81
588.846	62119.65
589.206	61972.09
589.565	61946.1
589.925	62066.55
590.284	62085.53
590.643	62109.48
591.003	62150.61
591.362	62172.98
591.721	62175.7
592.08	62148.58
592.44	62173.44
592.799	62147
593.158	62188.12
593.517	62193.77
593.876	62246.43
594.235	62161.91
594.593	62201.46
594.952	62257.28
595.311	62157.84
595.67	62271.51
596.029	62351.74
596.387	62346.09
596.746	62335.24
597.104	62279.42
597.463	62253.43
597.822	62456.82
598.18	62343.15
598.538	62354.67
598.897	62443.94
599.255	62274.68
599.613	62583.37
599.972	62412.98
600.33	62431.28
600.688	62359.19
601.046	62434.22
601.404	62550.6
601.762	62466.54
602.12	62552.41
602.478	62526.65
602.836	62525.29
603.194	62404.16
603.552	62476.93
603.91	62398.74
604.268	62550.38
604.625	62439.87
604.983	62615.68
605.341	62493.65
605.698	62659.07
606.056	62724.16
606.413	62655.91
606.771	62735.23
607.128	62761.44
607.485	62662.24
607.843	62610.49
608.2	62796.24
608.557	62908.56
608.914	62798.73
609.272	62898.16
609.629	62984.71
609.986	63058.84
610.343	62938.84
610.7	63114.65
611.057	63069.01
611.414	63118.95
611.771	63100.42
612.127	63146.74
612.484	63161.66
612.841	63171.83
613.198	63149.46
613.554	63143.35
613.911	63191.94
614.267	63190.13
614.624	63177.48
614.98	63191.94
615.337	63191.94
615.693	63191.94
616.05	63191.94
616.406	63191.94
616.762	63191.94
617.118	63191.94
617.475	63191.94
617.831	63191.94
618.187	63191.94
618.543	63183.13
618.899	63191.94
619.255	63191.94
619.611	63191.94
619.967	63191.94
620.323	63191.94
620.678	63191.94
621.034	63191.04
621.39	63191.94
621.746	63191.94
622.101	63191.94
622.457	63191.94
622.812	63191.94
623.168	63191.94
623.523	63191.94
623.879	63191.94
624.234	63191.94
624.589	63191.94
624.945	63191.94
625.3	63191.94
625.655	63191.94
626.01	63191.94
626.365	63191.94
626.72	63191.94
627.075	63191.94
627.43	63191.94
627.785	63191.94
628.14	63191.94
628.495	63191.94
628.85	63191.94
629.205	63191.94
629.559	63191.94
629.914	63191.94
630.269	63191.94
630.623	63191.94
630.978	63189.68
631.332	63191.94
631.687	63191.94
632.041	63191.94
632.396	63191.94
632.75	63178.83
633.104	63191.26
633.459	63159.17
633.813	63153.98
634.167	63138.61
634.521	63095.67
634.875	63082.11
635.229	62972.96
635.583	62916.24
635.937	62938.39
636.291	62885.73
636.645	62906.98
636.999	62820.42
637.352	62851.16
637.706	62677.15
638.06	62834.66
638.413	62718.05
638.767	62631.05
639.121	62728
639.474	62597.83
639.828	62543.6
640.181	62584.95
640.534	62594.44
640.888	62549.92
641.241	62486.65
641.594	62457.95
641.947	62521.22
642.301	62479.87
642.654	62431.96
643.007	62470.15
643.36	62401.9
643.713	62395.35
644.066	62468.34
644.419	62313.55
644.771	62200.33
645.124	61965.98
645.477	61940.22
645.83	61792.43
646.182	61700.68
646.535	61596.95
646.888	61638.08
647.24	61448.26
647.593	61562.83
647.945	61468.37
648.298	61477.41
648.65	61315.83
649.002	61339.56
649.355	61426.11
649.707	61377.98
650.059	61436.96
650.411	61760.79
650.763	61797.63
651.115	61954.68
651.467	61846.89
651.819	61799.89
652.171	61693
652.523	61731.41
652.875	61698.87
653.227	61601.02
653.578	61705.2
653.93	61634.47
654.282	61552.89
654.633	61488.26
654.985	61502.27
655.337	61464.75
655.688	61368.03
656.039	61477.41
656.391	61215.27
656.742	61303.18
657.094	61265.89
657.445	61375.26
657.796	61258.21
658.147	61248.71
658.498	61179.56
658.849	61293.46
659.2	61128.94
659.551	61191.09
659.902	61244.87
660.253	61186.8
660.604	61197.64
660.955	61086.91
661.306	61128.27
661.656	61097.31
662.007	61080.58
662.358	61160.81
662.708	61209.39
663.059	61214.14
663.409	60930.76
663.76	61192.44
664.11	61163.52
664.461	61141.6
664.811	61111.99
665.161	61155.84
665.511	61079.68
665.862	61056.86
666.212	61081.26
666.562	61061.83
666.912	61030.19
667.262	61005.1
667.612	60936.86
667.962	61004.88
668.312	60950.42
668.662	61101.83
669.011	60921.04
669.361	60905.45
669.711	60916.75
670.06	60923.07
670.41	60856.18
670.76	60804.43
671.109	60862.06
671.459	60777.77
671.808	60788.84
672.157	60835.17
672.507	60638.79
672.856	60669.07
673.205	60681.27
673.554	60763.08
673.904	60603.08
674.253	60685.11
674.602	60545.23
674.951	60180.72
675.3	60046.94
675.649	60455.29
675.998	60372.13
676.346	60379.81
676.695	60347.95
677.044	60178.46
677.393	60302.75
677.741	60309.08
678.09	60211.68
678.438	60144.56
678.787	60236.99
679.135	60226.37
679.484	60042.87
679.832	60192.92
680.181	60005.81
680.529	60179.14
680.877	60047.39
681.225	60037.22
681.573	60183.21
681.922	60039.71
682.27	59939.14
682.618	60006.71
682.966	59921.52
683.314	59983.44
683.661	59860.73
684.009	59776.21
684.357	59718.81
684.705	59709.32
685.053	59726.49
685.4	59673.84
685.748	59618.47
686.095	59583.45
686.443	59454.86
686.79	59457.12
687.138	59453.73
687.485	59513.62
687.832	59327.18
688.18	59386.16
688.527	59191.59
688.874	59197.24
689.221	59154.08
689.568	59069.11
689.915	58954.31
690.262	58960.41
690.609	58884.93
690.956	58879.29
691.303	58805.16
691.65	58686.97
691.997	58640.87
692.344	58454.44
692.69	58421.9
693.037	58458.28
693.383	58204.05
693.73	58323.14
694.077	58140.1
694.423	58115.92
694.769	58020.55
695.116	57843.38
695.462	57855.36
695.808	57679.54
696.155	57702.59
696.501	57491.07
696.847	57576.04
697.193	57357.97
697.539	57394.8
697.885	57246.11
698.231	57085.21
698.577	57127.01
698.923	57065.32
699.269	57060.12
699.614	56755.27
699.96	56780.81
700.306	56745.33
700.651	56672.34
700.997	56520.48
701.342	56547.37
701.688	56529.06
702.033	56401.61
702.379	56415.4
702.724	56353.93
703.069	56415.4
703.415	56146.93
703.76	56179.02
704.105	56106.93
704.45	56091.11
704.795	55932.7
705.14	55898.12
705.485	55877.78
705.83	55718.46
706.175	55735.64
706.52	55622.42
706.865	55613.61
707.209	55619.94
707.554	55432.37
707.899	55561.18
708.243	55372.71
708.588	55360.28
708.932	55108.54
709.277	55063.79
709.621	55072.83
709.966	54831.03
710.31	54935.66
710.654	54700.19
710.998	54789.9
711.342	54774.08
711.687	54747.19
712.031	54597.59
712.375	54459.51
712.719	54473.53
713.063	54431.49
713.407	54486.18
713.75	54275.79
714.094	54177.49
714.438	54097.04
714.782	54115.12
715.125	53973.88
715.469	53956.48
715.812	53888.23
716.156	53627.22
716.499	53741.57
716.843	53731.17
717.186	53545.19
717.53	53641.46
717.873	53514.23
718.216	53361.92
718.559	53251.41
718.902	53074.01
719.246	53078.31
719.589	52965.99
719.932	52918.76
720.275	52841.7
720.617	52822.27
720.96	52690.52
721.303	52621.14
721.646	52533.24
721.989	52379.57
722.331	52424.09
722.674	52325.11
723.016	52367.37
723.359	52252.57
723.701	52235.84
724.044	52039.01
724.386	51919.24
724.729	52028.62
725.071	52016.87
725.413	51941.16
725.755	51914.27
726.097	51804.22
726.439	51737.33
726.782	51653.03
727.124	51838.34
727.465	51688.74
727.807	51648.51
728.149	51547.05
728.491	51577.78
728.833	51543.43
729.175	51517.44
729.516	51320.61
729.858	51292.59
730.199	51392.25
730.541	51208.53
730.882	51216.89
731.224	51339.37
731.565	51042.43
731.906	51115.2
732.248	51032.03
732.589	50988.87
732.93	50824.13
733.271	50830.68
733.612	50825.49
733.953	50831.59
734.294	50597.92
734.635	50506.85
734.976	50704.36
735.317	50488.09
735.658	50487.87
735.999	50384.37
736.339	50328.78
736.68	50313.86
737.021	50104.83
737.361	49996.35
737.702	50173.07
738.042	49956.13
738.383	49866.87
738.723	49922.68
739.063	49719.53
739.404	49789.35
739.744	49687.21
740.084	49470.49
740.424	49620.77
740.764	49306.43
741.104	49493.54
741.444	49330.38
741.784	49115.93
742.124	49225.75
742.464	49011.3
742.804	48899.89
743.143	48909.83
743.483	48812.21
743.823	48560.23
744.162	48739.89
744.502	48599.1
744.841	48395.27
745.181	48618.99
745.52	48179.91
745.86	48350.97
746.199	48110.75
746.538	48048.16
746.877	48049.51
747.216	47967.48
747.556	47868.05
747.895	47870.76
748.234	47663.53
748.573	47505.57
748.911	47671.22
749.25	47522.97
749.589	47391
749.928	47411.11
750.267	47469.87
750.605	47308.52
750.944	47245.92
751.283	47178.12
751.621	47206.82
751.96	46939.49
752.298	47030.56
752.636	46949.88
752.975	46798.92
753.313	46595.77
753.651	46788.08
753.989	46643.45
754.327	46588.08
754.666	46287.07
755.004	46475.32
755.342	46391.7
755.679	46284.14
756.017	46036.23
756.355	46256.57
756.693	45989.68
757.031	46028.78
757.368	45735.9
757.706	45711.95
758.044	45457.94
758.381	45608.45
758.719	45239.19
759.056	45316.7
759.394	45176.14
759.731	44995.13
760.068	44926.88
760.405	44803.72
760.743	44450.29
761.08	44561.47
761.417	44352.21
761.754	44183.63
762.091	44225.89
762.428	44017.3
762.765	43809.62
763.102	43998.55
763.438	43721.94
763.775	43460.03
764.112	43470.2
764.449	43407.38
764.785	43092.58
765.122	42936.43
765.458	42722.87
765.795	42701.63
766.131	42631.58
766.467	42399.49
766.804	42242.66
767.14	41959.96
767.476	41922.67
767.812	41717.25
768.148	41797.47
768.485	41435
768.821	41265.74
769.157	41059.19
769.492	40977.61
769.828	40792.08
770.164	40432.54
770.5	40538.98
770.836	40447.45
771.171	40194.35
771.507	40051.31
771.842	39640.02
772.178	39741.26
772.513	39557.76
772.849	39457.2
773.184	39184.89
773.519	39247.94
773.855	38936.08
774.19	38714.62
774.525	38638.91
774.86	38708.52
775.195	38685.69
775.53	38452.93
775.865	38130.9
776.2	37923
776.535	37623.12
776.87	37669
777.205	37660.41
777.539	37403.92
777.874	37613.63
778.209	37383.58
778.543	37367.53
778.878	37127.09
779.212	37156.69
779.547	36843.48
779.881	37047.09
780.215	36739.08
780.55	36775.91
780.884	36439.42
781.218	36657.95
781.552	36504.05
781.886	36290.27
782.22	36059.77
782.554	36187.9
782.888	35763.28
783.222	35668.14
783.556	35577.52
783.889	35506.34
784.223	35119.01
784.557	35198.1
784.89	35326.91
785.224	34905.9
785.557	34885.57
785.891	34816.87
786.224	34660.49
786.558	34599.25
786.891	34271.8
787.224	34158.58
787.557	34093.95
787.891	34039.49
788.224	33811.7
788.557	33824.8
788.89	33594.75
789.223	33641.53
789.556	33234.99
789.888	33292.84
790.221	33214.42
790.554	32861.66
790.887	32871.16
791.219	32826.41
791.552	32664.38
791.884	32390.72
792.217	32331.73
792.549	32228.91
792.882	31956.38
793.214	31769.72
793.546	32046.54
793.879	31658.98
794.211	31406.11
794.543	31605.2
794.875	31435.94
795.207	31349.16
795.539	31190.3
795.871	31024.42
796.203	30866.01
796.535	30638.9
796.867	30564.1
797.198	30395.97
797.53	30428.06
797.862	30152.36
798.193	30246.82
798.525	29994.85
798.856	30081.62
799.188	29604.57
799.519	29552.82
799.85	29500.4
800.182	29448.65
800.513	29323.68
800.844	29110.8
801.175	29331.59
801.506	29177.69
801.837	29087.75
802.168	28790.81
802.499	28907.64
802.83	28648.22
803.161	28569.35
803.491	28612.51
803.822	28506.3
804.153	28430.14
804.483	28051.17
804.814	28086.2
805.145	28037.16
805.475	28122.58
805.805	27952.41
806.136	27984.96
806.466	27990.61
806.796	27939.08
807.126	27608.69
807.457	27713.1
807.787	27681.46
808.117	27599.2
808.447	27514.23
808.777	27634.91
809.107	27449.15
809.436	27429.49
809.766	27372.09
810.096	27256.84
810.426	27207.35
810.755	27148.14
811.085	27115.15
811.414	27111.98
811.744	26909.05
812.073	26872.67
812.403	26920.13
812.732	26791.54
813.061	26657.31
813.39	26666.12
813.719	26561.04
814.049	26554.94
814.378	26498.44
814.707	26416.41
815.036	26250.09
815.365	26162.86
815.693	26065.68
816.022	26055.74
816.351	26027.27
816.68	25766.26
817.008	25868.85
817.337	25714.28
817.665	25599.48
817.994	25705.69
818.322	25733.26
818.651	25547.73
818.979	25423.44
819.307	25564.68
819.636	25327.4
819.964	25259.83
820.292	25369.88
820.62	25174.86
820.948	25226.38
821.276	25101.42
821.604	25133.73
821.932	25210.11
822.259	25115.43
822.587	25145.26
822.915	25112.49
823.243	25071.36
823.57	24918.14
823.898	24919.73
824.225	24875.43
824.553	24795.44
824.88	24900.52
825.207	24983.68
825.535	24871.59
825.862	24771.93
826.189	24738.04
826.516	24829.56
826.843	24783.68
827.17	24764.93
827.497	24744.59
827.824	24821.2
828.151	24773.06
828.478	24697.59
828.805	24741.88
829.131	24625.72
829.458	24599.51
829.785	24449.23
830.111	24571.03
830.438	24713.18
830.764	24401.77
831.09	24587.98
831.417	24496.23
831.743	24588.44
832.069	24518.38
832.395	24474.54
832.722	24498.04
833.048	24344.83
833.374	24399.51
833.7	24218.05
834.026	24329.23
834.351	24360.64
834.677	24269.57
835.003	24238.84
835.329	24255.56
835.654	24310.7
835.98	24214.66
836.306	24255.56
836.631	24168.33
836.956	24219.18
837.282	24150.25
837.607	24173.98
837.932	24035
838.258	24011.73
838.583	24129.01
838.908	23875.46
839.233	24026.87
839.558	23901.22
839.883	23863.71
840.208	24025.96
840.533	23996.59
840.858	23942.58
841.182	23970.15
841.507	23878.17
841.832	23762.02
842.156	23742.13
842.481	23797.04
842.805	23780.55
843.13	23642.02
843.454	23737.61
843.778	23711.85
844.103	23646.31
844.427	23467.33
844.751	23545.3
845.075	23420.56
845.399	23407.45
845.723	23321.58
846.047	23364.74
846.371	23176.5
846.695	23156.38
847.019	23031.19
847.343	22896.05
847.666	22757.75
847.99	22673.91
848.313	22648.6
848.637	22568.38
848.96	22481.37
849.284	22436.18
849.607	22207.93
849.931	22251.55
850.254	22191.21
850.577	22002.29
850.9	21817.21
851.223	21774.95
851.546	21799.58
851.869	21598.23
852.192	21706.25
852.515	21470.33
852.838	21297
853.161	21332.02
853.483	21221.97
853.806	21082.99
854.129	21067.4
854.451	20957.8
854.774	20912.37
855.096	20707.86
855.419	20732.72
855.741	20742.43
856.063	20529.11
856.385	20527.3
856.708	20398.26
857.03	20344.93
857.352	20425.61
857.674	20291.83
857.996	20210.92
858.318	20097.48
858.64	20045.73
858.961	20045.28
859.283	20008.89
859.605	19770.48
859.926	19817.04
860.248	19744.95
860.57	19753.76
860.891	19720.31
861.212	19586.08
861.534	19418.4
861.855	19468.57
862.176	19384.96
862.498	19472.41
862.819	19231.06
863.14	19229.48
863.461	19288.69
863.782	19111.52
864.103	19179.76
864.424	18993.33
864.745	19106.55
865.065	19054.57
865.386	18881.69
865.707	19012.54
866.027	18997.62
866.348	18836.04
866.668	18973.89
866.989	18759.21
867.309	18681.47
867.63	18749.72
867.95	18664.3
868.27	18627.46
868.59	18770.06
868.91	18628.14
869.23	18656.61
869.55	18605.77
869.87	18629.72
870.19	18424.3
870.51	18505.43
870.83	18575.49
871.15	18439.22
871.469	18478.77
871.789	18559.89
872.109	18485.77
872.428	18404.87
872.748	18500.69
873.067	18492.55
873.386	18595.15
873.706	18412.33
874.025	18391.54
874.344	18426.11
874.663	18531.42
874.982	18446.45
875.301	18418.2
875.62	18356.96
875.939	18315.83
876.258	18353.57
876.577	18272.67
876.896	18273.57
877.214	18256.17
877.533	18348.37
877.852	18258.43
878.17	18304.53
878.489	18336.17
878.807	18210.3
879.125	18256.62
879.444	18201.71
879.762	18136.85
880.08	18275.61
880.398	18139.57
880.716	18134.37
881.034	17949.97
881.352	18122.84
881.67	18011.43
881.988	18061.15
882.306	18072.45
882.624	17954.26
882.941	17810.08
883.259	17772.12
883.577	17836.07
883.894	17736.19
884.212	17807.6
884.529	17698.67
884.846	17695.06
885.164	17652.8
885.481	17501.39
885.798	17569.86
886.115	17523.99
886.432	17371.45
886.75	17383.65
887.067	17444.89
887.383	17306.37
887.7	17253.94
888.017	17275.63
888.334	17305.69
888.651	17118.58
888.967	17088.75
889.284	16977.34
889.6	16989.99
889.917	16815.98
890.233	16919.48
890.55	16874.29
890.866	16928.52
891.182	16816.44
891.498	16688.76
891.815	16727.63
892.131	16569.66
892.447	16500.51
892.763	16351.14
893.079	16460.51
893.395	16321.53
893.71	16206.96
894.026	16155.44
894.342	16193.4
894.657	16110.69
894.973	16049.45
895.289	15966.29
895.604	15930.13
895.92	15753.87
896.235	15762.9
896.55	15771.94
896.865	15722.68
897.181	15619.41
897.496	15595
897.811	15489.69
898.126	15368.11
898.441	15348
898.756	15304.61
899.071	15302.13
899.386	15314.55
899.7	15170.6
900.015	15019.42
900.33	14885.41
900.644	14901.68
900.959	14997.05
901.273	14910.95
901.588	14852.87
901.902	14698.53
902.216	14773.1
902.531	14670.5
902.845	14613.78
903.159	14537.85
903.473	14450.17
903.787	14431.64
904.101	14318.42
904.415	14519.1
904.729	14309.38
905.042	14254.47
905.356	14284.07
905.67	14137.18
905.984	14155.94
906.297	14147.81
906.611	13954.59
906.924	14035.94
907.237	14037.75
907.551	13930.86
907.864	13829.4
908.177	13899.9
908.491	13781.26
908.804	13778.32
909.117	13674.15
909.43	13652.68
909.743	13501.72
910.056	13586.69
910.368	13477.77
910.681	13383.98
910.994	13398.67
911.307	13507.14
911.619	13283.42
911.932	13357.09
912.244	13285.46
912.557	13267.38
912.869	13165.23
913.181	13142.86
913.494	13162.07
913.806	13110.77
914.118	12999.59
914.43	12957.1
914.742	12957.33
915.054	12863.77
915.366	12876.88
915.678	12847.5
915.99	12771.34
916.302	12686.83
916.613	12678.01
916.925	12694.96
917.236	12523.89
917.548	12467.62
917.859	12592.14
918.171	12508.08
918.482	12324.8
918.794	12356.67
919.105	12395.76
919.416	12256.1
919.727	12250.68
920.038	12167.52
920.349	12143.79
920.66	12094.3
920.971	12087.3
921.282	12046.84
921.593	11947.41
921.903	11927.98
922.214	11847.98
922.525	11779.51
922.835	11735.89
923.146	11642.79
923.456	11663.35
923.767	11617.25
924.077	11649.57
924.387	11513.98
924.697	11466.52
925.008	11367.31
925.318	11390.82
925.628	11339.74
925.938	11325.96
926.248	11149.92
926.558	11123.48
926.867	11090.26
927.177	10985.63
927.487	11013.43
927.796	10875.8
928.106	10880.77
928.416	10817.72
928.725	10769.14
929.034	10777.95
929.344	10746.09
929.653	10641.01
929.962	10598.07
930.271	10512.2
930.581	10432.88
930.89	10461.12
931.199	10360.56
931.508	10323.5
931.817	10285.53
932.125	10207.34
932.434	10245.76
932.743	10109.72
933.051	10022.26
933.36	10040.57
933.669	9947.92
933.977	9922.61
934.286	9894.13
934.594	9834.93
934.902	9734.81
935.21	9756.51
935.519	9696.4
935.827	9663.63
936.135	9594.48
936.443	9499.57
936.751	9512.45
937.059	9501.83
937.367	9421.38
937.674	9390.87
937.982	9306.13
938.29	9277.43
938.597	9291.66
938.905	9091.22
939.213	9184.32
939.52	9097.54
939.827	9049.86
940.135	9005.34
940.442	8987.72
940.749	8995.63
941.056	8941.62
941.363	8893.25
941.67	8830.21
941.977	8760.15
942.284	8749.3
942.591	8732.58
942.898	8687.38
943.205	8684.67
943.511	8558.12
943.818	8574.17
944.125	8508.18
944.431	8548.41
944.738	8411.46
945.044	8413.49
945.35	8381.4
945.657	8379.6
945.963	8321.52
946.269	8277
946.575	8281.97
946.881	8237
947.187	8194.06
947.493	8179.6
947.799	8112.26
948.105	8130.79
948.41	8034.07
948.716	8052.82
949.022	8038.36
949.327	7973.51
949.633	7925.14
949.938	7930.57
950.244	7928.76
950.549	7934.86
950.854	7789.78
951.16	7825.94
951.465	7787.75
951.77	7750.01
952.075	7792.04
952.38	7656.9
952.685	7642.44
952.99	7673.85
953.294	7640.86
953.599	7535.55
953.904	7549.79
954.209	7545.27
954.513	7563.57
954.818	7524.7
955.122	7457.81
955.426	7372.16
955.731	7327.87
956.035	7390.02
956.339	7274.99
956.643	7328.32
956.948	7250.81
957.252	7212.62
957.556	7213.98
957.86	7220.3
958.163	7188.67
958.467	7107.99
958.771	7141.44
959.075	7101.89
959.378	7048.78
959.682	7041.78
959.985	6950.93
960.289	6923.36
960.592	6903.48
960.896	6873.19
961.199	6863.03
961.502	6864.61
961.805	6840.2
962.108	6728.57
962.411	6678.4
962.714	6685.86
963.017	6701.22
963.32	6660.55
963.623	6607.67
963.926	6652.41
964.228	6565.18
964.531	6552.3
964.833	6520.89
965.136	6481.34
965.438	6439.31
965.741	6447.67
966.043	6404.28
966.345	6355.24
966.648	6339.65
966.95	6343.94
967.252	6198.64
967.554	6242.93
967.856	6240.44
968.158	6124.51
968.46	6148.92
968.761	6114.34
969.063	6091.97
969.365	6061.46
969.666	6027.12
969.968	6000.9
970.269	5984.86
970.571	5920.23
970.872	5917.06
971.174	5917.29
971.475	5873.22
971.776	5808.82
972.077	5784.64
972.378	5727.69
972.679	5736.95
972.98	5761.13
973.281	5677.07
973.582	5669.16
973.883	5639.33
974.183	5606.56
974.484	5592.1
974.785	5570.4
975.085	5494.02
975.386	5486.34
975.686	5460.12
975.986	5483.4
976.287	5380.58
976.587	5323.86
976.887	5336.06
977.187	5330.18
977.487	5302.61
977.787	5287.25
978.087	5230.98
978.387	5202.73
978.687	5215.84
978.987	5134.26
979.286	5132.9
979.586	5104.43
979.885	5112.56
980.185	5060.59
980.484	5039.57
980.784	5025.79
981.083	4986.69
981.382	4960.93
981.682	4974.71
981.981	4969.29
982.28	4865.79
982.579	4872.34
982.878	4862.63
983.177	4820.82
983.475	4777.66
983.774	4737.21
984.073	4670.99
984.372	4704.89
984.67	4699.24
984.969	4681.84
985.267	4682.29
985.566	4629.86
985.864	4682.07
986.162	4619.24
986.461	4634.38
986.759	4551.67
987.057	4550.54
987.355	4545.35
987.653	4548.28
987.951	4468.96
988.249	4473.03
988.547	4456.08
988.844	4428.51
989.142	4406.37
989.44	4379.93
989.737	4366.59
990.035	4340.83
990.332	4320.49
990.63	4348.97
990.927	4256.99
991.224	4238.91
991.521	4232.59
991.819	4233.94
992.116	4244.56
992.413	4173.6
992.71	4190.78
993.006	4134.96
993.303	4146.49
993.6	4122.76
993.897	4061.74
994.193	4053.83
994.49	4094.06
994.787	4035.53
995.083	4031.46
995.379	4046.15
995.676	4001.41
995.972	3992.82
996.268	3977.23
996.565	3942.42
996.861	3946.27
997.157	3930.67
997.453	3837.79
997.749	3901.52
998.044	3851.35
998.34	3866.04
998.636	3828.3
998.932	3765.48
999.227	3741.53
999.523	3751.47
999.818	3765.71
1000.114	3706.27
1000.409	3711.47
1000.704	3667.18
1001	3665.6
1001.295	3651.81
1001.59	3600.96
1001.885	3601.19
1002.18	3578.37
1002.475	3556.67
1002.77	3566.62
1003.065	3498.37
1003.359	3490.01
1003.654	3489.1
1003.949	3473.06
1004.243	3464.25
1004.538	3385.38
1004.832	3423.34
1005.127	3367.07
1005.421	3360.29
1005.715	3368.65
1006.009	3343.12
1006.304	3320.29
1006.598	3296.11
1006.892	3345.15
1007.186	3248.66
1007.48	3223.35
1007.773	3269
1008.067	3196
1008.361	3170.24
1008.655	3144.93
1008.948	3145.61
1009.242	3145.84
1009.535	3122.56
1009.829	3078.04
1010.122	3085.72
1010.415	3049.79
1010.708	3042.11
1011.001	2969.57
1011.295	2981.55
1011.588	2979.74
1011.881	2972.73
1012.173	2920.53
1012.466	2958.5
1012.759	2908.55
1013.052	2879.63
1013.344	2835.79
1013.637	2819.06
1013.93	2842.34
1014.222	2797.37
1014.514	2758.5
1014.807	2756.69
1015.099	2735
1015.391	2711.04
1015.683	2686.86
1015.976	2656.36
1016.268	2671.27
1016.56	2642.57
1016.851	2652.06
1017.143	2629.24
1017.435	2608.67
1017.727	2570.71
1018.018	2529.13
1018.31	2530.03
1018.602	2482.12
1018.893	2502.01
1019.185	2476.7
1019.476	2487.77
1019.767	2441.67
1020.058	2451.84
1020.35	2393.76
1020.641	2379.08
1020.932	2348.79
1021.223	2353.09
1021.514	2320.32
1021.804	2303.6
1022.095	2303.37
1022.386	2269.25
1022.677	2240.77
1022.967	2254.33
1023.258	2223.83
1023.548	2195.58
1023.839	2193.32
1024.129	2186.09
1024.419	2197.16
1024.709	2161.68
1025	2145.86
1025.29	2104.73
1025.58	2078.97
1025.87	2050.27
1026.16	2070.16
1026.449	2039.65
1026.739	2026.99
1027.029	2047.56
1027.319	2026.09
1027.608	1994
1027.898	1957.84
1028.187	1957.39
1028.477	1968.24
1028.766	1983.15
1029.055	1925.75
1029.344	1936.38
1029.634	1850.95
1029.923	1866.1
1030.212	1854.34
1030.501	1851.41
1030.79	1821.58
1031.078	1805.98
1031.367	1811.86
1031.656	1765.53
1031.945	1753.1
1032.233	1761.01
1032.522	1759.66
1032.81	1741.35
1033.099	1715.36
1033.387	1704.74
1033.675	1690.73
1033.963	1691.18
1034.251	1680.56
1034.54	1661.35
1034.828	1631.52
1035.116	1628.36
1035.403	1591.75
1035.691	1612.32
1035.979	1654.35
1036.267	1587.23
1036.554	1592.88
1036.842	1580
1037.129	1524.18
1037.417	1576.84
1037.704	1514.69
1037.992	1542.49
1038.279	1528.48
1038.566	1529.61
1038.853	1529.61
1039.14	1529.61
