Data from aluminium_surface_pro_back_FLMS001491_00095.txt Node
Date: Wed Feb 08 15:34:47 GMT 2017
User: dcchb
Spectrometer: FLMS00149
Trigger mode: 0
Integration Time (sec): 2.000000E-2
Scans to average: 10
Electric dark correction enabled: true
Nonlinearity correction enabled: false
Boxcar width: 0
XAxis mode: Wavelengths
Number of Pixels in Spectrum: 2048
>>>>>Begin Spectral Data<<<<<
341.393	-8.5
341.776	-8.5
342.16	-8.5
342.543	-86.24
342.927	-69.29
343.31	-82.85
343.693	-78.78
344.077	-64.77
344.46	-51.67
344.843	-49.18
345.226	-30.65
345.61	-18.9
345.993	-10.76
346.376	-10.76
346.759	-17.99
347.142	24.04
347.525	41.21
347.908	84.83
348.291	92.96
348.674	76.69
349.057	96.58
349.44	127.54
349.823	128.44
350.206	162.57
350.588	208.67
350.971	238.72
351.354	251.83
351.737	243.47
352.119	267.42
352.502	298.83
352.884	291.6
353.267	313.07
353.65	313.52
354.032	338.38
354.414	326.4
354.797	346.74
355.179	339.51
355.562	338.15
355.944	364.37
356.326	335.67
356.709	357.36
357.091	367.31
357.473	358.49
357.855	373.18
358.238	374.09
358.62	379.74
359.002	370.92
359.384	376.57
359.766	374.09
360.148	384.71
360.53	360.53
360.912	375.22
361.294	353.3
361.676	384.26
362.057	373.63
362.439	356.01
362.821	349.23
363.203	361.88
363.584	366.4
363.966	372.96
364.348	361.21
364.729	370.47
365.111	370.47
365.493	365.5
365.874	367.31
366.256	369.79
366.637	337.25
367.019	358.95
367.4	367.98
367.781	361.88
368.163	373.18
368.544	367.76
368.925	367.76
369.306	384.48
369.688	375.44
370.069	369.11
370.45	360.08
370.831	378.38
371.212	379.06
371.593	375.67
371.974	370.24
372.355	376.8
372.736	379.96
373.117	398.27
373.498	375.89
373.879	365.95
374.26	383.35
374.641	373.63
375.021	376.35
375.402	406.63
375.783	406.4
376.163	416.57
376.544	424.25
376.925	406.63
377.305	403.24
377.686	420.41
378.066	409.11
378.447	396.46
378.827	410.47
379.208	405.72
379.588	410.92
379.968	420.19
380.349	454.76
380.729	422.67
381.109	441.88
381.489	453.41
381.87	433.52
382.25	438.94
382.63	441.2
383.01	434.88
383.39	459.73
383.77	465.84
384.15	451.37
384.53	462.45
384.91	476
385.29	472.61
385.67	495.66
386.049	481.2
386.429	493.41
386.809	494.08
387.189	469.68
387.568	505.16
387.948	506.74
388.328	525.04
388.707	498.38
389.087	544.7
389.466	533.4
389.846	518.49
390.225	538.38
390.605	537.25
390.984	541.54
391.363	556.91
391.743	570.92
392.122	555.78
392.501	570.69
392.881	603.46
393.26	576.11
393.639	595.78
394.018	592.39
394.397	619.96
394.776	593.06
395.155	608.66
395.534	605.49
395.913	622.44
396.292	645.04
396.671	663.34
397.05	650.92
397.429	645.94
397.808	659.73
398.186	663.34
398.565	689.78
398.944	709.44
399.323	704.25
399.701	673.97
400.08	692.72
400.458	688.2
400.837	700.86
401.215	730.91
401.594	734.08
401.972	732.04
402.351	727.52
402.729	748.54
403.107	782.44
403.486	767.97
403.864	785.15
404.242	790.12
404.62	799.84
404.999	805.04
405.377	797.35
405.755	817.69
406.133	855.2
406.511	857.24
406.889	860.63
407.267	871.47
407.645	883.9
408.023	893.17
408.401	902.21
408.779	895.65
409.156	920.06
409.534	967.06
409.912	929.1
410.29	965.03
410.667	981.08
411.045	1007.52
411.422	1011.81
411.8	990.57
412.178	1025.59
412.555	1026.05
412.933	1072.82
413.31	1067.63
413.687	1080.28
414.065	1078.7
414.442	1101.52
414.819	1113.05
415.197	1111.02
415.574	1152.14
415.951	1155.31
416.328	1159.38
416.705	1183.33
417.082	1201.86
417.46	1202.54
417.837	1201.18
418.214	1207.74
418.591	1204.8
418.967	1252.03
419.344	1257.23
419.721	1269.88
420.098	1296.77
420.475	1312.59
420.852	1286.15
421.228	1303.1
421.605	1334.74
421.982	1363.66
422.358	1362.76
422.735	1388.97
423.111	1396.43
423.488	1382.42
423.864	1420.16
424.241	1421.29
424.617	1437.34
424.994	1483.89
425.37	1473.94
425.746	1504.45
426.123	1502.64
426.499	1525.02
426.875	1544.45
427.251	1571.79
427.627	1590.33
428.003	1595.52
428.379	1648.4
428.756	1649.98
429.132	1672.36
429.507	1731.56
429.883	1693.15
430.259	1751.68
430.635	1779.02
431.011	1815.63
431.387	1826.7
431.763	1847.95
432.138	1845.46
432.514	1873.93
432.89	1908.96
433.265	1937.21
433.641	1955.51
434.016	1956.42
434.392	2016.98
434.767	2039.81
435.143	2045
435.518	2058.34
435.894	2088.84
436.269	2097.66
436.644	2150.31
437.02	2203.87
437.395	2197.09
437.77	2242.74
438.145	2242.96
438.52	2263.3
438.895	2302.4
439.271	2306.92
439.646	2351.66
440.021	2340.14
440.395	2393.69
440.77	2374.49
441.145	2381.94
441.52	2455.61
441.895	2458.1
442.27	2499
442.645	2450.87
443.019	2521.83
443.394	2521.6
443.769	2525.89
444.143	2494.71
444.518	2562.05
444.892	2562.5
445.267	2580.13
445.641	2646.34
446.016	2648.38
446.39	2641.6
446.764	2687.25
447.139	2662.61
447.513	2709.84
447.887	2734.7
448.262	2772.22
448.636	2777.86
449.01	2773.12
449.384	2823.74
449.758	2847.47
450.132	2897.64
450.506	2897.64
450.88	2914.13
451.254	2922.95
451.628	2991.19
452.002	3047.24
452.376	3009.27
452.75	3033.9
453.123	3112.32
453.497	3140.79
453.871	3190.74
454.244	3209.04
454.618	3276.38
454.992	3289.26
455.365	3333.1
455.739	3372.65
456.112	3416.94
456.486	3470.5
456.859	3435.25
457.232	3520.44
457.606	3530.84
457.979	3581.01
458.352	3660.78
458.725	3697.39
459.099	3760.66
459.472	3797.95
459.845	3829.59
460.218	3884.95
460.591	3928.57
460.964	3969.02
461.337	4016.25
461.71	4103.48
462.083	4171.27
462.456	4141.44
462.829	4174.44
463.201	4227.77
463.574	4274.1
463.947	4352.06
464.32	4420.08
464.692	4466.86
465.065	4478.39
465.438	4542.79
465.81	4681.32
466.183	4679.06
466.555	4801.54
466.928	4814.2
467.3	4846.29
467.672	4924.48
468.045	4993.63
468.417	5006.96
468.789	5056.67
469.161	5141.42
469.534	5275.65
469.906	5323.33
470.278	5416.21
470.65	5488.3
471.022	5538.92
471.394	5647.85
471.766	5707.73
472.138	5799.71
472.51	5923.32
472.882	6031.34
473.253	6020.04
473.625	6130.32
473.997	6238.34
474.369	6289.64
474.74	6355.4
475.112	6539.57
475.484	6625
475.855	6740.25
476.227	6760.13
476.598	6985.89
476.97	7044.19
477.341	7247.35
477.713	7247.13
478.084	7348.14
478.455	7609.83
478.827	7636.72
479.198	7827.68
479.569	7882.59
479.94	8090.95
480.311	8200.55
480.682	8397.83
481.053	8512.4
481.424	8647.32
481.795	8773.19
482.166	8890.7
482.537	8955.1
482.908	9233.74
483.279	9344.7
483.65	9578.59
484.021	9694.52
484.391	9735.87
484.762	9901.52
485.133	10011.8
485.503	10173.83
485.874	10374.95
486.244	10515.29
486.615	10626.7
486.985	10801.16
487.356	10964.32
487.726	11021.94
488.097	11285.66
488.467	11338.54
488.837	11578.54
489.207	11757.29
489.578	11893.33
489.948	12070.05
490.318	12265.07
490.688	12243.38
491.058	12587.78
491.428	12743.03
491.798	12826.64
492.168	13069.8
492.538	13045.39
492.908	13263.24
493.278	13538.71
493.648	13484.02
494.017	13670.46
494.387	13808.99
494.757	13939.15
495.126	14062.54
495.496	14104.8
495.866	14260.27
496.235	14438.58
496.605	14615.29
496.974	14754.73
497.344	14797.21
497.713	14921.5
498.082	15032.68
498.452	15267.25
498.821	15340.02
499.19	15401.04
499.559	15514.93
499.928	15746.79
500.298	15764.87
500.667	15916.95
501.036	15884.86
501.405	16071.3
501.774	16067.23
502.143	16298.41
502.512	16367.56
502.88	16514.45
503.249	16465.87
503.618	16730.27
503.987	16817.5
504.356	16917.61
504.724	17028.11
505.093	17134.1
505.462	17239.18
505.83	17386.52
506.199	17471.72
506.567	17771.82
506.936	17577.02
507.304	17971.14
507.672	18037.12
508.041	18098.59
508.409	18277.12
508.777	18445.02
509.145	18585.13
509.514	18701.06
509.882	18801.17
510.25	18843.43
510.618	19009.98
510.986	19032.13
511.354	19375.17
511.722	19400.48
512.09	19532.45
512.458	19668.49
512.826	19763.18
513.193	19836.63
513.561	20000.24
513.929	20163.17
514.297	20410.85
514.664	20545.76
515.032	20656.94
515.4	20874.56
515.767	21005.63
516.135	21270.03
516.502	21071.62
516.869	21434.78
517.237	21622.34
517.604	21502.34
517.972	21872.96
518.339	22008.77
518.706	22046.28
519.073	22156.34
519.44	22287.63
519.808	22628.64
520.175	22780.95
520.542	22918.35
520.909	23178.01
521.276	23265.46
521.643	23536.64
522.009	23673.59
522.376	23832.9
522.743	23997.65
523.11	24255.49
523.477	24415.26
523.843	24559.66
524.21	24936.15
524.577	25106.32
524.943	25096.6
525.31	25297.27
525.676	25569.58
526.043	25805.28
526.409	25943.36
526.776	26222.45
527.142	26309.45
527.508	26426.51
527.874	26734.98
528.241	26938.59
528.607	26946.49
528.973	27233.94
529.339	27276.66
529.705	27621.51
530.071	27776.76
530.437	27930.42
530.803	28091.1
531.169	28350.75
531.535	28173.13
531.901	28492.22
532.267	28488.83
532.632	28744.19
532.998	28805.2
533.364	29027.57
533.73	29018.08
534.095	29344.85
534.461	29404.28
534.826	29604.96
535.192	29706.65
535.557	29827.55
535.923	29834.78
536.288	30115.9
536.653	30141.44
537.019	30189.57
537.384	30336.46
537.749	30587.53
538.114	30631.14
538.479	30739.84
538.845	30919.95
539.21	30966.5
539.575	31058.25
539.94	31158.81
540.305	31283.1
540.67	31324.23
541.034	31494.62
541.399	31676.99
541.764	31720.83
542.129	31927.83
542.494	31970.54
542.858	32091.67
543.223	32240.82
543.587	32450.08
543.952	32375.05
544.316	32496.18
544.681	32410.31
545.045	32742.73
545.41	32934.81
545.774	33016.17
546.138	32971.87
546.503	33197.18
546.867	33038.09
547.231	33416.61
547.595	33530.28
547.959	33614.34
548.324	33623.38
548.688	33759.42
549.052	33899.31
549.416	33978.63
549.779	34168
550.143	34197.83
550.507	34360.09
550.871	34590.59
551.235	34497.03
551.599	34871.03
551.962	34895.44
552.326	34833.52
552.689	35225.83
553.053	35101.31
553.417	35278.93
553.78	35758.47
554.143	35442.32
554.507	35660.84
554.87	35819.93
555.234	36240.04
555.597	36117.1
555.96	36349.86
556.323	36336.53
556.686	36536.98
557.05	36652.45
557.413	36969.51
557.776	36986.23
558.139	37263.06
558.502	37399.33
558.865	37314.81
559.228	37788.47
559.59	37804.51
559.953	38055.36
560.316	38446.76
560.679	38397.27
561.041	38695.34
561.404	38720.65
561.767	39062.79
562.129	38996.35
562.492	39192.27
562.854	39456.67
563.217	39431.82
563.579	39712.71
563.941	39866.83
564.304	40076.09
564.666	40262.53
565.028	40376.2
565.39	40639.24
565.753	40794.04
566.115	41006.46
566.477	41100.92
566.839	41272.67
567.201	41582.49
567.563	41573.91
567.925	41942.26
568.287	41953.11
568.648	42087.79
569.01	42348.35
569.372	42661.56
569.734	42348.12
570.095	42630.83
570.457	42889.58
570.819	43087.99
571.18	43128.67
571.542	43527.3
571.903	43442.78
572.265	43686.39
572.626	43650.69
572.987	43962.32
573.349	44046.84
573.71	44268.75
574.071	44398.24
574.432	44629.65
574.794	44832.8
575.155	44888.62
575.516	44780.6
575.877	45016.08
576.238	45094.49
576.599	45258.56
576.96	45263.75
577.32	45378.1
577.681	45523.41
578.042	45662.61
578.403	45716.17
578.763	45862.38
579.124	45854.02
579.485	46073.9
579.845	46129.95
580.206	46031.42
580.566	46127.69
580.927	46158.65
581.287	46369.26
581.648	46304.63
582.008	46535.58
582.368	46304.18
582.728	46501.46
583.089	46445.87
583.449	46542.14
583.809	46405.42
584.169	46796.37
584.529	46555.92
584.889	46867.1
585.249	46738.06
585.609	46558.86
585.969	46793.66
586.329	46670.95
586.688	46781.23
587.048	46636.82
587.408	46696.48
587.768	46709.82
588.127	46703.26
588.487	46617.62
588.846	46896.25
589.206	46789.59
589.565	46798.63
589.925	46839.53
590.284	46774.9
590.643	46860.1
591.003	46828.91
591.362	46941.9
591.721	46979.41
592.08	46896.25
592.44	47047.66
592.799	46959.53
593.158	47010.37
593.517	46892.19
593.876	46983.93
594.235	46859.19
594.593	47014.89
594.952	47142.35
595.311	47088.34
595.67	47147.32
596.029	47296.47
596.387	47432.28
596.746	47391.61
597.104	47134.21
597.463	47129.02
597.822	47332.4
598.18	47195.91
598.538	47364.26
598.897	47478.84
599.255	47153.42
599.613	47691.49
599.972	47447.88
600.33	47441.1
600.688	47410.36
601.046	47514.99
601.404	47650.36
601.762	47555.9
602.12	47805.16
602.478	47765.83
602.836	47786.62
603.194	47653.07
603.552	47885.83
603.91	47762.9
604.268	48001.99
604.625	47958.37
604.983	48096
605.341	47862.78
605.698	48096.45
606.056	48211.47
606.413	48162.21
606.771	48258.7
607.128	48230.68
607.485	48110.91
607.843	48311.36
608.2	48333.96
608.557	48481.07
608.914	48404.91
609.272	48526.27
609.629	48605.36
609.986	48718.35
610.343	48526.04
610.7	48879.48
611.057	48784.11
611.414	48806.71
611.771	48743.44
612.127	48876.09
612.484	48828.41
612.841	48979.59
613.198	48778.92
613.554	48957.22
613.911	49210.32
614.267	49140.26
614.624	49036.54
614.98	49066.14
615.337	49288.05
615.693	49265.91
616.05	49209.86
616.406	49393.14
616.762	49394.94
617.118	49323.31
617.475	49398.56
617.831	49512.23
618.187	49548.84
618.543	49495.96
618.899	49719.68
619.255	49612.34
619.611	49603.75
619.967	49768.04
620.323	49842.39
620.678	49677.2
621.034	49565.79
621.39	49645.33
621.746	49617.54
622.101	49945.66
622.457	49669.51
622.812	49759.23
623.168	49724.88
623.523	49754.93
623.879	49831.09
624.234	49632
624.589	49808.27
624.945	49840.13
625.3	49859.56
625.655	49775.27
626.01	49882.16
626.365	49907.7
626.72	49859.11
627.075	49840.36
627.43	49876.97
627.785	49730.75
628.14	49746.12
628.495	49909.51
628.85	49758.55
629.205	49721.72
629.559	49913.8
629.914	49682.62
630.269	49751.32
630.623	49655.95
630.978	49568.72
631.332	49731.66
631.687	49774.6
632.041	49519.91
632.396	49585.22
632.75	49459.12
633.104	49546.13
633.459	49326.25
633.813	49259.81
634.167	49389.75
634.521	49296.64
634.875	49213.48
635.229	49333.48
635.583	48935.75
635.937	49109.98
636.291	48975.07
636.645	49021.39
636.999	48785.69
637.352	48927.84
637.706	48662.31
638.06	48783.66
638.413	48599.71
638.767	48472.93
639.121	48633.16
639.474	48399.04
639.828	48427.74
640.181	48376.67
640.534	48368.98
640.888	48261.87
641.241	48148.42
641.594	48188.2
641.947	48314.29
642.301	48179.83
642.654	48165.82
643.007	48094.41
643.36	48134.19
643.713	48064.36
644.066	48180.51
644.419	47874.76
644.771	47557.93
645.124	47203.59
645.477	47204.49
645.83	46904.39
646.182	46790.72
646.535	46684.05
646.888	46737.84
647.24	46582.36
647.593	46874.78
647.945	46633.21
648.298	46464.17
648.65	46422.82
649.002	46321.58
649.355	46394.8
649.707	46342.37
650.059	46451.52
650.411	46954.56
650.763	46948.68
651.115	47192.06
651.467	47117.26
651.819	47007.44
652.171	47004.5
652.523	46929.7
652.875	46920.66
653.227	46685.41
653.578	46847.67
653.93	46750.27
654.282	46627.33
654.633	46584.4
654.985	46452.65
655.337	46590.05
655.688	46603.83
656.039	46772.41
656.391	46338.75
656.742	46454.23
657.094	46551.4
657.445	46670.5
657.796	46475.02
658.147	46495.81
658.498	46338.53
658.849	46635.47
659.2	46399.77
659.551	46280
659.902	46422.37
660.253	46260.11
660.604	46513.21
660.955	46117.29
661.306	46329.49
661.656	46289.04
662.007	46268.47
662.358	46084.07
662.708	46207.01
663.059	46149.61
663.409	46032.32
663.76	46232.32
664.11	46141.24
664.461	46223.5
664.811	46148.02
665.161	46087.91
665.511	45994.81
665.862	46143.05
666.212	46094.92
666.562	46022.38
666.912	46000.91
667.262	45893.34
667.612	45903.28
667.962	45833.46
668.312	45765.66
668.662	45772.89
669.011	45719.33
669.361	45585.33
669.711	45491.54
670.06	45505.78
670.41	45282.74
670.76	45279.8
671.109	45451.77
671.459	45312.79
671.808	45272.34
672.157	45328.61
672.507	45088.39
672.856	45141.5
673.205	45271.21
673.554	45252.68
673.904	45024.21
674.253	45271.66
674.602	44955.96
674.951	44410.22
675.3	44151.01
675.649	44935.63
675.998	44754.84
676.346	44964.1
676.695	44991.67
677.044	44663.32
677.393	44750.77
677.741	44767.5
678.09	44709.64
678.438	44704.22
678.787	44722.75
679.135	44710.1
679.484	44443.44
679.832	44708.74
680.181	44335.42
680.529	44425.81
680.877	44291.8
681.225	44405.02
681.573	44692.02
681.922	44242.99
682.27	44047.51
682.618	44209.32
682.966	44037.57
683.314	44115.53
683.661	44012.26
684.009	43811.81
684.357	43727.75
684.705	43643.91
685.053	43658.6
685.4	43644.13
685.748	43469.9
686.095	43435.33
686.443	43259.06
686.79	43109.46
687.138	43213.41
687.485	43098.16
687.832	42996.47
688.18	42955.79
688.527	42792.86
688.874	42670.6
689.221	42642.58
689.568	42584.28
689.915	42437.84
690.262	42300.44
690.609	42357.62
690.956	42037.62
691.303	42061.35
691.65	41975.25
691.997	41969.15
692.344	41662.72
692.69	41674.47
693.037	41709.72
693.383	41410.52
693.73	41581.36
694.077	41415.94
694.423	41151.32
694.769	41048.04
695.116	41089.17
695.462	41006.92
695.808	40966.24
696.155	40849.41
696.501	40485.8
696.847	40561.73
697.193	40339.14
697.539	40360.15
697.885	40173.04
698.231	40067.51
698.577	39994.29
698.923	39873.84
699.269	39742.77
699.614	39674.3
699.96	39502.32
700.306	39421.65
700.651	39173.29
700.997	39199.05
701.342	39072.96
701.688	38956.35
702.033	38912.28
702.379	38804.94
702.724	38818.95
703.069	38744.15
703.415	38397.72
703.76	38431.39
704.105	38403.14
704.45	38233.2
704.795	38042.02
705.14	37868.02
705.485	37944.85
705.83	37713.44
706.175	37851.52
706.52	37641.58
706.865	37623.73
707.209	37585.09
707.554	37291.76
707.899	37477.74
708.243	37188.94
708.588	37065.32
708.932	36830.98
709.277	36828.04
709.621	36872.56
709.966	36599.35
710.31	36704.66
710.654	36407.72
710.998	36527.03
711.342	36552.57
711.687	36348.28
712.031	36278.45
712.375	36186.93
712.719	36134.28
713.063	36112.58
713.407	36233.71
713.75	35983.55
714.094	35943.09
714.438	35773.83
714.782	35796.43
715.125	35596.89
715.469	35672.82
715.812	35419.04
716.156	35154.41
716.499	35392.6
716.843	35359.83
717.186	35174.53
717.53	35372.94
717.873	35255.65
718.216	35101.76
718.559	34884.59
718.902	34710.36
719.246	34774.54
719.589	34616.58
719.932	34455.22
720.275	34498.84
720.617	34393.3
720.96	34377.71
721.303	34331.61
721.646	34340.42
721.989	34045.07
722.331	34224.27
722.674	34187.66
723.016	34175.23
723.359	34010.94
723.701	34013.65
724.044	33928.23
724.386	33615.02
724.729	33757.62
725.071	33631.52
725.413	33529.82
725.755	33448.24
726.097	33313.33
726.439	33180.46
726.782	33106.11
727.124	33283.28
727.465	33064.3
727.807	33001.7
728.149	33069.5
728.491	32783.63
728.833	32972.78
729.175	32785.66
729.516	32674.48
729.858	32589.28
730.199	32668.6
730.541	32478.33
730.882	32514.48
731.224	32522.62
731.565	32409.4
731.906	32309.74
732.248	32462.73
732.589	32262.51
732.93	32222.74
733.271	32210.54
733.612	32113.14
733.953	32147.04
734.294	32100.48
734.635	31906.82
734.976	31960.37
735.317	31867.27
735.658	31948.62
735.999	31721.28
736.339	31739.36
736.68	31906.59
737.021	31655.52
737.361	31580.5
737.702	31656.2
738.042	31613.72
738.383	31538.92
738.723	31529.2
739.063	31468.86
739.404	31464.12
739.744	31381.63
740.084	31216.44
740.424	31353.16
740.764	31295.99
741.104	31317.45
741.444	31021.87
741.784	31032.72
742.124	31083.34
742.464	30942.1
742.804	30806.05
743.143	30698.71
743.483	30712.5
743.823	30543.01
744.162	30599.51
744.502	30525.16
744.841	30374.65
745.181	30557.47
745.52	30356.12
745.86	30527.19
746.199	30318.84
746.538	30178.05
746.877	30239.52
747.216	30147.31
747.556	29943.93
747.895	30014.89
748.234	29800.21
748.573	29934.89
748.911	29759.75
749.25	29630.72
749.589	29588.91
749.928	29609.02
750.267	29720.66
750.605	29538.29
750.944	29497.61
751.283	29388.69
751.621	29380.33
751.96	29157.96
752.298	29168.36
752.636	29168.13
752.975	28969.27
753.313	28911.19
753.651	28914.58
753.989	28676.84
754.327	28722.72
754.666	28572.67
755.004	28719.33
755.342	28673.23
755.679	28560.24
756.017	28451.77
756.355	28480.01
756.693	28234.82
757.031	28289.28
757.368	28176.29
757.706	28063.98
758.044	28006.58
758.381	28051.55
758.719	27961.61
759.056	27880.26
759.394	27655.63
759.731	27495.63
760.068	27575.63
760.405	27505.58
760.743	27396.88
761.08	27410.44
761.417	27207.96
761.754	27098.58
762.091	27176.09
762.428	27076.89
762.765	26924.8
763.102	26972.71
763.438	26840.96
763.775	26621.08
764.112	26634.86
764.449	26756.67
764.785	26540.86
765.122	26427.41
765.458	26302.9
765.795	26297.25
766.131	26334.99
766.467	26080.53
766.804	26065.39
767.14	25897.71
767.476	25828.11
767.812	25742.68
768.148	25716.7
768.485	25585.17
768.821	25414.33
769.157	25266.31
769.492	25215.47
769.828	25232.87
770.164	24992.65
770.5	24927.79
770.836	24914.23
771.171	24764.18
771.507	24690.28
771.842	24523.06
772.178	24493.23
772.513	24376.84
772.849	24267.92
773.184	24196.96
773.519	24222.5
773.855	24159
774.19	23937.53
774.525	23799.91
774.86	23942.28
775.195	23772.12
775.53	23625.9
775.865	23463.2
776.2	23438.79
776.535	23225.91
776.87	23174.16
777.205	23063.21
777.539	23016.2
777.874	23006.26
778.209	22766.49
778.543	22714.29
778.878	22637.46
779.212	22694.4
779.547	22461.19
779.881	22563.79
780.215	22525.37
780.55	22495.54
780.884	22280.4
781.218	22286.5
781.552	22267.07
781.886	22058.71
782.22	21984.82
782.554	21748.21
782.888	21531.27
783.222	21454.44
783.556	21474.55
783.889	21422.35
784.223	21243.14
784.557	21242.01
784.89	21338.28
785.224	21098.51
785.557	20986.43
785.891	21062.13
786.224	20996.59
786.558	20842.7
786.891	20645.42
787.224	20699.2
787.557	20620.56
787.891	20687.45
788.224	20617.85
788.557	20526.78
788.89	20415.59
789.223	20366.78
789.556	20142.61
789.888	20192.1
790.221	20183.06
790.554	19875.04
790.887	19914.82
791.219	19779.45
791.552	19810.41
791.884	19663.52
792.217	19572.9
792.549	19478.89
792.882	19292.46
793.214	19336.07
793.546	19383.76
793.879	19257.43
794.211	19172.01
794.543	19227.15
794.875	19066.48
795.207	19056.76
795.539	18973.6
795.871	18921.4
796.203	18713.94
796.535	18707.16
796.867	18605.25
797.198	18542.2
797.53	18449.54
797.862	18345.37
798.193	18402.09
798.525	18289.77
798.856	18260.4
799.188	18106.73
799.519	18088.65
799.85	18032.38
800.182	18046.62
800.513	17927.3
800.844	17863.34
801.175	17931.59
801.506	17781.31
801.837	17685.27
802.168	17690.69
802.499	17577.02
802.83	17524.6
803.161	17545.84
803.491	17517.59
803.822	17469.23
804.153	17316.92
804.483	17248.9
804.814	17113.76
805.145	17196.92
805.475	17017.49
805.805	17122.57
806.136	17023.82
806.466	17005.06
806.796	16893.65
807.126	16713.54
807.457	16804.61
807.787	16757.61
808.117	16662.25
808.447	16608.69
808.777	16666.77
809.107	16631.51
809.436	16516.71
809.766	16505.41
810.096	16440.1
810.426	16312.2
810.755	16398.07
811.085	16298.19
811.414	16285.98
811.744	16116.05
812.073	16117.4
812.403	16131.86
812.732	15970.29
813.061	16048.7
813.39	16005.54
813.719	15820.01
814.049	15952.43
814.378	15863.4
814.707	15784.75
815.036	15798.54
815.365	15773
815.693	15530.3
816.022	15566.23
816.351	15563.07
816.68	15398.32
817.008	15537.76
817.337	15336.86
817.665	15314.26
817.994	15378.44
818.322	15323.98
818.651	15306.8
818.979	15182.06
819.307	15214.6
819.636	15141.83
819.964	15044.89
820.292	15109.29
820.62	15112.23
820.948	15039.46
821.276	15092.12
821.604	15016.87
821.932	15041.95
822.259	15005.57
822.587	15033.81
822.915	14988.62
823.243	15048.28
823.57	14954.49
823.898	14999.92
824.225	14875.17
824.553	14970.31
824.88	14970.54
825.207	15018.22
825.535	14968.05
825.862	14997.88
826.189	14876.76
826.516	14907.72
826.843	15012.12
827.17	14987.49
827.497	14994.94
827.824	14933.25
828.151	14931.22
828.478	14816.87
828.805	14933.93
829.131	14831.11
829.458	14754.27
829.785	14755.18
830.111	14752.69
830.438	14830.2
830.764	14811.67
831.09	14833.59
831.417	14804.67
831.743	14902.74
832.069	14787.04
832.395	14667.04
832.722	14825.01
833.048	14751.56
833.374	14761.73
833.7	14627.72
834.026	14715.4
834.351	14687.61
834.677	14671.79
835.003	14668.85
835.329	14659.36
835.654	14612.13
835.98	14582.07
836.306	14688.74
836.631	14522.41
836.956	14579.81
837.282	14484.45
837.607	14479.25
837.932	14502.3
838.258	14486.03
838.583	14449.65
838.908	14399.48
839.233	14398.35
839.558	14342.98
839.883	14327.84
840.208	14324.45
840.533	14317.22
840.858	14273.83
841.182	14279.94
841.507	14260.5
841.832	14181.18
842.156	14203.1
842.481	14101.63
842.805	14165.59
843.13	14036.33
843.454	14049.43
843.778	14050.56
844.103	13926.05
844.427	13956.33
844.751	13993.62
845.075	13844.47
845.399	13857.57
845.723	13883.34
846.047	13721.98
846.371	13651.7
846.695	13692.38
847.019	13629.78
847.343	13599.05
847.666	13479.5
847.99	13443.57
848.313	13430.47
848.637	13394.31
848.96	13401.77
849.284	13310.92
849.607	13201.77
849.931	13149.34
850.254	13096.24
850.577	13039.06
850.9	12900.76
851.223	12915
851.546	12822.35
851.869	12872.06
852.192	12871.38
852.515	12771.5
852.838	12784.38
853.161	12688.56
853.483	12651.28
853.806	12617.38
854.129	12576.48
854.451	12537.38
854.774	12532.64
855.096	12447.67
855.419	12400.66
855.741	12356.6
856.063	12332.64
856.385	12378.74
856.708	12317.95
857.03	12286.54
857.352	12184.17
857.674	12117.73
857.996	12182.36
858.318	12070.73
858.64	12089.94
858.961	11989.6
859.283	11956.61
859.605	11835.03
859.926	11897.63
860.248	11930.39
860.57	11860.11
860.891	11939.88
861.212	11804.07
861.534	11800.9
861.855	11781.24
862.176	11746.22
862.498	11741.92
862.819	11797.06
863.14	11675.94
863.461	11692.21
863.782	11633.45
864.103	11641.36
864.424	11575.15
864.745	11673.45
865.065	11571.98
865.386	11527.47
865.707	11560.23
866.027	11585.09
866.348	11526.79
866.668	11569.95
866.989	11510.97
867.309	11390.97
867.63	11470.74
867.95	11433.23
868.27	11388.03
868.59	11348.49
868.91	11334.93
869.23	11379.22
869.55	11376.73
869.87	11329.96
870.19	11325.21
870.51	11324.08
870.83	11242.73
871.15	11213.58
871.469	11287.02
871.789	11251.99
872.109	11172.45
872.428	11142.62
872.748	11122.73
873.067	11208.38
873.386	11121.83
873.706	11283.18
874.025	11110.75
874.344	11118.66
874.663	11071.21
874.982	11019
875.301	11076.18
875.62	11022.39
875.939	11059.45
876.258	11070.75
876.577	11031.43
876.896	10976.07
877.214	10915.28
877.533	10960.93
877.852	10939.91
878.17	11013.13
878.489	10963.41
878.807	10948.72
879.125	10878.44
879.444	10955.95
879.762	10934.03
880.08	10855.62
880.398	10816.07
880.716	10859.46
881.034	10800.25
881.352	10880.7
881.67	10802.96
881.988	10792.57
882.306	10714.83
882.624	10689.52
882.941	10689.75
883.259	10605.46
883.577	10661.05
883.894	10666.24
884.212	10657.43
884.529	10634.83
884.846	10676.41
885.164	10663.53
885.481	10551.45
885.798	10592.57
886.115	10473.48
886.432	10539.69
886.75	10497.66
887.067	10484.55
887.383	10442.52
887.7	10441.84
888.017	10315.52
888.334	10377.21
888.651	10306.71
888.967	10349.19
889.284	10218.57
889.6	10216.77
889.917	10183.55
890.233	10250.21
890.55	10181.96
890.866	10128.63
891.182	10085.7
891.498	10025.13
891.815	10064.68
892.131	10033.49
892.447	10056.54
892.763	10035.75
893.079	10013.15
893.395	9908.07
893.71	9919.37
894.026	9906.49
894.342	9904.91
894.657	9759.6
894.973	9743.11
895.289	9740.62
895.604	9812.26
895.92	9704.91
896.235	9716.89
896.55	9646.84
896.865	9658.36
897.181	9716.89
897.496	9612.49
897.811	9612.26
898.126	9548.31
898.441	9552.38
898.756	9466.73
899.071	9455.88
899.386	9468.08
899.7	9400.97
900.015	9320.97
900.33	9249.79
900.644	9300.86
900.959	9233.29
901.273	9200.75
901.588	9149.45
901.902	9157.58
902.216	9073.97
902.531	9108.77
902.845	9050.47
903.159	9008.89
903.473	8980.19
903.787	8940.41
904.101	8986.52
904.415	8908.33
904.729	8907.42
905.042	8859.96
905.356	8850.93
905.67	8812.06
905.984	8808.67
906.297	8798.27
906.611	8683.47
906.924	8683.02
907.237	8677.37
907.551	8608.45
907.864	8561.67
908.177	8560.54
908.491	8566.64
908.804	8511.73
909.117	8502.23
909.43	8461.33
909.743	8408.45
910.056	8438.73
910.368	8450.26
910.681	8359.41
910.994	8268.57
911.307	8276.03
911.619	8183.37
911.932	8274.67
912.244	8159.42
912.557	8127.78
912.869	8141.11
913.181	8058.4
913.494	8060.66
913.806	8071.28
914.118	7973.89
914.43	7997.16
914.742	7948.12
915.054	7931.4
915.366	7869.48
915.678	7827.45
915.99	7814.12
916.302	7744.06
916.613	7719.43
916.925	7684.63
917.236	7666.1
917.548	7654.8
917.859	7607.34
918.171	7554.01
918.482	7536.38
918.794	7531.41
919.105	7462.94
919.416	7463.84
919.727	7388.59
920.038	7420.23
920.349	7336.62
920.66	7325.77
920.971	7294.36
921.282	7301.81
921.593	7237.18
921.903	7210.74
922.214	7210.52
922.525	7212.55
922.835	7198.31
923.146	7108.37
923.456	7039.9
923.767	7066.34
924.077	6980.47
924.387	7025.44
924.697	6992.44
925.008	7006
925.318	6889.4
925.628	6876.74
925.938	6863.41
926.248	6792
926.558	6809.4
926.867	6749.96
927.177	6797.42
927.487	6776.86
927.796	6660.47
928.106	6714.48
928.416	6703.19
928.725	6659.8
929.034	6615.05
929.344	6619.35
929.653	6536.18
929.962	6560.36
930.271	6464.1
930.581	6486.69
930.89	6443.76
931.199	6392.23
931.508	6417.32
931.817	6395.62
932.125	6361.5
932.434	6394.49
932.743	6277.66
933.051	6289.41
933.36	6219.13
933.669	6174.84
933.977	6129.64
934.286	6166.7
934.594	6140.04
934.902	6099.59
935.21	6075.86
935.519	6086.03
935.827	6044.22
936.135	6004.67
936.443	6023.66
936.751	5972.36
937.059	6004.22
937.367	5928.29
937.674	5952.02
937.982	5902.3
938.29	5869.53
938.597	5842.87
938.905	5787.96
939.213	5788.63
939.52	5779.82
939.827	5782.31
940.135	5704.79
940.442	5711.35
940.749	5689.2
941.056	5683.55
941.363	5576.44
941.67	5609.65
941.977	5525.36
942.284	5523.78
942.591	5531.46
942.898	5460.96
943.205	5481.97
943.511	5428.64
943.818	5478.36
944.125	5381.64
944.431	5356.78
944.738	5349.32
945.044	5372.15
945.35	5301.87
945.657	5315.2
945.963	5303.9
946.269	5283.34
946.575	5302.32
946.881	5252.15
947.187	5248.08
947.493	5138.48
947.799	5155.66
948.105	5166.73
948.41	5115.88
948.716	5135.32
949.022	5137.35
949.327	5051.7
949.633	5001.76
949.938	5053.29
950.244	4991.37
950.549	4994.98
950.854	4977.13
951.16	4944.59
951.465	4882.89
951.77	4879.96
952.075	4878.37
952.38	4820.07
952.685	4818.94
952.99	4754.31
953.294	4803.8
953.599	4752.73
953.904	4702.33
954.209	4732.84
954.513	4729.23
954.818	4703.69
955.122	4677.93
955.426	4672.5
955.731	4579.4
956.035	4651.71
956.339	4593.18
956.643	4596.57
956.948	4505.05
957.252	4535.11
957.556	4578.27
957.86	4495.11
958.163	4479.97
958.467	4455.56
958.771	4509.57
959.075	4454.2
959.378	4421.21
959.682	4430.93
959.985	4347.54
960.289	4350.93
960.592	4356.58
960.896	4317.26
961.199	4309.58
961.502	4269.35
961.805	4256.92
962.108	4223.48
962.411	4244.04
962.714	4204.72
963.017	4213.99
963.32	4192.06
963.623	4153.87
963.926	4160.2
964.228	4097.38
964.531	4103.03
964.833	4108.9
965.136	4081.56
965.438	4088.56
965.741	4000.43
966.043	4004.95
966.345	3995.01
966.648	4026.65
966.95	4006.99
967.252	3975.35
967.554	3948
967.856	3936.93
968.158	3919.98
968.46	3873.66
968.761	3846.99
969.063	3866.65
969.365	3869.59
969.666	3806.09
969.968	3765.86
970.269	3813.09
970.571	3792.98
970.872	3777.39
971.174	3699.2
971.475	3745.75
971.776	3728.35
972.077	3717.05
972.378	3673.21
972.679	3675.69
972.98	3654.68
973.281	3612.65
973.582	3647.22
973.883	3627.33
974.183	3618.52
974.484	3543.49
974.785	3528.35
975.085	3550.5
975.386	3595.02
975.686	3522.7
975.986	3479.77
976.287	3510.73
976.587	3461.24
976.887	3477.51
977.187	3395.7
977.487	3451.97
977.787	3421.46
978.087	3404.52
978.387	3365.65
978.687	3376.49
978.987	3389.6
979.286	3334.01
979.586	3334.23
979.885	3282.71
980.185	3271.86
980.484	3304.18
980.784	3236.61
981.083	3262.15
981.382	3200.45
981.682	3190.28
981.981	3207.68
982.28	3200.68
982.579	3145.99
982.878	3172.66
983.177	3187.35
983.475	3139.89
983.774	3140.12
984.073	3085.88
984.372	3096.5
984.67	3109.83
984.969	3054.02
985.267	3076.39
985.566	3025.54
985.864	3030.51
986.162	2995.03
986.461	2962.49
986.759	3028.93
987.057	2988.71
987.355	2965.88
987.653	2923.17
987.951	2953.45
988.249	2879.78
988.547	2906
988.844	2925.43
989.142	2859.67
989.44	2878.88
989.737	2868.48
990.035	2832.78
990.332	2819.45
990.63	2862.61
990.927	2796.4
991.224	2820.8
991.521	2800.24
991.819	2776.28
992.116	2780.35
992.413	2757.53
992.71	2740.8
993.006	2736.96
993.303	2727.92
993.6	2693.35
993.897	2711.2
994.193	2712.33
994.49	2641.82
994.787	2622.16
995.083	2642.28
995.379	2625.55
995.676	2577.87
995.972	2622.84
996.268	2609.73
996.565	2578.77
996.861	2576.97
997.157	2568.15
997.453	2585.55
997.749	2562.28
998.044	2531.54
998.34	2506.01
998.636	2509.62
998.932	2453.13
999.227	2474.82
999.523	2479.12
999.818	2455.84
1000.114	2427.59
1000.409	2438.44
1000.704	2393.02
1001	2425.33
1001.295	2376.97
1001.59	2365.22
1001.885	2368.38
1002.18	2360.7
1002.475	2345.33
1002.77	2339.01
1003.065	2277.99
1003.359	2301.27
1003.654	2273.92
1003.949	2258.1
1004.243	2258.78
1004.538	2221.95
1004.832	2210.65
1005.127	2240.7
1005.421	2211.33
1005.715	2214.72
1006.009	2164.77
1006.304	2214.26
1006.598	2166.58
1006.892	2133.81
1007.186	2127.03
1007.48	2130.65
1007.773	2104.89
1008.067	2091.56
1008.361	2094.49
1008.655	2086.36
1008.948	2054.72
1009.242	2034.38
1009.535	2033.03
1009.829	2048.17
1010.122	2069.18
1010.415	2002.29
1010.708	1996.87
1011.001	1968.85
1011.295	1999.13
1011.588	1973.37
1011.881	1961.39
1012.173	1958.9
1012.466	1944.89
1012.759	1930.66
1013.052	1936.98
1013.344	1906.25
1013.637	1915.06
1013.93	1870.09
1014.222	1884.33
1014.514	1851.56
1014.807	1818.34
1015.099	1831.45
1015.391	1825.35
1015.683	1798
1015.976	1791.68
1016.268	1776.99
1016.56	1772.24
1016.851	1779.92
1017.143	1739.47
1017.435	1752.36
1017.727	1708.06
1018.018	1728.85
1018.31	1713.26
1018.602	1700.83
1018.893	1712.58
1019.185	1662.87
1019.476	1688.85
1019.767	1664
1020.058	1651.79
1020.35	1625.35
1020.641	1644.11
1020.932	1619.25
1021.223	1590.33
1021.514	1572.92
1021.804	1564.34
1022.095	1545.35
1022.386	1552.13
1022.677	1550.33
1022.967	1515.53
1023.258	1506.03
1023.548	1530.44
1023.839	1502.87
1024.129	1493.83
1024.419	1479.14
1024.709	1471.91
1025	1463.1
1025.29	1450.89
1025.58	1441.18
1025.87	1436.21
1026.16	1448.86
1026.449	1430.78
1026.739	1388.3
1027.029	1398.47
1027.319	1383.1
1027.608	1378.35
1027.898	1385.59
1028.187	1331.35
1028.477	1345.36
1028.766	1335.64
1029.055	1343.33
1029.344	1352.37
1029.634	1304.01
1029.923	1304.01
1030.212	1283.21
1030.501	1298.13
1030.79	1291.12
1031.078	1282.08
1031.367	1278.24
1031.656	1262.65
1031.945	1275.53
1032.233	1244.12
1032.522	1222.88
1032.81	1217.68
1033.099	1199.15
1033.387	1175.42
1033.675	1217.45
1033.963	1199.15
1034.251	1179.49
1034.54	1183.1
1034.828	1142.65
1035.116	1134.74
1035.403	1174.52
1035.691	1164.12
1035.979	1141.75
1036.267	1137.23
1036.554	1124.12
1036.842	1095.65
1037.129	1101.75
1037.417	1105.82
1037.704	1104.24
1037.992	1117.8
1038.279	1090.45
1038.566	1055.2
1038.853	1055.2
1039.14	1055.2
