Data from aluminium_surface_pro_back_FLMS001491_00063.txt Node
Date: Wed Feb 08 15:34:23 GMT 2017
User: dcchb
Spectrometer: FLMS00149
Trigger mode: 0
Integration Time (sec): 2.000000E-2
Scans to average: 10
Electric dark correction enabled: true
Nonlinearity correction enabled: false
Boxcar width: 0
XAxis mode: Wavelengths
Number of Pixels in Spectrum: 2048
>>>>>Begin Spectral Data<<<<<
341.393	-16.36
341.776	-16.36
342.16	-16.36
342.543	-42.57
342.927	-71.5
343.31	-78.95
343.693	-66.98
344.077	-72.85
344.46	-61.33
344.843	-57.94
345.226	-36.02
345.61	-35.56
345.993	-0.76
346.376	-19.07
346.759	28.84
347.142	22.74
347.525	33.13
347.908	62.96
348.291	80.82
348.674	98.44
349.057	102.51
349.44	119.01
349.823	130.31
350.206	161.49
350.588	211.44
350.971	227.93
351.354	253.69
351.737	273.35
352.119	288.5
352.502	294.82
352.884	294.37
353.267	313.35
353.65	322.17
354.032	316.97
354.414	330.75
354.797	349.28
355.179	353.35
355.562	359
355.944	350.64
356.326	369.17
356.709	344.76
357.091	372.79
357.473	395.84
357.855	359.23
358.238	366.01
358.62	388.61
359.002	383.18
359.384	388.83
359.766	388.83
360.148	386.12
360.53	367.14
360.912	367.59
361.294	380.02
361.676	369.4
362.057	408.49
362.439	364.88
362.821	374.14
363.203	377.53
363.584	368.27
363.966	368.72
364.348	374.82
364.729	361.71
365.111	365.1
365.493	344.54
365.874	350.87
366.256	362.17
366.637	339.57
367.019	373.01
367.4	356.74
367.781	358.32
368.163	359.23
368.544	369.62
368.925	376.18
369.306	387.48
369.688	383.63
370.069	363.97
370.45	378.66
370.831	374.14
371.212	382.28
371.593	360.58
371.974	375.95
372.355	373.92
372.736	372.56
373.117	398.55
373.498	386.57
373.879	373.92
374.26	380.7
374.641	367.36
375.021	392.45
375.402	396.51
375.783	396.06
376.163	423.41
376.544	405.33
376.925	419.34
377.305	402.62
377.686	416.63
378.066	416.4
378.447	422.28
378.827	433.35
379.208	439.45
379.588	414.82
379.968	439
380.349	426.8
380.729	417.98
381.109	446.46
381.489	449.85
381.87	456.63
382.25	459.34
382.63	456.4
383.01	463.63
383.39	458.43
383.77	473.35
384.15	458.66
384.53	493.01
384.91	475.38
385.29	483.97
385.67	506.79
386.049	502.27
386.429	502.05
386.809	489.85
387.189	497.76
387.568	509.51
387.948	532.78
388.328	511.99
388.707	532.56
389.087	541.14
389.466	535.95
389.846	555.61
390.225	560.35
390.605	552.67
390.984	549.51
391.363	579.34
391.743	575.04
392.122	594.25
392.501	586.34
392.881	625.44
393.26	606.9
393.639	605.78
394.018	613.68
394.397	618.66
394.776	612.1
395.155	631.76
395.534	648.71
395.913	639.9
396.292	668.15
396.671	649.84
397.05	660.46
397.429	686.45
397.808	675.83
398.186	695.26
398.565	704.53
398.944	696.62
399.323	706.34
399.701	723.74
400.08	735.26
400.458	753.57
400.837	747.01
401.215	775.04
401.594	771.65
401.972	771.65
402.351	773
402.729	789.72
403.107	764.41
403.486	802.38
403.864	813
404.242	828.37
404.62	849.16
404.999	826.56
405.377	851.87
405.755	874.02
406.133	870.4
406.511	873.34
406.889	883.73
407.267	913.11
407.645	925.99
408.023	914.24
408.401	922.83
408.779	939.1
409.156	973.9
409.534	989.49
409.912	1000.79
410.29	1014.13
410.667	1029.04
411.045	1013
411.422	1048.7
411.8	1049.61
412.178	1063.39
412.555	1100.45
412.933	1104.97
413.31	1124.63
413.687	1092.09
414.065	1126.89
414.442	1145.87
414.819	1169.15
415.197	1204.86
415.574	1205.31
415.951	1230.17
416.328	1235.59
416.705	1219.32
417.082	1234.01
417.46	1260.67
417.837	1268.13
418.214	1287.57
418.591	1288.69
418.967	1336.83
419.344	1331.63
419.721	1375.7
420.098	1338.19
420.475	1379.31
420.852	1396.94
421.228	1401.01
421.605	1424.51
421.982	1424.06
422.358	1451.18
422.735	1455.92
423.111	1485.98
423.488	1520.33
423.864	1478.29
424.241	1516.03
424.617	1538.63
424.994	1578.86
425.37	1584.05
425.746	1574.11
426.123	1599.2
426.499	1586.31
426.875	1644.84
427.251	1652.98
427.627	1691.17
428.003	1726.42
428.379	1731.62
428.756	1744.05
429.132	1768.68
429.507	1820.66
429.883	1809.81
430.259	1859.53
430.635	1869.47
431.011	1876.93
431.387	1953.54
431.763	1968.9
432.138	1998.51
432.514	1987.66
432.89	2003.93
433.265	2059.52
433.641	2090.26
434.016	2159.86
434.392	2140.65
434.767	2183.59
435.143	2142.68
435.518	2193.53
435.894	2242.79
436.269	2253.87
436.644	2294.32
437.02	2285.28
437.395	2331.61
437.77	2362.11
438.145	2403.47
438.52	2390.59
438.895	2438.95
439.271	2478.04
439.646	2502.67
440.021	2505.84
440.395	2537.93
440.77	2506.52
441.145	2565.27
441.52	2598.49
441.895	2607.98
442.27	2638.72
442.645	2627.19
443.019	2693.63
443.394	2720.52
443.769	2722.78
444.143	2695.21
444.518	2779.73
444.892	2772.5
445.267	2795.55
445.641	2805.49
446.016	2850.24
446.39	2901.99
446.764	2873.96
447.139	2875.55
447.513	2918.48
447.887	2907.64
448.262	2914.41
448.636	2940.85
449.01	3009.1
449.384	3040.74
449.758	3064.02
450.132	3104.47
450.506	3118.03
450.88	3122.55
451.254	3127.06
451.628	3217.23
452.002	3232.82
452.376	3279.83
452.75	3291.81
453.123	3355.08
453.497	3412.03
453.871	3415.64
454.244	3438.24
454.618	3490.44
454.992	3551.91
455.365	3552.14
455.739	3645.92
456.112	3675.75
456.486	3716.2
456.859	3739.93
457.232	3826.71
457.606	3837.55
457.979	3886.37
458.352	3956.65
458.725	4043.42
459.099	3993.03
459.472	4136.98
459.845	4140.37
460.218	4175.85
460.591	4257.66
460.964	4258.11
461.337	4357.31
461.71	4427.82
462.083	4468.72
462.456	4488.16
462.829	4487.93
463.201	4595.5
463.574	4640.02
463.947	4752.11
464.32	4792.33
464.692	4843.4
465.065	4849.73
465.438	4966.79
465.81	5025.77
466.183	5046.79
466.555	5135.15
466.928	5218.31
467.3	5223.51
467.672	5344.18
468.045	5490.39
468.417	5457.4
468.789	5502.82
469.161	5598.86
469.534	5664.4
469.906	5767.45
470.278	5861.23
470.65	5904.39
471.022	5961.11
471.394	6112.3
471.766	6175.8
472.138	6247.43
472.51	6314.33
472.882	6491.72
473.253	6592.06
473.625	6677.93
473.997	6820.98
474.369	6773.3
474.74	6957.92
475.112	7058.94
475.484	7203.57
475.855	7324.47
476.227	7367.18
476.598	7566.72
476.97	7637
477.341	7834.51
477.713	8026.6
478.084	8009.2
478.455	8266.82
478.827	8321.73
479.198	8530.76
479.569	8593.59
479.94	8822.73
480.311	8828.61
480.682	9137.98
481.053	9292.55
481.424	9482.15
481.795	9544.52
482.166	9710.85
482.537	9781.58
482.908	9979.77
483.279	10058.86
483.65	10372.3
484.021	10568.45
484.391	10720.76
484.762	10802.34
485.133	10824.04
485.503	11072.39
485.874	11294.08
486.244	11383.57
486.615	11628.08
486.985	11802.32
487.356	11960.05
487.726	12096.55
488.097	12345.81
488.467	12398.01
488.837	12631
489.207	12825.79
489.578	12956.18
489.948	13094.71
490.318	13357.3
490.688	13320.69
491.058	13613.34
491.428	13853.34
491.798	13914.35
492.168	14215.59
492.538	14350.27
492.908	14411.29
493.278	14717.72
493.648	14726.08
494.017	14938.05
494.387	15053.3
494.757	15247.88
495.126	15354.54
495.496	15372.17
495.866	15573.29
496.235	15671.82
496.605	15831.59
496.974	15838.14
497.344	16111.36
497.713	16197.23
498.082	16309.77
498.452	16541.18
498.821	16667.05
499.19	16682.87
499.559	16893.03
499.928	17038.11
500.298	17053.93
500.667	17288.95
501.036	17234.72
501.405	17490.3
501.774	17519
502.143	17590.87
502.512	17790.63
502.88	18015.26
503.249	17988.14
503.618	18185.2
503.987	18296.61
504.356	18379.77
504.724	18530.05
505.093	18580.44
505.462	18619.09
505.83	18801.45
506.199	18927.33
506.567	19295.45
506.936	19284.83
507.304	19432.62
507.672	19503.13
508.041	19694.09
508.409	19875.32
508.777	20001.42
509.145	20191.25
509.514	20360.51
509.882	20462.43
510.25	20526.16
510.618	20664.68
510.986	20728.18
511.354	20967.73
511.722	21134.05
512.09	21414.04
512.458	21393.7
512.826	21729.74
513.193	21689.51
513.561	21927.47
513.929	22060.8
514.297	22311.64
514.664	22513.22
515.032	22644.29
515.4	22688.81
515.767	22877.96
516.135	23017.62
516.502	22974.23
516.869	23353.43
517.237	23459.86
517.604	23500.31
517.972	23888.78
518.339	23952.05
518.706	24064.14
519.073	24159.51
519.44	24320.41
519.808	24780.28
520.175	24813.73
520.542	25014.85
520.909	25275.41
521.276	25407.61
521.643	25630.2
522.009	25846.02
522.376	26002.4
522.743	26031.55
523.11	26406.68
523.477	26674.92
523.843	26826.1
524.21	27162.36
524.577	27241.23
524.943	27368.01
525.31	27511.06
525.676	27885.51
526.043	28077.82
526.409	28231.26
526.776	28585.83
527.142	28590.58
527.508	28934.07
527.874	29002.09
528.241	29133.61
528.607	29352.82
528.973	29654.73
529.339	29636.88
529.705	29961.61
530.071	30166.35
530.437	30282.28
530.803	30525.89
531.169	30699.67
531.535	30604.08
531.901	30909.61
532.267	31067.35
532.632	31303.72
532.998	31380.56
533.364	31590.5
533.73	31671.4
534.095	32025.74
534.461	32076.36
534.826	32225.51
535.192	32503.02
535.557	32609.45
535.923	32703.01
536.288	32716.8
536.653	32860.07
537.019	32834.08
537.384	33027.3
537.749	33361.98
538.114	33465.48
538.479	33487.62
538.845	33787.05
539.21	33611.46
539.575	33926.48
539.94	33883.54
540.305	34263.42
540.67	34185.46
541.034	34313.82
541.399	34593.81
541.764	34601.94
542.129	34773.24
542.494	34749.96
542.858	34970.52
543.223	34958.32
543.587	35309.72
543.952	35195.83
544.316	35369.15
544.681	35405.09
545.045	35607.79
545.41	35839.2
545.774	35881.01
546.138	35751.07
546.503	36012.53
546.867	36158.51
547.231	36289.81
547.595	36470.59
547.959	36552.17
548.324	36774.99
548.688	36711.49
549.052	36989
549.416	37059.05
549.779	37060.18
550.143	37307.41
550.507	37413.62
550.871	37607.51
551.235	37626.95
551.599	37819.94
551.962	37990.78
552.326	38141.51
552.689	38318.23
553.053	38181.96
553.417	38373.37
553.78	38968.16
554.143	38689.75
554.507	38956.18
554.87	39054.48
555.234	39381.25
555.597	39233.23
555.96	39494.7
556.323	39620.12
556.686	39732.43
557.05	40079.31
557.413	40163.38
557.776	40345.07
558.139	40574.67
558.502	40675.46
558.865	40900.31
559.228	41122.22
559.59	41288.55
559.953	41419.17
560.316	41789.55
560.679	41897.12
561.041	42143.67
561.404	42408.52
561.767	42583.43
562.129	42558.34
562.492	43016.64
562.854	43069.74
563.217	43035.39
563.579	43311.09
563.941	43645.1
564.304	43735.26
564.666	43879.89
565.028	44008.7
565.39	44274.68
565.753	44435.36
566.115	44704.95
566.477	44878.96
566.839	45003.03
567.201	45220.42
567.563	45365.95
567.925	45603.46
568.287	45693.63
568.648	45795.77
569.01	46126.39
569.372	46301.52
569.734	46243.67
570.095	46680.72
570.457	46823.99
570.819	46986.02
571.18	46980.37
571.542	47373.58
571.903	47310.54
572.265	47549.85
572.626	47668.72
572.987	47843.18
573.349	47827.36
573.71	48110.97
574.071	48041.14
574.432	48226.22
574.794	48581.01
575.155	48621.46
575.516	48494.91
575.877	48762.02
576.238	48810.16
576.599	48911.85
576.96	48957.5
577.32	49062.81
577.681	49138.74
578.042	49321.56
578.403	49363.36
578.763	49435.9
579.124	49551.38
579.485	49617.82
579.845	49786.85
580.206	49888.55
580.566	49836.57
580.927	49779.4
581.287	50061.2
581.648	49840.41
582.008	50041.31
582.368	50019.84
582.728	50019.62
583.089	50153.4
583.449	50080.86
583.809	50117.92
584.169	50202.89
584.529	50134.64
584.889	50447.85
585.249	50236.56
585.609	50161.53
585.969	50410.34
586.329	50276.79
586.688	50293.73
587.048	50285.15
587.408	50125.83
587.768	50170.8
588.127	50167.41
588.487	50123.12
588.846	50450.57
589.206	50205.37
589.565	50318.59
589.925	50494.41
590.284	50383.68
590.643	50444.24
591.003	50567.4
591.362	50602.65
591.721	50573.95
592.08	50498.47
592.44	50580.05
592.799	50673.16
593.158	50639.94
593.517	50570.79
593.876	50684.01
594.235	50601.3
594.593	50709.99
594.952	50807.84
595.311	50657.34
595.67	50693.95
596.029	50855.08
596.387	50983.66
596.746	51112.47
597.104	50880.16
597.463	50887.62
597.822	51032.92
598.18	50845.58
598.538	50892.36
598.897	51165.58
599.255	50899.37
599.613	51324.89
599.972	51131.68
600.33	51184.33
600.688	51043.09
601.046	51285.57
601.404	51292.58
601.762	51195.18
602.12	51399.24
602.478	51460.94
602.836	51353.82
603.194	51199.7
603.552	51404.67
603.91	51193.6
604.268	51494.38
604.625	51366.47
604.983	51514.04
605.341	51359.47
605.698	51619.57
606.056	51600.37
606.413	51637.43
606.771	51754.49
607.128	51803.98
607.485	51574.83
607.843	51669.29
608.2	51873.35
608.557	51935.72
608.914	51856.63
609.272	51919.45
609.629	51994.93
609.986	52137.3
610.343	51928.04
610.7	52146.11
611.057	52064.99
611.414	52066.79
611.771	52072.22
612.127	52236.96
612.484	52187.92
612.841	52222.04
613.198	52196.06
613.554	52287.58
613.911	52496.84
614.267	52446.22
614.624	52571.64
614.98	52598.76
615.337	52647.12
615.693	52560.34
616.05	52424.75
616.406	52663.84
616.762	52584.75
617.118	52586.78
617.475	52626.1
617.831	52631.98
618.187	52627.91
618.543	52675.14
618.899	52879.2
619.255	52751.3
619.611	52767.79
619.967	52807.57
620.323	52834.01
620.678	52843.72
621.034	52653.9
621.39	52731.18
621.746	52766.21
622.101	53003.27
622.457	52763.27
622.812	52868.58
623.168	52910.16
623.523	52816.83
623.879	52898.64
624.234	52879.65
624.589	52909.03
624.945	52844.18
625.3	52938.18
625.655	52879.88
626.01	52890.05
626.365	52839.66
626.72	52791.52
627.075	52725.99
627.43	52727.34
627.785	52704.07
628.14	52815.02
628.495	52868.81
628.85	52758.08
629.205	52613.22
629.559	52850.5
629.914	52712.43
630.269	52786.1
630.623	52665.2
630.978	52613
631.332	52817.06
631.687	52911.07
632.041	52715.82
632.396	52759.43
632.75	52636.27
633.104	52652.54
633.459	52657.06
633.813	52554.92
634.167	52522.6
634.521	52544.07
634.875	52539.78
635.229	52423.4
635.583	52302.72
635.937	52285.77
636.291	52285.32
636.645	52212.78
636.999	52194.25
637.352	52315.83
637.706	52084.65
638.06	52234.47
638.413	52116.74
638.767	52080.58
639.121	52173.46
639.474	51809.4
639.828	51839
640.181	51931.66
640.534	51839.68
640.888	51724.88
641.241	51687.6
641.594	51743.41
641.947	51798.33
642.301	51600.14
642.654	51539.8
643.007	51571.89
643.36	51574.83
643.713	51499.35
644.066	51686.69
644.419	51375.97
644.771	51195.41
645.124	50785.92
645.477	50819.37
645.83	50682.65
646.182	50537.34
646.535	50413.28
646.888	50552.03
647.24	50241.08
647.593	50441.53
647.945	50406.5
648.298	50105.94
648.65	50028.43
649.002	49988.43
649.355	50107.75
649.707	50121.08
650.059	50252.61
650.411	50669.77
650.763	50690.33
651.115	50959.25
651.467	50724.46
651.819	50789.31
652.171	50678.58
652.523	50714.06
652.875	50617.12
653.227	50492.6
653.578	50853.27
653.93	50500.51
654.282	50267.52
654.633	50266.84
654.985	50451.02
655.337	50379.61
655.688	50320.17
656.039	50397.01
656.391	50204.47
656.742	50194.98
657.094	50160.18
657.445	50336.44
657.796	50259.84
658.147	50193.4
658.498	50138.26
658.849	50166.73
659.2	50121.31
659.551	49923.35
659.902	50025.49
660.253	50091.48
660.604	50114.08
660.955	49968.32
661.306	50076.11
661.656	49992.95
662.007	49972.16
662.358	49925.83
662.708	49813.29
663.059	49885.84
663.409	49641.32
663.76	49910.02
664.11	49918.15
664.461	49945.04
664.811	49924.25
665.161	49851.49
665.511	49831.37
665.862	49837.25
666.212	49937.13
666.562	49834.76
666.912	49853.07
667.262	49760.87
667.612	49805.16
667.962	49669.34
668.312	49714.99
668.662	49958.38
669.011	49731.71
669.361	49714.99
669.711	49600.87
670.06	49483.81
670.41	49430.93
670.76	49411.27
671.109	49509.12
671.459	49511.61
671.808	49413.31
672.157	49451.95
672.507	49251.05
672.856	49223.48
673.205	49261.44
673.554	49425.51
673.904	49152.52
674.253	49414.21
674.602	49172.63
674.951	48603.16
675.3	48383.73
675.649	49048.12
675.998	48915.24
676.346	48909.59
676.695	49024.84
677.044	48635.7
677.393	48809.71
677.741	48790.95
678.09	48687.45
678.438	48705.98
678.787	48696.71
679.135	48699.65
679.484	48550.05
679.832	48590.28
680.181	48375.59
680.529	48486.1
680.877	48234.58
681.225	48383.95
681.573	48559.32
681.922	48168.82
682.27	48127.92
682.618	48224.64
682.966	48132.66
683.314	48089.05
683.661	48074.58
684.009	47821.03
684.357	47751.88
684.705	47821.03
685.053	47666.23
685.4	47707.59
685.748	47462.62
686.095	47500.14
686.443	47348.27
686.79	47330.87
687.138	47390.53
687.485	47370.87
687.832	47184.44
688.18	47243.42
688.527	47018.11
688.874	46984.89
689.221	46859.93
689.568	46864.22
689.915	46621.51
690.262	46563.66
690.609	46513.72
690.956	46467.17
691.303	46461.29
691.65	46248.64
691.997	46183.33
692.344	45874.19
692.69	46000.51
693.037	45976.33
693.383	45585.84
693.73	45735.21
694.077	45457.93
694.423	45366.86
694.769	45385.39
695.116	45382.9
695.462	45328.67
695.808	45140.88
696.155	45149.91
696.501	44694.33
696.847	44745.41
697.193	44478.75
697.539	44686.42
697.885	44287.11
698.231	44215.25
698.577	44121.24
698.923	44115.37
699.269	43945.43
699.614	43867.91
699.96	43789.72
700.306	43662.27
700.651	43516.29
700.997	43343.18
701.342	43222.51
701.688	43109.52
702.033	43194.26
702.379	43042.63
702.724	42889.41
703.069	42901.84
703.415	42551.79
703.76	42624.78
704.105	42569.64
704.45	42403.55
704.795	42231.8
705.14	42119.03
705.485	42084.01
705.83	41881.98
706.175	41974.4
706.52	41765.82
706.865	41574.64
707.209	41571.7
707.554	41483.57
707.899	41460.97
708.243	41283.12
708.588	41241.99
708.932	41091.94
709.277	40914.32
709.621	41121.09
709.966	40697.38
710.31	40904.83
710.654	40451.51
710.998	40602.92
711.342	40723.82
711.687	40503.93
712.031	40323.6
712.375	40291.74
712.719	40278.4
713.063	40234.56
713.407	40376.48
713.75	40090.39
714.094	40109.82
714.438	39942.59
714.782	39948.47
715.125	39654.92
715.469	39777.85
715.812	39560.01
716.156	39396.39
716.499	39326.79
716.843	39437.75
717.186	39188.49
717.53	39249.73
717.873	39226.23
718.216	39047.02
718.559	38919.8
718.902	38534.95
719.246	38807.26
719.589	38562.29
719.932	38365.69
720.275	38354.84
720.617	38280.26
720.96	38065.81
721.303	38191.68
721.646	38151.45
721.989	37977.9
722.331	38069.2
722.674	37897.68
723.016	37917.56
723.359	37720.51
723.701	37846.38
724.044	37494.3
724.386	37306.05
724.729	37454.52
725.071	37431.25
725.413	37489.78
725.755	37417.46
726.097	37238.94
726.439	37080.97
726.782	37038.49
727.124	37278.26
727.465	36988.77
727.807	37006.63
728.149	36851.15
728.491	36924.59
728.833	36830.36
729.175	36776.58
729.516	36620.87
729.858	36496.36
730.199	36643.47
730.541	36459.52
730.882	36497.03
731.224	36441.89
731.565	36262.46
731.906	36167.33
732.248	36339.98
732.589	36024.73
732.93	35884.62
733.271	36053.88
733.612	35906.77
733.953	35894.11
734.294	35721.91
734.635	35629.94
734.976	35707.68
735.317	35487.34
735.658	35502.94
735.999	35542.71
736.339	35408.48
736.68	35620.45
737.021	35413
737.361	35132.32
737.702	35266.78
738.042	35223.17
738.383	34995.61
738.723	35064.98
739.063	34857.98
739.404	35062.5
739.744	34980.24
740.084	34707.93
740.424	34744.76
740.764	34657.76
741.104	34712
741.444	34500.93
741.784	34436.52
742.124	34498.44
742.464	34381.84
742.804	34321.5
743.143	34180.03
743.483	34208.51
743.823	34091.67
744.162	34082.41
744.502	33974.39
744.841	33847.84
745.181	34081.28
745.52	33765.58
745.86	33991.34
746.199	33753.6
746.538	33748.86
746.877	33712.25
747.216	33737.79
747.556	33670.22
747.895	33582.08
748.234	33358.13
748.573	33266.61
748.911	33384.8
749.25	33346.84
749.589	33176.9
749.928	33338.25
750.267	33259.61
750.605	33162.89
750.944	33034.07
751.283	32909.33
751.621	32923.57
751.96	32714.31
752.298	32702.33
752.636	32683.35
752.975	32642.9
753.313	32408.55
753.651	32534.88
753.989	32480.19
754.327	32342.57
754.666	32178.28
755.004	32153.42
755.342	32236.58
755.679	32209.92
756.017	31911.62
756.355	32006.76
756.693	31811.28
757.031	31655.13
757.368	31645.86
757.706	31583.49
758.044	31430.73
758.381	31357.06
758.719	31281.13
759.056	31214.01
759.394	31080.68
759.731	30827.81
760.068	30761.14
760.405	30663.74
760.743	30663.74
761.08	30739.9
761.417	30487.02
761.754	30371.32
762.091	30261.94
762.428	30180.14
762.765	29985.12
763.102	30140.37
763.438	29867.38
763.775	29853.59
764.112	29762.07
764.449	29769.53
764.785	29779.02
765.122	29502.19
765.458	29389.42
765.795	29325.47
766.131	29231.46
766.467	29085.7
766.804	29077.12
767.14	28913.73
767.476	28845.94
767.812	28730.01
768.148	28836.45
768.485	28504.25
768.821	28381.32
769.157	28317.14
769.492	28230.13
769.828	28247.08
770.164	27883.93
770.5	27860.65
770.836	27840.77
771.171	27684.84
771.507	27527.1
771.842	27439.19
772.178	27351.74
772.513	27261.35
772.849	27220.22
773.184	27046.44
773.519	27119.43
773.855	26798.98
774.19	26788.82
774.525	26692.77
774.86	26648.71
775.195	26753.79
775.53	26449.62
775.865	26234.03
776.2	26115.84
776.535	25945.67
776.87	25935.5
777.205	25829.97
777.539	25692.35
777.874	25625.91
778.209	25499.13
778.543	25393.6
778.878	25283.54
779.212	25126.03
779.547	25089.2
779.881	25233.38
780.215	25019.82
780.55	24945.25
780.884	24794.52
781.218	24758.36
781.552	24692.83
781.886	24529.67
782.22	24403.34
782.554	24339.61
782.888	24172.61
783.222	24067.53
783.556	23935.56
783.889	23882.45
784.223	23709.57
784.557	23871.38
784.89	23798.61
785.224	23639.75
785.557	23543.03
785.891	23517.71
786.224	23380.54
786.558	23416.7
786.891	23175.8
787.224	23036.37
787.557	23090.61
787.891	22967.45
788.224	22990.27
788.557	22914.57
788.89	22835.92
789.223	22885.87
789.556	22527.68
789.888	22594.12
790.221	22452.88
790.554	22289.27
790.887	22295.6
791.219	22131.08
791.552	22212.89
791.884	22059.22
792.217	21988.04
792.549	21884.54
792.882	21714.15
793.214	21677.54
793.546	21756.18
793.879	21450.2
794.211	21359.81
794.543	21395.96
794.875	21292.46
795.207	21398.45
795.539	21247.94
795.871	21173.6
796.203	21064.9
796.535	20923.88
796.867	20878.69
797.198	20876.43
797.53	20899.03
797.862	20718.47
798.193	20769.09
798.525	20468.3
798.856	20561.41
799.188	20377.01
799.519	20356.44
799.85	20220.4
800.182	20188.76
800.513	20127.52
800.844	19984.7
801.175	20079.61
801.506	20015.43
801.837	19911.03
802.168	19768.66
802.499	19835.78
802.83	19599.85
803.161	19543.58
803.491	19559.85
803.822	19546.29
804.153	19434.43
804.483	19289.13
804.814	19150.82
805.145	19262.23
805.475	19211.16
805.805	19088
806.136	19120.32
806.466	19138.4
806.796	18991.05
807.126	18802.13
807.457	18766.43
807.787	18838.74
808.117	18633.55
808.447	18696.37
808.777	18658.18
809.107	18547.45
809.436	18659.54
809.766	18517.85
810.096	18510.61
810.426	18265.42
810.755	18342.94
811.085	18313.56
811.414	18148.14
811.744	18126.67
812.073	18082.83
812.403	18211.19
812.732	17943.85
813.061	17924.64
813.39	17843.29
813.719	17879.9
814.049	17857.98
814.378	17887.58
814.707	17743.4
815.036	17704.53
815.365	17571.2
815.693	17486.24
816.022	17473.35
816.351	17414.6
816.68	17383.86
817.008	17395.16
817.337	17214.83
817.665	17262.96
817.994	17380.48
818.322	17317.2
818.651	17060.71
818.979	17041.28
819.307	17156.98
819.636	17050.31
819.964	16960.83
820.292	17055.96
820.62	17017.55
820.948	16910.21
821.276	16990.65
821.604	16891
821.932	16886.02
822.259	16967.15
822.587	16877.44
822.915	16918.57
823.243	17009.64
823.57	16897.55
823.898	16944.1
824.225	16896.42
824.553	16745.46
824.88	16925.12
825.207	16817.55
825.535	16804.45
825.862	16901.17
826.189	16846.93
826.516	16935.97
826.843	16980.94
827.17	16920.83
827.497	16820.26
827.824	16826.59
828.151	16795.63
828.478	16806.7
828.805	16834.5
829.131	16785.01
829.458	16713.83
829.785	16650.1
830.111	16741.85
830.438	16768.97
830.764	16806.7
831.09	16805.8
831.417	16651.23
831.743	16706.37
832.069	16714.73
832.395	16634.96
832.722	16675.18
833.048	16628.86
833.374	16659.59
833.7	16521.29
834.026	16596.54
834.351	16483.55
834.677	16538.92
835.003	16634.05
835.329	16573.72
835.654	16546.15
835.98	16478.13
836.306	16499.37
836.631	16413.49
836.956	16446.71
837.282	16531.91
837.607	16326.94
837.932	16354.74
838.258	16394.06
838.583	16334.4
838.908	16287.62
839.233	16267.06
839.558	16338.69
839.883	16255.08
840.208	16214.4
840.533	16232.71
840.858	16144.58
841.182	16245.82
841.507	16187.96
841.832	16057.12
842.156	16001.98
842.481	16009.44
842.805	16012.83
843.13	15977.57
843.454	15957.91
843.778	15919.5
844.103	15845.37
844.427	15773.29
844.751	15832.72
845.075	15759.95
845.399	15550.01
845.723	15495.1
846.047	15601.76
846.371	15415.33
846.695	15463.46
847.019	15279.29
847.343	15286.74
847.666	15255.56
847.99	15293.07
848.313	15106.86
848.637	15129.23
848.96	15056.24
849.284	15002.91
849.607	14981.44
849.931	14899.64
850.254	14807.89
850.577	14635.69
850.9	14651.73
851.223	14638.17
851.546	14505.3
851.869	14436.37
852.192	14582.36
852.515	14391.18
852.838	14301.69
853.161	14341.46
853.483	14250.61
853.806	14179.2
854.129	14166.77
854.451	14035.25
854.774	14030.51
855.096	14059.21
855.419	13952.77
855.741	13941.7
856.063	13950.96
856.385	13860.12
856.708	13776.5
857.03	13792.09
857.352	13778.54
857.674	13673.45
857.996	13665.54
858.318	13554.81
858.64	13580.58
858.961	13548.94
859.283	13495.15
859.605	13374.93
859.926	13513.01
860.248	13425.78
860.57	13321.82
860.891	13390.07
861.212	13299
861.534	13252
861.855	13243.63
862.176	13314.59
862.498	13255.16
862.819	13273.24
863.14	13159.34
863.461	13095.39
863.782	13172.9
864.103	13250.64
864.424	13070.76
864.745	13178.55
865.065	13010.87
865.386	13012.68
865.707	12976.75
866.027	12972.46
866.348	12826.47
866.668	12943.53
866.989	12884.1
867.309	12827.6
867.63	12902.63
867.95	12897.88
868.27	12813.59
868.59	12819.92
868.91	12742.41
869.23	12707.38
869.55	12715.74
869.87	12787.83
870.19	12729.98
870.51	12687.49
870.83	12729.3
871.15	12600.04
871.469	12641.39
871.789	12705.57
872.109	12572.69
872.428	12547.83
872.748	12596.65
873.067	12586.02
873.386	12602.3
873.706	12496.31
874.025	12502.19
874.344	12524.33
874.663	12460.6
874.982	12344
875.301	12427.39
875.62	12466.71
875.939	12378.57
876.258	12299.93
876.577	12309.2
876.896	12326.82
877.214	12184.68
877.533	12323.21
877.852	12289.31
878.17	12288.41
878.489	12275.52
878.807	12293.83
879.125	12243.66
879.444	12293.6
879.762	12243.44
880.08	12202.98
880.398	12143.78
880.716	12158.01
881.034	12058.36
881.352	12076.89
881.67	12106.94
881.988	12106.49
882.306	11990.11
882.624	12062.87
882.941	11989.66
883.259	11954.18
883.577	12006.83
883.894	12023.1
884.212	11862.88
884.529	11917.57
884.846	11886.83
885.164	11850.45
885.481	11893.84
885.798	11815.42
886.115	11754.86
886.432	11837.57
886.75	11751.47
887.067	11745.82
887.383	11732.49
887.7	11795.54
888.017	11713.73
888.334	11692.04
888.651	11673.05
888.967	11667.41
889.284	11574.53
889.6	11544.92
889.917	11510.57
890.233	11559.39
890.55	11456.11
890.866	11397.36
891.182	11414.08
891.498	11342.89
891.815	11352.39
892.131	11299.96
892.447	11267.42
892.763	11196.23
893.079	11212.73
893.395	11170.24
893.71	11120.53
894.026	11123.46
894.342	11060.87
894.657	10950.59
894.973	10938.61
895.289	10927.09
895.604	10957.59
895.92	10837.6
896.235	10770.93
896.55	10843.02
896.865	10733.87
897.181	10705.17
897.496	10749.46
897.811	10599.86
898.126	10587.21
898.441	10569.58
898.756	10552.41
899.071	10490.94
899.386	10577.04
899.7	10450.26
900.015	10420.21
900.33	10363.26
900.644	10351.28
900.959	10470.6
901.273	10299.98
901.588	10261.57
901.902	10281.9
902.216	10273.32
902.531	10160.1
902.845	10155.58
903.159	10132.53
903.473	10070.61
903.787	9992.42
904.101	10007.34
904.415	9932.99
904.729	9940.9
905.042	9923.5
905.356	9903.61
905.67	9994
905.984	9884.18
906.297	9865.42
906.611	9745.42
906.924	9763.27
907.237	9677.63
907.551	9660.45
907.864	9603.73
908.177	9693.9
908.491	9625.42
908.804	9521.47
909.117	9504.52
909.43	9438.76
909.743	9381.36
910.056	9379.56
910.368	9383.85
910.681	9345.88
910.994	9236.96
911.307	9265.21
911.619	9168.71
911.932	9195.15
912.244	9084.65
912.557	9120.58
912.869	9050.75
913.181	8995.38
913.494	9033.12
913.806	8909.96
914.118	8914.94
914.43	8881.26
914.742	8864.54
915.054	8779.12
915.366	8790.19
915.678	8760.59
915.99	8686.47
916.302	8670.2
916.613	8665.68
916.925	8654.15
917.236	8605.34
917.548	8578.67
917.859	8545.23
918.171	8430.43
918.482	8407.15
918.794	8427.72
919.105	8417.32
919.416	8328.28
919.727	8349.53
920.038	8300.71
920.349	8264.1
920.66	8278.57
920.971	8278.79
921.282	8190.66
921.593	8138.46
921.903	8104.11
922.214	8095.97
922.525	8030.66
922.835	7995.41
923.146	7984.79
923.456	7964.68
923.767	7986.6
924.077	7855.98
924.387	7876.77
924.697	7888.75
925.008	7813.27
925.318	7713.16
925.628	7737.79
925.938	7646.49
926.248	7610.56
926.558	7597.23
926.867	7646.95
927.177	7624.35
927.487	7532.6
927.796	7481.3
928.106	7451.47
928.416	7454.41
928.725	7472.71
929.034	7353.85
929.344	7414.86
929.653	7375.54
929.962	7308.42
930.271	7287.63
930.581	7249.89
930.89	7203.57
931.199	7168.09
931.508	7179.39
931.817	7154.98
932.125	7142.55
932.434	7071.14
932.743	7066.62
933.051	7007.87
933.36	7023.69
933.669	6923.35
933.977	6975.1
934.286	6888.1
934.594	6907.76
934.902	6837.25
935.21	6809
935.519	6795.89
935.827	6782.79
936.135	6787.99
936.443	6702.79
936.751	6683.13
937.059	6622.57
937.367	6593.87
937.674	6583.92
937.982	6578.73
938.29	6531.49
938.597	6593.64
938.905	6531.72
939.213	6404.72
939.52	6430.93
939.827	6455.11
940.135	6399.97
940.442	6378.73
940.749	6340.99
941.056	6324.49
941.363	6281.78
941.67	6283.37
941.977	6215.12
942.284	6200.88
942.591	6147.55
942.898	6151.62
943.205	6136.93
943.511	6147.55
943.818	6111.62
944.125	6063.26
944.431	5999.76
944.738	6055.12
945.044	6066.42
945.35	5982.13
945.657	5942.13
945.963	5936.93
946.269	5881.57
946.575	5877.73
946.881	5827.56
947.187	5834.79
947.493	5801.34
947.799	5836.37
948.105	5747.11
948.41	5738.52
948.716	5730.61
949.022	5663.27
949.327	5668.92
949.633	5566.32
949.938	5624.17
950.244	5580.11
950.549	5557.74
950.854	5568.36
951.16	5558.87
951.465	5493.78
951.77	5487
952.075	5483.39
952.38	5402.03
952.685	5418.08
952.99	5306.89
953.294	5388.7
953.599	5335.14
953.904	5275.71
954.209	5258.31
954.513	5264.41
954.818	5289.95
955.122	5197.74
955.426	5195.03
955.731	5194.35
956.035	5163.85
956.339	5157.75
956.643	5132.89
956.948	5090.85
957.252	5052.21
957.556	5027.58
957.86	5001.14
958.163	5046.56
958.467	5015.6
958.771	5024.19
959.075	4953.68
959.378	4927.7
959.682	4955.27
959.985	4882.95
960.289	4825.1
960.592	4835.72
960.896	4827.36
961.199	4809.73
961.502	4795.27
961.805	4777.42
962.108	4712.11
962.411	4751.43
962.714	4719.57
963.017	4684.99
963.32	4695.61
963.623	4609.06
963.926	4675.95
964.228	4595.73
964.531	4595.95
964.833	4591.88
965.136	4564.32
965.438	4510.76
965.741	4519.12
966.043	4515.95
966.345	4515.05
966.648	4476.63
966.95	4463.3
967.252	4375.39
967.554	4359.35
967.856	4377.43
968.158	4323.87
968.46	4333.36
968.761	4323.19
969.063	4278.9
969.365	4301.05
969.666	4293.81
969.968	4223.08
970.269	4261.5
970.571	4183.53
970.872	4155.06
971.174	4153.25
971.475	4101.28
971.776	4134.5
972.077	4139.02
972.378	4106.7
972.679	4085.01
972.98	4123.65
973.281	4037.1
973.582	4072.12
973.883	4014.05
974.183	3962.75
974.484	3973.37
974.785	3966.14
975.085	3936.99
975.386	3975.18
975.686	3903.54
975.986	3905.8
976.287	3827.84
976.587	3857.44
976.887	3848.4
977.187	3857.67
977.487	3827.61
977.787	3792.81
978.087	3781.28
978.387	3757.1
978.687	3761.17
978.987	3736.09
979.286	3713.72
979.586	3689.08
979.885	3672.36
980.185	3662.19
980.484	3673.49
980.784	3623.77
981.083	3619.26
981.382	3619.03
981.682	3586.49
981.981	3580.16
982.28	3591.23
982.579	3509.65
982.878	3558.92
983.177	3572.93
983.475	3519.14
983.774	3481.18
984.073	3457.68
984.372	3481.63
984.67	3478.92
984.969	3421.07
985.267	3429.2
985.566	3393.95
985.864	3398.02
986.162	3384.69
986.461	3329.77
986.759	3345.59
987.057	3307.4
987.355	3302.88
987.653	3315.76
987.951	3313.73
988.249	3287.51
988.547	3275.76
988.844	3229.66
989.142	3215.42
989.44	3226.27
989.737	3235.54
990.035	3179.27
990.332	3175.2
990.63	3138.14
990.927	3118.25
991.224	3098.36
991.521	3111.92
991.819	3100.62
992.116	3101.08
992.413	3087.52
992.71	3041.19
993.006	3036.9
993.303	2995.77
993.6	3007.07
993.897	3019.04
994.193	2979.95
994.49	2986.73
994.787	2974.98
995.083	2959.39
995.379	2908.09
995.676	2911.03
995.972	2892.95
996.268	2862.89
996.565	2869.22
996.861	2877.35
997.157	2863.12
997.453	2819.95
997.749	2842.55
998.044	2823.12
998.34	2767.53
998.636	2771.14
998.932	2790.12
999.227	2719.39
999.523	2717.81
999.818	2737.24
1000.114	2677.81
1000.409	2693.18
1000.704	2696.57
1001	2651.37
1001.295	2655.21
1001.59	2623.12
1001.885	2635.1
1002.18	2608.21
1002.475	2590.36
1002.77	2602.11
1003.065	2567.53
1003.359	2530.02
1003.654	2495.22
1003.949	2521.2
1004.243	2516.23
1004.538	2501.54
1004.832	2451.6
1005.127	2462
1005.421	2447.53
1005.715	2441.88
1006.009	2398.27
1006.304	2400.08
1006.598	2360.76
1006.892	2397.59
1007.186	2369.34
1007.48	2363.69
1007.773	2339.06
1008.067	2332.51
1008.361	2304.26
1008.655	2308.33
1008.948	2282.79
1009.242	2242.34
1009.535	2248.22
1009.829	2214.09
1010.122	2215.9
1010.415	2206.86
1010.708	2196.47
1011.001	2162.34
1011.295	2171.84
1011.588	2169.58
1011.881	2134.55
1012.173	2118.73
1012.466	2137.03
1012.759	2098.17
1013.052	2129.58
1013.344	2100.65
1013.637	2037.15
1013.93	2062.69
1014.222	2055
1014.514	2038.28
1014.807	2060.43
1015.099	2004.61
1015.391	2022.23
1015.683	1984.27
1015.976	1948.56
1016.268	1944.04
1016.56	1953.31
1016.851	1947.43
1017.143	1911.96
1017.435	1914.44
1017.727	1932.07
1018.018	1899.98
1018.31	1922.12
1018.602	1872.86
1018.893	1857.27
1019.185	1831.73
1019.476	1833.31
1019.767	1845.29
1020.058	1824.27
1020.35	1817.95
1020.641	1789.92
1020.932	1792.86
1021.223	1749.7
1021.514	1732.75
1021.804	1727.78
1022.095	1727.78
1022.386	1731.62
1022.677	1697.72
1022.967	1718.29
1023.258	1675.35
1023.548	1691.4
1023.839	1671.96
1024.129	1647.56
1024.419	1642.81
1024.709	1620.89
1025	1598.29
1025.29	1542.93
1025.58	1569.82
1025.87	1565.52
1026.16	1546.54
1026.449	1568.24
1026.739	1553.09
1027.029	1548.35
1027.319	1541.12
1027.608	1520.55
1027.898	1490.95
1028.187	1483.04
1028.477	1486.88
1028.766	1477.84
1029.055	1464.28
1029.344	1467.22
1029.634	1444.85
1029.923	1426.09
1030.212	1409.14
1030.501	1415.02
1030.79	1401.46
1031.078	1398.07
1031.367	1386.32
1031.656	1345.64
1031.945	1365.98
1032.233	1347.68
1032.522	1355.59
1032.81	1343.61
1033.099	1330.95
1033.387	1312.2
1033.675	1331.63
1033.963	1299.09
1034.251	1271.97
1034.54	1298.86
1034.828	1277.17
1035.116	1275.59
1035.403	1268.58
1035.691	1260.9
1035.979	1233.1
1036.267	1203.05
1036.554	1219.32
1036.842	1205.08
1037.129	1204.4
1037.417	1194.01
1037.704	1195.82
1037.992	1189.49
1038.279	1200.56
1038.566	1157.85
1038.853	1157.85
1039.14	1157.85
