Data from aluminium_surface_pro_back_FLMS001491_00070.txt Node
Date: Wed Feb 08 15:34:24 GMT 2017
User: dcchb
Spectrometer: FLMS00149
Trigger mode: 0
Integration Time (sec): 2.000000E-2
Scans to average: 10
Electric dark correction enabled: true
Nonlinearity correction enabled: false
Boxcar width: 0
XAxis mode: Wavelengths
Number of Pixels in Spectrum: 2048
>>>>>Begin Spectral Data<<<<<
341.393	1.86
341.776	1.86
342.16	1.86
342.543	-56.21
342.927	-67.29
343.31	-69.55
343.693	-69.32
344.077	-57.12
344.46	-67.96
344.843	-55.31
345.226	-46.27
345.61	-25.93
345.993	-20.73
346.376	-0.17
346.759	19.49
347.142	16.33
347.525	40.73
347.908	52.48
348.291	82.77
348.674	83.67
349.057	116.89
349.44	112.82
349.823	146.04
350.206	160.96
350.588	212.71
350.971	242.54
351.354	242.99
351.737	292.03
352.119	295.64
352.502	274.17
352.884	301.74
353.267	300.16
353.65	325.92
354.032	315.98
354.414	323.89
354.797	342.65
355.179	352.36
355.562	345.81
355.944	344.68
356.326	367.05
356.709	367.96
357.091	361.18
357.473	377.67
357.855	367.73
358.238	360.72
358.62	387.62
359.002	365.24
359.384	402.08
359.766	398.46
360.148	379.48
360.53	397.56
360.912	365.24
361.294	393.04
361.676	387.84
362.057	360.5
362.439	379.03
362.821	378.58
363.203	372.48
363.584	383.1
363.966	372.7
364.348	378.13
364.729	364.57
365.111	365.24
365.493	351.46
365.874	376.32
366.256	364.11
366.637	368.41
367.019	374.28
367.4	374.51
367.781	384
368.163	355.3
368.544	382.65
368.925	386.94
369.306	399.37
369.688	375.64
370.069	382.65
370.45	390.33
370.831	391.91
371.212	377.67
371.593	392.14
371.974	404.57
372.355	393.72
372.736	388.52
373.117	397.79
373.498	387.62
373.879	397.33
374.26	374.28
374.641	370.89
375.021	386.71
375.402	404.79
375.783	427.16
376.163	437.33
376.544	442.53
376.925	420.84
377.305	412.48
377.686	418.35
378.066	428.75
378.447	416.99
378.827	410.89
379.208	442.08
379.588	410.44
379.968	437.11
380.349	455.64
380.729	436.43
381.109	443.43
381.489	470.1
381.87	470.78
382.25	472.13
382.63	466.94
383.01	475.52
383.39	470.78
383.77	480.72
384.15	452.25
384.53	502.64
384.91	479.37
385.29	493.6
385.67	480.04
386.049	518.23
386.429	516.43
386.809	520.72
387.189	503.77
387.568	493.38
387.948	516.88
388.328	525.69
388.707	534.28
389.087	544
389.466	530.21
389.846	569.53
390.225	567.27
390.605	572.92
390.984	573.15
391.363	589.65
391.743	600.72
392.122	589.19
392.501	596.88
392.881	597.33
393.26	612.02
393.639	630.77
394.018	623.77
394.397	626.48
394.776	624.9
395.155	650.43
395.534	661.73
395.913	659.47
396.292	644.33
396.671	679.59
397.05	671.9
397.429	676.65
397.808	663.54
398.186	670.77
398.565	723.43
398.944	708.51
399.323	711.45
399.701	737.44
400.08	735.18
400.458	759.58
400.837	764.33
401.215	728.85
401.594	745.57
401.972	778.79
402.351	783.54
402.729	784.67
403.107	800.49
403.486	793.26
403.864	814.95
404.242	817.89
404.62	830.54
404.999	853.14
405.377	873.93
405.755	845.46
406.133	865.34
406.511	890.2
406.889	876.19
407.267	916.87
407.645	935.17
408.023	956.87
408.401	956.42
408.779	994.61
409.156	963.42
409.534	983.99
409.912	1017.88
410.29	1026.02
410.667	1043.19
411.045	1028.96
411.422	1046.81
411.8	1063.76
412.178	1102.85
412.555	1094.49
412.933	1092.23
413.31	1145.56
413.687	1139.91
414.065	1172.91
414.442	1166.58
414.819	1184.21
415.197	1188.27
415.574	1214.04
415.951	1230.98
416.328	1221.04
416.705	1268.5
417.082	1287.93
417.46	1247.71
417.837	1302.17
418.214	1301.49
418.591	1310.98
418.967	1299.46
419.344	1318.21
419.721	1336.52
420.098	1344.43
420.475	1357.53
420.852	1372
421.228	1412.9
421.605	1418.55
421.982	1442.05
422.358	1458.78
422.735	1462.84
423.111	1456.29
423.488	1477.53
423.864	1488.83
424.241	1514.37
424.617	1532.9
424.994	1565.89
425.37	1575.61
425.746	1604.99
426.123	1609.28
426.499	1631.65
426.875	1662.84
427.251	1697.64
427.627	1710.75
428.003	1703.29
428.379	1728.6
428.756	1751.87
429.132	1757.07
429.507	1826.22
429.883	1850.4
430.259	1874.81
430.635	1843.4
431.011	1910.97
431.387	1933.34
431.763	1968.14
432.138	1962.72
432.514	2002.49
432.89	2025.54
433.265	2053.11
433.641	2073.45
434.016	2085.65
434.392	2160.45
434.767	2169.49
435.143	2179.43
435.518	2193.22
435.894	2263.95
436.269	2241.13
436.644	2309.37
437.02	2315.93
437.395	2334.91
437.77	2351.63
438.145	2396.83
438.52	2416.04
438.895	2436.15
439.271	2458.75
439.646	2514.11
440.021	2527.45
440.395	2534.91
440.77	2552.76
441.145	2583.94
441.52	2619.2
441.895	2636.37
442.27	2625.07
442.645	2638.41
443.019	2695.8
443.394	2696.26
443.769	2714.79
444.143	2743.94
444.518	2790.72
444.892	2753.43
445.267	2817.16
445.641	2847.67
446.016	2829.59
446.39	2848.34
446.764	2886.08
447.139	2885.4
447.513	2957.27
447.887	2957.27
448.262	2958.17
448.636	2993.65
449.01	3005.4
449.384	3049.02
449.758	3057.38
450.132	3118.62
450.506	3113.65
450.88	3112.52
451.254	3146.87
451.628	3221.44
452.002	3283.13
452.376	3289.24
452.75	3281.33
453.123	3334.88
453.497	3431.83
453.871	3452.17
454.244	3487.65
454.618	3499.17
454.992	3548.44
455.365	3571.71
455.739	3659.62
456.112	3663.91
456.486	3708.43
456.859	3763.35
457.232	3840.18
457.606	3827.75
457.979	3884.25
458.352	3979.84
458.725	4018.93
459.099	4058.25
459.472	4094.64
459.845	4146.16
460.218	4233.39
460.591	4230.91
460.964	4232.94
461.337	4365.82
461.71	4421.41
462.083	4432.93
462.456	4503.89
462.829	4544.57
463.201	4601.97
463.574	4650.78
463.947	4700.95
464.32	4870.66
464.692	4825.92
465.065	4867.95
465.438	4931.9
465.81	5010.09
466.183	5051
466.555	5228.85
466.928	5205.8
467.3	5222.07
467.672	5306.58
468.045	5453.25
468.417	5477.65
468.789	5497.09
469.161	5607.59
469.534	5663.64
469.906	5779.11
470.278	5853.24
470.65	5897.08
471.022	5971.2
471.394	6139.1
471.766	6168.48
472.138	6293.68
472.51	6407.35
472.882	6532.09
473.253	6590.84
473.625	6664.06
473.997	6805.98
474.369	6873.55
474.74	6992.42
475.112	7082.81
475.484	7164.39
475.855	7288.9
476.227	7373.65
476.598	7544.04
476.97	7590.14
477.341	7860.41
477.713	7943.58
478.084	8045.95
478.455	8287.07
478.827	8330.91
479.198	8501.53
479.569	8538.82
479.94	8828.07
480.311	8965.92
480.682	9104.22
481.053	9296.31
481.424	9484.33
481.795	9521.61
482.166	9687.49
482.537	9862.17
482.908	10061.94
483.279	10100.36
483.65	10361.59
484.021	10609.95
484.391	10629.61
484.762	10733.79
485.133	10854.69
485.503	11040.67
485.874	11269.82
486.244	11373.54
486.615	11601.56
486.985	11702.35
487.356	12026.41
487.726	12122.68
488.097	12390.24
488.467	12410.8
488.837	12603.11
489.207	12774.41
489.578	13131.01
489.948	13107.28
490.318	13302.08
490.688	13496.2
491.058	13569.19
491.428	13765.8
491.798	13878.11
492.168	14264.77
492.538	14316.97
492.908	14505.66
493.278	14724.42
493.648	14728.48
494.017	14954.24
494.387	15026.1
494.757	15223.61
495.126	15339.31
495.496	15328.24
495.866	15512.42
496.235	15773.65
496.605	15839.87
496.974	15923.25
497.344	16098.62
497.713	16217.71
498.082	16391.26
498.452	16492.96
498.821	16646.85
499.19	16666.28
499.559	16807.75
499.928	16993.51
500.298	17071.7
500.667	17254.52
501.036	17218.81
501.405	17469.43
501.774	17473.27
502.143	17726.37
502.512	17863.32
502.88	17990.77
503.249	17983.31
503.618	18203.65
503.987	18283.87
504.356	18263.98
504.724	18428.05
505.093	18477.76
505.462	18727.7
505.83	18789.17
506.199	18983.74
506.567	19324.52
506.936	19315.03
507.304	19536.49
507.672	19520.67
508.041	19790.27
508.409	19843.15
508.777	20011.96
509.145	20249.69
509.514	20300.09
509.882	20475.9
510.25	20551.38
510.618	20726.07
510.986	20836.12
511.354	20965.61
511.722	21159.27
512.09	21463.22
512.458	21439.49
512.826	21658.92
513.193	21801.52
513.561	21950.21
513.929	22152.24
514.297	22378.9
514.664	22383.42
515.032	22578.22
515.4	22868.16
515.767	22908.83
516.135	23084.42
516.502	22896.4
516.869	23448.93
517.237	23600.57
517.604	23509.04
517.972	23883.5
518.339	23983.38
518.706	24096.37
519.073	24260.21
519.44	24454.33
519.808	24598.96
520.175	24669.46
520.542	25115.1
520.909	25326.62
521.276	25250.69
521.643	25620.63
522.009	25774.07
522.376	25972.93
522.743	26102.2
523.11	26311.91
523.477	26696.53
523.843	26866.92
524.21	27094.49
524.577	27301.71
524.943	27397.3
525.31	27510.29
525.676	27871.19
526.043	28096.27
526.409	28214.91
526.776	28587.1
527.142	28688.79
527.508	28753.2
527.874	29099.86
528.241	29144.83
528.607	29376.91
528.973	29578.49
529.339	29658.49
529.705	29866.16
530.071	30269.09
530.437	30442.65
530.803	30622.75
531.169	30715.18
531.535	30835.4
531.901	30975.97
532.267	31077.88
532.632	31286.47
532.998	31485.1
533.364	31670.18
533.73	31715.38
534.095	32055.48
534.461	32047.12
534.826	32358.53
535.192	32360.79
535.557	32535.25
535.923	32643.49
536.288	32785.64
536.653	33025.63
537.019	32964.16
537.384	33125.74
537.749	33359.86
538.114	33398.95
538.479	33535.9
538.845	33815.21
539.21	33700.87
539.575	33915.55
539.94	34114.19
540.305	34245.26
540.67	34260.4
541.034	34394.41
541.399	34540.39
541.764	34748.97
542.129	34787.39
542.494	34828.07
542.858	34922.08
543.223	35072.81
543.587	35230.32
543.952	35210.66
544.316	35366.81
544.681	35418.79
545.045	35640.02
545.41	35776.52
545.774	35922.05
546.138	35957.08
546.503	36143.06
546.867	36115.04
547.231	36451.98
547.595	36572.2
547.959	36672.31
548.324	36656.04
548.688	36851.97
549.052	36790.95
549.416	36991.17
549.779	37124.96
550.143	37276.59
550.507	37427.09
550.871	37569.69
551.235	37675.68
551.599	38027.08
551.962	37962.67
552.326	38065.72
552.689	38291.93
553.053	38270.24
553.417	38419.61
553.78	38914.97
554.143	38638.81
554.507	39021.86
554.87	39114.96
555.234	39416.42
555.597	39333.49
555.96	39549.3
556.323	39736.64
556.686	39907.71
557.05	40063.41
557.413	40144.31
557.776	40444.19
558.139	40632.89
558.502	40711.53
558.865	40878.53
559.228	41246.88
559.59	41295.92
559.953	41337.5
560.316	41885.96
560.679	41923.93
561.041	42200.3
561.404	42433.74
561.767	42679.84
562.129	42457.47
562.492	42913.96
562.854	43073.5
563.217	43103.33
563.579	43218.58
563.941	43476.43
564.304	43768.62
564.666	43995.51
565.028	43979.24
565.39	44307.14
565.753	44547.13
566.115	44696.28
566.477	44860.35
566.839	44979.21
567.201	45320.67
567.563	45346.66
567.925	45632.98
568.287	45655.35
568.648	45906.87
569.01	45971.28
569.372	46415.11
569.734	46352.51
570.095	46670.92
570.457	46865.94
570.819	47024.36
571.18	47040.63
571.542	47366.04
571.903	47367.17
572.265	47506.15
572.626	47563.55
572.987	47776.2
573.349	47862.98
573.71	48070.43
574.071	48272.91
574.432	48268.62
574.794	48616.63
575.155	48593.36
575.516	48428.61
575.877	48766.91
576.238	48830.64
576.599	49009.16
576.96	48991.99
577.32	48997.64
577.681	49234.92
578.042	49358.76
578.403	49402.83
578.763	49569.6
579.124	49613.22
579.485	49645.98
579.845	49781.12
580.206	49773.66
580.566	49752.87
580.927	49749.71
581.287	49983.6
581.648	49862.93
582.008	50012.75
582.368	49942.92
582.728	50088.91
583.089	50062.92
583.449	50062.47
583.809	50158.96
584.169	50208.45
584.529	50102.47
584.889	50455.68
585.249	50274.21
585.609	50106.08
585.969	50326.64
586.329	50262.46
586.688	50285.06
587.048	50192.64
587.408	50148.34
587.768	50229.7
588.127	50272.63
588.487	50065.41
588.846	50461.33
589.206	50226.31
589.565	50323.48
589.925	50502.23
590.284	50559.18
590.643	50552.4
591.003	50533.42
591.362	50653.41
591.721	50581.33
592.08	50579.52
592.44	50650.7
592.799	50690.48
593.158	50623.13
593.517	50714.2
593.876	50694.54
594.235	50708.33
594.593	50768.44
594.952	50832.39
595.311	50657.03
595.67	50924.14
596.029	50959.62
596.387	50957.59
596.746	51089.56
597.104	50951.26
597.463	50843.92
597.822	50991.94
598.18	50930.92
598.538	50990.58
598.897	51062.67
599.255	50873.07
599.613	51364.58
599.972	51072.61
600.33	51273.28
600.688	51124.36
601.046	51233.74
601.404	51378.37
601.762	51254.75
602.12	51466.05
602.478	51468.08
602.836	51506.5
603.194	51325.03
603.552	51408.2
603.91	51353.96
604.268	51400.29
604.625	51429.21
604.983	51560.06
605.341	51455.65
605.698	51642.99
606.056	51654.29
606.413	51661.3
606.771	51731.35
607.128	51808.41
607.485	51691.13
607.843	51765.48
608.2	51938.35
608.557	51897.22
608.914	51843.89
609.272	51947.84
609.629	51968.63
609.986	52155.97
610.343	51836.66
610.7	52212.02
611.057	52072.36
611.414	52115.97
611.771	52159.36
612.127	52268.29
612.484	52211.34
612.841	52420.83
613.198	52251.11
613.554	52253.15
613.911	52582.4
614.267	52498.56
614.624	52454.5
614.98	52566.81
615.337	52593.48
615.693	52600.03
616.05	52543.53
616.406	52787.37
616.762	52605.45
617.118	52559.13
617.475	52584.44
617.831	52618.56
618.187	52775.62
618.543	52784.43
618.899	52913.02
619.255	52781.49
619.611	52751.44
619.967	52849.06
620.323	52892.68
620.678	52755.05
621.034	52771.1
621.39	52833.24
621.746	52754.6
622.101	53040.24
622.457	52757.77
622.812	52927.25
623.168	52842.96
623.523	52922.05
623.879	53020.36
624.234	52763.41
624.589	52853.36
624.945	52856.75
625.3	52943.3
625.655	52897.65
626.01	52891.77
626.365	52913.24
626.72	52912.79
627.075	52754.83
627.43	52758.9
627.785	52713.92
628.14	52851.55
628.495	52888.16
628.85	52757.77
629.205	52645.68
629.559	52852.9
629.914	52767.26
630.269	52870.53
630.623	52721.83
630.978	52742.4
631.332	52771.78
631.687	52889.51
632.041	52767.48
632.396	52768.84
632.75	52687.48
633.104	52668.5
633.459	52595.74
633.813	52612.23
634.167	52580.14
634.521	52485.23
634.875	52598.45
635.229	52579.24
635.583	52239.59
635.937	52314.16
636.291	52318.68
636.645	52317.78
636.999	52181.96
637.352	52268.51
637.706	52017.67
638.06	52273.71
638.413	52100.83
638.767	52033.04
639.121	52143.54
639.474	51883.89
639.828	51959.14
640.181	51846.15
640.534	51901.97
640.888	51854.96
641.241	51651.13
641.594	51644.57
641.947	51664.91
642.301	51650
642.654	51707.4
643.007	51702.2
643.36	51610.22
643.713	51472.15
644.066	51619.26
644.419	51438.7
644.771	51122.1
645.124	50932.5
645.477	50892.28
645.83	50673.07
646.182	50579.52
646.535	50438.05
646.888	50514.89
647.24	50249.13
647.593	50586.07
647.945	50414.55
648.298	50196.7
648.65	50094.33
649.002	50150.83
649.355	50194.67
649.707	50169.81
650.059	50302.69
650.411	50635.11
650.763	50633.53
651.115	50992.61
651.467	50807.99
651.819	50800.75
652.171	50663.36
652.523	50614.54
652.875	50746.07
653.227	50532.06
653.578	50646.18
653.93	50620.65
654.282	50451.61
654.633	50248.68
654.985	50384.72
655.337	50450.03
655.688	50370.71
656.039	50496.36
656.391	50124.84
656.742	50270.6
657.094	50361.44
657.445	50385.17
657.796	50297.49
658.147	50128.23
658.498	50180.88
658.849	50324.38
659.2	50058.63
659.551	50018.18
659.902	50138.17
660.253	50149.25
660.604	50065.18
660.955	49899.54
661.306	50046.2
661.656	49940.66
662.007	49933.66
662.358	50008.46
662.708	49928.24
663.059	49919.87
663.409	49799.43
663.76	49993.32
664.11	49861.57
664.461	49887.78
664.811	49929.82
665.161	49926.88
665.511	49808.69
665.862	49766.43
666.212	49984.28
666.562	49875.58
666.912	49842.81
667.262	49862.25
667.612	49793.1
667.962	49788.35
668.312	49742.48
668.662	49817.96
669.011	49677.39
669.361	49565.08
669.711	49636.04
670.06	49564.18
670.41	49433.56
670.76	49434.01
671.109	49523.05
671.459	49526.89
671.808	49464.97
672.157	49476.5
672.507	49302.94
672.856	49284.86
673.205	49320.79
673.554	49456.16
673.904	49238.54
674.253	49280.57
674.602	49440.11
674.951	48619.34
675.3	48408.95
675.649	49024.53
675.998	49093.91
676.346	48994.47
676.695	49030.41
677.044	48615.5
677.393	48731.2
677.741	48862.27
678.09	48764.42
678.438	48733.69
678.787	48768.49
679.135	48709.06
679.484	48387.71
679.832	48598.55
680.181	48314.49
680.529	48472.68
680.877	48413.02
681.225	48413.25
681.573	48576.18
681.922	48156.08
682.27	48220.03
682.618	48114.5
682.966	48128.73
683.314	48184.33
683.661	47977.1
684.009	47815.97
684.357	47700.95
684.705	47699.37
685.053	47967.38
685.4	47751.12
685.748	47671.35
686.095	47571.91
686.443	47371.24
686.79	47323.33
687.138	47415.08
687.485	47467.28
687.832	47329.43
688.18	47335.76
688.527	47100.96
688.874	47046.73
689.221	46994.53
689.568	46759.73
689.915	46711.37
690.262	46661.65
690.609	46493.52
690.956	46493.3
691.303	46510.92
691.65	46254.66
691.997	46230.93
692.344	46010.82
692.69	45961.79
693.037	46021.9
693.383	45612.87
693.73	45699.65
694.077	45463.95
694.423	45512.98
694.769	45414.91
695.116	45341.01
695.462	45280.45
695.808	45096.95
696.155	45143.95
696.501	44776.96
696.847	44827.8
697.193	44595.95
697.539	44720.69
697.885	44344.43
698.231	44162.96
698.577	44252.23
698.923	44135.62
699.269	43835.51
699.614	43764.56
699.96	43770.43
700.306	43784.22
700.651	43609.53
700.997	43510.1
701.342	43486.37
701.688	43247.05
702.033	43210.67
702.379	43040.73
702.724	43026.27
703.069	42998.93
703.415	42625.15
703.76	42682.78
704.105	42512.39
704.45	42443.46
704.795	42206.18
705.14	42028.1
705.485	42108.1
705.83	41965.51
706.175	41939.07
706.52	41956.02
706.865	41682.8
707.209	41594.9
707.554	41430.38
707.899	41656.14
708.243	41362.13
708.588	41316.48
708.932	41112.2
709.277	41117.17
709.621	41136.38
709.966	40865.87
710.31	40837.17
710.654	40467.92
710.998	40730.51
711.342	40718.99
711.687	40509.05
712.031	40322.61
712.375	40274.48
712.719	40402.38
713.063	40478.09
713.407	40437.64
713.75	40100.25
714.094	40115.84
714.438	39912.45
714.782	40019.12
715.125	39739.12
715.469	39780.71
715.812	39551.56
716.156	39489.19
716.499	39364.67
716.843	39480.15
717.186	39125.58
717.53	39248.74
717.873	39156.32
718.216	39202.19
718.559	39107.95
718.902	38664.58
719.246	38737.57
719.589	38518.59
719.932	38416.9
720.275	38333.06
720.617	38293.29
720.96	38360.18
721.303	38378.03
721.646	38316.11
721.989	38022.11
722.331	38152.5
722.674	38002.9
723.016	37991.15
723.359	37829.8
723.701	37847.65
724.044	37446.08
724.386	37372.18
724.729	37546.41
725.071	37511.61
725.413	37417.15
725.755	37355.68
726.097	37336.7
726.439	37098.74
726.782	37059.87
727.124	37307.55
727.465	36897.62
727.807	37082.02
728.149	36976.94
728.491	36877.96
728.833	36801.57
729.175	36804.74
729.516	36701.92
729.858	36571.3
730.199	36628.7
730.541	36501.47
730.882	36427.57
731.224	36482.94
731.565	36229.16
731.906	36339.67
732.248	36226.22
732.589	35952.56
732.93	36000.69
733.271	35936.29
733.612	35909.17
733.953	35989.84
734.294	35748.95
734.635	35719.57
734.976	35830.98
735.317	35579.23
735.658	35355.29
735.999	35481.38
736.339	35482.29
736.68	35563.87
737.021	35305.12
737.361	35238.23
737.702	35259.47
738.042	35213.37
738.383	35058.12
738.723	35136.53
739.063	34992.81
739.404	35060.15
739.744	34885.92
740.084	34818.58
740.424	34773.38
740.764	34671.91
741.104	34852.02
741.444	34554.63
741.784	34407.51
742.124	34553.5
742.464	34400.28
742.804	34319.83
743.143	34175.88
743.483	34202.77
743.823	34105.6
744.162	34041.87
744.502	34167.29
744.841	33847.3
745.181	34125.49
745.52	33872.16
745.86	33875.1
746.199	33704.48
746.538	33759.17
746.877	33807.3
747.216	33819.51
747.556	33665.39
747.895	33579.06
748.234	33524.37
748.573	33322.57
748.911	33406.18
749.25	33370.93
749.589	33287.54
749.928	33273.53
750.267	33242.57
750.605	33110.37
750.944	33079.86
751.283	32804.62
751.621	32992.41
751.96	32730.72
752.298	32839.64
752.636	32763.94
752.975	32526.66
753.313	32492.54
753.651	32560.78
753.989	32355.36
754.327	32445.76
754.666	32276.95
755.004	32257.97
755.342	32212.09
755.679	32102.72
756.017	31933.45
756.355	31948.82
756.693	31677.64
757.031	31757.19
757.368	31721.48
757.706	31583.86
758.044	31505.22
758.381	31433.13
758.719	31324.88
759.056	31340.7
759.394	31125.79
759.731	30925.57
760.068	30957.66
760.405	30588.4
760.743	30570.55
761.08	30808.06
761.417	30469.31
761.754	30482.64
762.091	30245.14
762.428	30282.88
762.765	30116.78
763.102	30140.51
763.438	29893.96
763.775	29791.14
764.112	29828.65
764.449	29792.27
764.785	29728.99
765.122	29424.14
765.458	29378.04
765.795	29467.3
766.131	29293.3
766.467	29200.64
766.804	28952.52
767.14	28883.59
767.476	28810.37
767.812	28764.95
768.148	28709.13
768.485	28522.24
768.821	28438.4
769.157	28350.27
769.492	28209.26
769.828	28197.06
770.164	27899.66
770.5	27915.03
770.836	27778.54
771.171	27684.98
771.507	27541.48
771.842	27454.7
772.178	27385.78
772.513	27350.75
772.849	27117.31
773.184	27112.56
773.519	27095.62
773.855	26852.46
774.19	26768.17
774.525	26711.44
774.86	26714.16
775.195	26623.54
775.53	26564.33
775.865	26235.52
776.2	26184.45
776.535	25981.75
776.87	26001.41
777.205	25804.12
777.539	25733.62
777.874	25731.36
778.209	25467.41
778.543	25439.39
778.878	25185.61
779.212	25144.93
779.547	25157.36
779.881	25180.41
780.215	25018.83
780.55	25163.01
780.884	24837.6
781.218	24713.08
781.552	24846.41
781.886	24547.21
782.22	24485.29
782.554	24326.2
782.888	24196.26
783.222	24027
783.556	24065.19
783.889	23978.64
784.223	23899.54
784.557	23794.01
784.89	23685.76
785.224	23587.46
785.557	23600.79
785.891	23373
786.224	23507.01
786.558	23354.24
786.891	23172.78
787.224	23079.45
787.557	23080.58
787.891	22958.77
788.224	22956.06
788.557	22989.51
788.89	22812.79
789.223	22780.25
789.556	22508.84
789.888	22572.57
790.221	22502.74
790.554	22335.29
790.887	22309.75
791.219	22253.71
791.552	22218.68
791.884	22051
792.217	22002.64
792.549	21849.2
792.882	21756.09
793.214	21698.02
793.546	21676.32
793.879	21543.22
794.211	21380.29
794.543	21404.69
794.875	21251.7
795.207	21401.75
795.539	21188.2
795.871	21334.41
796.203	21034.98
796.535	20868.66
796.867	20940.75
797.198	20883.35
797.53	20806.29
797.862	20676.57
798.193	20704.37
798.525	20643.58
798.856	20530.14
799.188	20400.65
799.519	20265.06
799.85	20229.36
800.182	20257.38
800.513	20174.89
800.844	19912.08
801.175	20100.32
801.506	20081.34
801.837	19978.29
802.168	19897.39
802.499	19838.86
802.83	19811.96
803.161	19618.98
803.491	19575.81
803.822	19524.06
804.153	19438.64
804.483	19322.71
804.814	19243.39
805.145	19207.01
805.475	19145.77
805.805	19094.7
806.136	19095.15
806.466	19107.35
806.796	18941.71
807.126	18783.97
807.457	18740.81
807.787	18780.81
808.117	18688.38
808.447	18656.06
808.777	18673.46
809.107	18609.06
809.436	18599.34
809.766	18556.63
810.096	18437.99
810.426	18294.72
810.755	18250.88
811.085	18222.85
811.414	18161.84
811.744	18044.78
812.073	18080.49
812.403	18041.39
812.732	17877.78
813.061	17931.79
813.39	17837.1
813.719	17756.43
814.049	17889.08
814.378	17841.62
814.707	17754.17
815.036	17722.08
815.365	17651.8
815.693	17490.9
816.022	17488.64
816.351	17467.39
816.68	17371.58
817.008	17448.41
817.337	17381.07
817.665	17206.84
817.994	17304.23
818.322	17346.04
818.651	17190.56
818.979	16985.37
819.307	17214.97
819.636	17104.92
819.964	16967.07
820.292	17024.24
820.62	16971.81
820.948	16984.24
821.276	17050.23
821.604	16881.87
821.932	16967.29
822.259	17014.52
822.587	16995.77
822.915	16852.72
823.243	16963.9
823.57	16942.89
823.898	16849.78
824.225	16911.7
824.553	16745.83
824.88	16817.47
825.207	16817.24
825.535	16855.88
825.862	16954.64
826.189	16715.32
826.516	16917.13
826.843	16982.43
827.17	16862.66
827.497	16897.24
827.824	16911.93
828.151	16873.29
828.478	16795.77
828.805	16834.42
829.131	16756.9
829.458	16760.29
829.785	16696.11
830.111	16783.12
830.438	16816.34
830.764	16772.5
831.09	16831.93
831.417	16660.18
831.743	16840.29
832.069	16772.27
832.395	16635.55
832.722	16649.79
833.048	16616.34
833.374	16604.59
833.7	16526.4
834.026	16515.55
834.351	16669.9
834.677	16672.16
835.003	16642.78
835.329	16632.16
835.654	16597.36
835.98	16388.1
836.306	16528.66
836.631	16323.02
836.956	16524.82
837.282	16452.51
837.607	16442.56
837.932	16315.56
838.258	16384.71
838.583	16421.09
838.908	16264.49
839.233	16322.34
839.558	16290.02
839.883	16220.42
840.208	16217.48
840.533	16100.65
840.858	16210.7
841.182	16261.32
841.507	16155.79
841.832	16086.19
842.156	16101.1
842.481	16037.37
842.805	15991.27
843.13	15966.42
843.454	15953.08
843.778	15886.64
844.103	15845.29
844.427	15788.79
844.751	15768.46
845.075	15795.35
845.399	15706.31
845.723	15531.17
846.047	15577.05
846.371	15463.6
846.695	15427
847.019	15314.68
847.343	15250.73
847.666	15174.8
847.99	15245.53
848.313	15184.29
848.637	15132.77
848.96	15113.11
849.284	15041.69
849.607	14867.01
849.931	14918.08
850.254	14791.08
850.577	14736.17
850.9	14587.47
851.223	14647.81
851.546	14604.64
851.869	14460.02
852.192	14548.6
852.515	14304.99
852.838	14343.18
853.161	14340.92
853.483	14242.85
853.806	14153.58
854.129	14129.18
854.451	14132.57
854.774	14001.5
855.096	13998.33
855.419	14037.65
855.741	13932.35
856.063	13849.64
856.385	13946.13
856.708	13868.62
857.03	13829.52
857.352	13746.81
857.674	13690.32
857.996	13709.3
858.318	13594.28
858.64	13577.55
858.961	13567.61
859.283	13533.94
859.605	13454.62
859.926	13514.5
860.248	13425.92
860.57	13422.3
860.891	13387.95
861.212	13362.64
861.534	13341.17
861.855	13350.44
862.176	13296.2
862.498	13262.08
862.819	13268.86
863.14	13177.56
863.461	13158.81
863.782	13172.59
864.103	13166.04
864.424	13186.6
864.745	13123.1
865.065	13074.51
865.386	13005.14
865.707	12981.64
866.027	12961.3
866.348	12948.64
866.668	12903.67
866.989	12837.46
867.309	12841.75
867.63	12939.6
867.95	12875.65
868.27	12757.69
868.59	12846.95
868.91	12735.09
869.23	12796.56
869.55	12701.64
869.87	12756.56
870.19	12774.64
870.51	12699.16
870.83	12749.1
871.15	12553.17
871.469	12653.96
871.789	12727.18
872.109	12594.3
872.428	12570.8
872.748	12607.18
873.067	12611.48
873.386	12594.98
873.706	12564.02
874.025	12571.03
874.344	12401.76
874.663	12481.31
874.982	12459.16
875.301	12425.94
875.62	12439.5
875.939	12393.85
876.258	12401.09
876.577	12341.65
876.896	12363.35
877.214	12260.75
877.533	12295.55
877.852	12312.73
878.17	12288.55
878.489	12352.27
878.807	12350.69
879.125	12145.73
879.444	12263.69
879.762	12271.15
880.08	12213.97
880.398	12172.17
880.716	12237.7
881.034	12126.52
881.352	12202
881.67	12082.9
881.988	12046.52
882.306	12019.85
882.624	12004.03
882.941	11935.79
883.259	11855.11
883.577	11891.5
883.894	12000.87
884.212	11959.29
884.529	11774.21
884.846	11846.07
885.164	11862.57
885.481	11827.77
885.798	11795
886.115	11792.29
886.432	11789.13
886.75	11752.52
887.067	11794.1
887.383	11760.43
887.7	11721.33
888.017	11713.87
888.334	11680.65
888.651	11713.87
888.967	11622.35
889.284	11569.92
889.6	11607.66
889.917	11440.21
890.233	11554.78
890.55	11432.07
890.866	11479.08
891.182	11433.65
891.498	11330.15
891.815	11270.95
892.131	11339.87
892.447	11288.57
892.763	11242.7
893.079	11237.05
893.395	11118.18
893.71	11154.11
894.026	11101.23
894.342	11016.94
894.657	10999.54
894.973	11044.06
895.289	10947.79
895.604	10987.56
895.92	10875.93
896.235	10831.41
896.55	10831.86
896.865	10784.41
897.181	10741.24
897.496	10791.41
897.811	10678.65
898.126	10629.83
898.441	10602.94
898.756	10610.17
899.071	10557.29
899.386	10571.08
899.7	10517.52
900.015	10498.09
900.33	10336.96
900.644	10321.59
900.959	10413.57
901.273	10369.05
901.588	10268.26
901.902	10238.21
902.216	10208.15
902.531	10167.25
902.845	10150.3
903.159	10141.48
903.473	10015.39
903.787	10066.91
904.101	9995.5
904.415	9985.1
904.729	9930.19
905.042	9925.9
905.356	9915.73
905.67	9931.77
905.984	9847.71
906.297	9863.98
906.611	9792.79
906.924	9775.62
907.237	9698.78
907.551	9696.75
907.864	9678.9
908.177	9647.26
908.491	9660.37
908.804	9527.04
909.117	9530.2
909.43	9474.84
909.743	9434.16
910.056	9478.45
910.368	9377.44
910.681	9297.21
910.994	9227.38
911.307	9245.01
911.619	9193.26
911.932	9216.99
912.244	9132.7
912.557	9111.91
912.869	9066.94
913.181	9001.18
913.494	9002.53
913.806	8946.49
914.118	8948.75
914.43	8945.13
914.742	8910.1
915.054	8812.03
915.366	8868.3
915.678	8770.9
915.99	8792.14
916.302	8703.78
916.613	8670.34
916.925	8691.13
917.236	8584.01
917.548	8502.43
917.859	8526.16
918.171	8510.57
918.482	8414.75
918.794	8426.5
919.105	8436.22
919.416	8370.01
919.727	8342.44
920.038	8396.67
920.349	8296.34
920.66	8215.66
920.971	8250.24
921.282	8245.72
921.593	8128.43
921.903	8128.88
922.214	8136.79
922.525	8104.25
922.835	8021.54
923.146	7941.09
923.456	7961.66
923.767	7943.58
924.077	7865.16
924.387	7878.04
924.697	7861.09
925.008	7833.3
925.318	7739.51
925.628	7732.51
925.938	7722.57
926.248	7645.05
926.558	7652.28
926.867	7643.92
927.177	7633.3
927.487	7519.63
927.796	7460.2
928.106	7493.64
928.416	7488.67
928.725	7388.11
929.034	7356.25
929.344	7410.71
929.653	7420.2
929.962	7338.17
930.271	7307.66
930.581	7243.93
930.89	7267.66
931.199	7231.5
931.508	7202.8
931.817	7169.36
932.125	7149.92
932.434	7101.56
932.743	7072.86
933.051	6994.22
933.36	6948.35
933.669	6958.07
933.977	6935.92
934.286	6975.01
934.594	6892.3
934.902	6768.24
935.21	6816.37
935.519	6796.94
935.827	6765.08
936.135	6750.84
936.443	6724.4
936.751	6682.82
937.059	6681.01
937.367	6611.41
937.674	6646.66
937.982	6587.23
938.29	6512.43
938.597	6601.69
938.905	6454.8
939.213	6502.48
939.52	6478.76
939.827	6447.12
940.135	6399.44
940.442	6376.84
940.749	6335.71
941.056	6333.45
941.363	6281.7
941.67	6262.49
941.977	6229.5
942.284	6167.58
942.591	6193.79
942.898	6175.71
943.205	6116.73
943.511	6134.13
943.818	6123.06
944.125	6065.89
944.431	6015.72
944.738	6043.97
945.044	6010.75
945.35	6004.19
945.657	5946.57
945.963	5924.87
946.269	5870.64
946.575	5895.04
946.881	5896.85
947.187	5809.4
947.493	5822.95
947.799	5798.32
948.105	5777.31
948.41	5759.45
948.716	5653.69
949.022	5667.48
949.327	5638.33
949.633	5623.86
949.938	5645.33
950.244	5628.84
950.549	5574.83
950.854	5585.22
951.16	5554.26
951.465	5486.47
951.77	5501.83
952.075	5458.22
952.38	5507.03
952.685	5431.78
952.99	5403.98
953.294	5353.59
953.599	5302.52
953.904	5284.66
954.209	5269.3
954.513	5289.41
954.818	5274.95
955.122	5271.56
955.426	5241.95
955.731	5178.68
956.035	5154.72
956.339	5129.87
956.643	5118.57
956.948	5093.71
957.252	5070.43
957.556	5069.75
957.86	5035.86
958.163	5094.39
958.467	5073.6
958.771	4994.95
959.075	4985.91
959.378	4902.98
959.682	4963.54
959.985	4872.02
960.289	4891.23
960.592	4815.3
960.896	4806.94
961.199	4848.29
961.502	4787.5
961.805	4794.05
962.108	4721.74
962.411	4757.9
962.714	4724.23
963.017	4729.88
963.32	4689.2
963.623	4664.79
963.926	4627.96
964.228	4578.92
964.531	4601.07
964.833	4642.65
965.136	4572.37
965.438	4484.68
965.741	4504.34
966.043	4493.72
966.345	4474.29
966.648	4500.28
966.95	4438.81
967.252	4417.12
967.554	4391.81
967.856	4384.12
968.158	4346.38
968.46	4378.02
968.761	4357.46
969.063	4329.66
969.365	4290.79
969.666	4247.18
969.968	4248.98
970.269	4234.75
970.571	4205.82
970.872	4173.51
971.174	4200.17
971.475	4157.46
971.776	4114.07
972.077	4124.47
972.378	4102.55
972.679	4090.34
972.98	4061.87
973.281	4028.88
973.582	4026.39
973.883	3998.37
974.183	3962.89
974.484	4008.54
974.785	3936.9
975.085	3959.95
975.386	3959.73
975.686	3955.21
975.986	3944.36
976.287	3928.99
976.587	3880.41
976.887	3862.1
977.187	3875.89
977.487	3796.11
977.787	3793.18
978.087	3787.98
978.387	3796.79
978.687	3776.45
978.987	3715.89
979.286	3687.42
979.586	3733.97
979.885	3681.77
980.185	3688.77
980.484	3622.33
980.784	3625.72
981.083	3658.49
981.382	3580.08
981.682	3613.29
981.981	3557.93
982.28	3580.3
982.579	3552.73
982.878	3561.54
983.177	3490.36
983.475	3528.55
983.774	3491.26
984.073	3529.23
984.372	3478.16
984.67	3437.48
984.969	3442
985.267	3436.8
985.566	3400.42
985.864	3388.44
986.162	3379.85
986.461	3407.2
986.759	3340.08
987.057	3345.96
987.355	3351.83
987.653	3284.49
987.951	3328.56
988.249	3310.93
988.547	3265.73
988.844	3246.3
989.142	3208.56
989.44	3213.53
989.737	3217.15
990.035	3178.96
990.332	3201.1
990.63	3156.13
990.927	3152.74
991.224	3110.94
991.521	3098.73
991.819	3066.42
992.116	3067.09
992.413	3061.44
992.71	3080.2
993.006	3076.59
993.303	3049.92
993.6	2988.9
993.897	3008.56
994.193	2992.07
994.49	2970.15
994.787	2982.35
995.083	2935.8
995.379	2933.76
995.676	2905.97
995.972	2900.55
996.268	2868.46
996.565	2873.88
996.861	2789.81
997.157	2845.18
997.453	2830.72
997.749	2875.69
998.044	2820.32
998.34	2767.89
998.636	2804.05
998.932	2788.46
999.227	2726.54
999.523	2748.01
999.818	2725.63
1000.114	2703.26
1000.409	2689.03
1000.704	2701
1001	2719.76
1001.295	2632.76
1001.59	2615.35
1001.885	2638.41
1002.18	2572.19
1002.475	2626.43
1002.77	2580.1
1003.065	2536.49
1003.359	2555.02
1003.654	2559.31
1003.949	2513.21
1004.243	2495.81
1004.538	2466.88
1004.832	2510.27
1005.127	2463.95
1005.421	2436.83
1005.715	2419.2
1006.009	2437.51
1006.304	2406.77
1006.598	2385.3
1006.892	2390.28
1007.186	2377.62
1007.48	2350.96
1007.773	2342.37
1008.067	2337.85
1008.361	2319.09
1008.655	2298.3
1008.948	2279.09
1009.242	2260.34
1009.535	2291.07
1009.829	2249.04
1010.122	2237.29
1010.415	2209.94
1010.708	2207
1011.001	2198.64
1011.295	2179.21
1011.588	2173.78
1011.881	2134.01
1012.173	2130.85
1012.466	2123.62
1012.759	2100.11
1013.052	2117.97
1013.344	2092.43
1013.637	2082.04
1013.93	2033.45
1014.222	2027.57
1014.514	2039.32
1014.807	2026.9
1015.099	2017.86
1015.391	2009.5
1015.683	1989.16
1015.976	1964.3
1016.268	1977.18
1016.56	1977.86
1016.851	1943.28
1017.143	1946.22
1017.435	1950.51
1017.727	1901.02
1018.018	1874.13
1018.31	1887.92
1018.602	1887.01
1018.893	1863.51
1019.185	1839.56
1019.476	1828.48
1019.767	1841.36
1020.058	1812.89
1020.35	1815.6
1020.641	1794.59
1020.932	1764.3
1021.223	1758.43
1021.514	1757.52
1021.804	1700.8
1022.095	1730.41
1022.386	1697.41
1022.677	1681.14
1022.967	1676.4
1023.258	1663.52
1023.548	1647.24
1023.839	1653.57
1024.129	1677.98
1024.419	1660.35
1024.709	1637.75
1025	1618.09
1025.29	1635.49
1025.58	1600.92
1025.87	1590.3
1026.16	1564.76
1026.449	1561.15
1026.739	1507.59
1027.029	1542.39
1027.319	1542.84
1027.608	1528.38
1027.898	1504.2
1028.187	1489.51
1028.477	1496.97
1028.766	1466.68
1029.055	1469.17
1029.344	1429.4
1029.634	1442.73
1029.923	1444.09
1030.212	1430.75
1030.501	1412.9
1030.79	1420.13
1031.078	1379
1031.367	1381.49
1031.656	1373.13
1031.945	1361.15
1032.233	1344.43
1032.522	1368.83
1032.81	1334.71
1033.099	1330.64
1033.387	1329.06
1033.675	1323.64
1033.963	1303.53
1034.251	1312.34
1034.54	1299.46
1034.828	1269.85
1035.116	1264.66
1035.403	1268.27
1035.691	1280.25
1035.979	1271.44
1036.267	1247.26
1036.554	1200.48
1036.842	1196.41
1037.129	1209.06
1037.417	1210.19
1037.704	1202.06
1037.992	1176.07
1038.279	1187.14
1038.566	1154.38
1038.853	1154.38
1039.14	1154.38
