Data from aluminium_surface_pro_back_FLMS001491_00076.txt Node
Date: Wed Feb 08 15:34:31 GMT 2017
User: dcchb
Spectrometer: FLMS00149
Trigger mode: 0
Integration Time (sec): 2.000000E-2
Scans to average: 10
Electric dark correction enabled: true
Nonlinearity correction enabled: false
Boxcar width: 0
XAxis mode: Wavelengths
Number of Pixels in Spectrum: 2048
>>>>>Begin Spectral Data<<<<<
341.393	-14.83
341.776	-14.83
342.16	-14.83
342.543	-54.83
342.927	-39.46
343.31	-80.82
343.693	-81.72
344.077	-61.61
344.46	-56.41
344.843	-58.44
345.226	-42.63
345.61	-24.32
345.993	-5.34
346.376	12.06
346.759	7.54
347.142	26.3
347.525	62.68
347.908	55.68
348.291	85.51
348.674	79.4
349.057	82.12
349.44	104.94
349.823	146.3
350.206	174.54
350.588	225.62
350.971	239.17
351.354	255.45
351.737	272.85
352.119	267.2
352.502	279.63
352.884	289.12
353.267	310.59
353.65	350.13
354.032	326.63
354.414	345.84
354.797	346.97
355.179	370.24
355.562	347.42
355.944	356.91
356.326	374.76
356.709	377.7
357.091	358.72
357.473	366.18
357.855	379.06
358.238	374.09
358.62	369.34
359.002	364.59
359.384	370.24
359.766	393.97
360.148	391.03
360.53	383.58
360.912	378.83
361.294	411.15
361.676	351.94
362.057	401.2
362.439	374.54
362.821	358.27
363.203	373.18
363.584	371.15
363.966	364.37
364.348	379.06
364.729	373.63
365.111	362.79
365.493	376.8
365.874	375.44
366.256	380.87
366.637	365.5
367.019	382.67
367.4	381.77
367.781	370.7
368.163	377.93
368.544	373.41
368.925	365.72
369.306	387.87
369.688	392.84
370.069	364.59
370.45	364.37
370.831	398.49
371.212	374.54
371.593	384.03
371.974	373.86
372.355	375.22
372.736	394.42
373.117	386.97
373.498	373.41
373.879	386.74
374.26	389
374.641	391.26
375.021	389.45
375.402	380.87
375.783	407.08
376.163	391.03
376.544	431.71
376.925	422.22
377.305	422.9
377.686	436.91
378.066	429.23
378.447	438.94
378.827	417.02
379.208	417.25
379.588	422.9
379.968	432.62
380.349	444.82
380.729	450.24
381.109	452.73
381.489	451.37
381.87	448.66
382.25	457.7
382.63	458.83
383.01	471.94
383.39	482.11
383.77	492.05
384.15	483.46
384.53	475.1
384.91	483.24
385.29	496.34
385.67	499.51
386.049	509
386.429	494.08
386.809	504.93
387.189	509.22
387.568	535.66
387.948	512.61
388.328	545.16
388.707	540.86
389.087	543.8
389.466	533.86
389.846	568.66
390.225	571.82
390.605	586.51
390.984	564.59
391.363	573.63
391.743	596.91
392.122	589.45
392.501	610.69
392.881	591.26
393.26	607.07
393.639	639.16
394.018	624.48
394.397	635.32
394.776	647.53
395.155	674.19
395.534	641.88
395.913	659.73
396.292	656.11
396.671	689.78
397.05	693.85
397.429	688.65
397.808	696.34
398.186	699.28
398.565	712.61
398.944	718.71
399.323	735.66
399.701	723.91
400.08	758.71
400.458	734.3
400.837	737.01
401.215	754.42
401.594	775.43
401.972	786.28
402.351	767.52
402.729	790.12
403.107	812.72
403.486	820.18
403.864	821.31
404.242	840.06
404.62	856.33
404.999	878.03
405.377	855.2
405.755	873.96
406.133	900.85
406.511	907.86
406.889	897.46
407.267	904.92
407.645	939.72
408.023	935.43
408.401	944.69
408.779	956.67
409.156	988.31
409.534	974.52
409.912	1008.19
410.29	1040.74
410.667	1031.7
411.045	1059.04
411.422	1054.97
411.8	1051.36
412.178	1087.29
412.555	1116.44
412.933	1125.7
413.31	1124.12
413.687	1150.34
414.065	1148.76
414.442	1162.09
414.819	1203.22
415.197	1190.34
415.574	1193.05
415.951	1227.17
416.328	1214.74
416.705	1242.31
417.082	1235.31
417.46	1278.92
417.837	1306.49
418.214	1306.04
418.591	1293.38
418.967	1329.77
419.344	1352.37
419.721	1341.52
420.098	1352.37
420.475	1380.39
420.852	1390.1
421.228	1400.73
421.605	1392.14
421.982	1452.48
422.358	1453.83
422.735	1466.94
423.111	1470.55
423.488	1523.43
423.864	1520.5
424.241	1566.82
424.617	1544.22
424.994	1586.71
425.37	1598.01
425.746	1608.86
426.123	1625.13
426.499	1651.11
426.875	1641.85
427.251	1655.63
427.627	1738.34
428.003	1735.18
428.379	1753.03
428.756	1746.25
429.132	1788.51
429.507	1836.19
429.883	1847.95
430.259	1863.76
430.635	1887.94
431.011	1879.36
431.387	1946.02
431.763	1952.35
432.138	1952.12
432.514	2008.85
432.89	2006.59
433.265	2069.63
433.641	2056.3
434.016	2134.04
434.392	2139.01
434.767	2193.47
435.143	2186.02
435.518	2229.63
435.894	2244.77
436.269	2290.65
436.644	2329.06
437.02	2310.53
437.395	2320.7
437.77	2377.2
438.145	2392.11
438.52	2400.47
438.895	2419.46
439.271	2422.62
439.646	2524.99
440.021	2549.62
440.395	2559.34
440.77	2524.54
441.145	2546.68
441.52	2605.44
441.895	2626.23
442.27	2678.21
442.645	2621.03
443.019	2684.31
443.394	2693.57
443.769	2730.86
444.143	2721.82
444.518	2760.24
444.892	2775.83
445.267	2764.31
445.641	2835.72
446.016	2817.19
446.39	2845.21
446.764	2882.72
447.139	2900.8
447.513	2918.88
447.887	2959.55
448.262	2920.91
448.636	2954.13
449.01	2997.75
449.384	3070.74
449.758	3070.96
450.132	3105.31
450.506	3098.53
450.88	3087.01
451.254	3108.25
451.628	3186.67
452.002	3250.39
452.376	3233.22
452.75	3309.38
453.123	3311.64
453.497	3373.78
453.871	3410.84
454.244	3483.83
454.618	3480.45
454.992	3528.35
455.365	3519.31
455.739	3609.71
456.112	3644.51
456.486	3695.35
456.859	3727.22
457.232	3787.56
457.606	3808.8
457.979	3853.09
458.352	3952.3
458.725	3973.77
459.099	3980.09
459.472	4099.86
459.845	4195.45
460.218	4159.07
460.591	4211.95
460.964	4247.2
461.337	4343.47
461.71	4353.64
462.083	4467.31
462.456	4459.4
462.829	4453.98
463.201	4582.79
463.574	4597.48
463.947	4669.57
464.32	4756.8
464.692	4782.78
465.065	4855.78
465.438	4886.28
465.81	4998.15
466.183	5059.39
466.555	5117.24
466.928	5166.73
467.3	5217.8
467.672	5258.7
468.045	5333.28
468.417	5403.11
468.789	5460.51
469.161	5554.74
469.534	5601.07
469.906	5765.36
470.278	5771.91
470.65	5839.93
471.022	5977.1
471.394	6050.1
471.766	6102.98
472.138	6201.28
472.51	6330.99
472.882	6429.52
473.253	6525.34
473.625	6618.67
473.997	6731.21
474.369	6765.1
474.74	6864.76
475.112	6993.12
475.484	7128.03
475.855	7303.62
476.227	7321.93
476.598	7525.99
476.97	7574.57
477.341	7830.61
477.713	7925.53
478.084	7925.3
478.455	8221.34
478.827	8215.91
479.198	8502.01
479.569	8462.24
479.94	8749.91
480.311	8761.21
480.682	9073.29
481.053	9260.86
481.424	9350.57
481.795	9421.31
482.166	9567.74
482.537	9693.84
482.908	9979.48
483.279	10036.88
483.65	10248.63
484.021	10438
484.391	10529.53
484.762	10666.92
485.133	10763.64
485.503	10975.16
485.874	11114.14
486.244	11301.71
486.615	11566.33
486.985	11601.59
487.356	11896.5
487.726	11955.25
488.097	12222.59
488.467	12251.51
488.837	12533.77
489.207	12688.56
489.578	12849.24
489.948	12903.93
490.318	13072.96
490.688	13133.75
491.058	13432.27
491.428	13656.9
491.798	13702.78
492.168	14048.98
492.538	14078.58
492.908	14194.51
493.278	14450.78
493.648	14507.95
494.017	14683.09
494.387	14792.92
494.757	14924.66
495.126	15156.3
495.496	15203.98
495.866	15345.67
496.235	15549.73
496.605	15724.42
496.974	15714.7
497.344	15783.85
497.713	16095.48
498.082	16190.62
498.452	16260.9
498.821	16349.94
499.19	16401.24
499.559	16635.35
499.928	16852.75
500.298	16929.36
500.667	17172.74
501.036	17178.16
501.405	17287.09
501.774	17407.31
502.143	17470.59
502.512	17674.87
502.88	17864.25
503.249	17814.98
503.618	17935.43
503.987	18014.53
504.356	18170.45
504.724	18207.52
505.093	18402.31
505.462	18440.05
505.83	18594.17
506.199	18903.32
506.567	19155.74
506.936	19137.43
507.304	19249.52
507.672	19369.52
508.041	19494.26
508.409	19629.85
508.777	19836.17
509.145	20003.4
509.514	19994.59
509.882	20228.48
510.25	20323.84
510.618	20480.22
510.986	20521.35
511.354	20799.31
511.722	20885.86
512.09	21109.59
512.458	21204.5
512.826	21427.09
513.193	21430.71
513.561	21562.46
513.929	21851.71
514.297	22049.67
514.664	22230.46
515.032	22212.61
515.4	22510
515.767	22615.31
516.135	22888.52
516.502	22672.93
516.869	23236.08
517.237	23280.38
517.604	23335.29
517.972	23719.01
518.339	23769.63
518.706	23837.65
519.073	24026.8
519.44	24156.51
519.808	24384.08
520.175	24440.12
520.542	24799.88
520.909	25029.94
521.276	25007.34
521.643	25367.78
522.009	25415.91
522.376	25730.48
522.743	25916.92
523.11	26230.36
523.477	26364.14
523.843	26592.38
524.21	26842.77
524.577	27043.44
524.943	27151.46
525.31	27475.29
525.676	27640.49
526.043	27880.03
526.409	27819.47
526.776	28253.81
527.142	28301.94
527.508	28662.61
527.874	28721.36
528.241	28961.13
528.607	29058.76
528.973	29294.91
529.339	29322.93
529.705	29634.56
530.071	29826.87
530.437	30073.19
530.803	30079.52
531.169	30429.79
531.535	30274.32
531.901	30511.37
532.267	30618.71
532.632	30983.9
532.998	31085.14
533.364	31256.66
533.73	31303.89
534.095	31571.01
534.461	31702.3
534.826	31848.06
535.192	32015.06
535.557	32306.58
535.923	32226.13
536.288	32430.42
536.653	32688.04
537.019	32602.84
537.384	32810.07
537.749	32947.69
538.114	33156.95
538.479	33102.72
538.845	33343.39
539.21	33308.81
539.575	33510.39
539.94	33658.41
540.305	33903.6
540.67	33857.05
541.034	33953.54
541.399	34129.36
541.764	34101.56
542.129	34418.39
542.494	34382.68
542.858	34464.49
543.223	34700.19
543.587	34921.88
543.952	34801.43
544.316	34968.88
544.681	35027.19
545.045	35228.09
545.41	35427.63
545.774	35409.78
546.138	35616.1
546.503	35698.13
546.867	35718.92
547.231	36173.37
547.595	36139.93
547.959	36263.31
548.324	36269.19
548.688	36532.23
549.052	36572.91
549.416	36589.41
549.779	36587.37
550.143	36759.8
550.507	37139.9
550.871	37253.57
551.235	37147.13
551.599	37566.33
551.962	37464.41
552.326	37612.66
552.689	37899.43
553.053	37757.96
553.417	37835.7
553.78	38348
554.143	38273.43
554.507	38429.36
554.87	38638.84
555.234	39010.81
555.597	38760.2
555.96	39026.4
556.323	39165.83
556.686	39187.98
557.05	39728.98
557.413	39638.36
557.776	39796.78
558.139	40067.73
558.502	40265.92
558.865	40257.33
559.228	40606.25
559.59	40738
559.953	40843.76
560.316	41338.88
560.679	41339.34
561.041	41649.16
561.404	41795.6
561.767	42027.45
562.129	42014.35
562.492	42431.06
562.854	42358.74
563.217	42382.25
563.579	42648.68
563.941	42859.97
564.304	43057.71
564.666	43424.48
565.028	43658.6
565.39	43669.9
565.753	43895.65
566.115	44035.99
566.477	44358.69
566.839	44401.86
567.201	44657.89
567.563	44774.95
567.925	45101.27
568.287	45316.18
568.648	45252.68
569.01	45471.21
569.372	45727.7
569.734	45679.79
570.095	46032.55
570.457	46286.1
570.819	46433.89
571.18	46352.99
571.542	46692.64
571.903	46790.49
572.265	46980.09
572.626	46994.1
572.987	47186.87
573.349	47306.86
573.71	47554.09
574.071	47723.35
574.432	47712.5
574.794	48044.25
575.155	47990.91
575.516	47922.21
575.877	48152.94
576.238	48193.62
576.599	48473.16
576.96	48333.73
577.32	48343.67
577.681	48631.35
578.042	48790.89
578.403	48816.88
578.763	48812.81
579.124	48996.08
579.485	49066.82
579.845	49147.04
580.206	49157.66
580.566	49293.48
580.927	49321.5
581.287	49526.24
581.648	49450.76
582.008	49571.44
582.368	49507.48
582.728	49555.84
583.089	49630.19
583.449	49597.2
583.809	49646.24
584.169	49698.21
584.529	49631.1
584.889	49956.96
585.249	49678.55
585.609	49719.23
585.969	49948.6
586.329	49724.65
586.688	49889.39
587.048	49795.16
587.408	49809.62
587.768	49804.88
588.127	49863.18
588.487	49735.73
588.846	50057.3
589.206	49854.59
589.565	49839.45
589.925	50059.56
590.284	49905.21
590.643	50090.52
591.003	50078.54
591.362	50130.29
591.721	50108.82
592.08	50078.77
592.44	50206
592.799	50204.87
593.158	50140.69
593.517	50215.04
593.876	50188.14
594.235	50189.27
594.593	50307.46
594.952	50377.97
595.311	50139.11
595.67	50438.31
596.029	50497.74
596.387	50526.21
596.746	50554.69
597.104	50332.09
597.463	50419.55
597.822	50495.25
598.18	50374.13
598.538	50509.04
598.897	50622.71
599.255	50392.21
599.613	50824.96
599.972	50636.49
600.33	50645.53
600.688	50580.45
601.046	50720.33
601.404	50854.57
601.762	50831.52
602.12	50914.9
602.478	50969.14
602.836	51024.51
603.194	50820.22
603.552	50935.69
603.91	50781.8
604.268	51049.14
604.625	50945.64
604.983	51091.62
605.341	50937.73
605.698	51046.88
606.056	51120.32
606.413	51048.01
606.771	51129.36
607.128	51211.17
607.485	50974.79
607.843	51018.86
608.2	51368.23
608.557	51384.27
608.914	51282.35
609.272	51403.93
609.629	51472.18
609.986	51590.14
610.343	51355.57
610.7	51662.68
611.057	51562.12
611.414	51652.29
611.771	51617.03
612.127	51640.76
612.484	51664.94
612.841	51678.27
613.198	51707.65
613.554	51609.35
613.911	51855.9
614.267	51782.45
614.624	51766.86
614.98	51752.62
615.337	51981.32
615.693	51915.56
616.05	51875.33
616.406	52116
616.762	51979.06
617.118	51993.52
617.475	51957.59
617.831	51951.04
618.187	51986.74
618.543	52100.86
618.899	52159.84
619.255	52187.64
619.611	52212.72
619.967	52360.52
620.323	52370.91
620.678	52203.01
621.034	52231.71
621.39	52277.81
621.746	52195.1
622.101	52541.98
622.457	52293.4
622.812	52424.02
623.168	52467.63
623.523	52480.74
623.879	52577.69
624.234	52283.68
624.589	52372.04
624.945	52457.01
625.3	52472.38
625.655	52336.56
626.01	52415.2
626.365	52393.51
626.72	52348.31
627.075	52379.27
627.43	52246.85
627.785	52203.68
628.14	52371.14
628.495	52391.93
628.85	52329.78
629.205	52212.72
629.559	52446.16
629.914	52240.97
630.269	52321.42
630.623	52280.29
630.978	52123.01
631.332	52311.03
631.687	52285.94
632.041	52113.74
632.396	52270.8
632.75	52114.19
633.104	52235.55
633.459	52079.17
633.813	51959.85
634.167	52021.32
634.521	52002.56
634.875	51937.25
635.229	52014.54
635.583	51832.62
635.937	51725.05
636.291	51653.19
636.645	51643.7
636.999	51671.49
637.352	51650.03
637.706	51497.04
638.06	51633.98
638.413	51527.09
638.767	51451.16
639.121	51626.98
639.474	51304.05
639.828	51402.12
640.181	51386.08
640.534	51329.58
640.888	51213.65
641.241	51028.57
641.594	51080.78
641.947	51165.52
642.301	51101.57
642.654	51098.18
643.007	51079.65
643.36	51015.92
643.713	51005.3
644.066	51077.61
644.419	50873.1
644.771	50611.18
645.124	50204.64
645.477	50256.84
645.83	49919
646.182	49872.45
646.535	49810.3
646.888	49858.66
647.24	49615.05
647.593	49829.28
647.945	49827.7
648.298	49629.06
648.65	49410.54
649.002	49255.51
649.355	49432.91
649.707	49377.77
650.059	49347.04
650.411	49789.06
650.763	49960.58
651.115	50199.89
651.467	49968.49
651.819	50057.98
652.171	50100.69
652.523	49928.94
652.875	49970.3
653.227	49801.26
653.578	50127.58
653.93	49912.67
654.282	49795.61
654.633	49741.6
654.985	49770.98
655.337	49848.49
655.688	49779.11
656.039	49890.98
656.391	49505.68
656.742	49588.16
657.094	49693.92
657.445	49619.12
657.796	49596.97
658.147	49345.45
658.498	49240.82
658.849	49516.75
659.2	49235.17
659.551	49319.47
659.902	49291.9
660.253	49226.81
660.604	49379.35
660.955	49160.37
661.306	49256.64
661.656	49230.88
662.007	49216.42
662.358	49247.38
662.708	49151.79
663.059	49271.33
663.409	48943.66
663.76	49178.9
664.11	49174.38
664.461	49134.61
664.811	49215.74
665.161	49074.73
665.511	49092.13
665.862	49090.09
666.212	49114.95
666.562	49123.31
666.912	49008.29
667.262	48865.92
667.612	49024.78
667.962	48853.04
668.312	48864.79
668.662	49091
669.011	48890.78
669.361	48887.84
669.711	48935.52
670.06	48846.26
670.41	48585.7
670.76	48621.18
671.109	48900.27
671.459	48772.81
671.808	48605.81
672.157	48620.73
672.507	48355.42
672.856	48544.8
673.205	48440.17
673.554	48594.29
673.904	48455.53
674.253	48599.26
674.602	48508.87
674.951	48028.43
675.3	47728.77
675.649	48372.15
675.998	48159.27
676.346	48240.62
676.695	48314.29
677.044	48035.21
677.393	47939.84
677.741	48194.07
678.09	48057.58
678.438	47918.37
678.787	47999.73
679.135	48055.09
679.484	47684.93
679.832	47886.74
680.181	47518.84
680.529	47732.84
680.877	47574.88
681.225	47548.21
681.573	47620.98
681.922	47371.27
682.27	47284.49
682.618	47298.5
682.966	47181.44
683.314	47234.55
683.661	47217.37
684.009	46989.13
684.357	46997.95
684.705	46844.05
685.053	46782.13
685.4	46738.06
685.748	46629.37
686.095	46455.36
686.443	46395.02
686.79	46303.95
687.138	46381.24
687.485	46424.85
687.832	46110.96
688.18	46270.28
688.527	45936.28
688.874	45954.81
689.221	45911.65
689.568	45787.81
689.915	45637.3
690.262	45592.11
690.609	45528.15
690.956	45427.14
691.303	45304.2
691.65	45133.36
691.997	45201.61
692.344	44918.45
692.69	44854.72
693.037	44962.29
693.383	44528.86
693.73	44581.74
694.077	44441.18
694.423	44421.74
694.769	44226.04
695.116	44058.81
695.462	44001.41
695.808	43885.03
696.155	43947.63
696.501	43716.45
696.847	43656.79
697.193	43441.2
697.539	43643.68
697.885	43262.9
698.231	43207.99
698.577	43168.44
698.923	43126.86
699.269	42873.53
699.614	42702.01
699.96	42741.56
700.306	42650.71
700.651	42401.23
700.997	42297.5
701.342	42280.33
701.688	42170.95
702.033	42039.43
702.379	42071.52
702.724	41840.11
703.069	41804.86
703.415	41398.77
703.76	41401.26
704.105	41427.7
704.45	41368.26
704.795	41027.71
705.14	40984.54
705.485	40887.15
705.83	40762.63
706.175	40938.67
706.52	40657.32
706.865	40455.74
707.209	40394.28
707.554	40225.92
707.899	40391.57
708.243	40098.47
708.588	40101.18
708.932	39773.95
709.277	39665.48
709.621	39904.35
709.966	39459.61
710.31	39596.11
710.654	39171.71
710.998	39272.72
711.342	39358.37
711.687	39148.43
712.031	38989.79
712.375	38827.99
712.719	38918.84
713.063	38936.46
713.407	39020.08
713.75	38827.54
714.094	38767.88
714.438	38584.15
714.782	38644.04
715.125	38403.59
715.469	38500.99
715.812	38300.09
716.156	38109.59
716.499	38199.76
716.843	38219.87
717.186	37833.67
717.53	38134.68
717.873	37882.93
718.216	37769.71
718.559	37640.22
718.902	37461.47
719.246	37591.41
719.589	37396.39
719.932	37165.21
720.275	37239.56
720.617	36986
720.96	37131.54
721.303	36969.28
721.646	37147.81
721.989	36790.98
722.331	37135.15
722.674	36863.52
723.016	36775.84
723.359	36815.16
723.701	36737.2
724.044	36549.63
724.386	36427.6
724.729	36596.64
725.071	36470.31
725.413	36501.27
725.755	36470.99
726.097	36232.58
726.439	36184.44
726.782	36239.13
727.124	36292.46
727.465	36161.85
727.807	35914.62
728.149	35852.93
728.491	35962.08
728.833	35880.5
729.175	35669.88
729.516	35581.07
729.858	35575.42
730.199	35635.98
730.541	35509.21
730.882	35536.55
731.224	35517.79
731.565	35249.78
731.906	35346.05
732.248	35270.8
732.589	35103.79
732.93	34873.97
733.271	34996.9
733.612	34936.79
733.953	34847.76
734.294	34650.7
734.635	34604.37
734.976	34582.9
735.317	34393.98
735.658	34433.98
735.999	34404.83
736.339	34426.3
736.68	34365.96
737.021	34332.06
737.361	34115.12
737.702	34328.9
738.042	34115.57
738.383	34091.62
738.723	34137.94
739.063	34056.36
739.404	33954.45
739.744	33858.18
740.084	33630.61
740.424	33779.54
740.764	33654.57
741.104	33768.69
741.444	33430.39
741.784	33381.58
742.124	33380.9
742.464	33420.45
742.804	33339.55
743.143	33202.6
743.483	33231.98
743.823	32993.12
744.162	33045.54
744.502	33102.27
744.841	33003.06
745.181	33036.73
745.52	32911.99
745.86	32907.92
746.199	32840.35
746.538	32766.45
746.877	32768.94
747.216	32697.76
747.556	32563.97
747.895	32453.24
748.234	32349.06
748.573	32323.3
748.911	32236.07
749.25	32134.16
749.589	32028.4
749.928	32088.51
750.267	32080.37
750.605	31953.59
750.944	31772.58
751.283	31747.5
751.621	31837.44
751.96	31530.33
752.298	31606.71
752.636	31426.15
752.975	31416.43
753.313	31414.85
753.651	31402.65
753.989	31059.83
754.327	30992.26
754.666	30856.67
755.004	30908.42
755.342	30972.83
755.679	30794.3
756.017	30692.16
756.355	30706.17
756.693	30627.98
757.031	30533.52
757.368	30425.95
757.706	30383.69
758.044	30246.97
758.381	30323.58
758.719	30162.46
759.056	30156.35
759.394	30064.6
759.731	29789.13
760.068	29733.77
760.405	29689.93
760.743	29556.37
761.08	29653.77
761.417	29535.81
761.754	29387.56
762.091	29229.82
762.428	29238.41
762.765	28983.96
763.102	29168.36
763.438	28856.73
763.775	28946.89
764.112	28848.82
764.449	28785.54
764.785	28686.11
765.122	28432.78
765.458	28323.18
765.795	28348.72
766.131	28294.48
766.467	28141.72
766.804	28041.16
767.14	27854.95
767.476	27860.37
767.812	27794.83
768.148	27817.88
768.485	27563.43
768.821	27493.83
769.157	27427.16
769.492	27282.31
769.828	27268.75
770.164	27045.02
770.5	26932.03
770.836	26857.23
771.171	26852.03
771.507	26652.27
771.842	26373.18
772.178	26466.96
772.513	26363.23
772.849	26311.03
773.184	26152.62
773.519	26124.37
773.855	25982.23
774.19	25796.47
774.525	25867.88
774.86	25890.48
775.195	25639.86
775.53	25577.04
775.865	25452.75
776.2	25304.96
776.535	25016.38
776.87	25095.24
777.205	24853.89
777.539	24965.3
777.874	24875.14
778.209	24561.25
778.543	24739.55
778.878	24570.96
779.212	24482.83
779.547	24224.76
779.881	24321.25
780.215	24084.42
780.55	24161.71
780.884	24058.21
781.218	23930.3
781.552	23875.39
781.886	23732.34
782.22	23546.81
782.554	23514.49
782.888	23337.78
783.222	23326.03
783.556	23124.22
783.889	23214.84
784.223	23069.53
784.557	22969.65
784.89	22879.26
785.224	22942.53
785.557	22773.27
785.891	22726.27
786.224	22660.05
786.558	22586.61
786.891	22408.31
787.224	22267.52
787.557	22305.03
787.891	22324.02
788.224	22293.96
788.557	22250.12
788.89	22040.64
789.223	21952.73
789.556	21748.67
789.888	21841.77
790.221	21784.6
790.554	21472.51
790.887	21511.84
791.219	21433.87
791.552	21372.63
791.884	21246.31
792.217	21152.07
792.549	21079.08
792.882	21011.06
793.214	20883.6
793.546	20957.95
793.879	20692.65
794.211	20691.07
794.543	20557.74
794.875	20581.92
795.207	20580.33
795.539	20402.26
795.871	20479.55
796.203	20184.64
796.535	20095.15
796.867	20014.47
797.198	20065.32
797.53	20063.06
797.862	19796.85
798.193	19759.34
798.525	19679.79
798.856	19587.59
799.188	19463.08
799.519	19453.58
799.85	19361.38
800.182	19376.3
800.513	19354.83
800.844	19247.26
801.175	19359.12
801.506	19273.48
801.837	19118.68
802.168	19015.4
802.499	18995.52
802.83	18856.31
803.161	18784.22
803.491	18848.85
803.822	18837.1
804.153	18676.88
804.483	18614.06
804.814	18434.63
805.145	18514.4
805.475	18471.69
805.805	18293.62
806.136	18473.5
806.466	18402.76
806.796	18379.71
807.126	18206.16
807.457	18187.4
807.787	18091.36
808.117	18146.05
808.447	18003
808.777	18109.67
809.107	17957.13
809.436	17947.18
809.766	17892.72
810.096	17831.93
810.426	17643.91
810.755	17679.17
811.085	17675.55
811.414	17571.6
811.744	17557.59
812.073	17422.45
812.403	17497.48
812.732	17352.62
813.061	17407.76
813.39	17184.72
813.719	17250.7
814.049	17294.55
814.378	17149.46
814.707	17023.82
815.036	17054.33
815.365	16953.54
815.693	16741.57
816.022	16814.11
816.351	16788.57
816.68	16668.57
817.008	16721.68
817.337	16618.18
817.665	16437.84
817.994	16448.47
818.322	16507.45
818.651	16428.35
818.979	16251.63
819.307	16433.78
819.636	16411.18
819.964	16186.33
820.292	16250.5
820.62	16252.09
820.948	16166.89
821.276	16219.32
821.604	16323.05
821.932	16231.3
822.259	16185.42
822.587	16189.49
822.915	16249.6
823.243	16294.8
823.57	16149.04
823.898	16184.52
824.225	16154.24
824.553	16080.34
824.88	16125.31
825.207	16109.04
825.535	16113.33
825.862	16045.54
826.189	16081.47
826.516	16300.9
826.843	16200.56
827.17	16161.02
827.497	16158.3
827.824	16130.96
828.151	16213.67
828.478	16208.25
828.805	16168.93
829.131	15989.72
829.458	16015.71
829.785	16054.35
830.111	16084.18
830.438	16170.73
830.764	16186.33
831.09	16088.48
831.417	15989.04
831.743	16134.12
832.069	16036.5
832.395	16031.53
832.722	16067.23
833.048	16022.71
833.374	16035.14
833.7	16036.5
834.026	15934.36
834.351	15966.9
834.677	16015.48
835.003	16021.58
835.329	15877.63
835.654	15888.93
835.98	15845.32
836.306	15821.14
836.631	15794.7
836.956	15791.76
837.282	15863.85
837.607	15599.9
837.932	15633.8
838.258	15704.53
838.583	15704.76
838.908	15527.81
839.233	15596.74
839.558	15591.31
839.883	15526.68
840.208	15493.46
840.533	15528.04
840.858	15434.93
841.182	15510.19
841.507	15445.78
841.832	15345.22
842.156	15269.51
842.481	15265.22
842.805	15292.11
843.13	15232.45
843.454	15242.4
843.778	15158.1
844.103	15193.36
844.427	15151.78
844.751	15131.66
845.075	15067.71
845.399	15007.15
845.723	14944.1
846.047	14912.69
846.371	14784.33
846.695	14817.1
847.019	14700.26
847.343	14672.69
847.666	14571.68
847.99	14478.12
848.313	14615.97
848.637	14459.59
848.96	14457.56
849.284	14356.32
849.607	14291.69
849.931	14233.38
850.254	14161.29
850.577	14062.09
850.9	14067.51
851.223	14042.2
851.546	13920.17
851.869	13943.22
852.192	13945.25
852.515	13798.37
852.838	13681.31
853.161	13693.96
853.483	13627.07
853.806	13544.81
854.129	13608.99
854.451	13521.31
854.774	13430.47
855.096	13422.1
855.419	13368.32
855.741	13397.02
856.063	13317.25
856.385	13245.84
856.708	13115.67
857.03	13189.12
857.352	13175.33
857.674	13091.04
857.996	13106.86
858.318	12979.18
858.64	13080.64
858.961	12982.57
859.283	12905.96
859.605	12938.05
859.926	12930.37
860.248	12815.79
860.57	12785.96
860.891	12849.69
861.212	12775.12
861.534	12816.7
861.855	12672.52
862.176	12798.39
862.498	12756.81
862.819	12703.71
863.14	12673.42
863.461	12647.66
863.782	12599.53
864.103	12662.35
864.424	12580.32
864.745	12609.92
865.065	12496.25
865.386	12510.72
865.707	12478.63
866.027	12512.52
866.348	12515.69
866.668	12497.38
866.989	12508.68
867.309	12441.34
867.63	12439.08
867.95	12384.84
868.27	12295.13
868.59	12347.1
868.91	12284.28
869.23	12361.79
869.55	12187.33
869.87	12339.42
870.19	12252.42
870.51	12256.94
870.83	12321.12
871.15	12194.11
871.469	12135.13
871.789	12197.5
872.109	12116.83
872.428	12131.52
872.748	12046.32
873.067	12078.64
873.386	12060.56
873.706	12070.28
874.025	12099.65
874.344	12013.33
874.663	12016.72
874.982	12003.16
875.301	11956.83
875.62	11889.04
875.939	11941.47
876.258	11818.08
876.577	11786.89
876.896	11836.38
877.214	11848.13
877.533	11840.9
877.852	11821.69
878.17	11816.5
878.489	11840.23
878.807	11782.37
879.125	11778.08
879.444	11735.14
879.762	11743.05
880.08	11782.83
880.398	11726.1
880.716	11703.05
881.034	11668.48
881.352	11693.79
881.67	11741.7
881.988	11653.56
882.306	11586.45
882.624	11605.66
882.941	11535.6
883.259	11525.43
883.577	11520.01
883.894	11421.25
884.212	11461.48
884.529	11439.33
884.846	11420.35
885.164	11416.96
885.481	11259
885.798	11351.42
886.115	11270.97
886.432	11286.57
886.75	11178.77
887.067	11241.82
887.383	11214.93
887.7	11247.7
888.017	11124.09
888.334	11197.53
888.651	11123.41
888.967	11030.53
889.284	11069.17
889.6	10993.47
889.917	10906.69
890.233	10945.11
890.55	10915.5
890.866	10875.51
891.182	10868.05
891.498	10815.17
891.815	10843.87
892.131	10697.2
892.447	10823.08
892.763	10713.02
893.079	10673.48
893.395	10698.33
893.71	10618.34
894.026	10627.15
894.342	10604.1
894.657	10544.44
894.973	10455.86
895.289	10483.88
895.604	10493.59
895.92	10469.64
896.235	10402.3
896.55	10459.47
896.865	10310.1
897.181	10329.3
897.496	10271.91
897.811	10222.87
898.126	10235.75
898.441	10143.32
898.756	10183.09
899.071	10146.03
899.386	10176.54
899.7	10066.71
900.015	10044.11
900.33	9920.5
900.644	10037.33
900.959	10032.36
901.273	9953.72
901.588	9951.46
901.902	9896.55
902.216	9813.84
902.531	9833.5
902.845	9702.43
903.159	9735.87
903.473	9750.34
903.787	9699.04
904.101	9669.44
904.415	9640.74
904.729	9580.17
905.042	9495.65
905.356	9566.84
905.67	9506.05
905.984	9495.88
906.297	9465.15
906.611	9408.65
906.924	9404.58
907.237	9364.81
907.551	9338.82
907.864	9325.26
908.177	9289.78
908.491	9201.88
908.804	9160.07
909.117	9169.56
909.43	9097.02
909.743	9110.35
910.056	8975.22
910.368	8974.54
910.681	8967.98
910.994	8969.11
911.307	8886.18
911.619	8821.32
911.932	8856.35
912.244	8724.83
912.557	8796.92
912.869	8759.18
913.181	8748.56
913.494	8632.17
913.806	8560.99
914.118	8608.45
914.43	8554.44
914.742	8500.2
915.054	8526.19
915.366	8467.43
915.678	8504.72
915.99	8441.22
916.302	8391.95
916.613	8330.04
916.925	8325.06
917.236	8386.98
917.548	8250.04
917.859	8271.96
918.171	8204.61
918.482	8192.41
918.794	8108.8
919.105	8129.36
919.416	8044.84
919.727	8054.34
920.038	7997.61
920.349	7968.69
920.66	7910.84
920.971	7962.59
921.282	7974.79
921.593	7827.22
921.903	7773.67
922.214	7791.52
922.525	7737.96
922.835	7755.14
923.146	7684.63
923.456	7671.3
923.767	7576.61
924.077	7610.51
924.387	7563.95
924.697	7583.16
925.008	7489.61
925.318	7460.68
925.628	7450.51
925.938	7448.93
926.248	7359.89
926.558	7366.67
926.867	7304.3
927.177	7343.17
927.487	7255.04
927.796	7216.17
928.106	7249.16
928.416	7184.3
928.725	7213.68
929.034	7170.07
929.344	7194.47
929.653	7127.81
929.962	7046.68
930.271	7056.62
930.581	7063.18
930.89	7000.35
931.199	6957.19
931.508	7030.41
931.817	6932.78
932.125	6910.64
932.434	6899.79
932.743	6859.79
933.051	6834.48
933.36	6773.69
933.669	6716.52
933.977	6785.67
934.286	6727.82
934.594	6715.61
934.902	6679.91
935.21	6641.72
935.519	6620.93
935.827	6592.68
936.135	6498.9
936.443	6512.23
936.751	6500.93
937.059	6483.76
937.367	6454.83
937.674	6422.97
937.982	6408.73
938.29	6333.48
938.597	6395.4
938.905	6297.55
939.213	6285.34
939.52	6286.93
939.827	6247.15
940.135	6142.52
940.442	6119.47
940.749	6106.36
941.056	6149.08
941.363	6047.16
941.67	6064.78
941.977	6051
942.284	6012.13
942.591	5993.83
942.898	5962.64
943.205	5962.41
943.511	5875.41
943.818	5926.26
944.125	5828.86
944.431	5817.78
944.738	5872.7
945.044	5790.21
945.35	5780.05
945.657	5747.96
945.963	5731.91
946.269	5716.32
946.575	5678.58
946.881	5732.14
947.187	5712.93
947.493	5613.5
947.799	5610.33
948.105	5602.42
948.41	5530.11
948.716	5508.41
949.022	5512.26
949.327	5514.74
949.633	5448.53
949.938	5400.39
950.244	5442.88
950.549	5364.46
950.854	5360.4
951.16	5328.31
951.465	5298.48
951.77	5300.74
952.075	5236.11
952.38	5218.7
952.685	5224.58
952.99	5157.69
953.294	5127.63
953.599	5210.34
953.904	5116.79
954.209	5072.72
954.513	5081.08
954.818	5055.32
955.122	5026.85
955.426	4990.24
955.731	4989.78
956.035	4944.81
956.339	4964.47
956.643	4975.77
956.948	4916.34
957.252	4904.14
957.556	4904.36
957.86	4844.25
958.163	4847.19
958.467	4782.56
958.771	4811.03
959.075	4804.93
959.378	4760.19
959.682	4743.46
959.985	4719.51
960.289	4730.81
960.592	4674.31
960.896	4657.59
961.199	4658.72
961.502	4614.43
961.805	4616.91
962.108	4585.95
962.411	4570.13
962.714	4559.06
963.017	4571.49
963.32	4536.24
963.623	4499.18
963.926	4478.16
964.228	4510.02
964.531	4415.79
964.833	4481.55
965.136	4435.22
965.438	4397.71
965.741	4442.45
966.043	4306.41
966.345	4360.65
966.648	4339.18
966.95	4303.93
967.252	4283.14
967.554	4252.85
967.856	4240.43
968.158	4223.25
968.46	4220.76
968.761	4218.5
969.063	4203.59
969.365	4156.13
969.666	4124.04
969.968	4121.78
970.269	4108.45
970.571	4067.32
970.872	4051.73
971.174	4017.15
971.475	4057.38
971.776	4015.35
972.077	3988.91
972.378	4033.88
972.679	3936.93
972.98	3942.35
973.281	3930.38
973.582	3907.78
973.883	3857.16
974.183	3837.95
974.484	3847.22
974.785	3829.14
975.085	3827.1
975.386	3858.97
975.686	3788.46
975.986	3746.65
976.287	3718.18
976.587	3690.16
976.887	3777.61
977.187	3735.58
977.487	3677.5
977.787	3649.93
978.087	3647.22
978.387	3599.54
978.687	3631.63
978.987	3597.5
979.286	3580.56
979.586	3621.46
979.885	3542.36
980.185	3538.52
980.484	3549.37
980.784	3499.65
981.083	3542.82
981.382	3485.87
981.682	3471.86
981.981	3450.16
982.28	3413.1
982.579	3421.69
982.878	3414.68
983.177	3366.78
983.475	3393.44
983.774	3348.25
984.073	3362.03
984.372	3308.02
984.67	3327.45
984.969	3317.51
985.267	3322.03
985.566	3320
985.864	3289.26
986.162	3284.52
986.461	3244.07
986.759	3229.6
987.057	3213.56
987.355	3165.65
987.653	3153.9
987.951	3130.4
988.249	3134.92
988.547	3140.57
988.844	3098.08
989.142	3139.66
989.44	3150.28
989.737	3073
990.035	3050.4
990.332	3073.22
990.63	3031.42
990.927	3070.96
991.224	3014.92
991.521	3020.57
991.819	2943.06
992.116	2956.39
992.413	2960.01
992.71	2964.3
993.006	2915.04
993.303	2901.93
993.6	2944.41
993.897	2892.66
994.193	2877.3
994.49	2840.46
994.787	2896.51
995.083	2823.51
995.379	2807.69
995.676	2833
995.972	2785.1
996.268	2804.98
996.565	2771.54
996.861	2710.97
997.157	2700.8
997.453	2717.3
997.749	2720.24
998.044	2723.4
998.34	2703.06
998.636	2675.72
998.932	2652.44
999.227	2637.98
999.523	2616.51
999.818	2645.89
1000.114	2635.72
1000.409	2587.59
1000.704	2584.88
1001	2543.52
1001.295	2569.06
1001.59	2539.9
1001.885	2521.15
1002.18	2517.53
1002.475	2490.64
1002.77	2468.04
1003.065	2430.98
1003.359	2459.91
1003.654	2440.7
1003.949	2445.44
1004.243	2440.25
1004.538	2432.79
1004.832	2383.3
1005.127	2369.74
1005.421	2357.76
1005.715	2334.71
1006.009	2359.12
1006.304	2310.98
1006.598	2308.95
1006.892	2300.36
1007.186	2281.38
1007.48	2290.42
1007.773	2282.74
1008.067	2240.93
1008.361	2202.96
1008.655	2188.28
1008.948	2213.59
1009.242	2198.9
1009.535	2194.83
1009.829	2139.92
1010.122	2149.18
1010.415	2146.69
1010.708	2124.32
1011.001	2155.06
1011.295	2085.91
1011.588	2092.46
1011.881	2070.31
1012.173	2071.44
1012.466	2058.79
1012.759	2061.05
1013.052	2065.79
1013.344	2045
1013.637	2028.51
1013.93	2027.83
1014.222	2040.03
1014.514	1996.87
1014.807	1979.24
1015.099	1964.55
1015.391	1917.32
1015.683	1958.68
1015.976	1920.03
1016.268	1928.4
1016.56	1893.59
1016.851	1873.93
1017.143	1861.73
1017.435	1878.23
1017.727	1853.14
1018.018	1837.78
1018.31	1820.6
1018.602	1816.31
1018.893	1783.09
1019.185	1790.32
1019.476	1773.15
1019.767	1785.8
1020.058	1752.13
1020.35	1751.23
1020.641	1739.02
1020.932	1736.31
1021.223	1719.36
1021.514	1687.95
1021.804	1679.81
1022.095	1690.44
1022.386	1673.71
1022.677	1628.06
1022.967	1612.02
1023.258	1634.62
1023.548	1610.44
1023.839	1638.69
1024.129	1616.99
1024.419	1594.85
1024.709	1588.74
1025	1565.69
1025.29	1574.05
1025.58	1526.15
1025.87	1539.93
1026.16	1520.72
1026.449	1529.08
1026.739	1514.17
1027.029	1468.52
1027.319	1506.26
1027.608	1491.57
1027.898	1492.25
1028.187	1462.87
1028.477	1450.22
1028.766	1454.51
1029.055	1431.91
1029.344	1439.14
1029.634	1437.34
1029.923	1417.67
1030.212	1397.79
1030.501	1384.68
1030.79	1361.4
1031.078	1360.95
1031.367	1366.83
1031.656	1366.15
1031.945	1351.01
1032.233	1341.29
1032.522	1329.09
1032.81	1309.88
1033.099	1306.94
1033.387	1279.6
1033.675	1282.76
1033.963	1287.51
1034.251	1277.34
1034.54	1246.83
1034.828	1254.74
1035.116	1232.14
1035.403	1220.84
1035.691	1226.72
1035.979	1196.66
1036.267	1205.93
1036.554	1165.7
1036.842	1207.74
1037.129	1177.45
1037.417	1180.62
1037.704	1155.76
1037.992	1149.89
1038.279	1129.77
1038.566	1136.78
1038.853	1136.78
1039.14	1136.78
