Data from aluminium_surface_pro_back_FLMS001491_00008.txt Node
Date: Wed Feb 08 15:33:30 GMT 2017
User: dcchb
Spectrometer: FLMS00149
Trigger mode: 0
Integration Time (sec): 2.000000E-2
Scans to average: 10
Electric dark correction enabled: true
Nonlinearity correction enabled: false
Boxcar width: 0
XAxis mode: Wavelengths
Number of Pixels in Spectrum: 2048
>>>>>Begin Spectral Data<<<<<
341.393	-14.72
341.776	-14.72
342.16	-14.72
342.543	-61.5
342.927	-72.12
343.31	-61.27
343.693	-64.21
344.077	-75.28
344.46	-63.76
344.843	-63.53
345.226	-47.26
345.61	-30.31
345.993	-13.59
346.376	-6.81
346.759	15.79
347.142	36.58
347.525	43.36
347.908	64.38
348.291	80.42
348.674	96.01
349.057	89.46
349.44	158.84
349.823	149.12
350.206	170.81
350.588	206.52
350.971	234.32
351.354	259.85
351.737	253.75
352.119	297.82
352.502	272.96
352.884	311.15
353.267	299.85
353.65	320.42
354.032	316.35
354.414	340.08
354.797	340.08
355.179	354.31
355.562	357.48
355.944	367.42
356.326	357.7
356.709	377.36
357.091	360.87
357.473	383.92
357.855	381.66
358.238	383.46
358.62	375.56
359.002	375.78
359.384	387.08
359.766	399.51
360.148	389.79
360.53	375.33
360.912	380.53
361.294	363.35
361.676	367.19
362.057	381.43
362.439	382.56
362.821	359.28
363.203	373.52
363.584	387.76
363.966	353.18
364.348	365.84
364.729	349.12
365.111	365.61
365.493	375.33
365.874	363.8
366.256	355.44
366.637	377.81
367.019	354.09
367.4	359.74
367.781	365.61
368.163	370.13
368.544	362.45
368.925	387.31
369.306	380.07
369.688	359.51
370.069	368.32
370.45	365.16
370.831	383.46
371.212	384.82
371.593	405.61
371.974	383.92
372.355	399.74
372.736	394.54
373.117	370.36
373.498	402
373.879	389.11
374.26	386.63
374.641	392.96
375.021	367.19
375.402	394.76
375.783	398.38
376.163	427.98
376.544	416.91
376.925	419.4
377.305	438.83
377.686	427.98
378.066	439.51
378.447	423.92
378.827	436.12
379.208	437.02
379.588	449
379.968	438.15
380.349	441.99
380.729	445.61
381.109	440.41
381.489	454.2
381.87	460.98
382.25	451.49
382.63	464.59
383.01	455.55
383.39	463.46
383.77	470.02
384.15	487.19
384.53	488.77
384.91	495.33
385.29	493.29
385.67	520.18
386.049	524.03
386.429	491.48
386.809	495.78
387.189	511.6
387.568	516.79
387.948	543.01
388.328	523.12
388.707	549.56
389.087	544.36
389.466	525.61
389.846	542.33
390.225	550.92
390.605	583.23
390.984	560.41
391.363	571.71
391.743	585.49
392.122	586.62
392.501	596.57
392.881	603.8
393.26	603.8
393.639	607.64
394.018	646.96
394.397	609.9
394.776	636.79
395.155	619.16
395.534	611.71
395.913	634.53
396.292	646.96
396.671	679.95
397.05	658.71
397.429	654.42
397.808	668.2
398.186	688.77
398.565	675.43
398.944	698.48
399.323	704.59
399.701	714.08
400.08	734.87
400.458	741.65
400.837	761.99
401.215	755.43
401.594	738.48
401.972	773.06
402.351	773.96
402.729	788.88
403.107	792.95
403.486	790.23
403.864	804.92
404.242	805.37
404.62	827.75
404.999	823
405.377	847.63
405.755	867.52
406.133	847.41
406.511	877.01
406.889	918.14
407.267	895.77
407.645	897.12
408.023	952.94
408.401	932.6
408.779	944.58
409.156	963.11
409.534	999.49
409.912	977.12
410.29	1015.76
410.667	1032.26
411.045	1046.95
411.422	1081.53
411.8	1048.08
412.178	1042.43
412.555	1093.5
412.933	1098.7
413.31	1117.23
413.687	1150.45
414.065	1151.13
414.442	1139.38
414.819	1152.03
415.197	1180.96
415.574	1190.45
415.951	1183.9
416.328	1214.4
416.705	1222.76
417.082	1218.47
417.46	1254.4
417.837	1245.14
418.214	1257.34
418.591	1316.32
418.967	1307.73
419.344	1314.06
419.721	1362.42
420.098	1331.91
420.475	1364.91
420.852	1375.53
421.228	1382.99
421.605	1348.86
421.982	1406.04
422.358	1439.03
422.735	1455.3
423.111	1411.69
423.488	1462.08
423.864	1489.65
424.241	1487.16
424.617	1548.86
424.994	1550.44
425.37	1541.85
425.746	1549.08
426.123	1583.88
426.499	1601.29
426.875	1629.31
427.251	1650.78
427.627	1684.67
428.003	1702.53
428.379	1717.67
428.756	1728.06
429.132	1769.87
429.507	1790.66
429.883	1823.88
430.259	1853.26
430.635	1844.44
431.011	1847.38
431.387	1930.09
431.763	1958.34
432.138	1977.77
432.514	1985.46
432.89	1983.2
433.265	2073.36
433.641	2099.35
434.016	2095.96
434.392	2121.5
434.767	2171.89
435.143	2147.94
435.518	2202.4
435.894	2208.05
436.269	2238.1
436.644	2281.95
437.02	2307.26
437.395	2329.85
437.77	2330.08
438.145	2403.98
438.52	2383.41
438.895	2402.17
439.271	2420.25
439.646	2537.31
440.021	2494.37
440.395	2521.26
440.77	2521.26
441.145	2580.24
441.52	2599.9
441.895	2587.93
442.27	2635.61
442.645	2618.43
443.019	2673.57
443.394	2673.8
443.769	2685.55
444.143	2701.82
444.518	2752.67
444.892	2754.7
445.267	2774.36
445.641	2788.15
446.016	2838.99
446.39	2862.72
446.764	2859.78
447.139	2851.2
447.513	2889.84
447.887	2908.6
448.262	2934.58
448.636	2954.24
449.01	3008.48
449.384	3019.1
449.758	3037.18
450.132	3078.99
450.506	3078.53
450.88	3121.7
451.254	3094.81
451.628	3192.43
452.002	3232.2
452.376	3254.35
452.75	3266.1
453.123	3324.63
453.497	3360.56
453.871	3441.46
454.244	3464.97
454.618	3447.79
454.992	3523.72
455.365	3514.91
455.739	3630.16
456.112	3691.17
456.486	3696.37
456.859	3708.12
457.232	3807.78
457.606	3778.86
457.979	3872.64
458.352	3936.59
458.725	3977.04
459.099	4034.22
459.472	4117.83
459.845	4148.56
460.218	4138.39
460.591	4226.3
460.964	4231.72
461.337	4316.92
461.71	4416.13
462.083	4492.06
462.456	4445.28
462.829	4549.46
463.201	4611.38
463.574	4571.83
463.947	4697.02
464.32	4762.56
464.692	4824.03
465.065	4846.17
465.438	4979.28
465.81	5030.12
466.183	5055.21
466.555	5151.47
466.928	5168.88
467.3	5210
467.672	5274.41
468.045	5406.61
468.417	5410.22
468.789	5470.56
469.161	5567.73
469.534	5642.31
469.906	5796.88
470.278	5837.56
470.65	5937.89
471.022	5986.71
471.394	6058.57
471.766	6172.46
472.138	6259.47
472.51	6334.95
472.882	6414.27
473.253	6509.18
473.625	6646.35
473.997	6773.58
474.369	6811.77
474.74	6892.9
475.112	7051.54
475.484	7171.99
475.855	7286.56
476.227	7375.6
476.598	7545.54
476.97	7656.72
477.341	7816.04
477.713	7997.28
478.084	7967.67
478.455	8224.84
478.827	8252.41
479.198	8508.67
479.569	8567.88
479.94	8799.29
480.311	8831.15
480.682	9061.2
481.053	9291.03
481.424	9458.93
481.795	9521.53
482.166	9646.27
482.537	9799.26
482.908	10081.29
483.279	10098.69
483.65	10279.93
484.021	10400.6
484.391	10660.48
484.762	10725.79
485.133	10849.86
485.503	10951.32
485.874	11243.29
486.244	11339.79
486.615	11600.34
486.985	11716.5
487.356	11938.19
487.726	11972.99
488.097	12286.65
488.467	12332.98
488.837	12612.75
489.207	12701.11
489.578	12925.73
489.948	13032.17
490.318	13218.16
490.688	13285.95
491.058	13477.81
491.428	13650.23
491.798	13843
492.168	14087.06
492.538	14140.16
492.908	14349.65
493.278	14540.61
493.648	14567.95
494.017	14752.13
494.387	14846.59
494.757	15006.58
495.126	15180.59
495.496	15269.63
495.866	15303.3
496.235	15555.04
496.605	15738.09
496.974	15842.95
497.344	16016.73
497.713	16046.33
498.082	16210.62
498.452	16484.96
498.821	16477.28
499.19	16574
499.559	16719.08
499.928	16810.6
500.298	17083.36
500.667	17195.9
501.036	17128.56
501.405	17349.35
501.774	17399.97
502.143	17569.91
502.512	17594.09
502.88	17785.94
503.249	17783.91
503.618	17958.82
503.987	18096.45
504.356	18231.13
504.724	18392.48
505.093	18340.28
505.462	18519.48
505.83	18618.69
506.199	18863.43
506.567	19063.43
506.936	19090.32
507.304	19331.44
507.672	19464.77
508.041	19545.45
508.409	19706.12
508.777	19900.47
509.145	20038.99
509.514	20125.32
509.882	20286.67
510.25	20388.81
510.618	20589.49
510.986	20648.47
511.354	20848.46
511.722	21087.33
512.09	21193.54
512.458	21279.64
512.826	21403.48
513.193	21622.68
513.561	21728.21
513.929	21850.92
514.297	22073.29
514.664	22195.77
515.032	22381.53
515.4	22560.06
515.767	22754.18
516.135	22832.37
516.502	22716.66
516.869	23183.99
517.237	23245.91
517.604	23327.95
517.972	23554.83
518.339	23657.65
518.706	23721.38
519.073	23873.92
519.44	24133.12
519.808	24327.24
520.175	24440.01
520.542	24829.6
520.909	24937.85
521.276	24933.78
521.643	25351.85
522.009	25482.69
522.376	25546.42
522.743	25772.63
523.11	26059.85
523.477	26344.59
523.843	26448.32
524.21	26796.78
524.577	27066.15
524.943	27174.85
525.31	27300.5
525.676	27521.73
526.043	27797.88
526.409	27895.74
526.776	28257.99
527.142	28269.51
527.508	28541.59
527.874	28760.12
528.241	28924.63
528.607	29043.28
528.973	29321.69
529.339	29414.11
529.705	29852.07
530.071	29898.62
530.437	30026.98
530.803	30269.01
531.169	30440.3
531.535	30528.43
531.901	30570.47
532.267	30762.33
532.632	31028.08
532.998	31068.31
533.364	31335.42
533.73	31452.7
534.095	31506.26
534.461	31672.81
534.826	31916.87
535.192	32041.39
535.557	32219.69
535.923	32286.58
536.288	32465.78
536.653	32596.63
537.019	32565.67
537.384	32669.85
537.749	32931.31
538.114	33072.77
538.479	33191.42
538.845	33305.08
539.21	33337.17
539.575	33516.15
539.94	33670.95
540.305	33782.36
540.67	33693.78
541.034	34003.82
541.399	34235.46
541.764	34192.75
542.129	34288.79
542.494	34465.73
542.858	34547.31
543.223	34630.47
543.587	34889
543.952	34903.46
544.316	35001.99
544.681	35082.44
545.045	35282.89
545.41	35382.32
545.774	35530.56
546.138	35604.01
546.503	35627.06
546.867	35807.39
547.231	36070.89
547.595	36109.53
547.959	36109.98
548.324	36335.29
548.688	36489.86
549.052	36652.79
549.416	36645.11
549.779	36752.9
550.143	36954.25
550.507	37151.76
550.871	37108.83
551.235	37081.03
551.599	37499.32
551.962	37437.63
552.326	37648.7
552.689	37981.35
553.053	37736.15
553.417	37960.33
553.78	38345.86
554.143	37998.75
554.507	38360.77
554.87	38534.33
555.234	38922.34
555.597	38690.71
555.96	39077.59
556.323	39104.03
556.686	39201.43
557.05	39504.47
557.413	39587.86
557.776	39793.73
558.139	40064.91
558.502	40081.18
558.865	40339.93
559.228	40557.78
559.59	40661.5
559.953	40681.61
560.316	41216.06
560.679	41358.66
561.041	41487.47
561.404	41747.35
561.767	42039.77
562.129	41741.25
562.492	42316.6
562.854	42326.99
563.217	42484.05
563.579	42612.64
563.941	42893.31
564.304	43037.03
564.666	43368.77
565.028	43420.52
565.39	43646.96
565.753	43724.7
566.115	43871.81
566.477	44092.15
566.839	44293.72
567.201	44528.29
567.563	44694.84
567.925	44873.82
568.287	45023.65
568.648	45163.3
569.01	45237.65
569.372	45474.71
569.734	45419.79
570.095	45687.13
570.457	45884.19
570.819	46123.28
571.18	46019.78
571.542	46374.8
571.903	46408.24
572.265	46648.91
572.626	46686.65
572.987	46931.85
573.349	47142.01
573.71	47276.24
574.071	47406.41
574.432	47431.49
574.794	47832.84
575.155	47758.04
575.516	47693.41
575.877	47846.17
576.238	48044.36
576.599	48136.79
576.96	48196.67
577.32	48216.56
577.681	48377.23
578.042	48542.65
578.403	48591.69
578.763	48550.33
579.124	48622.87
579.485	48839.14
579.845	49015.41
580.206	49015.63
580.566	48948.74
580.927	49007.27
581.287	49195.51
581.648	49070.09
582.008	49289.07
582.368	49157.32
582.728	49301.5
583.089	49151.67
583.449	49332.23
583.809	49426.24
584.169	49476.86
584.529	49367.26
584.889	49514.38
585.249	49478.9
585.609	49304.44
585.969	49497.2
586.329	49593.24
586.688	49513.7
587.048	49460.59
587.408	49492.23
587.768	49445.9
588.127	49408.39
588.487	49439.8
588.846	49716.18
589.206	49562.96
589.565	49601.61
589.925	49766.12
590.284	49642.73
590.643	49696.74
591.003	49911.88
591.362	49946.23
591.721	49853.12
592.08	49900.35
592.44	49932.44
592.799	49998.21
593.158	49861.49
593.517	49810.64
593.876	49956.62
594.235	49750.08
594.593	49908.72
594.952	49997.75
595.311	49884.08
595.67	49944.87
596.029	50085.21
596.387	50207.92
596.746	50151.42
597.104	50119.33
597.463	50061.93
597.822	50218.09
598.18	49986.68
598.538	50094.25
598.897	50401.13
599.255	50056.73
599.613	50514.8
599.972	50382.6
600.33	50429.15
600.688	50313.68
601.046	50396.39
601.404	50559.77
601.762	50610.17
602.12	50646.1
602.478	50659.43
602.836	50623.27
603.194	50431.87
603.552	50613.33
603.91	50518.64
604.268	50735.59
604.625	50635.93
604.983	50728.36
605.341	50640.9
605.698	50737.85
606.056	50861.69
606.413	50723.38
606.771	50933.32
607.128	50983.49
607.485	50836.38
607.843	50780.56
608.2	51136.71
608.557	51227.55
608.914	51068.23
609.272	51116.37
609.629	51243.82
609.986	51343.48
610.343	51204.73
610.7	51475.68
611.057	51141.68
611.414	51262.8
611.771	51337.15
612.127	51445.4
612.484	51353.2
612.841	51515.91
613.198	51372.41
613.554	51394.55
613.911	51663.7
614.267	51640.42
614.624	51617.37
614.98	51736.69
615.337	51763.58
615.693	51774.88
616.05	51805.62
616.406	51938.72
616.762	51840.19
617.118	51772.17
617.475	51813.75
617.831	51949.34
618.187	51900.3
618.543	51920.41
618.899	52084.25
619.255	52062.56
619.611	52075.21
619.967	52156.79
620.323	52267.98
620.678	52050.35
621.034	52027.3
621.39	52035.44
621.746	52004.48
622.101	52269.33
622.457	51878.83
622.812	52046.29
623.168	52157.02
623.523	52185.49
623.879	52107.3
624.234	52010.58
624.589	52136.23
624.945	52101.65
625.3	52120.41
625.655	52053.07
626.01	52187.3
626.365	52072.27
626.72	52001.99
627.075	52040.64
627.43	51989.79
627.785	51977.59
628.14	52032.28
628.495	52044.7
628.85	51945.95
629.205	51897.59
629.559	52029.56
629.914	51980.75
630.269	52015.55
630.623	52074.31
630.978	51811.26
631.332	51997.47
631.687	52009.9
632.041	51907.76
632.396	51953.86
632.75	51775.11
633.104	51839.06
633.459	51619.41
633.813	51698.73
634.167	51544.15
634.521	51634.77
634.875	51651.72
635.229	51537.83
635.583	51339.64
635.937	51388.68
636.291	51295.57
636.645	51361.79
636.999	51385.74
637.352	51386.87
637.706	51226.65
638.06	51372.63
638.413	51158.85
638.767	51145.75
639.121	51160.21
639.474	51113.43
639.828	51028.01
640.181	50943.94
640.534	50966.99
640.888	50830.27
641.241	50647.23
641.594	50748.92
641.947	50822.36
642.301	50743.5
642.654	50765.19
643.007	50718.64
643.36	50598.42
643.713	50553.67
644.066	50748.02
644.419	50440.23
644.771	50145.77
645.124	49887.47
645.477	49941.71
645.83	49741.49
646.182	49495.39
646.535	49411.1
646.888	49574.26
647.24	49174.95
647.593	49369.75
647.945	49339.92
648.298	49050.43
648.65	49101.28
649.002	48964.33
649.355	49114.84
649.707	49123.88
650.059	49277.32
650.411	49726.57
650.763	49734.48
651.115	50100.8
651.467	49972.9
651.819	49861.26
652.171	49906.91
652.523	49827.59
652.875	49765.89
653.227	49641.6
653.578	49886.8
653.93	49657.2
654.282	49513.25
654.633	49394.83
654.985	49506.47
655.337	49449.74
655.688	49475.96
656.039	49529.29
656.391	49205.46
656.742	49254.72
657.094	49256.3
657.445	49322.06
657.796	49223.76
658.147	49139.24
658.498	49084.33
658.849	49160.71
659.2	49069.87
659.551	49044.33
659.902	49109.19
660.253	49095.86
660.604	49111.9
660.955	48930.21
661.306	49102.41
661.656	49014.5
662.007	48942.41
662.358	48985.12
662.708	48956.2
663.059	48875.3
663.409	48575.19
663.76	48957.55
664.11	48884.34
664.461	48904.67
664.811	48793.27
665.161	48739.03
665.511	48695.41
665.862	48504.46
666.212	48715.53
666.562	48649.31
666.912	48553.05
667.262	48419.72
667.612	48433.5
667.962	48500.17
668.312	48463.56
668.662	48647.28
669.011	48425.14
669.361	48488.41
669.711	48293.84
670.06	48304.92
670.41	48241.87
670.76	48255.65
671.109	48408.64
671.459	48304.69
671.808	48220.17
672.157	48328.19
672.507	48085.26
672.856	48201.42
673.205	48202.55
673.554	48359.83
673.904	48169.1
674.253	48273.5
674.602	48144.02
674.951	47652.73
675.3	47463.36
675.649	48192.15
675.998	47920.07
676.346	47972.5
676.695	48148.76
677.044	47647.98
677.393	47789.9
677.741	47784.93
678.09	47651.83
678.438	47632.84
678.787	47664.93
679.135	47582.45
679.484	47340.87
679.832	47433.3
680.181	47193.53
680.529	47504.03
680.877	47327.99
681.225	47325.96
681.573	47349.01
681.922	47092.52
682.27	47118.96
682.618	47133.42
682.966	47107.66
683.314	47100.43
683.661	46920.55
684.009	46827.89
684.357	46617.96
684.705	46442.14
685.053	46613.89
685.4	46626.99
685.748	46341.13
686.095	46374.57
686.443	46294.57
686.79	46050.06
687.138	46278.53
687.485	46216.84
687.832	45962.83
688.18	45981.59
688.527	45753.34
688.874	45675.15
689.221	45730.29
689.568	45505.22
689.915	45498.44
690.262	45459.12
690.609	45460.25
690.956	45362.39
691.303	45241.27
691.65	44886.48
691.997	45034.95
692.344	44662.98
692.69	44721.73
693.037	44589.08
693.383	44434.74
693.73	44543.21
694.077	44189.77
694.423	44245.14
694.769	44103.44
695.116	44001.98
695.462	44086.5
695.808	43757.92
696.155	43952.94
696.501	43510.92
696.847	43540.07
697.193	43181.66
697.539	43363.35
697.885	43169.46
698.231	43124.49
698.577	43036.13
698.923	42825.06
699.269	42730.83
699.614	42477.72
699.96	42344.4
700.306	42414.45
700.651	42307.33
700.997	41997.96
701.342	42110.05
701.688	42051.97
702.033	41853.11
702.379	41799.1
702.724	41633.45
703.069	41607.92
703.415	41327.92
703.76	41316.63
704.105	41376.74
704.45	41217.87
704.795	40875.06
705.14	40809.52
705.485	40730.65
705.83	40655.4
706.175	40727.04
706.52	40499.7
706.865	40525.91
707.209	40337.67
707.554	40125.24
707.899	40135.87
708.243	39934.29
708.588	39969.32
708.932	39646.16
709.277	39573.62
709.621	39638.03
709.966	39323.68
710.31	39446.17
710.654	39136.8
710.998	39227.19
711.342	39227.41
711.687	39034.2
712.031	38819.06
712.375	38712.17
712.719	38806.63
713.063	38726.19
713.407	38815.67
713.75	38510.82
714.094	38497.49
714.438	38372.07
714.782	38433.99
715.125	38203.04
715.469	38237.16
715.812	38125.75
716.156	37849.82
716.499	37769.6
716.843	37953.32
717.186	37678.98
717.53	37892.53
717.873	37894.12
718.216	37664.07
718.559	37430.17
718.902	37424.52
719.246	37314.24
719.589	37157.86
719.932	37126.23
720.275	37046
720.617	36973.24
720.96	36925.55
721.303	36923.07
721.646	36876.74
721.989	36698.89
722.331	36722.62
722.674	36564.21
723.016	36569.18
723.359	36372.35
723.701	36570.08
724.044	36382.07
724.386	36016.88
724.729	36418.9
725.071	36107.04
725.413	36160.83
725.755	36086.71
726.097	35838.13
726.439	35804.68
726.782	35791.12
727.124	35968.97
727.465	35640.62
727.807	35592.93
728.149	35575.76
728.491	35624.8
728.833	35560.62
729.175	35389.55
729.516	35272.04
729.858	35316.33
730.199	35290.12
730.541	35190.01
730.882	35190.01
731.224	35159.27
731.565	34972.61
731.906	34941.65
732.248	34980.07
732.589	34754.09
732.93	34616.24
733.271	34657.14
733.612	34707.31
733.953	34592.96
734.294	34358.39
734.635	34365.4
734.976	34454.66
735.317	34356.36
735.658	34216.47
735.999	34221.44
736.339	34106.42
736.68	34122.01
737.021	34086.08
737.361	33760.21
737.702	34080.43
738.042	33941
738.383	33835.24
738.723	33848.35
739.063	33878.4
739.404	33818.07
739.744	33775.13
740.084	33499.43
740.424	33507.34
740.764	33458.75
741.104	33495.36
741.444	33381.01
741.784	33289.94
742.124	33300.11
742.464	33200
742.804	33180.34
743.143	33122.94
743.483	33095.6
743.823	32932.89
744.162	32913.91
744.502	32900.58
744.841	32648.6
745.181	32867.36
745.52	32682.95
745.86	32771.09
746.199	32649.73
746.538	32543.52
746.877	32587.59
747.216	32594.37
747.556	32366.35
747.895	32333.81
748.234	32161.84
748.573	32207.94
748.911	32054.04
749.25	32129.52
749.589	31843.65
749.928	31963.2
750.267	31935.18
750.605	31783.99
750.944	31597.78
751.283	31611.57
751.621	31648.63
751.96	31423.55
752.298	31341.52
752.636	31325.7
752.975	31222.43
753.313	31041.42
753.651	31172.26
753.989	30964.81
754.327	30952.83
754.666	30714.42
755.004	30816.34
755.342	30878.93
755.679	30763.46
756.017	30578.38
756.355	30566.85
756.693	30356.91
757.031	30514.42
757.368	30177.26
757.706	30234.21
758.044	30092.74
758.381	30141.78
758.719	29992.86
759.056	30026.07
759.394	29904.95
759.731	29664.05
760.068	29620.66
760.405	29574.34
760.743	29406.2
761.08	29502.7
761.417	29290.95
761.754	29316.72
762.091	29338.86
762.428	29047.12
762.765	28942.26
763.102	28904.3
763.438	28779.55
763.775	28544.08
764.112	28632.21
764.449	28436.06
764.785	28406
765.122	28308.61
765.458	28147.03
765.795	28133.24
766.131	28141.15
766.467	27904.55
766.804	27873.59
767.14	27797.43
767.476	27770.09
767.812	27594.95
768.148	27537.55
768.485	27450.1
768.821	27238.58
769.157	27244
769.492	27164.68
769.828	27100.5
770.164	26813.05
770.5	26658.03
770.836	26815.09
771.171	26475.66
771.507	26557.47
771.842	26279.51
772.178	26280.18
772.513	26303.91
772.849	26151.83
773.184	26027.54
773.519	26073.18
773.855	25889.69
774.19	25679.52
774.525	25568.79
774.86	25723.36
775.195	25587.32
775.53	25510.26
775.865	25317.27
776.2	25224.39
776.535	24936.94
776.87	25019.65
777.205	24848.81
777.539	24863.27
777.874	24901.01
778.209	24549.16
778.543	24591.64
778.878	24437.07
779.212	24361.37
779.547	24240.92
779.881	24282.27
780.215	24113.01
780.55	24139.45
780.884	23998.66
781.218	23997.98
781.552	23939.23
781.886	23787.82
782.22	23553.25
782.554	23490.43
782.888	23239.36
783.222	23227.16
783.556	23143.32
783.889	23095.18
784.223	23048.18
784.557	22955.75
784.89	23056.54
785.224	22884.57
785.557	22759.6
785.891	22769.54
786.224	22532.03
786.558	22664.01
786.891	22410.23
787.224	22285.26
787.557	22207.52
787.891	22256.34
788.224	22140.18
788.557	22140.18
788.89	22039.17
789.223	21819.29
789.556	21814.09
789.888	21716.91
790.221	21585.62
790.554	21465.85
790.887	21577.26
791.219	21408.22
791.552	21361.67
791.884	21255.91
792.217	21139.53
792.549	21161
792.882	20986.99
793.214	20940.89
793.546	20923.26
793.879	20864.28
794.211	20667.45
794.543	20753.78
794.875	20660.22
795.207	20660.45
795.539	20396.72
795.871	20404.41
796.203	20289.83
796.535	20102.04
796.867	20196.28
797.198	20090.74
797.53	20096.62
797.862	19893.46
798.193	19930.3
798.525	19745.67
798.856	19789.96
799.188	19540.7
799.519	19563.98
799.85	19396.98
800.182	19483.75
800.513	19334.38
800.844	19189.07
801.175	19221.84
801.506	19292.12
801.837	19190.88
802.168	19140.49
802.499	19148.62
802.83	18955.41
803.161	18923.32
803.491	18851
803.822	18877.67
804.153	18797.44
804.483	18590.44
804.814	18578.47
805.145	18501.18
805.475	18549.99
805.805	18555.64
806.136	18452.37
806.466	18442.42
806.796	18413.5
807.126	18176.89
807.457	18150.91
807.787	18227.29
808.117	18056.45
808.447	18018.71
808.777	18051.7
809.107	18003.57
809.436	17968.76
809.766	17928.77
810.096	17908.2
810.426	17709.56
810.755	17736.23
811.085	17782.56
811.414	17751.6
811.744	17519.74
812.073	17516.35
812.403	17550.47
812.732	17317.71
813.061	17493.98
813.39	17303.92
813.719	17225.28
814.049	17352.96
814.378	17233.19
814.707	17045.85
815.036	17098.28
815.365	16987.77
815.693	16875.69
816.022	16868.91
816.351	16891.28
816.68	16696.26
817.008	16808.57
817.337	16653.09
817.665	16639.76
817.994	16632.3
818.322	16624.17
818.651	16528.8
818.979	16447.45
819.307	16552.3
819.636	16464.62
819.964	16332.65
820.292	16415.13
820.62	16388.47
820.948	16268.7
821.276	16337.62
821.604	16341.01
821.932	16343.04
822.259	16289.49
822.587	16354.8
822.915	16225.76
823.243	16316.15
823.57	16259.21
823.898	16297.85
824.225	16256.95
824.553	16275.7
824.88	16207.46
825.207	16298.75
825.535	16266.21
825.862	16313.89
826.189	16272.54
826.516	16388.69
826.843	16372.42
827.17	16360.22
827.497	16270.5
827.824	16313.44
828.151	16311.63
828.478	16308.47
828.805	16262.14
829.131	16144.86
829.458	16213.56
829.785	16134.91
830.111	16157.96
830.438	16239.54
830.764	16263.72
831.09	16256.95
831.417	16187.57
831.743	16201.35
832.069	16143.28
832.395	16074.8
832.722	16115.71
833.048	16143.05
833.374	16180.79
833.7	16040.23
834.026	16115.93
834.351	16137.85
834.677	16168.81
835.003	16134.01
835.329	16060.79
835.654	16035.71
835.98	15917.07
836.306	15914.58
836.631	15820.12
836.956	15964.98
837.282	15848.59
837.607	15792.78
837.932	15688.6
838.258	15722.5
838.583	15778.99
838.908	15642.95
839.233	15704.64
839.558	15587.13
839.883	15505.33
840.208	15507.59
840.533	15575.38
840.858	15479.34
841.182	15497.42
841.507	15481.15
841.832	15406.8
842.156	15407.48
842.481	15357.99
842.805	15302.85
843.13	15221.72
843.454	15263.53
843.778	15181.49
844.103	15180.14
844.427	15158.44
844.751	15145.11
845.075	15109.86
845.399	15099.24
845.723	14967.94
846.047	15068.5
846.371	14801.16
846.695	14905.57
847.019	14819.24
847.343	14823.99
847.666	14729.98
847.99	14708.51
848.313	14749.19
848.637	14584.67
848.96	14612.24
849.284	14570.44
849.607	14461.74
849.931	14434.85
850.254	14306.94
850.577	14235.53
850.9	14066.27
851.223	14123.89
851.546	14005.71
851.869	13979.04
852.192	13983.11
852.515	13849.1
852.838	13842.77
853.161	13816.78
853.483	13826.27
853.806	13769.1
854.129	13780.63
854.451	13654.98
854.774	13585.83
855.096	13568.88
855.419	13533.4
855.741	13525.72
856.063	13416.12
856.385	13319.62
856.708	13329.34
857.03	13205.73
857.352	13251.15
857.674	13315.1
857.996	13104.03
858.318	13138.61
858.64	13117.59
858.961	13062.23
859.283	13023.13
859.605	12989.69
859.926	12957.15
860.248	13026.97
860.57	12923.7
860.891	13008.9
861.212	12852.97
861.534	12873.31
861.855	12894.77
862.176	12767.77
862.498	12777.04
862.819	12734.1
863.14	12659.98
863.461	12723.25
863.782	12643.93
864.103	12655.23
864.424	12670.15
864.745	12728.9
865.065	12569.13
865.386	12542.47
865.707	12508.12
866.027	12622.69
866.348	12518.29
866.668	12587.21
866.989	12440.1
867.309	12445.07
867.63	12525.74
867.95	12467.21
868.27	12323.72
868.59	12365.52
868.91	12389.02
869.23	12351.51
869.55	12312.42
869.87	12344.73
870.19	12373.21
870.51	12365.75
870.83	12306.77
871.15	12245.75
871.469	12333.88
871.789	12168.69
872.109	12200.1
872.428	12119.65
872.748	12130.05
873.067	12193.78
873.386	12177.05
873.706	12149.26
874.025	12057.06
874.344	12099.99
874.663	12087.34
874.982	12058.41
875.301	11989.94
875.62	11987.23
875.939	11993.33
876.258	11985.42
876.577	11990.39
876.896	11984.29
877.214	11947.23
877.533	12018.19
877.852	11860.9
878.17	11948.13
878.489	12003.05
878.807	11965.53
879.125	11856.84
879.444	11879.89
879.762	11893.22
880.08	11918.75
880.398	11785.42
880.716	11820.9
881.034	11765.31
881.352	11812.32
881.67	11759.66
881.988	11789.04
882.306	11690.29
882.624	11672.66
882.941	11655.26
883.259	11664.75
883.577	11642.15
883.894	11604.64
884.212	11593.57
884.529	11671.3
884.846	11507.92
885.164	11503.85
885.481	11382.95
885.798	11431.31
886.115	11373.68
886.432	11358.09
886.75	11316.74
887.067	11302.27
887.383	11242.16
887.7	11335.27
888.017	11262.73
888.334	11237.87
888.651	11225.67
888.967	11200.81
889.284	11216.4
889.6	11103.18
889.917	11055.5
890.233	11035.84
890.55	11052.56
890.866	11009.85
891.182	11095.95
891.498	10917.88
891.815	10925.33
892.131	10935.05
892.447	10905.45
892.763	10837.88
893.079	10871.55
893.395	10772.57
893.71	10737.54
894.026	10777.99
894.342	10610.99
894.657	10604.89
894.973	10631.33
895.289	10651.22
895.604	10584.33
895.92	10525.34
896.235	10504.78
896.55	10550.2
896.865	10515.18
897.181	10372.81
897.496	10449.87
897.811	10425.91
898.126	10402.86
898.441	10353.6
898.756	10349.08
899.071	10242.41
899.386	10258.46
899.7	10178.46
900.015	10135.07
900.33	10110.89
900.644	10116.77
900.959	10138.46
901.273	10074.96
901.588	10052.36
901.902	9994.51
902.216	10030.44
902.531	9996.77
902.845	9971.46
903.159	9913.38
903.473	9856.21
903.787	9798.36
904.101	9782.31
904.415	9794.52
904.729	9782.09
905.042	9750.9
905.356	9722.65
905.67	9641.3
905.984	9594.75
906.297	9676.33
906.611	9627.06
906.924	9529.89
907.237	9492.83
907.551	9472.49
907.864	9386.17
908.177	9390.69
908.491	9393.4
908.804	9323.34
909.117	9242.44
909.43	9270.69
909.743	9208.77
910.056	9276.56
910.368	9183.46
910.681	9119.28
910.994	9050.58
911.307	9079.73
911.619	8956.57
911.932	9041.32
912.244	8971.04
912.557	8952.28
912.869	8839.74
913.181	8862.79
913.494	8842.9
913.806	8813.53
914.118	8739.63
914.43	8713.41
914.742	8733.3
915.054	8604.49
915.366	8709.35
915.678	8637.94
915.99	8590.93
916.302	8487.21
916.613	8496.25
916.925	8420.77
917.236	8487.88
917.548	8411.95
917.859	8390.71
918.171	8339.87
918.482	8293.99
918.794	8284.73
919.105	8228.23
919.416	8203.37
919.727	8190.04
920.038	8089.02
920.349	8104.17
920.66	8043.6
920.971	8096.71
921.282	7999.08
921.593	8017.16
921.903	7950.95
922.214	7871.86
922.525	7885.41
922.835	7878.18
923.146	7784.85
923.456	7816.49
923.767	7756.38
924.077	7740.11
924.387	7704.4
924.697	7678.19
925.008	7640.67
925.318	7604.74
925.628	7571.52
925.938	7512.99
926.248	7507.34
926.558	7467.12
926.867	7440.68
927.177	7396.16
927.487	7391.87
927.796	7309.61
928.106	7303.06
928.416	7314.81
928.725	7289.05
929.034	7241.14
929.344	7229.39
929.653	7178.09
929.962	7113.23
930.271	7109.16
930.581	7116.39
930.89	7107.13
931.199	7044.31
931.508	7005.89
931.817	7025.78
932.125	6985.78
932.434	6964.31
932.743	6890.86
933.051	6804.54
933.36	6872.11
933.669	6826.01
933.977	6757.76
934.286	6760.7
934.594	6713.47
934.902	6615.84
935.21	6626.92
935.519	6681.15
935.827	6628.05
936.135	6631.66
936.443	6570.42
936.751	6496.52
937.059	6504.66
937.367	6461.5
937.674	6434.83
937.982	6438.45
938.29	6374.27
938.597	6373.14
938.905	6267.15
939.213	6266.47
939.52	6247.72
939.827	6257.43
940.135	6242.97
940.442	6215.18
940.749	6201.16
941.056	6157.32
941.363	6149.87
941.67	6106.48
941.977	6043.2
942.284	6009.08
942.591	6019.25
942.898	6001.4
943.205	6030.1
943.511	5973.6
943.818	5957.78
944.125	5879.59
944.431	5901.06
944.738	5885.69
945.044	5855.19
945.35	5782.19
945.657	5758.46
945.963	5769.09
946.269	5746.49
946.575	5704.91
946.881	5715.08
947.187	5654.51
947.493	5613.16
947.799	5591.46
948.105	5603.21
948.41	5582.88
948.716	5542.2
949.022	5513.27
949.327	5482.31
949.633	5470.79
949.938	5469.88
950.244	5485.93
950.549	5416.55
950.854	5381.07
951.16	5365.48
951.465	5332.03
951.77	5360.73
952.075	5309.21
952.38	5224.47
952.685	5274.18
952.99	5244.13
953.294	5197.35
953.599	5191.02
953.904	5127.29
954.209	5133.85
954.513	5117.8
954.818	5158.03
955.122	5086.39
955.426	5116.22
955.731	5040.74
956.035	5000.29
956.339	5019.05
956.643	4975.21
956.948	4947.64
957.252	4924.14
957.556	4959.62
957.86	4880.52
958.163	4897.02
958.467	4849.11
958.771	4905.38
959.075	4846.4
959.378	4828.55
959.682	4807.08
959.985	4784.03
960.289	4742.45
960.592	4741.32
960.896	4741.77
961.199	4679.17
961.502	4661.54
961.805	4600.08
962.108	4633.3
962.411	4603.92
962.714	4570.93
963.017	4561.66
963.32	4533.19
963.623	4511.27
963.926	4462.68
964.228	4477.37
964.531	4438.5
964.833	4462.68
965.136	4408.67
965.438	4397.14
965.741	4414.77
966.043	4373.87
966.345	4361.21
966.648	4338.39
966.95	4347.65
967.252	4307.43
967.554	4337.71
967.856	4291.38
968.158	4206.19
968.46	4225.62
968.761	4203.48
969.063	4193.08
969.365	4195.79
969.666	4159.64
969.968	4114.44
970.269	4131.84
970.571	4124.16
970.872	4097.27
971.174	4095.68
971.475	4051.39
971.776	4073.54
972.077	4027.21
972.378	3997.61
972.679	4023.82
972.98	3993.31
973.281	3978.62
973.582	3944.27
973.883	3904.05
974.183	3900.66
974.484	3911.06
974.785	3864.73
975.085	3858.85
975.386	3889.81
975.686	3870.15
975.986	3808.23
976.287	3855.24
976.587	3775.24
976.887	3770.95
977.187	3756.48
977.487	3762.13
977.787	3733.66
978.087	3709.25
978.387	3665.64
978.687	3692.76
978.987	3647.33
979.286	3705.19
979.586	3630.16
979.885	3600.78
980.185	3561.46
980.484	3583.83
980.784	3563.95
981.083	3539.09
981.382	3532.53
981.682	3541.8
981.981	3503.16
982.28	3502.25
982.579	3489.6
982.878	3507
983.177	3477.85
983.475	3464.51
983.774	3489.37
984.073	3434.46
984.372	3435.59
984.67	3360.11
984.969	3414.35
985.267	3337.51
985.566	3314.69
985.864	3314.46
986.162	3320.79
986.461	3248.7
986.759	3267.23
987.057	3278.76
987.355	3232.2
987.653	3219.1
987.951	3242.6
988.249	3220.23
988.547	3223.62
988.844	3212.99
989.142	3139.55
989.44	3126.9
989.737	3121.25
990.035	3120.12
990.332	3058.87
990.63	3070.17
990.927	3081.02
991.224	3018.65
991.521	3027.46
991.819	3031.76
992.116	2982.27
992.413	2977.07
992.71	2973
993.006	3009.61
993.303	2928.48
993.6	2920.12
993.897	2904.08
994.193	2921.25
994.49	2855.49
994.787	2854.81
995.083	2850.52
995.379	2860.69
995.676	2810.07
995.972	2815.26
996.268	2803.97
996.565	2789.95
996.861	2825.43
997.157	2791.76
997.453	2774.81
997.749	2774.14
998.044	2722.39
998.34	2700.47
998.636	2736.85
998.932	2689.84
999.227	2698.66
999.523	2685.32
999.818	2640.13
1000.114	2662.5
1000.409	2627.93
1000.704	2603.29
1001	2595.61
1001.295	2594.25
1001.59	2587.25
1001.885	2540.7
1002.18	2561.71
1002.475	2564.88
1002.77	2499.57
1003.065	2508.61
1003.359	2473.81
1003.654	2499.79
1003.949	2456.18
1004.243	2484.2
1004.538	2449.4
1004.832	2444.43
1005.127	2404.65
1005.421	2389.06
1005.715	2356.97
1006.009	2382.28
1006.304	2354.71
1006.598	2344.77
1006.892	2331.21
1007.186	2301.61
1007.48	2305.45
1007.773	2257.77
1008.067	2308.39
1008.361	2250.53
1008.655	2227.26
1008.948	2248.27
1009.242	2214.6
1009.535	2189.97
1009.829	2193.13
1010.122	2184.55
1010.415	2187.03
1010.708	2192.46
1011.001	2137.54
1011.295	2116.07
1011.588	2125.57
1011.881	2119.92
1012.173	2101.39
1012.466	2112.23
1012.759	2065
1013.052	2076.3
1013.344	2053.7
1013.637	2066.13
1013.93	2031.1
1014.222	2010.09
1014.514	1993.14
1014.807	2020.03
1015.099	1978.9
1015.391	1983.2
1015.683	1968.96
1015.976	1987.94
1016.268	1952.01
1016.56	1916.08
1016.851	1913.82
1017.143	1898.9
1017.435	1898.68
1017.727	1886.02
1018.018	1879.7
1018.31	1829.08
1018.602	1836.08
1018.893	1811.68
1019.185	1854.61
1019.476	1797.66
1019.767	1809.87
1020.058	1797.21
1020.35	1751.79
1020.641	1779.59
1020.932	1736.2
1021.223	1744.33
1021.514	1748.17
1021.804	1679.02
1022.095	1727.38
1022.386	1691.23
1022.677	1711.57
1022.967	1679.93
1023.258	1632.92
1023.548	1654.39
1023.839	1655.75
1024.129	1628.18
1024.419	1625.92
1024.709	1599.03
1025	1575.75
1025.29	1572.13
1025.58	1562.19
1025.87	1569.2
1026.16	1587.73
1026.449	1547.95
1026.739	1533.72
1027.029	1545.24
1027.319	1543.43
1027.608	1486.26
1027.898	1512.02
1028.187	1479.48
1028.477	1489.88
1028.766	1482.42
1029.055	1450.33
1029.344	1437.67
1029.634	1441.29
1029.923	1438.35
1030.212	1392.25
1030.501	1394.51
1030.79	1431.8
1031.078	1389.09
1031.367	1384.34
1031.656	1371.69
1031.945	1368.75
1032.233	1351.57
1032.522	1350.67
1032.81	1333.95
1033.099	1296.89
1033.387	1298.92
1033.675	1290.79
1033.963	1296.21
1034.251	1272.93
1034.54	1256.66
1034.828	1270.45
1035.116	1225.48
1035.403	1253.5
1035.691	1227.28
1035.979	1228.87
1036.267	1233.16
1036.554	1208.75
1036.842	1220.5
1037.129	1201.07
1037.417	1197.68
1037.704	1172.6
1037.992	1175.53
1038.279	1151.58
1038.566	1150.9
1038.853	1150.9
1039.14	1150.9
