Data from aluminium_surface_pro_back_FLMS001491_00053.txt Node
Date: Wed Feb 08 15:34:15 GMT 2017
User: dcchb
Spectrometer: FLMS00149
Trigger mode: 0
Integration Time (sec): 2.000000E-2
Scans to average: 10
Electric dark correction enabled: true
Nonlinearity correction enabled: false
Boxcar width: 0
XAxis mode: Wavelengths
Number of Pixels in Spectrum: 2048
>>>>>Begin Spectral Data<<<<<
341.393	-22.16
341.776	-22.16
342.16	-22.16
342.543	-54.48
342.927	-59.22
343.31	-75.04
343.693	-63.97
344.077	-56.96
344.46	-57.41
344.843	-68.03
345.226	-37.3
345.61	-32.78
345.993	-24.87
346.376	-7.47
346.759	-1.14
347.142	14.67
347.525	39.53
347.908	73.43
348.291	69.59
348.674	100.32
349.057	127.44
349.44	122.02
349.823	137.38
350.206	181
350.588	213.31
350.971	242.24
351.354	265.74
351.737	270.94
352.119	284.05
352.502	293.54
352.884	316.14
353.267	311.16
353.65	327.21
354.032	321.79
354.414	321.33
354.797	321.11
355.179	353.2
355.562	360.2
355.944	360.43
356.326	354.1
356.709	362.01
357.091	366.53
357.473	376.93
357.855	387.09
358.238	370.37
358.62	350.71
359.002	377.6
359.384	378.51
359.766	384.61
360.148	398.62
360.53	378.28
360.912	373.76
361.294	374.89
361.676	366.76
362.057	363.37
362.439	362.01
362.821	374.21
363.203	369.69
363.584	378.28
363.966	363.59
364.348	379.41
364.729	350.03
365.111	378.51
365.493	390.94
365.874	366.98
366.256	366.08
366.637	376.93
367.019	364.95
367.4	363.14
367.781	357.72
368.163	368.11
368.544	376.93
368.925	372.41
369.306	382.12
369.688	382.35
370.069	356.59
370.45	352.74
370.831	382.35
371.212	351.62
371.593	378.06
371.974	388
372.355	374.21
372.736	382.8
373.117	392.29
373.498	370.82
373.879	377.83
374.26	380.99
374.641	392.74
375.021	406.53
375.402	410.82
375.783	397.26
376.163	412.18
376.544	418.73
376.925	398.62
377.305	413.08
377.686	428.22
378.066	427.32
378.447	445.85
378.827	425.06
379.208	441.78
379.588	417.38
379.968	407.88
380.349	436.13
380.729	423.7
381.109	445.62
381.489	469.13
381.87	447.88
382.25	468.45
382.63	450.37
383.01	460.54
383.39	476.36
383.77	471.61
384.15	461.67
384.53	462.8
384.91	500.31
385.29	496.92
385.67	477.04
386.049	485.17
386.429	510.71
386.809	485.4
387.189	510.93
387.568	519.07
387.948	521.33
388.328	527.66
388.707	509.8
389.087	511.38
389.466	527.88
389.846	539.86
390.225	565.85
390.605	548.67
390.984	559.97
391.363	568.78
391.743	569.01
392.122	600.87
392.501	600.65
392.881	604.49
393.26	604.72
393.639	626.64
394.018	619.18
394.397	607.88
394.776	640.87
395.155	624.6
395.534	639.74
395.913	647.2
396.292	661.66
396.671	676.8
397.05	655.79
397.429	668.67
397.808	696.92
398.186	686.52
398.565	706.41
398.944	699.4
399.323	689.69
399.701	723.13
400.08	738.72
400.458	731.27
400.837	735.79
401.215	747.99
401.594	754.32
401.972	758.38
402.351	752.06
402.729	789.34
403.107	772.39
403.486	804.71
403.864	814.88
404.242	816.46
404.62	836.35
404.999	831.38
405.377	844.03
405.755	830.7
406.133	880.87
406.511	884.71
406.889	894.43
407.267	891.71
407.645	921.32
408.023	937.59
408.401	947.08
408.779	961.99
409.156	965.61
409.534	974.88
409.912	972.39
410.29	1017.59
410.667	1006.29
411.045	1006.51
411.422	1036.12
411.8	1064.36
412.178	1047.19
412.555	1092.84
412.933	1085.83
413.31	1100.52
413.687	1101.2
414.065	1150.24
414.442	1178.26
414.819	1160.86
415.197	1178.03
415.574	1161.31
415.951	1221.87
416.328	1222.55
416.705	1223.91
417.082	1236.79
417.46	1261.65
417.837	1270.46
418.214	1284.25
418.591	1272.04
418.967	1301.19
419.344	1303
419.721	1315.43
420.098	1359.5
420.475	1325.83
420.852	1369.89
421.228	1370.35
421.605	1385.03
421.982	1405.6
422.358	1399.27
422.735	1454.18
423.111	1419.38
423.488	1467.52
423.864	1452.6
424.241	1465.03
424.617	1514.07
424.994	1517.69
425.37	1533.73
425.746	1537.57
426.123	1564.01
426.499	1588.42
426.875	1626.84
427.251	1632.26
427.627	1682.65
428.003	1685.14
428.379	1710
428.756	1739.6
429.132	1742.31
429.507	1764.23
429.883	1790.9
430.259	1838.36
430.635	1851.01
431.011	1863.67
431.387	1886.94
431.763	1928.75
432.138	1938.47
432.514	2006.94
432.89	1992.93
433.265	1997.9
433.641	2030.44
434.016	2067.5
434.392	2102.53
434.767	2141.17
435.143	2149.53
435.518	2164.22
435.894	2214.62
436.269	2246.48
436.644	2259.59
437.02	2278.57
437.395	2291.45
437.77	2320.6
438.145	2328.51
438.52	2359.7
438.895	2384.78
439.271	2377.1
439.646	2450.99
440.021	2449.41
440.395	2488.06
440.77	2474.95
441.145	2490.99
441.52	2544.1
441.895	2531.67
442.27	2549.75
442.645	2602.4
443.019	2618
443.394	2639.92
443.769	2647.15
444.143	2643.53
444.518	2737.54
444.892	2712.91
445.267	2729.86
445.641	2779.12
446.016	2767.6
446.39	2778.67
446.764	2819.57
447.139	2841.72
447.513	2876.75
447.887	2879.23
448.262	2900.02
448.636	2860.02
449.01	2913.58
449.384	2966.91
449.758	3000.81
450.132	3026.35
450.506	3042.39
450.88	3056.85
451.254	3107.93
451.628	3133.46
452.002	3193.35
452.376	3204.42
452.75	3228.15
453.123	3259.56
453.497	3327.13
453.871	3348.82
454.244	3373.68
454.618	3431.99
454.992	3507.24
455.365	3494.36
455.739	3550.85
456.112	3603.28
456.486	3588.37
456.859	3662.49
457.232	3770.51
457.606	3730.28
457.979	3795.59
458.352	3900.9
458.725	3940.45
459.099	3930.5
459.472	4036.04
459.845	4071.29
460.218	4072.87
460.591	4154
460.964	4139.54
461.337	4261.12
461.71	4376.37
462.083	4373.43
462.456	4392.19
462.829	4434.45
463.201	4529.58
463.574	4521.22
463.947	4617.49
464.32	4723.03
464.692	4716.92
465.065	4763.93
465.438	4836.24
465.81	4946.52
466.183	4986.07
466.555	5043.92
466.928	5102.45
467.3	5099.06
467.672	5201.43
468.045	5299.28
468.417	5374.08
468.789	5362.33
469.161	5455.89
469.534	5602.55
469.906	5643.45
470.278	5737.69
470.65	5776.78
471.022	5906.72
471.394	6040.05
471.766	6017.45
472.138	6101.75
472.51	6273.49
472.882	6325.92
473.253	6468.29
473.625	6501.06
473.997	6666.7
474.369	6679.13
474.74	6832.8
475.112	6940.14
475.484	6988.5
475.855	7108.5
476.227	7232.79
476.598	7405.89
476.97	7453.58
477.341	7697.86
477.713	7767.01
478.084	7861.7
478.455	8082.49
478.827	8128.13
479.198	8360.44
479.569	8373.33
479.94	8642.47
480.311	8746.87
480.682	8941.22
481.053	9080.43
481.424	9256.01
481.795	9320.87
482.166	9498.27
482.537	9580.75
482.908	9833.63
483.279	9935.32
483.65	10118.14
484.021	10314.06
484.391	10487.39
484.762	10546.6
485.133	10632.93
485.503	10793.15
485.874	11055.29
486.244	11104.1
486.615	11361.27
486.985	11529.85
487.356	11646.69
487.726	11698.66
488.097	12036.96
488.467	12035.6
488.837	12330.96
489.207	12488.02
489.578	12653.21
489.948	12692.31
490.318	13006.65
490.688	13036.03
491.058	13160.32
491.428	13396.47
491.798	13579.52
492.168	13856.57
492.538	13963.01
492.908	14014.31
493.278	14278.03
493.648	14316.9
494.017	14583.11
494.387	14722.76
494.757	14782.65
495.126	15061.51
495.496	15052.25
495.866	15206.37
496.235	15400.03
496.605	15477.55
496.974	15600.25
497.344	15857.87
497.713	15924.09
498.082	16037.98
498.452	16200.69
498.821	16320.23
499.19	16306.45
499.559	16581.7
499.928	16618.31
500.298	16793.67
500.667	16864.18
501.036	16993.21
501.405	17077.05
501.774	17116.6
502.143	17402.01
502.512	17437.95
502.88	17599.52
503.249	17569.24
503.618	17793.19
503.987	17948.44
504.356	18009.23
504.724	18130.81
505.093	18180.75
505.462	18291.71
505.83	18439.05
506.199	18731.24
506.567	18860.05
506.936	18724.47
507.304	19080.39
507.672	19165.81
508.041	19299.82
508.409	19446.03
508.777	19512.92
509.145	19678.11
509.514	19803.98
509.882	20043.3
510.25	20157.65
510.618	20216.4
510.986	20459.11
511.354	20587.24
511.722	20704.3
512.09	20873.34
512.458	20897.52
512.826	21123.72
513.193	21276.04
513.561	21367.79
513.929	21526.88
514.297	21820.2
514.664	21979.07
515.032	22016.58
515.4	22194.66
515.767	22304.94
516.135	22463.35
516.502	22372.96
516.869	22845.26
517.237	23082.09
517.604	23063.56
517.972	23298.81
518.339	23400.27
518.706	23485.47
519.073	23566.15
519.44	23828.51
519.808	24101.05
520.175	24179.69
520.542	24478.89
520.909	24674.37
521.276	24638.21
521.643	24889.73
522.009	25032.77
522.376	25290.85
522.743	25573.1
523.11	25680.21
523.477	26021.45
523.843	26181.67
524.21	26558.84
524.577	26758.15
524.943	26864.36
525.31	27012.83
525.676	27270.46
526.043	27404.01
526.409	27641.07
526.776	27913.38
527.142	28179.58
527.508	28240.6
527.874	28352.46
528.241	28652.79
528.607	28624.09
528.973	28954.25
529.339	28956.06
529.705	29186.34
530.071	29532.99
530.437	29654.12
530.803	29929.37
531.169	30078.29
531.535	30034
531.901	30203.94
532.267	30413.42
532.632	30458.62
532.998	30834.88
533.364	30954.2
533.73	31022
534.095	31226.51
534.461	31217.47
534.826	31448.65
535.192	31677.57
535.557	31835.08
535.923	31797.57
536.288	31997.11
536.653	32182.19
537.019	32155.52
537.384	32397.1
537.749	32443.2
538.114	32515.29
538.479	32579.47
538.845	32849.52
539.21	32708.28
539.575	33030.53
539.94	33207.25
540.305	33243.86
540.67	33284.53
541.034	33468.71
541.399	33548.48
541.764	33631.19
542.129	33856.72
542.494	34013.1
542.858	34053.1
543.223	34173.78
543.587	34350.27
543.952	34336.48
544.316	34495.58
544.681	34439.08
545.045	34634.33
545.41	34803.82
545.774	34936.02
546.138	34925.85
546.503	35138.5
546.867	35264.82
547.231	35513.4
547.595	35524.25
547.959	35679.5
548.324	35621.42
548.688	35833.39
549.052	35850.79
549.416	36058.92
549.779	36045.37
550.143	36282.42
550.507	36448.07
550.871	36602.41
551.235	36603.77
551.599	36970.99
551.962	36941.16
552.326	37041.95
552.689	37258.22
553.053	37232.68
553.417	37390.42
553.78	37889.61
554.143	37693.23
554.507	37909.95
554.87	37914.92
555.234	38498.63
555.597	38328.02
555.96	38347.9
556.323	38577.73
556.686	38673.55
557.05	39026.08
557.413	39176.58
557.776	39325.73
558.139	39489.34
558.502	39588.32
558.865	39688.43
559.228	39983.79
559.59	40060.18
559.953	40329.77
560.316	40548.98
560.679	40724.79
561.041	40870.55
561.404	41157.55
561.767	41247.94
562.129	41167.94
562.492	41676.18
562.854	41717.53
563.217	41672.34
563.579	41994.14
563.941	42137.41
564.304	42322.71
564.666	42609.04
565.028	42805.64
565.39	42894.9
565.753	43181.45
566.115	43366.76
566.477	43579.18
566.839	43540.54
567.201	44030.69
567.563	43985.95
567.925	44357.46
568.287	44281.76
568.648	44383.9
569.01	44760.39
569.372	44937.56
569.734	44975.53
570.095	45240.15
570.457	45342.52
570.819	45557.88
571.18	45626.58
571.542	45977.53
571.903	45919
572.265	46175.72
572.626	46221.6
572.987	46420.01
573.349	46600.12
573.71	46632.88
574.071	46928.02
574.432	46968.02
574.794	47280.1
575.155	47256.37
575.516	47275.35
575.877	47414.78
576.238	47481.22
576.599	47621.78
576.96	47545.85
577.32	47611.16
577.681	47860.65
578.042	48017.25
578.403	48050.93
578.763	48114.88
579.124	48326.62
579.485	48377.7
579.845	48641.64
580.206	48448.66
580.566	48641.64
580.927	48628.76
581.287	48825.14
581.648	48784.01
582.008	48821.98
582.368	48793.05
582.728	48799.38
583.089	48855.2
583.449	48789.89
583.809	48869.89
584.169	49035.08
584.529	48822.2
584.889	49268.52
585.249	48973.16
585.609	48939.72
585.969	49277.56
586.329	49018.58
586.688	49180.16
587.048	49228.07
587.408	49100.84
587.768	49037.79
588.127	49100.84
588.487	49029.43
588.846	49247.96
589.206	49132.93
589.565	49239.14
589.925	49334.28
590.284	49208.86
590.643	49301.06
591.003	49332.47
591.362	49450.21
591.721	49300.61
592.08	49395.52
592.44	49470.32
592.799	49486.82
593.158	49447.5
593.517	49345.81
593.876	49549.19
594.235	49475.3
594.593	49460.15
594.952	49690.88
595.311	49467.39
595.67	49624.22
596.029	49831.44
596.387	49751.67
596.746	49910.76
597.104	49588.96
597.463	49764.33
597.822	49834.38
598.18	49661.28
598.538	49655.86
598.897	49834.38
599.255	49551
599.613	50127.71
599.972	49782.63
600.33	50014.94
600.688	49844.78
601.046	49901.27
601.404	50003.64
601.762	50048.61
602.12	50041.61
602.478	49984.43
602.836	50097.2
603.194	50009.52
603.552	50023.76
603.91	49979.01
604.268	50256.97
604.625	50167.48
604.983	50258.1
605.341	50237.08
605.698	50468.94
606.056	50547.58
606.413	50371.77
606.771	50492.44
607.128	50538.54
607.485	50346.01
607.843	50364.76
608.2	50598.43
608.557	50629.84
608.914	50554.59
609.272	50754.58
609.629	50763.62
609.986	50921.13
610.343	50640.01
610.7	50860.57
611.057	50809.72
611.414	50757.3
611.771	50731.76
612.127	50942.38
612.484	50941.7
612.841	51047.68
613.198	50865.32
613.554	50962.94
613.911	51247.45
614.267	51122.94
614.624	51178.98
614.98	51202.93
615.337	51427.56
615.693	51367.67
616.05	51290.39
616.406	51531.96
616.762	51397.73
617.118	51428.24
617.475	51479.99
617.831	51476.82
618.187	51539.87
618.543	51566.09
618.899	51670.49
619.255	51641.57
619.611	51601.57
619.967	51734.67
620.323	51748.91
620.678	51687.89
621.034	51631.62
621.39	51625.07
621.746	51578.97
622.101	51963.14
622.457	51742.13
622.812	51768.12
623.168	51808.12
623.523	51785.74
623.879	51909.13
624.234	51663.94
624.589	51790.71
624.945	51890.37
625.3	51858.28
625.655	51913.42
626.01	51832.52
626.365	51910.03
626.72	51802.92
627.075	51791.39
627.43	51795.69
627.785	51673.43
628.14	51767.21
628.495	51762.47
628.85	51759.3
629.205	51691.51
629.559	51813.54
629.914	51635.69
630.269	51579.87
630.623	51537.16
630.978	51483.6
631.332	51585.52
631.687	51649.93
632.041	51366.54
632.396	51396.37
632.75	51355.02
633.104	51315.92
633.459	51179.21
633.813	51233.67
634.167	51133.1
634.521	51048.14
634.875	51238.64
635.229	51141.92
635.583	51027.8
635.937	51022.83
636.291	50950.51
636.645	50844.98
636.999	50821.25
637.352	50953
637.706	50838.88
638.06	50771.31
638.413	50703.74
638.767	50664.42
639.121	50770.63
639.474	50564.08
639.828	50459.9
640.181	50573.12
640.534	50506.68
640.888	50422.84
641.241	50311.43
641.594	50310.53
641.947	50489.96
642.301	50382.16
642.654	50393.01
643.007	50353.92
643.36	50311.66
643.713	50119.8
644.066	50243.64
644.419	50010.87
644.771	49853.36
645.124	49413.38
645.477	49411.57
645.83	49104.68
646.182	48889.1
646.535	48840.96
646.888	48847.97
647.24	48757.8
647.593	48937.91
647.945	48829.66
648.298	48628.99
648.65	48548.99
649.002	48417.47
649.355	48599.16
649.707	48650.46
650.059	48777.01
650.411	49211.35
650.763	49180.39
651.115	49504.9
651.467	49296.77
651.819	49367.05
652.171	49298.12
652.523	49176.55
652.875	49208.41
653.227	48892.03
653.578	49237.11
653.93	49153.72
654.282	48989.88
654.633	48693.17
654.985	48783.79
655.337	48735.88
655.688	48706.5
656.039	48852.71
656.391	48432.16
656.742	48449.56
657.094	48534.53
657.445	48696.56
657.796	48539.27
658.147	48369.79
658.498	48472.38
658.849	48593.51
659.2	48419.28
659.551	48264.25
659.902	48421.31
660.253	48389.45
660.604	48565.71
660.955	48262.67
661.306	48451.82
661.656	48227.64
662.007	48329.56
662.358	48379.28
662.708	48418.6
663.059	48286.85
663.409	47972.06
663.76	48209.79
664.11	48227.64
664.461	48301.99
664.811	48159.85
665.161	48238.94
665.511	48151.94
665.862	48225.16
666.212	48137.7
666.562	48174.76
666.912	48060.64
667.262	48151.04
667.612	48104.26
667.962	48144.48
668.312	48029.23
668.662	48286.85
669.011	48151.26
669.361	47998.05
669.711	48054.99
670.06	47930.48
670.41	47934.54
670.76	47829.69
671.109	47993.07
671.459	48035.11
671.808	47833.98
672.157	47963.7
672.507	47676.02
672.856	47606.64
673.205	47669.01
673.554	47852.74
673.904	47746.75
674.253	47845.51
674.602	47662.69
674.951	47143.61
675.3	46958.98
675.649	47458.17
675.998	47503.82
676.346	47501.79
676.695	47624.27
677.044	47302.02
677.393	47338.18
677.741	47403.49
678.09	47312.19
678.438	47147.67
678.787	47271.51
679.135	47185.64
679.484	46982.25
679.832	47160.1
680.181	46933.89
680.529	46998.75
680.877	46961.24
681.225	46815.25
681.573	46978.86
681.922	46556.5
682.27	46551.98
682.618	46697.06
682.966	46454.36
683.314	46627.01
683.661	46348.37
684.009	46309.5
684.357	46155.16
684.705	46092.79
685.053	46183.86
685.4	45996.52
685.748	45855.05
686.095	45861.83
686.443	45645.57
686.79	45612.12
687.138	45753.13
687.485	45612.8
687.832	45390.66
688.18	45502.97
688.527	45121.74
688.874	45269.3
689.221	45105.47
689.568	45079.48
689.915	44896.43
690.262	44950.67
690.609	44758.81
690.956	44672.48
691.303	44750.9
691.65	44453.96
691.997	44512.04
692.344	44201.76
692.69	44220.97
693.037	44152.27
693.383	43990.02
693.73	43954.54
694.077	43755.22
694.423	43719.97
694.769	43624.15
695.116	43528.78
695.462	43479.29
695.808	43250.37
696.155	43392.29
696.501	42958.86
696.847	42897.39
697.193	42793.44
697.539	42891.29
697.885	42531.3
698.231	42331.53
698.577	42266.45
698.923	42324.97
699.269	42153.91
699.614	41775.38
699.96	41816.51
700.306	41875.04
700.651	41569.29
700.997	41553.7
701.342	41442.51
701.688	41552.79
702.033	41319.58
702.379	41300.37
702.724	41190.09
703.069	41254.04
703.415	40778.8
703.76	40830.78
704.105	40849.53
704.45	40665.36
704.795	40426.27
705.14	40362.31
705.485	40288.42
705.83	40003.68
706.175	40031.93
706.52	40045.94
706.865	39826.96
707.209	39711.03
707.554	39514.65
707.899	39730.69
708.243	39387.2
708.588	39500.87
708.932	39139.97
709.277	39065.63
709.621	38916.7
709.966	38814.78
710.31	38949.47
710.654	38590.84
710.998	38616.15
711.342	38492.76
711.687	38573.66
712.031	38357.62
712.375	38231.97
712.719	38297.51
713.063	38218.42
713.407	38322.37
713.75	37954.92
714.094	38022.94
714.438	37815.71
714.782	37835.15
715.125	37745.89
715.469	37832.89
715.812	37524.42
716.156	37312
716.499	37428.83
716.843	37410.98
717.186	37102.29
717.53	37342.73
717.873	37421.15
718.216	37150.87
718.559	37075.62
718.902	36809.41
719.246	36907.72
719.589	36726.48
719.932	36568.29
720.275	36560.61
720.617	36472.47
720.96	36406.94
721.303	36354.96
721.646	36330.78
721.989	36141.63
722.331	36208.07
722.674	36250.56
723.016	36126.72
723.359	35943
723.701	35897.12
724.044	35555.44
724.386	35574.42
724.729	35772.83
725.071	35632.95
725.413	35620.29
725.755	35512.72
726.097	35352.05
726.439	35209.91
726.782	35254.88
727.124	35399.28
727.465	35081.1
727.807	35058.27
728.149	34965.17
728.491	35007.2
728.833	34865.74
729.175	34734.89
729.516	34782.57
729.858	34853.08
730.199	34639.08
730.541	34647.44
730.882	34602.47
731.224	34706.19
731.565	34454.45
731.906	34521.56
732.248	34479.76
732.589	34352.08
732.93	34112.54
733.271	34162.7
733.612	34173.1
733.953	34196.83
734.294	34065.08
734.635	33928.59
734.976	34071.63
735.317	33755.26
735.658	33745.99
735.999	33778.98
736.339	33706.9
736.68	33717.52
737.021	33623.28
737.361	33400.01
737.702	33551.42
738.042	33331.31
738.383	33379
738.723	33434.14
739.063	33203.86
739.404	33370.63
739.744	33249.51
740.084	32963.64
740.424	33137.87
740.764	32924.77
741.104	33110.3
741.444	32852
741.784	32796.19
742.124	32894.71
742.464	32713.93
742.804	32571.33
743.143	32622.18
743.483	32480.94
743.823	32353.71
744.162	32193.26
744.502	32348.97
744.841	32188.29
745.181	32252.25
745.52	32010.67
745.86	32180.38
746.199	31985.13
746.538	31934.29
746.877	32004.12
747.216	31930.45
747.556	31716.67
747.895	31790.56
748.234	31751.02
748.573	31730.23
748.911	31549.44
749.25	31694.07
749.589	31527.97
749.928	31463.11
750.267	31496.11
750.605	31330.46
750.944	31204.14
751.283	31170.24
751.621	31195.78
751.96	30989.68
752.298	30981.09
752.636	30947.42
752.975	30793.3
753.313	30697.48
753.651	30822.45
753.989	30656.13
754.327	30558.96
754.666	30576.13
755.004	30546.08
755.342	30602.12
755.679	30468.56
756.017	30368.23
756.355	30339.98
756.693	30088.46
757.031	30155.13
757.368	30077.61
757.706	29925.75
758.044	29750.39
758.381	29871.52
758.719	29678.98
759.056	29701.58
759.394	29589.26
759.731	29387.24
760.068	29296.39
760.405	29223.62
760.743	29082.61
761.08	29224.98
761.417	29017.98
761.754	28844.88
762.091	28954.03
762.428	28724.2
762.765	28549.29
763.102	28595.17
763.438	28467.94
763.775	28330.31
764.112	28272.01
764.449	28274.95
764.785	28102.75
765.122	27882.42
765.458	27752.93
765.795	27872.47
766.131	27805.13
766.467	27554.74
766.804	27423.45
767.14	27345.26
767.476	27290.12
767.812	27242.89
768.148	27245.6
768.485	26983.91
768.821	26874.08
769.157	26772.84
769.492	26728.32
769.828	26668.44
770.164	26444.26
770.5	26504.37
770.836	26404.49
771.171	26354.55
771.507	26164.5
771.842	26083.14
772.178	26035.01
772.513	25858.51
772.849	25859.87
773.184	25802.25
773.519	25716.6
773.855	25530.16
774.19	25604.74
774.525	25265.76
774.86	25259.89
775.195	25176.27
775.53	25065.54
775.865	24911.42
776.2	24744.87
776.535	24696.96
776.87	24534.48
777.205	24350.31
777.539	24406.35
777.874	24402.06
778.209	24159.12
778.543	24074.38
778.878	23999.58
779.212	23916.87
779.547	23821.96
779.881	23761.39
780.215	23711.23
780.55	23755.07
780.884	23487.5
781.218	23448.86
781.552	23435.53
781.886	23251.8
782.22	23189.21
782.554	23076.22
782.888	22854.75
783.222	22838.48
783.556	22690.91
783.889	22700.86
784.223	22539.28
784.557	22572.27
784.89	22662.67
785.224	22455.21
785.557	22393.3
785.891	22301.77
786.224	22157.14
786.558	22227.42
786.891	21966.41
787.224	21885.29
787.557	21842.35
787.891	21839.64
788.224	21734.33
788.557	21787.44
788.89	21762.35
789.223	21591.28
789.556	21468.35
789.888	21439.65
790.221	21224.29
790.554	21297.28
790.887	21203.04
791.219	21063.39
791.552	21037.85
791.884	20957.17
792.217	20847.35
792.549	20828.14
792.882	20563.74
793.214	20614.59
793.546	20582.5
793.879	20571.42
794.211	20382.95
794.543	20391.31
794.875	20414.14
795.207	20319.45
795.539	20130.76
795.871	20223.63
796.203	19903.87
796.535	19912.23
796.867	19944.55
797.198	19820.26
797.53	19895.73
797.862	19712.46
798.193	19678.56
798.525	19532.35
798.856	19574.39
799.188	19352.02
799.519	19268.86
799.85	19221.85
800.182	19187.28
800.513	19151.35
800.844	18900.73
801.175	19046.04
801.506	18935.53
801.837	18818.7
802.168	18838.59
802.499	18677.91
802.83	18584.36
803.161	18456.9
803.491	18512.49
803.822	18483.12
804.153	18320.41
804.483	18176.91
804.814	18117.48
805.145	18169.45
805.475	18140.07
805.805	18161.09
806.136	18012.17
806.466	18089.45
806.796	18038.61
807.126	17872.74
807.457	17933.07
807.787	17977.14
808.117	17786.64
808.447	17830.03
808.777	17869.35
809.107	17783.93
809.436	17700.54
809.766	17708.22
810.096	17609.01
810.426	17539.41
810.755	17492.63
811.085	17471.84
811.414	17415.8
811.744	17314.33
812.073	17292.41
812.403	17296.93
812.732	17128.58
813.061	17170.61
813.39	17032.08
813.719	17003.61
814.049	17061.91
814.378	16935.59
814.707	16920.9
815.036	16919.09
815.365	16757.96
815.693	16710.73
816.022	16721.35
816.351	16609.04
816.68	16596.16
817.008	16596.16
817.337	16438.2
817.665	16433
817.994	16376.28
818.322	16403.17
818.651	16360.69
818.979	16336.28
819.307	16332.89
819.636	16241.14
819.964	16143.97
820.292	16130.64
820.62	16123.18
820.948	16094.03
821.276	16134.7
821.604	16057.87
821.932	16124.99
822.259	16063.52
822.587	16143.97
822.915	16038.66
823.243	16103.97
823.57	16051.54
823.898	16033.01
824.225	16032.33
824.553	15972.67
824.88	16009.73
825.207	16050.19
825.535	15884.77
825.862	16087.47
826.189	16006.34
826.516	16104.42
826.843	16158.21
827.17	16087.7
827.497	16059.22
827.824	16026.01
828.151	16058.77
828.478	15996.63
828.805	16155.95
829.131	15989.62
829.458	15920.47
829.785	15858.1
830.111	15982.62
830.438	16132.44
830.764	15992.33
831.09	16045.67
831.417	16000.92
831.743	15923.18
832.069	15955.27
832.395	15917.76
832.722	15891.55
833.048	15946.91
833.374	15950.98
833.7	15843.86
834.026	15748.72
834.351	15837.99
834.677	15795.5
835.003	15873.47
835.329	15736.3
835.654	15726.13
835.98	15654.72
836.306	15770.64
836.631	15610.87
836.956	15683.42
837.282	15735.17
837.607	15565
837.932	15548.28
838.258	15634.83
838.583	15472.8
838.908	15460.6
839.233	15565
839.558	15427.15
839.883	15438.9
840.208	15422.41
840.533	15388.06
840.858	15332.01
841.182	15365.01
841.507	15321.39
841.832	15217.89
842.156	15195.74
842.481	15211.56
842.805	15158.46
843.13	15095.41
843.454	15150.55
843.778	15081.4
844.103	14984
844.427	14967.28
844.751	15002.98
845.075	15003.21
845.399	14906.49
845.723	14833.72
846.047	14867.17
846.371	14757.11
846.695	14613.16
847.019	14632.6
847.343	14566.83
847.666	14440.74
847.99	14498.59
848.313	14439.61
848.637	14434.41
848.96	14292.94
849.284	14421.3
849.607	14173.85
849.931	14180.86
850.254	13986.28
850.577	13971.82
850.9	13894.76
851.223	13925.95
851.546	13949
851.869	13737.93
852.192	13867.19
852.515	13749.23
852.838	13654.32
853.161	13639.63
853.483	13658.84
853.806	13506.75
854.129	13501.78
854.451	13395.57
854.774	13407.54
855.096	13374.55
855.419	13345.62
855.741	13458.84
856.063	13221.56
856.385	13127.32
856.708	13259.75
857.03	13136.14
857.352	13137.72
857.674	13129.36
857.996	13052.98
858.318	13005.29
858.64	12947.89
858.961	12975.69
859.283	12853.21
859.605	12844.17
859.926	12869.48
860.248	12967.33
860.57	12840.1
860.891	12822.25
861.212	12737.96
861.534	12749.03
861.855	12677.62
862.176	12691.18
862.498	12627.9
862.819	12637.39
863.14	12566.44
863.461	12527.34
863.782	12514.01
864.103	12528.7
864.424	12525.98
864.745	12536.15
865.065	12530.96
865.386	12426.1
865.707	12425.42
866.027	12402.6
866.348	12362.15
866.668	12359.43
866.989	12407.57
867.309	12352.66
867.63	12303.62
867.95	12299.78
868.27	12255.03
868.59	12260.91
868.91	12229.04
869.23	12222.94
869.55	12200.12
869.87	12212.77
870.19	12182.49
870.51	12235.14
870.83	12211.42
871.15	12142.94
871.469	12133.23
871.789	12199.67
872.109	12152.21
872.428	12104.3
872.748	12045.54
873.067	12034.7
873.386	12109.95
873.706	12063.62
874.025	11966.45
874.344	11963.74
874.663	11914.25
874.982	11957.64
875.301	11973.23
875.62	11993.34
875.939	11884.87
876.258	11912.22
876.577	11924.64
876.896	11883.29
877.214	11774.14
877.533	11863.63
877.852	11847.58
878.17	11855.95
878.489	11758.77
878.807	11710.64
879.125	11746.57
879.444	11824.08
879.762	11751.32
880.08	11712.9
880.398	11679.23
880.716	11662.28
881.034	11594.48
881.352	11605.56
881.67	11631.32
881.988	11586.12
882.306	11613.01
882.624	11537.99
882.941	11474.71
883.259	11497.76
883.577	11457.09
883.894	11446.92
884.212	11412.12
884.529	11472
884.846	11353.13
885.164	11433.13
885.481	11311.1
885.798	11327.37
886.115	11273.14
886.432	11292.34
886.75	11265
887.067	11227.26
887.383	11210.99
887.7	11218.45
888.017	11169.64
888.334	11141.61
888.651	11126.92
888.967	11137.32
889.284	11039.24
889.6	11092.12
889.917	11022.97
890.233	11051.67
890.55	10928.29
890.866	10925.35
891.182	10915.86
891.498	10865.46
891.815	10887.84
892.131	10801.06
892.447	10762.41
892.763	10751.57
893.079	10756.54
893.395	10718.35
893.71	10672.47
894.026	10611.23
894.342	10571.69
894.657	10547.28
894.973	10525.36
895.289	10537.11
895.604	10514.06
895.92	10397.45
896.235	10390.22
896.55	10334.4
896.865	10397.23
897.181	10296.21
897.496	10311.13
897.811	10283.33
898.126	10256.44
898.441	10218.25
898.756	10166.72
899.071	10089.44
899.386	10126.5
899.7	10036.78
900.015	10040.4
900.33	9992.94
900.644	9924.92
900.959	9939.16
901.273	9909.33
901.588	9825.94
901.902	9834.98
902.216	9753.4
902.531	9787.75
902.845	9773.06
903.159	9694.42
903.473	9766.96
903.787	9663.01
904.101	9637.92
904.415	9623.24
904.729	9643.8
905.042	9527.64
905.356	9532.39
905.67	9588.66
905.984	9483.58
906.297	9477.02
906.611	9381.43
906.924	9378.27
907.237	9343.47
907.551	9261.66
907.864	9271.83
908.177	9263.7
908.491	9244.71
908.804	9155.45
909.117	9155.23
909.43	9111.16
909.743	9174.66
910.056	9068.22
910.368	8973.08
910.681	8924.95
910.994	8916.14
911.307	8920.66
911.619	8882.46
911.932	8875.46
912.244	8770.15
912.557	8791.85
912.869	8821
913.181	8703.94
913.494	8669.59
913.806	8652.19
914.118	8622.58
914.43	8551.4
914.742	8592.75
915.054	8519.08
915.366	8578.74
915.678	8525.41
915.99	8486.77
916.302	8386.21
916.613	8410.61
916.925	8404.28
917.236	8348.69
917.548	8297.62
917.859	8290.39
918.171	8194.8
918.482	8146.44
918.794	8189.83
919.105	8104.86
919.416	8093.78
919.727	8042.71
920.038	8107.8
920.349	7970.4
920.66	7943.73
920.971	7959.32
921.282	7951.87
921.593	7856.5
921.903	7795.26
922.214	7747.13
922.525	7772.66
922.835	7738.54
923.146	7675.94
923.456	7696.73
923.767	7645.43
924.077	7624.42
924.387	7608.15
924.697	7536.28
925.008	7503.07
925.318	7474.59
925.628	7456.96
925.938	7361.37
926.248	7350.3
926.558	7354.82
926.867	7313.69
927.177	7216.75
927.487	7305.78
927.796	7173.58
928.106	7207.25
928.416	7157.99
928.725	7166.58
929.034	7112.34
929.344	7134.26
929.653	7125.22
929.962	7061.5
930.271	7052.68
930.581	7030.99
930.89	6978.11
931.199	6869.64
931.508	6947.15
931.817	6912.8
932.125	6915.06
932.434	6847.26
932.743	6783.54
933.051	6781.05
933.36	6756.64
933.669	6675.52
933.977	6685.46
934.286	6682.3
934.594	6670.32
934.902	6616.99
935.21	6638.68
935.519	6605.01
935.827	6547.38
936.135	6556.2
936.443	6496.09
936.751	6442.3
937.059	6506.93
937.367	6399.37
937.674	6442.75
937.982	6384.22
938.29	6350.55
938.597	6356.43
938.905	6343.77
939.213	6272.59
939.52	6221.52
939.827	6237.11
940.135	6205.47
940.442	6170.45
940.749	6144.91
941.056	6241.63
941.363	6086.15
941.67	6037.79
941.977	6056.78
942.284	6012.48
942.591	6034.86
942.898	5924.35
943.205	5959.83
943.511	5907.63
943.818	5893.84
944.125	5853.62
944.431	5823.79
944.738	5838.02
945.044	5805.71
945.35	5812.94
945.657	5705.15
945.963	5720.97
946.269	5713.73
946.575	5737.01
946.881	5638.26
947.187	5682.32
947.493	5651.59
947.799	5619.95
948.105	5579.95
948.41	5592.83
948.716	5554.87
949.022	5525.49
949.327	5494.98
949.633	5476.23
949.938	5474.64
950.244	5462.44
950.549	5366.62
950.854	5421.09
951.16	5361.65
951.465	5349.9
951.77	5289.56
952.075	5289.11
952.38	5270.13
952.685	5254.54
952.99	5205.72
953.294	5143.35
953.599	5151.71
953.904	5165.5
954.209	5090.25
954.513	5066.97
954.818	5117.59
955.122	5072.17
955.426	5027.42
955.731	4974.77
956.035	4976.13
956.339	4955.56
956.643	4944.04
956.948	4896.81
957.252	4920.53
957.556	4839.18
957.86	4828.56
958.163	4930.7
958.467	4814.1
958.771	4848.67
959.075	4803.02
959.378	4736.13
959.682	4713.08
959.985	4662.91
960.289	4716.25
960.592	4737.26
960.896	4659.3
961.199	4648.45
961.502	4647.77
961.805	4617.49
962.108	4574.78
962.411	4561
962.714	4505.63
963.017	4519.87
963.32	4522.13
963.623	4482.13
963.926	4491.17
964.228	4466.08
964.531	4429.47
964.833	4456.82
965.136	4354.22
965.438	4365.97
965.741	4325.3
966.043	4356.03
966.345	4300.21
966.648	4339.08
966.95	4271.29
967.252	4266.54
967.554	4235.58
967.856	4258.18
968.158	4209.37
968.46	4190.16
968.761	4168.24
969.063	4142.48
969.365	4150.39
969.666	4096.6
969.968	4079.2
970.269	4099.54
970.571	4116.94
970.872	4021.8
971.174	4070.39
971.475	4030.39
971.776	4005.76
972.077	3980.45
972.378	3986.55
972.679	3950.39
972.98	3979.54
973.281	3921.24
973.582	3943.39
973.883	3885.99
974.183	3904.29
974.484	3828.81
974.785	3797.4
975.085	3802.82
975.386	3793.11
975.686	3784.07
975.986	3799.43
976.287	3763.05
976.587	3775.48
976.887	3765.76
977.187	3748.36
977.487	3733.45
977.787	3663.17
978.087	3660
978.387	3669.04
978.687	3647.57
978.987	3632.21
979.286	3628.37
979.586	3607.8
979.885	3560.57
980.185	3541.14
980.484	3563.51
980.784	3519.89
981.083	3542.49
981.382	3483.96
981.682	3504.53
981.981	3439.67
982.28	3476.96
982.579	3450.29
982.878	3410.52
983.177	3394.02
983.475	3366.68
983.774	3368.03
984.073	3371.87
984.372	3323.51
984.67	3352.21
984.969	3350.86
985.267	3334.14
985.566	3301.14
985.864	3246.23
986.162	3269.28
986.461	3272.22
986.759	3259.79
987.057	3202.39
987.355	3223.63
987.653	3146.34
987.951	3183.86
988.249	3161.26
988.547	3145.21
988.844	3158.32
989.142	3098.44
989.44	3117.19
989.737	3084.65
990.035	3069.96
990.332	3062.28
990.63	3033.8
990.927	3030.41
991.224	3016.18
991.521	2982.51
991.819	2956.74
992.116	2987.7
992.413	2956.29
992.71	2946.35
993.006	2923.98
993.303	2917.65
993.6	2888.27
993.897	2863.64
994.193	2858.89
994.49	2866.13
994.787	2857.99
995.083	2831.55
995.379	2827.03
995.676	2796.97
995.972	2820.48
996.268	2759.91
996.565	2737.77
996.861	2784.55
997.157	2747.48
997.453	2727.15
997.749	2738.22
998.044	2684.21
998.34	2670.88
998.636	2652.8
998.932	2628.84
999.227	2648.28
999.523	2628.84
999.818	2614.15
1000.114	2610.99
1000.409	2578.45
1000.704	2565.12
1001	2559.24
1001.295	2544.1
1001.59	2554.49
1001.885	2522.86
1002.18	2476.08
1002.475	2476.3
1002.77	2500.71
1003.065	2488.28
1003.359	2488.51
1003.654	2472.69
1003.949	2441.5
1004.243	2399.47
1004.538	2404.22
1004.832	2405.8
1005.127	2411
1005.421	2361.51
1005.715	2370.77
1006.009	2323.31
1006.304	2356.08
1006.598	2284.22
1006.892	2288.74
1007.186	2264.33
1007.48	2319.02
1007.773	2277.67
1008.067	2242.19
1008.361	2251.68
1008.655	2239.48
1008.948	2199.02
1009.242	2186.37
1009.535	2188.63
1009.829	2175.97
1010.122	2164.67
1010.415	2134.62
1010.708	2118.12
1011.001	2113.83
1011.295	2116.77
1011.588	2074.51
1011.881	2069.54
1012.173	2095.3
1012.466	2051.68
1012.759	2079.71
1013.052	2052.81
1013.344	2024.34
1013.637	2002.42
1013.93	1986.6
1014.222	2003.55
1014.514	1947.73
1014.807	1963.1
1015.099	1960.61
1015.391	1943.44
1015.683	1923.55
1015.976	1937.56
1016.268	1912.48
1016.56	1898.02
1016.851	1868.41
1017.143	1883.1
1017.435	1887.85
1017.727	1858.92
1018.018	1843.1
1018.31	1851.91
1018.602	1823.21
1018.893	1823.21
1019.185	1832.25
1019.476	1759.71
1019.767	1801.07
1020.058	1773.72
1020.35	1754.52
1020.641	1738.47
1020.932	1731.24
1021.223	1711.35
1021.514	1715.87
1021.804	1691.69
1022.095	1687.17
1022.386	1705.48
1022.677	1673.16
1022.967	1646.5
1023.258	1645.82
1023.548	1611.47
1023.839	1618.47
1024.129	1605.14
1024.419	1608.08
1024.709	1604.01
1025	1554.07
1025.29	1592.03
1025.58	1568.76
1025.87	1546.16
1026.16	1516.56
1026.449	1553.84
1026.739	1510.45
1027.029	1488.76
1027.319	1488.08
1027.608	1475.65
1027.898	1459.16
1028.187	1441.3
1028.477	1436.33
1028.766	1432.49
1029.055	1436.56
1029.344	1421.64
1029.634	1400.4
1029.923	1409.21
1030.212	1388.65
1030.501	1380.06
1030.79	1366.28
1031.078	1356.56
1031.367	1361.53
1031.656	1356.33
1031.945	1335.32
1032.233	1336.45
1032.522	1299.61
1032.81	1277.92
1033.099	1292.38
1033.387	1288.54
1033.675	1299.39
1033.963	1285.6
1034.251	1259.16
1034.54	1272.27
1034.828	1222.78
1035.116	1250.35
1035.403	1218.94
1035.691	1239.73
1035.979	1238.15
1036.267	1201.31
1036.554	1191.59
1036.842	1181.65
1037.129	1173.51
1037.417	1170.8
1037.704	1166.28
1037.992	1166.28
1038.279	1160.86
1038.566	1142.1
1038.853	1142.1
1039.14	1142.1
