Data from aluminium_macbook_case_FLMS001491_085.txt Node
Date: Tue Feb 07 10:44:17 GMT 2017
User: dcchb
Spectrometer: FLMS00149
Trigger mode: 0
Integration Time (sec): 2.000000E-2
Scans to average: 10
Electric dark correction enabled: true
Nonlinearity correction enabled: false
Boxcar width: 0
XAxis mode: Wavelengths
Number of Pixels in Spectrum: 2048
>>>>>Begin Spectral Data<<<<<
341.393	-15.23
341.776	-15.23
342.16	-15.23
342.543	-39.18
342.927	-50.48
343.31	-74.89
343.693	-67.2
344.077	-58.16
344.46	-57.71
344.843	-47.54
345.226	-31.5
345.61	-18.39
345.993	-39.18
346.376	-8.67
346.759	3.08
347.142	33.59
347.525	26.58
347.908	62.29
348.291	70.42
348.674	105
349.057	102.29
349.44	123.98
349.823	155.17
350.206	187.93
350.588	246.91
350.971	279.68
351.354	299.12
351.737	307.7
352.119	317.2
352.502	318.1
352.884	335.73
353.267	341.83
353.65	363.3
354.032	366.46
354.414	355.84
354.797	377.08
355.179	392.45
355.562	371.88
355.944	404.42
356.326	388.61
356.709	417.76
357.091	420.92
357.473	392.9
357.855	426.8
358.238	422.5
358.62	406.91
359.002	431.09
359.384	415.95
359.766	423.41
360.148	436.74
360.53	441.49
360.912	401.26
361.294	434.25
361.676	438.1
362.057	417.98
362.439	437.87
362.821	422.95
363.203	420.92
363.584	418.66
363.966	430.86
364.348	427.7
364.729	432.22
365.111	432.67
365.493	402.84
365.874	424.99
366.256	440.58
366.637	428.6
367.019	428.83
367.4	438.55
367.781	451.65
368.163	455.27
368.544	447.59
368.925	452.11
369.306	485.78
369.688	462.05
370.069	474.71
370.45	467.25
370.831	471.32
371.212	462.05
371.593	460.24
371.974	454.82
372.355	443.52
372.736	495.72
373.117	474.93
373.498	471.77
373.879	469.96
374.26	479.9
374.641	473.8
375.021	470.41
375.402	478.77
375.783	495.04
376.163	556.28
376.544	547.47
376.925	496.63
377.305	525.55
377.686	520.35
378.066	543.63
378.447	536.85
378.827	544.53
379.208	534.36
379.588	551.77
379.968	577.75
380.349	593.12
380.729	567.58
381.109	578.66
381.489	586.34
381.87	595.83
382.25	580.24
382.63	594.7
383.01	613.01
383.39	623.18
383.77	611.2
384.15	627.7
384.53	639.45
384.91	621.37
385.29	638.32
385.67	633.12
386.049	676.51
386.429	664.76
386.809	681.48
387.189	657.75
387.568	681.71
387.948	707.69
388.328	712.44
388.707	733.91
389.087	735.26
389.466	721.25
389.846	733.91
390.225	735.49
390.605	775.26
390.984	763.51
391.363	789.5
391.743	775.94
392.122	788.37
392.501	781.14
392.881	822.94
393.26	819.1
393.639	823.17
394.018	875.37
394.397	862.27
394.776	845.77
395.155	873.11
395.534	894.13
395.913	892.32
396.292	930.51
396.671	907.46
397.05	933.9
397.429	927.35
397.808	944.3
398.186	956.27
398.565	949.72
398.944	965.54
399.323	966.44
399.701	995.82
400.08	1005.31
400.458	1021.36
400.837	1026.1
401.215	1028.59
401.594	1042.15
401.972	1082.37
402.351	1062.03
402.729	1097.51
403.107	1114.91
403.486	1109.04
403.864	1116.04
404.242	1154.24
404.62	1162.37
404.999	1157.62
405.377	1174.57
405.755	1187.23
406.133	1211.41
406.511	1183.39
406.889	1232.65
407.267	1290.28
407.645	1259.77
408.023	1314.23
408.401	1325.08
408.779	1333.44
409.156	1353.55
409.534	1389.94
409.912	1398.75
410.29	1419.31
410.667	1434
411.045	1463.61
411.422	1468.35
411.8	1486.88
412.178	1498.18
412.555	1523.04
412.933	1588.12
413.31	1579.53
413.687	1603.94
414.065	1624.28
414.442	1651.4
414.819	1639.87
415.197	1681.45
415.574	1749.25
415.951	1735.01
416.328	1724.39
416.705	1790.15
417.082	1803.26
417.46	1826.76
417.837	1845.52
418.214	1872.63
418.591	1861.34
418.967	1894.78
419.344	1887.55
419.721	1939.53
420.098	1895.01
420.475	1973.87
420.852	2003.93
421.228	2005.74
421.605	2017.94
421.982	2043.7
422.358	2078.5
422.735	2136.81
423.111	2118.05
423.488	2159.63
423.864	2165.51
424.241	2186.3
424.617	2214.09
424.994	2255.45
425.37	2283.25
425.746	2296.13
426.123	2336.35
426.499	2370.25
426.875	2383.36
427.251	2473.52
427.627	2440.98
428.003	2481.66
428.379	2518.04
428.756	2553.52
429.132	2583.58
429.507	2595.1
429.883	2654.99
430.259	2717.13
430.635	2721.65
431.011	2803.01
431.387	2865.6
431.763	2896.34
432.138	2918.03
432.514	2939.95
432.89	3010.68
433.265	3090.46
433.641	3107.86
434.016	3113.28
434.392	3196.22
434.767	3266.95
435.143	3216.55
435.518	3309.43
435.894	3330.68
436.269	3383.1
436.644	3391.24
437.02	3452.93
437.395	3454.97
437.77	3550.33
438.145	3532.7
438.52	3619.93
438.895	3657.67
439.271	3650.21
439.646	3752.81
440.021	3769.53
440.395	3812.02
440.77	3808.4
441.145	3854.28
441.52	3946.7
441.895	3976.08
442.27	3988.06
442.645	3978.12
443.019	3983.54
443.394	4040.71
443.769	4067.83
444.143	4074.84
444.518	4199.35
444.892	4160.26
445.267	4187.6
445.641	4235.74
446.016	4252.46
446.39	4273.48
446.764	4345.11
447.139	4297.88
447.513	4408.39
447.887	4368.16
448.262	4457.88
448.636	4547.14
449.01	4573.35
449.384	4585.78
449.758	4665.1
450.132	4691.77
450.506	4667.36
450.88	4752.56
451.254	4745.78
451.628	4838.43
452.002	4888.6
452.376	4973.34
452.75	5022.61
453.123	5044.08
453.497	5132.66
453.871	5153
454.244	5238.65
454.618	5313.22
454.992	5354.35
455.365	5397.51
455.739	5554.35
456.112	5560.9
456.486	5644.51
456.859	5715.47
457.232	5853.77
457.606	5842.47
457.979	5930.61
458.352	6084.73
458.725	6145.97
459.099	6160.88
459.472	6332.63
459.845	6363.36
460.218	6472.06
460.591	6480.42
460.964	6507.09
461.337	6669.57
461.71	6778.27
462.083	6899.39
462.456	6917.47
462.829	6940.07
463.201	7037.7
463.574	7096
463.947	7232.95
464.32	7371.47
464.692	7408.76
465.065	7494.18
465.438	7685.59
465.81	7761.97
466.183	7841.52
466.555	8036.77
466.928	8086.26
467.3	8055.07
467.672	8250.32
468.045	8419.13
468.417	8492.12
468.789	8565.57
469.161	8702.51
469.534	8843.07
469.906	9010.75
470.278	9047.36
470.65	9224.76
471.022	9408.48
471.394	9569.83
471.766	9736.16
472.138	9772.31
472.51	9894.57
472.882	10114
473.253	10160.1
473.625	10332.75
473.997	10507.89
474.369	10688.67
474.74	10778.84
475.112	11042.11
475.484	11204.82
475.855	11485.49
476.227	11508.99
476.598	11874.86
476.97	11948.3
477.341	12206.6
477.713	12413.37
478.084	12554.61
478.455	12858.33
478.827	12923.64
479.198	13366.8
479.569	13397.08
479.94	13855.6
480.311	13926.33
480.682	14223.5
481.053	14588.91
481.424	14839.75
481.795	14928.56
482.166	15140.99
482.537	15428.44
482.908	15694.42
483.279	15817.35
483.65	16184.35
484.021	16534.85
484.391	16688.74
484.762	16898.68
485.133	17107.71
485.503	17251.21
485.874	17673.35
486.244	17867.24
486.615	18240.34
486.985	18402.6
487.356	18757.39
487.726	18931.39
488.097	19317.83
488.467	19425.39
488.837	19905.15
489.207	20151.93
489.578	20365.93
489.948	20638.47
490.318	20990.32
490.688	20992.58
491.058	21283.65
491.428	21599.57
491.798	21735.61
492.168	22243.17
492.538	22224.87
492.908	22382.83
493.278	22788.24
493.648	22904.4
494.017	23203.37
494.387	23332.41
494.757	23698.05
495.126	23861.21
495.496	23995.89
495.866	24163.8
496.235	24436.33
496.605	24603.11
496.974	24864.57
497.344	25087.39
497.713	25305.92
498.082	25611.22
498.452	25714.04
498.821	25931.21
499.19	26073.58
499.559	26346.34
499.928	26609.84
500.298	26718.31
500.667	26967.57
501.036	26923.05
501.405	27169.82
501.774	27285.3
502.143	27659.53
502.512	27617.72
502.88	27943.59
503.249	28059.06
503.618	28169.12
503.987	28251.15
504.356	28497.47
504.724	28637.58
505.093	28780.85
505.462	29107.62
505.83	29344.23
506.199	29314.85
506.567	29811.79
506.936	29746.25
507.304	30230.53
507.672	30302.4
508.041	30562.95
508.409	30740.12
508.777	31034.35
509.145	31336.04
509.514	31472.53
509.882	31642.47
510.25	31773.32
510.618	32082.69
510.986	32373.53
511.354	32544.6
511.722	32777.36
512.09	33159.5
512.458	33279.94
512.826	33500.28
513.193	33577.79
513.561	33787.5
513.929	34209.41
514.297	34443.53
514.664	34656.63
515.032	34791.54
515.4	35060.69
515.767	35184.75
516.135	35379.78
516.502	35331.64
516.869	35914.23
517.237	36080.1
517.604	35984.73
517.972	36597.15
518.339	36715.11
518.706	36887.08
519.073	36965.5
519.44	37333.4
519.808	37697
520.175	37711.92
520.542	38280.94
520.909	38610.65
521.276	38696.52
521.643	39073.69
522.009	39407.69
522.376	39695.82
522.743	39933.78
523.11	40273.66
523.477	40778.73
523.843	40892.63
524.21	41333.29
524.577	41662.77
524.943	41901.64
525.31	42096.21
525.676	42423.66
526.043	42632.01
526.409	42784.33
526.776	43329.62
527.142	43265.22
527.508	43624.98
527.874	43896.16
528.241	44148.58
528.607	44263.38
528.973	44742.92
529.339	44665.63
529.705	45125.96
530.071	45389.68
530.437	45615.44
530.803	45919.61
531.169	46189.44
531.535	46166.84
531.901	46384.91
532.267	46524.57
532.632	46711
532.998	46986.02
533.364	47240.71
533.73	47315.96
534.095	47632.56
534.461	47951.42
534.826	47999.33
535.192	48127.01
535.557	48486.78
535.923	48515.02
536.288	48769.03
536.653	48938.06
537.019	48789.37
537.384	49104.16
537.749	49273.42
538.114	49293.08
538.479	49374.21
538.845	49665.95
539.21	49585.28
539.575	49818.27
539.94	49954.08
540.305	50162.44
540.67	50081.31
541.034	50319.04
541.399	50430.91
541.764	50507.74
542.129	50603.56
542.494	50785.7
542.858	50886.71
543.223	50919.25
543.587	51108.4
543.952	51238.79
544.316	51303.65
544.681	51384.55
545.045	51521.27
545.41	51668.84
545.774	51686.69
546.138	51797.65
546.503	51935.5
546.867	52006.01
547.231	52298.43
547.595	52383.85
547.959	52483.28
548.324	52544.07
548.688	52705.42
549.052	52802.37
549.416	52911.07
549.779	52934.34
550.143	53047.33
550.507	53211.17
550.871	53449.13
551.235	53471.73
551.599	53708.79
551.962	53756.69
552.326	53736.58
552.689	53913.53
553.053	53790.14
553.417	54015.67
553.78	54353.97
554.143	54268.54
554.507	54397.13
554.87	54415.89
555.234	54706.73
555.597	54574.3
555.96	54733.84
556.323	54881.41
556.686	54838.47
557.05	55142.87
557.413	55123.44
557.776	55191.91
558.139	55438.46
558.502	55560.49
558.865	55596.65
559.228	55832.57
559.59	55880.93
559.953	55972
560.316	56217.19
560.679	56117.76
561.041	56435.95
561.404	56560.91
561.767	56739.44
562.129	56620.12
562.492	56927.68
562.854	56971.07
563.217	57072.54
563.579	57065.08
563.941	57265.53
564.304	57392.98
564.666	57469.36
565.028	57639.98
565.39	57716.14
565.753	57797.72
566.115	57926.98
566.477	58002.91
566.839	58100.76
567.201	58235.22
567.563	58250.14
567.925	58437.02
568.287	58442.67
568.648	58499.17
569.01	58609.67
569.372	58740.29
569.734	58708.2
570.095	58883.56
570.457	58941.87
570.819	58991.13
571.18	58985.03
571.542	59236.78
571.903	59251.46
572.265	59279.71
572.626	59332.82
572.987	59402.87
573.349	59482.65
573.71	59608.07
574.071	59657.1
574.432	59753.15
574.794	59905.01
575.155	59935.51
575.516	59836.99
575.877	59912.01
576.238	60024.1
576.599	60071.56
576.96	60146.58
577.32	60153.14
577.681	60243.08
578.042	60389.29
578.403	60361.72
578.763	60352.68
579.124	60431.09
579.485	60445.11
579.845	60530.3
580.206	60490.98
580.566	60491.21
580.927	60535.27
581.287	60560.13
581.648	60509.06
582.008	60647.13
582.368	60592.9
582.728	60662.28
583.089	60638.32
583.449	60624.54
583.809	60628.15
584.169	60630.19
584.529	60589.51
584.889	60708.38
585.249	60535.05
585.609	60578.89
585.969	60704.31
586.329	60584.76
586.688	60620.47
587.048	60602.84
587.408	60584.76
587.768	60599.9
588.127	60608.27
588.487	60594.03
588.846	60767.13
589.206	60590.41
589.565	60682.84
589.925	60765.1
590.284	60714.93
590.643	60780.24
591.003	60822.95
591.362	60886.9
591.721	60832.89
592.08	60804.19
592.44	60808.49
592.799	60879.9
593.158	60817.07
593.517	60831.08
593.876	60869.73
594.235	60873.79
594.593	60876.96
594.952	60963.06
595.311	60844.42
595.67	60873.57
596.029	60914.02
596.387	61018.2
596.746	61039.21
597.104	60923.74
597.463	60924.64
597.822	60985.2
598.18	60892.55
598.538	60886.22
598.897	61083.96
599.255	60845.55
599.613	61146.1
599.972	60940.46
600.33	61079.21
600.688	60966.45
601.046	61031.76
601.404	61062.26
601.762	61032.66
602.12	61161.47
602.478	61156.95
602.836	61157.86
603.194	61028.37
603.552	61081.02
603.91	61078.76
604.268	61240.11
604.625	61100
604.983	61201.7
605.341	61161.7
605.698	61276.27
606.056	61374.12
606.413	61305.42
606.771	61430.39
607.128	61457.28
607.485	61410.28
607.843	61379.32
608.2	61535.92
608.557	61581.35
608.914	61488.47
609.272	61599.43
609.629	61621.12
609.986	61792.19
610.343	61663.15
610.7	61780.44
611.057	61750.38
611.414	61726.2
611.771	61678.75
612.127	61869.7
612.484	61837.39
612.841	61931.85
613.198	61754.9
613.554	61824.73
613.911	61885.52
614.267	61841.45
614.624	61840.55
614.98	61853.66
615.337	62000.54
615.693	61987.44
616.05	61862.7
616.406	62013.43
616.762	61964.16
617.118	61951.05
617.475	61936.82
617.831	62042.13
618.187	61983.82
618.543	61964.61
618.899	62121.9
619.255	62065.85
619.611	62016.82
619.967	62098.17
620.323	62136.59
620.678	62070.6
621.034	62016.82
621.39	62048
621.746	61984.95
622.101	62270.14
622.457	62104.05
622.812	62157.6
623.168	62199.41
623.523	62167.32
623.879	62250.93
624.234	62033.31
624.589	62199.64
624.945	62215.45
625.3	62226.3
625.655	62239.41
626.01	62237.15
626.365	62280.54
626.72	62199.18
627.075	62217.26
627.43	62219.07
627.785	62174.78
628.14	62211.84
628.495	62263.59
628.85	62193.99
629.205	62139.75
629.559	62253.87
629.914	62088
630.269	62045.74
630.623	62034.89
630.978	61962.35
631.332	62019.98
631.687	62071.28
632.041	61954.67
632.396	62024.27
632.75	61849.81
633.104	61847.78
633.459	61774.56
633.813	61708.58
634.167	61743.83
634.521	61677.84
634.875	61752.87
635.229	61634.9
635.583	61506.55
635.937	61578.41
636.291	61532.08
636.645	61502.25
636.999	61406.44
637.352	61468.36
637.706	61308.36
638.06	61422.03
638.413	61382.03
638.767	61348.81
639.121	61396.27
639.474	61263.62
639.828	61254.8
640.181	61229.72
640.534	61303.16
640.888	61201.24
641.241	61086.9
641.594	61154.24
641.947	61162.6
642.301	61116.95
642.654	61091.64
643.007	61109.72
643.36	61101.13
643.713	61092.55
644.066	61093.22
644.419	60963.06
644.771	60920.12
645.124	60628.83
645.477	60565.55
645.83	60482.62
646.182	60320.59
646.535	60274.26
646.888	60244.21
647.24	60119.46
647.593	60264.09
647.945	60178.9
648.298	60053.25
648.65	60105.68
649.002	59949.07
649.355	60012.12
649.707	59972.35
650.059	60045.12
650.411	60356.07
650.763	60312.91
651.115	60502.73
651.467	60381.6
651.819	60342.06
652.171	60272
652.523	60258.9
652.875	60261.61
653.227	60172.57
653.578	60219.8
653.93	60161.05
654.282	60121.5
654.633	60035.62
654.985	60084.21
655.337	60051.44
655.688	60055.06
656.039	60055.51
656.391	59859.81
656.742	59915.4
657.094	59934.16
657.445	59987.49
657.796	59921.28
658.147	59885.35
658.498	59858.91
658.849	59895.97
659.2	59934.38
659.551	59820.49
659.902	59895.97
660.253	59782.52
660.604	59900.71
660.955	59737.55
661.306	59838.12
661.656	59772.58
662.007	59772.81
662.358	59850.32
662.708	59759.7
663.059	59782.3
663.409	59586.6
663.76	59816.42
664.11	59820.26
664.461	59817.1
664.811	59755.41
665.161	59861.62
665.511	59617.33
665.862	59717.22
666.212	59776.65
666.562	59834.73
666.912	59698.91
667.262	59630.44
667.612	59637.22
667.962	59626.82
668.312	59527.16
668.662	59675.41
669.011	59586.15
669.361	59546.15
669.711	59465.02
670.06	59447.84
670.41	59384.34
670.76	59274.29
671.109	59332.37
671.459	59347.73
671.808	59279.71
672.157	59334.85
672.507	59104.8
672.856	59154.29
673.205	59160.85
673.554	59210.79
673.904	59120.62
674.253	59205.59
674.602	59096.44
674.951	58687.86
675.3	58612.16
675.649	59045.37
675.998	58914.3
676.346	58999.27
676.695	59013.96
677.044	58785.71
677.393	58884.47
677.741	58885.15
678.09	58792.95
678.438	58791.14
678.787	58849.22
679.135	58821.87
679.484	58702.1
679.832	58795.88
680.181	58690.58
680.529	58720.86
680.877	58680.86
681.225	58669.33
681.573	58759.27
681.922	58517.7
682.27	58492.39
682.618	58570.35
682.966	58462.56
683.314	58527.64
683.661	58479.28
684.009	58319.51
684.357	58303.24
684.705	58308.21
685.053	58277.7
685.4	58214.88
685.748	58146.18
686.095	58104.38
686.443	58023.47
686.79	57982.12
687.138	58009.24
687.485	57999.75
687.832	57912.74
688.18	57902.8
688.527	57733.76
688.874	57672.98
689.221	57582.58
689.568	57550.04
689.915	57459.87
690.262	57444.73
690.609	57390.95
690.956	57233.66
691.303	57254.23
691.65	57072.09
691.997	57092.88
692.344	56860.12
692.69	56856.05
693.037	56872.77
693.383	56573.12
693.73	56669.84
694.077	56476.4
694.423	56443.63
694.769	56329.06
695.116	56228.27
695.462	56196.18
695.808	56107.59
696.155	56161.83
696.501	55989.18
696.847	55962.06
697.193	55659.24
697.539	55848.16
697.885	55678.45
698.231	55599.81
698.577	55569.75
698.923	55541.28
699.269	55324.79
699.614	55243.89
699.96	55270.78
700.306	55293.38
700.651	55153.27
700.997	55084.57
701.342	55009.99
701.688	54962.99
702.033	54818.13
702.379	54848.64
702.724	54779.94
703.069	54894.52
703.415	54522.78
703.76	54528.2
704.105	54679.61
704.45	54421.99
704.795	54328.88
705.14	54138.15
705.485	54264.93
705.83	54104.93
706.175	54212.28
706.52	54120.3
706.865	54033.07
707.209	53919.85
707.554	53812.51
707.899	54017.25
708.243	53731.16
708.588	53686.19
708.932	53453.43
709.277	53410.04
709.621	53377.72
709.966	53172.75
710.31	53211.62
710.654	53047.11
710.998	53044.4
711.342	52926.43
711.687	52904.96
712.031	52752.88
712.375	52520.12
712.719	52699.55
713.063	52486.9
713.407	52629.72
713.75	52349.27
714.094	52373.23
714.438	52119.67
714.782	52135.95
715.125	51980.47
715.469	52050.52
715.812	51894.82
716.156	51653.02
716.499	51655.73
716.843	51738.44
717.186	51499.35
717.53	51521.27
717.873	51504.1
718.216	51426.13
718.559	51307.49
718.902	50969.42
719.246	51097.1
719.589	50903.44
719.932	50889.88
720.275	50849.43
720.617	50795.19
720.96	50731.91
721.303	50680.62
721.646	50599.94
721.989	50416.44
722.331	50600.17
722.674	50429.32
723.016	50440.62
723.359	50420.51
723.701	50491.47
724.044	50135.77
724.386	50095.32
724.729	50211.93
725.071	49978.94
725.413	49988.88
725.755	50002.22
726.097	49951.6
726.439	49776.69
726.782	49737.36
727.124	49892.84
727.465	49788.44
727.807	49757.7
728.149	49581.66
728.491	49636.35
728.833	49567.2
729.175	49464.38
729.516	49416.47
729.858	49397.94
730.199	49394.55
730.541	49329.92
730.882	49161.79
731.224	49291.05
731.565	48915.01
731.906	48993.2
732.248	49048.34
732.589	48900.32
732.93	48636.6
733.271	48511.63
733.612	48617.62
733.953	48717.96
734.294	48328.59
734.635	48446.55
734.976	48456.04
735.317	48215.6
735.658	48277.74
735.999	48101.02
736.339	47939.22
736.68	47962.72
737.021	47834.36
737.361	47621.49
737.702	47928.82
738.042	47670.75
738.383	47464.2
738.723	47702.16
739.063	47180.6
739.404	47318.9
739.744	47199.13
740.084	47089.52
740.424	46913.94
740.764	46849.53
741.104	47028.06
741.444	46677.56
741.784	46600.72
742.124	46718.46
742.464	46568.41
742.804	46489.54
743.143	46308.08
743.483	46461.29
743.823	46116.44
744.162	46029.89
744.502	46066.95
744.841	45962.55
745.181	46112.15
745.52	45872.61
745.86	45925.49
746.199	45868.31
746.538	45796.45
746.877	45839.39
747.216	45728.43
747.556	45618.38
747.895	45572.5
748.234	45289.35
748.573	45374.09
748.911	45200.08
749.25	45246.86
749.589	45076.24
749.928	45134.32
750.267	45181.1
750.605	45031.95
750.944	44876.93
751.283	44767.78
751.621	44848.23
751.96	44520.1
752.298	44627.67
752.636	44737.27
752.975	44478.75
753.313	44315.13
753.651	44485.75
753.989	44177.96
754.327	44179.32
754.666	43988.14
755.004	44032.2
755.342	43980.45
755.679	43955.6
756.017	43608.03
756.355	43707.69
756.693	43552.22
757.031	43694.59
757.368	43223.41
757.706	43306.57
758.044	42996.3
758.381	43054.83
758.719	42953.14
759.056	42865.45
759.394	42619.13
759.731	42456.65
760.068	42380.5
760.405	42211.91
760.743	42015.31
761.08	42055.98
761.417	41924.91
761.754	41872.03
762.091	41709.55
762.428	41463.91
762.765	41164.48
763.102	41181.66
763.438	40944.15
763.775	40833.87
764.112	40666.64
764.449	40800.42
764.785	40555.46
765.122	40359.76
765.458	40115.02
765.795	40015.13
766.131	40069.82
766.467	39821.92
766.804	39563.62
767.14	39393.91
767.476	39230.52
767.812	39118.43
768.148	39091.09
768.485	39015.39
768.821	38741.5
769.157	38844.54
769.492	38599.35
769.828	38483.88
770.164	38126.6
770.5	38051.34
770.836	38071.23
771.171	37694.97
771.507	37698.13
771.842	37422.21
772.178	37363.45
772.513	37391.93
772.849	37276.45
773.184	37197.36
773.519	37007.53
773.855	36802.79
774.19	36698.61
774.525	36567.32
774.86	36556.47
775.195	36446.41
775.53	36261.56
775.865	36098.85
776.2	35892.76
776.535	35639.88
776.87	35763.27
777.205	35653.22
777.539	35490.73
777.874	35492.99
778.209	35194.47
778.543	35180.01
778.878	35063.17
779.212	35029.05
779.547	34829.06
779.881	34876.06
780.215	34624.77
780.55	34675.39
780.884	34455.73
781.218	34339.35
781.552	34348.16
781.886	34075.86
782.22	33868.86
782.554	33879.7
782.888	33671.57
783.222	33421.64
783.556	33199.04
783.889	33330.34
784.223	33070.46
784.557	33125.82
784.89	33157.91
785.224	32841.99
785.557	32725.38
785.891	32617.59
786.224	32460.98
786.558	32456.01
786.891	32202.23
787.224	31900.55
787.557	31902.13
787.891	31719.76
788.224	31745.52
788.557	31693.32
788.89	31585.07
789.223	31559.99
789.556	31136.27
789.888	31113.45
790.221	30987.8
790.554	30699
790.887	30828.48
791.219	30659.45
791.552	30490.41
791.884	30414.48
792.217	30153.92
792.549	30141.72
792.882	29863.99
793.214	29832.58
793.546	29718
793.879	29572.92
794.211	29356.88
794.543	29440.05
794.875	29457.9
795.207	29313.27
795.539	29120.51
795.871	29043.22
796.203	28800.97
796.535	28706.28
796.867	28658.82
797.198	28640.74
797.53	28472.84
797.862	28291.83
798.193	28318.49
798.525	28029.69
798.856	28031.95
799.188	27684.16
799.519	27593.99
799.85	27559.64
800.182	27742.91
800.513	27687.32
800.844	27265.86
801.175	27506.08
801.506	27402.36
801.837	27133.67
802.168	27162.82
802.499	27157.85
802.83	26976.38
803.161	26903.39
803.491	26727.12
803.822	26795.82
804.153	26681.47
804.483	26484.87
804.814	26473.12
805.145	26479.22
805.475	26400.13
805.805	26338.43
806.136	26318.77
806.466	26253.46
806.796	26389.28
807.126	26208.49
807.457	26135.73
807.787	26136.4
808.117	25929.63
808.447	25799.01
808.777	25960.14
809.107	25975.5
809.436	25844.89
809.766	25805.34
810.096	25644.44
810.426	25663.42
810.755	25469.08
811.085	25612.12
811.414	25428.85
811.744	25250.78
812.073	25287.84
812.403	25349.08
812.732	25069.76
813.061	25189.76
813.39	24936.66
813.719	24997.45
814.049	25036.77
814.378	24967.39
814.707	24816.21
815.036	24748.87
815.365	24728.3
815.693	24453.96
816.022	24404.25
816.351	24345.72
816.68	24168.55
817.008	24381.42
817.337	24131.94
817.665	24093.52
817.994	23901.66
818.322	24051.94
818.651	23879.51
818.979	23831.61
819.307	23849.01
819.636	23792.06
819.964	23600.42
820.292	23605.17
820.62	23557.04
820.948	23479.52
821.276	23531.27
821.604	23460.54
821.932	23410.37
822.259	23460.99
822.587	23452.86
822.915	23420.09
823.243	23445.85
823.57	23395.68
823.898	23421.45
824.225	23140.78
824.553	23333.99
824.88	23247.67
825.207	23236.59
825.535	23222.81
825.862	23312.97
826.189	23177.61
826.516	23262.13
826.843	23297.61
827.17	23225.29
827.497	23300.77
827.824	23227.78
828.151	23197.27
828.478	23161.11
828.805	23287.21
829.131	23004.96
829.458	23011.06
829.785	22953.89
830.111	23033.66
830.438	23120.89
830.764	23023.26
831.09	23010.38
831.417	23005.86
831.743	23084.28
832.069	23038.18
832.395	22959.76
832.722	23007.22
833.048	23000.67
833.374	22981.68
833.7	22961.12
834.026	22851.29
834.351	22853.78
834.677	22941.01
835.003	22886.77
835.329	22905.53
835.654	22901.46
835.98	22811.29
836.306	22902.59
836.631	22816.94
836.956	22859.2
837.282	22834.8
837.607	22780.33
837.932	22604.74
838.258	22772.42
838.583	22716.38
838.908	22648.36
839.233	22785.98
839.558	22692.65
839.883	22635.93
840.208	22503.73
840.533	22499.44
840.858	22637.96
841.182	22583.95
841.507	22513.67
841.832	22462.83
842.156	22379.21
842.481	22366.11
842.805	22375.15
843.13	22278.65
843.454	22266.67
843.778	22133.57
844.103	22116.85
844.427	22110.07
844.751	22104.64
845.075	21993.46
845.399	21947.81
845.723	21750.53
846.047	21878.89
846.371	21703.3
846.695	21697.2
847.019	21454.94
847.343	21466.7
847.666	21301.28
847.99	21213.14
848.313	21180.6
848.637	21014.28
848.96	20991.68
849.284	20868.52
849.607	20736.32
849.931	20710.78
850.254	20630.11
850.577	20485.7
850.9	20453.84
851.223	20354.63
851.546	20245.94
851.869	20099.73
852.192	20285.48
852.515	19992.61
852.838	19934.98
853.161	19887.08
853.483	19684.82
853.806	19739.96
854.129	19647.76
854.451	19525.96
854.774	19534.32
855.096	19438.95
855.419	19420.42
855.741	19378.84
856.063	19291.61
856.385	19114.67
856.708	19041.67
857.03	19022.92
857.352	18990.38
857.674	18883.71
857.996	18802.36
858.318	18717.84
858.64	18772.08
858.961	18694.34
859.283	18513.33
859.605	18507.23
859.926	18486.43
860.248	18429.94
860.57	18275.59
860.891	18336.83
861.212	18316.95
861.534	18284.86
861.855	18127.8
862.176	18271.07
862.498	18181.81
862.819	18130.96
863.14	18087.58
863.461	18025.43
863.782	17918.99
864.103	17987.92
864.424	17867.02
864.745	17985.66
865.065	17881.48
865.386	17820.01
865.707	17794.7
866.027	17872.44
866.348	17756.51
866.668	17852.1
866.989	17749.05
867.309	17681.48
867.63	17737.53
867.95	17723.74
868.27	17650.07
868.59	17714.93
868.91	17709.51
869.23	17592.45
869.55	17538.44
869.87	17686.68
870.19	17649.62
870.51	17608.04
870.83	17613.46
871.15	17495.73
871.469	17573.92
871.789	17461.83
872.109	17504.31
872.428	17320.14
872.748	17439.68
873.067	17495.5
873.386	17568.94
873.706	17420.02
874.025	17410.98
874.344	17288.05
874.663	17405.33
874.982	17322.4
875.301	17388.61
875.62	17321.95
875.939	17338.89
876.258	17267.03
876.577	17240.37
876.896	17181.61
877.214	17076.3
877.533	17165.57
877.852	17274.94
878.17	17236.75
878.489	17091.22
878.807	17178.45
879.125	17167.83
879.444	17013.03
879.762	17039.02
880.08	16993.59
880.398	16890.54
880.716	17065.46
881.034	16851.9
881.352	17046.92
881.67	16843.54
881.988	16917.44
882.306	16797.89
882.624	16780.72
882.941	16637.9
883.259	16651.23
883.577	16657.78
883.894	16529.2
884.212	16596.09
884.529	16545.24
884.846	16446.26
885.164	16464.57
885.481	16392.48
885.798	16457.56
886.115	16312.03
886.432	16344.34
886.75	16239.71
887.067	16225.7
887.383	16144.12
887.7	16087.85
888.017	15984.81
888.334	16056.44
888.651	15970.12
888.967	15951.13
889.284	15925.82
889.6	15665.49
889.917	15689.22
890.233	15735.32
890.55	15684.93
890.866	15756.56
891.182	15692.16
891.498	15601.31
891.815	15540.07
892.131	15416.01
892.447	15331.49
892.763	15259.18
893.079	15234.54
893.395	15174.88
893.71	15132.62
894.026	15150.25
894.342	15100.54
894.657	14969.47
894.973	14969.47
895.289	14927.88
895.604	14918.62
895.92	14760.88
896.235	14703.26
896.55	14756.14
896.865	14682.69
897.181	14613.54
897.496	14559.53
897.811	14542.36
898.126	14515.47
898.441	14430.27
898.756	14409.93
899.071	14267.11
899.386	14361.57
899.7	14205.87
900.015	14133.55
900.33	14051.75
900.644	14061.92
900.959	14157.96
901.273	13974.01
901.588	13981.02
901.902	13973.79
902.216	13881.58
902.531	13848.36
902.845	13759.33
903.159	13731.08
903.473	13692.44
903.787	13714.36
904.101	13550.52
904.415	13610.4
904.729	13550.07
905.042	13478.43
905.356	13444.99
905.67	13422.84
905.984	13389.17
906.297	13322.05
906.611	13345.78
906.924	13315.95
907.237	13220.13
907.551	13123.86
907.864	13202.28
908.177	13030.08
908.491	13021.49
908.804	12972.46
909.117	12960.25
909.43	12869.41
909.743	12834.61
910.056	12771.56
910.368	12817.66
910.681	12764.1
910.994	12776.3
911.307	12708.06
911.619	12552.58
911.932	12626.7
912.244	12476.42
912.557	12490.66
912.869	12461.28
913.181	12490.43
913.494	12320.72
913.806	12352.58
914.118	12336.09
914.43	12223.32
914.742	12222.19
915.054	12127.73
915.366	12101.07
915.678	12091.57
915.99	11977.23
916.302	11896.78
916.613	11858.59
916.925	11847.97
917.236	11867.85
917.548	11703.56
917.859	11868.76
918.171	11720.06
918.482	11671.92
918.794	11539.5
919.105	11570.46
919.416	11401.2
919.727	11415.21
920.038	11488.88
920.349	11275.55
920.66	11310.13
920.971	11328.66
921.282	11174.99
921.593	11140.19
921.903	11072.62
922.214	11061.55
922.525	10961.43
922.835	10923.02
923.146	10937.03
923.456	10831.95
923.767	10816.35
924.077	10829.46
924.387	10697.49
924.697	10660.43
925.008	10603.48
925.318	10552.41
925.628	10483.03
925.938	10480.09
926.248	10393.31
926.558	10346.76
926.867	10321.23
927.177	10280.77
927.487	10181.12
927.796	10135.47
928.106	10141.34
928.416	10097.28
928.725	10049.59
929.034	9961.69
929.344	9971.4
929.653	9991.06
929.962	9795.14
930.271	9815.02
930.581	9721.24
930.89	9711.75
931.199	9593.56
931.508	9670.17
931.817	9594.24
932.125	9586.56
932.434	9565.99
932.743	9428.82
933.051	9407.58
933.36	9377.97
933.669	9326.45
933.977	9251.2
934.286	9297.98
934.594	9268.37
934.902	9170.07
935.21	9147.02
935.519	9098.43
935.827	9074.25
936.135	9009.17
936.443	8953.58
936.751	8869.51
937.059	8910.42
937.367	8886.46
937.674	8879.46
937.982	8876.07
938.29	8775.28
938.597	8711.55
938.905	8634.94
939.213	8598.79
939.52	8577.32
939.827	8622.06
940.135	8471.56
940.442	8467.72
940.749	8472.01
941.056	8460.71
941.363	8297.78
941.67	8345.23
941.977	8277.21
942.284	8216.2
942.591	8264.1
942.898	8171.9
943.205	8234.5
943.511	8191.34
943.818	8205.58
944.125	8073.6
944.431	8062.98
944.738	8035.41
945.044	8029.99
945.35	7975.52
945.657	7906.37
945.963	7881.97
946.269	7851.91
946.575	7847.17
946.881	7867.05
947.187	7785.7
947.493	7728.98
947.799	7743.44
948.105	7714.51
948.41	7684.91
948.716	7686.49
949.022	7603.11
949.327	7557
949.633	7431.58
949.938	7510.9
950.244	7545.93
950.549	7383
950.854	7392.72
951.16	7404.47
951.465	7394.3
951.77	7339.61
952.075	7331.02
952.38	7293.06
952.685	7278.59
952.99	7172.83
953.294	7223.23
953.599	7168.54
953.904	7147.52
954.209	7121.31
954.513	7101.42
954.818	7061.65
955.122	7055.32
955.426	6985.04
955.731	6964.93
956.035	6964.7
956.339	6891.03
956.643	6888.77
956.948	6867.76
957.252	6779.17
957.556	6836.57
957.86	6709.8
958.163	6751.83
958.467	6672.51
958.771	6677.48
959.075	6660.98
959.378	6533.08
959.682	6560.19
959.985	6542.34
960.289	6507.54
960.592	6453.53
960.896	6466.86
961.199	6447.43
961.502	6374.44
961.805	6369.47
962.108	6300.99
962.411	6355.45
962.714	6250.82
963.017	6220.77
963.32	6228.68
963.623	6157.72
963.926	6189.36
964.228	6148.23
964.531	6102.58
964.833	6066.87
965.136	6012.41
965.438	5946.65
965.741	6015.58
966.043	6003.6
966.345	5940.78
966.648	5860.33
966.95	5918.63
967.252	5810.38
967.554	5800.89
967.856	5781.91
968.158	5733.55
968.46	5718.41
968.761	5695.58
969.063	5723.61
969.365	5658.3
969.666	5618.07
969.968	5611.75
970.269	5589.82
970.571	5524.52
970.872	5535.14
971.174	5448.81
971.475	5468.7
971.776	5460.34
972.077	5422.15
972.378	5389.83
972.679	5395.25
972.98	5302.83
973.281	5314.8
973.582	5315.93
973.883	5228.03
974.183	5210.85
974.484	5226.22
974.785	5191.64
975.085	5182.83
975.386	5165.43
975.686	5131.98
975.986	5071.42
976.287	5085.66
976.587	5031.42
976.887	5039.56
977.187	5039.33
977.487	5001.14
977.787	4967.92
978.087	4930.18
978.387	4891.76
978.687	4894.7
978.987	4866.45
979.286	4836.85
979.586	4789.39
979.885	4802.95
980.185	4804.53
980.484	4738.1
980.784	4707.59
981.083	4647.25
981.382	4676.18
981.682	4652.45
981.981	4631.43
982.28	4622.17
982.579	4564.54
982.878	4621.04
983.177	4551.89
983.475	4575.84
983.774	4498.55
984.073	4492.9
984.372	4461.94
984.67	4407.71
984.969	4472.57
985.267	4435.5
985.566	4424.21
985.864	4372.91
986.162	4350.08
986.461	4325
986.759	4289.75
987.057	4310.54
987.355	4203.65
987.653	4272.35
987.951	4265.57
988.249	4246.13
988.547	4238.45
988.844	4202.52
989.142	4187.15
989.44	4167.04
989.737	4173.14
990.035	4134.95
990.332	4157.09
990.63	4087.27
990.927	4085.68
991.224	4031
991.521	4047.27
991.819	4038.91
992.116	3988.74
992.413	3975.63
992.71	3971.34
993.006	3954.84
993.303	3912.58
993.6	3941.73
993.897	3878.91
994.193	3859.47
994.49	3866.25
994.787	3865.58
995.083	3822.64
995.379	3798.46
995.676	3826.48
995.972	3775.18
996.268	3756.2
996.565	3745.58
996.861	3756.65
997.157	3736.77
997.453	3698.35
997.749	3682.98
998.044	3643.89
998.34	3659.71
998.636	3595.07
998.932	3594.17
999.227	3555.75
999.523	3514.85
999.818	3552.59
1000.114	3527.28
1000.409	3533.83
1000.704	3499.26
1001	3485.47
1001.295	3457.68
1001.59	3425.59
1001.885	3391.46
1002.18	3380.84
1002.475	3351.24
1002.77	3317.12
1003.065	3285.7
1003.359	3284.35
1003.654	3328.64
1003.949	3278.7
1004.243	3253.16
1004.538	3203.22
1004.832	3201.41
1005.127	3228.08
1005.421	3143.79
1005.715	3147.86
1006.009	3152.6
1006.304	3109.89
1006.598	3121.19
1006.892	3073.73
1007.186	3043
1007.48	3060.85
1007.773	3036.9
1008.067	2967.07
1008.361	2978.37
1008.655	2971.14
1008.948	2934.75
1009.242	2954.19
1009.535	2896.79
1009.829	2886.62
1010.122	2916.22
1010.415	2858.37
1010.708	2859.05
1011.001	2796
1011.295	2795.32
1011.588	2773.85
1011.881	2734.08
1012.173	2767.98
1012.466	2724.36
1012.759	2723.01
1013.052	2704.93
1013.344	2692.95
1013.637	2655.66
1013.93	2607.53
1014.222	2630.58
1014.514	2599.17
1014.807	2571.83
1015.099	2574.99
1015.391	2561.88
1015.683	2524.37
1015.976	2523.92
1016.268	2516.69
1016.56	2493.86
1016.851	2478.49
1017.143	2462.68
1017.435	2472.62
1017.727	2436.24
1018.018	2430.81
1018.31	2389.46
1018.602	2372.06
1018.893	2320.53
1019.185	2315.56
1019.476	2320.98
1019.767	2299.29
1020.058	2249.35
1020.35	2268.1
1020.641	2256.58
1020.932	2189.69
1021.223	2208.67
1021.514	2191.5
1021.804	2187.2
1022.095	2144.04
1022.386	2129.12
1022.677	2155.34
1022.967	2125.28
1023.258	2104.49
1023.548	2094.55
1023.839	2058.17
1024.129	2050.71
1024.419	2044.38
1024.709	2032.86
1025	2016.13
1025.29	1994.44
1025.58	1965.29
1025.87	1959.64
1026.16	1954.67
1026.449	1960.32
1026.739	1920.77
1027.029	1923.71
1027.319	1878.74
1027.608	1883.93
1027.898	1890.49
1028.187	1848.68
1028.477	1840.77
1028.766	1857.04
1029.055	1813.88
1029.344	1813.43
1029.634	1815.23
1029.923	1783.6
1030.212	1763.71
1030.501	1771.62
1030.79	1730.04
1031.078	1729.59
1031.367	1716.71
1031.656	1706.31
1031.945	1698.63
1032.233	1669.48
1032.522	1664.5
1032.81	1646.88
1033.099	1629.25
1033.387	1641.68
1033.675	1640.32
1033.963	1575.69
1034.251	1602.36
1034.54	1614.56
1034.828	1555.81
1035.116	1568.69
1035.403	1558.29
1035.691	1536.82
1035.979	1529.14
1036.267	1515.81
1036.554	1527.11
1036.842	1512.42
1037.129	1492.53
1037.417	1465.41
1037.704	1481.23
1037.992	1459.09
1038.279	1450.5
1038.566	1446.88
1038.853	1446.88
1039.14	1446.88
