Data from aluminium_surface_pro_back_FLMS001491_00022.txt Node
Date: Wed Feb 08 15:33:49 GMT 2017
User: dcchb
Spectrometer: FLMS00149
Trigger mode: 0
Integration Time (sec): 2.000000E-2
Scans to average: 10
Electric dark correction enabled: true
Nonlinearity correction enabled: false
Boxcar width: 0
XAxis mode: Wavelengths
Number of Pixels in Spectrum: 2048
>>>>>Begin Spectral Data<<<<<
341.393	-7.66
341.776	-7.66
342.16	-7.66
342.543	-74.32
342.927	-74.32
343.31	-81.33
343.693	-84.94
344.077	-58.28
344.46	-61.67
344.843	-50.37
345.226	-37.26
345.61	-30.48
345.993	-6.98
346.376	-7.43
346.759	11.78
347.142	41.38
347.525	43.87
347.908	50.42
348.291	75.96
348.674	83.19
349.057	112.12
349.44	130.42
349.823	132.91
350.206	183.75
350.588	239.34
350.971	249.29
351.354	252
351.737	277.31
352.119	287.25
352.502	292.68
352.884	279.57
353.267	314.37
353.65	308.49
354.032	328.16
354.414	348.49
354.797	325.9
355.179	347.82
355.562	358.89
355.944	349.17
356.326	354.14
356.709	362.73
357.091	376.97
357.473	388.04
357.855	371.77
358.238	382.84
358.62	372.22
359.002	365.67
359.384	381.71
359.766	367.02
360.148	393.24
360.53	375.61
360.912	359.79
361.294	383.3
361.676	368.38
362.057	360.24
362.439	371.32
362.821	380.36
363.203	363.63
363.584	376.29
363.966	375.16
364.348	367.7
364.729	362.05
365.111	377.19
365.493	353.24
365.874	372
366.256	355.73
366.637	368.83
367.019	356.18
367.4	364.54
367.781	378.1
368.163	353.24
368.544	383.75
368.925	369.51
369.306	379.23
369.688	375.16
370.069	369.74
370.45	372
370.831	375.84
371.212	392.56
371.593	379.45
371.974	375.61
372.355	390.75
372.736	388.27
373.117	407.48
373.498	385.33
373.879	395.5
374.26	368.83
374.641	392.11
375.021	376.29
375.402	406.8
375.783	397.08
376.163	431.43
376.544	426.46
376.925	421.94
377.305	434.82
377.686	424.2
378.066	419
378.447	437.3
378.827	423.52
379.208	426.01
379.588	430.07
379.968	428.72
380.349	441.82
380.729	448.38
381.109	446.34
381.489	464.87
381.87	444.76
382.25	449.73
382.63	473.46
383.01	456.06
383.39	460.36
383.77	481.82
384.15	458.32
384.53	475.5
384.91	469.39
385.29	481.82
385.67	498.77
386.049	485.89
386.429	510.52
386.809	507.36
387.189	511.43
387.568	520.92
387.948	515.72
388.328	516.85
388.707	536.06
389.087	509.17
389.466	537.87
389.846	541.93
390.225	546
390.605	572.89
390.984	546
391.363	591.2
391.743	578.77
392.122	589.62
392.501	575.83
392.881	602.27
393.26	601.82
393.639	596.17
394.018	618.54
394.397	627.13
394.776	613.12
395.155	641.82
395.534	644.76
395.913	626.9
396.292	672.78
396.671	679.78
397.05	681.82
397.429	680.01
397.808	691.31
398.186	676.17
398.565	703.06
398.944	695.38
399.323	717.75
399.701	747.58
400.08	716.85
400.458	736.05
400.837	752.55
401.215	747.13
401.594	755.26
401.972	748.48
402.351	767.92
402.729	787.8
403.107	778.99
403.486	804.75
403.864	800.46
404.242	812.44
404.62	831.42
404.999	832.77
405.377	848.59
405.755	843.85
406.133	876.62
406.511	880.68
406.889	904.41
407.267	931.98
407.645	891.3
408.023	935.82
408.401	948.48
408.779	962.94
409.156	949.61
409.534	981.25
409.912	986.44
410.29	1015.14
410.667	1033.22
411.045	1049.94
411.422	1044.75
411.8	1075.03
412.178	1045.88
412.555	1088.81
412.933	1099.66
413.31	1095.37
413.687	1104.18
414.065	1142.82
414.442	1175.59
414.819	1183.73
415.197	1142.15
415.574	1171.75
415.951	1214.23
416.328	1220.56
416.705	1225.98
417.082	1246.32
417.46	1241.8
417.837	1252.65
418.214	1293.1
418.591	1307.11
418.967	1307.56
419.344	1338.07
419.721	1348.92
420.098	1330.84
420.475	1349.6
420.852	1365.64
421.228	1410.39
421.605	1388.24
421.982	1425.53
422.358	1431.18
422.735	1432.08
423.111	1450.84
423.488	1468.24
423.864	1480.44
424.241	1532.42
424.617	1526.99
424.994	1522.7
425.37	1547.11
425.746	1546.2
426.123	1588.69
426.499	1596.14
426.875	1623.26
427.251	1642.24
427.627	1705.07
428.003	1705.97
428.379	1715.46
428.756	1722.24
429.132	1756.82
429.507	1769.02
429.883	1802.24
430.259	1856.48
430.635	1849.92
431.011	1869.36
431.387	1904.61
431.763	1938.51
432.138	1962.91
432.514	1985.29
432.89	2040.65
433.265	2049.47
433.641	2063.48
434.016	2091.05
434.392	2115.23
434.767	2150.25
435.143	2160.2
435.518	2215.79
435.894	2247.2
436.269	2248.56
436.644	2300.53
437.02	2301.89
437.395	2321.1
437.77	2332.85
438.145	2356.58
438.52	2421.43
438.895	2421.66
439.271	2388.89
439.646	2483.35
440.021	2465.5
440.395	2491.71
440.77	2529.45
441.145	2532.84
441.52	2592.28
441.895	2576.68
442.27	2598.15
442.645	2614.42
443.019	2651.71
443.394	2643.12
443.769	2684.03
444.143	2694.42
444.518	2748.2
444.892	2718.37
445.267	2742.1
445.641	2773.06
446.016	2776.68
446.39	2789.11
446.764	2846.06
447.139	2836.79
447.513	2876.11
447.887	2898.94
448.262	2874.08
448.636	2929.89
449.01	2940.52
449.384	2963.11
449.758	3032.04
450.132	3084.47
450.506	3082.21
450.88	3112.26
451.254	3108.65
451.628	3161.75
452.002	3241.07
452.376	3234.52
452.75	3286.04
453.123	3286.72
453.497	3330.34
453.871	3368.08
454.244	3425.93
454.618	3464.8
454.992	3523.33
455.365	3449.43
455.739	3604.68
456.112	3631.57
456.486	3641.74
456.859	3675.41
457.232	3782.98
457.606	3766.26
457.979	3807.84
458.352	3895.75
458.725	3972.58
459.099	3944.56
459.472	4011.9
459.845	4135.06
460.218	4182.07
460.591	4143.42
460.964	4229.52
461.337	4301.38
461.71	4353.81
462.083	4425
462.456	4413.92
462.829	4449.85
463.201	4517.2
463.574	4634.03
463.947	4568.27
464.32	4741.37
464.692	4724.65
465.065	4806.46
465.438	4862.27
465.81	4949.73
466.183	4971.2
466.555	5112.89
466.928	5163.06
467.3	5150.4
467.672	5239.21
468.045	5353.79
468.417	5361.92
468.789	5393.78
469.161	5497.74
469.534	5598.98
469.906	5726.66
470.278	5810.72
470.65	5805.07
471.022	5921.91
471.394	6072.64
471.766	6069.93
472.138	6180.2
472.51	6285.51
472.882	6405.96
473.253	6517.82
473.625	6550.59
473.997	6699.51
474.369	6670.81
474.74	6819.51
475.112	6939.51
475.484	7068.99
475.855	7241.65
476.227	7238.71
476.598	7468.76
476.97	7508.98
477.341	7720.73
477.713	7788.98
478.084	7859.03
478.455	8105.35
478.827	8182.86
479.198	8449.07
479.569	8412.24
479.94	8698.1
480.311	8767.93
480.682	8935.84
481.053	9163.86
481.424	9263.06
481.795	9397.52
482.166	9591.87
482.537	9664.18
482.908	9856.04
483.279	9917.51
483.65	10137.61
484.021	10346.42
484.391	10464.39
484.762	10603.82
485.133	10692.85
485.503	10891.27
485.874	11109.11
486.244	11191.37
486.615	11387.75
486.985	11550.68
487.356	11779.83
487.726	11816.21
488.097	12095.53
488.467	12161.29
488.837	12391.79
489.207	12474.95
489.578	12687.83
489.948	12937.32
490.318	13029.74
490.688	13133.02
491.058	13335.5
491.428	13473.35
491.798	13667.69
492.168	13888.48
492.538	13964.86
492.908	14138.19
493.278	14347.45
493.648	14404.85
494.017	14586.76
494.387	14795.12
494.757	14883.48
495.126	15115.56
495.496	15055.9
495.866	15196.46
496.235	15435.78
496.605	15528.21
496.974	15715.1
497.344	15824.02
497.713	15887.07
498.082	16106.27
498.452	16190.56
498.821	16338.13
499.19	16354.4
499.559	16602.3
499.928	16710.55
500.298	16768.17
500.667	16921.84
501.036	16883.2
501.405	17174.94
501.774	17181.72
502.143	17301.95
502.512	17494.94
502.88	17552.11
503.249	17523.64
503.618	17774.02
503.987	17910.29
504.356	17890.86
504.724	18168.59
505.093	18226.22
505.462	18323.16
505.83	18406.78
506.199	18639.31
506.567	18843.83
506.936	18876.37
507.304	19110.49
507.672	19234.32
508.041	19246.53
508.409	19604.71
508.777	19615.33
509.145	19702.56
509.514	19878.38
509.882	20059.16
510.25	20075.21
510.618	20202.43
510.986	20315.65
511.354	20566.49
511.722	20751.8
512.09	20927.16
512.458	21021.17
512.826	21079.25
513.193	21269.07
513.561	21386.36
513.929	21555.17
514.297	21775.73
514.664	21869.28
515.032	21936.63
515.4	22281.7
515.767	22389.04
516.135	22493.45
516.502	22413.22
516.869	22761.01
517.237	22960.33
517.604	22872.87
517.972	23273.09
518.339	23351.5
518.706	23447.55
519.073	23508.79
519.44	23855.67
519.808	24063.35
520.175	24057.7
520.542	24490.68
520.909	24596.22
521.276	24697.46
521.643	24951.69
522.009	25191.23
522.376	25415.41
522.743	25507.38
523.11	25711.89
523.477	26159.11
523.843	26316.17
524.21	26522.72
524.577	26614.92
524.943	26755.03
525.31	26931.3
525.676	27250.39
526.043	27429.82
526.409	27616.25
526.776	27900.09
527.142	28012.63
527.508	28155.9
527.874	28494.87
528.241	28572.16
528.607	28632.95
528.973	28874.75
529.339	28868.2
529.705	29152.71
530.071	29487.39
530.437	29670.43
530.803	29650.55
531.169	29937.77
531.535	29889.64
531.901	30131.89
532.267	30288.95
532.632	30577.98
532.998	30706.11
533.364	30787.02
533.73	30965.99
534.095	31253.9
534.461	31200.34
534.826	31582.25
535.192	31566.43
535.557	31863.6
535.923	31729.82
536.288	31963.48
536.653	31996.25
537.019	31980.88
537.384	32182.68
537.749	32347.2
538.114	32446.41
538.479	32501.77
538.845	32777.25
539.21	32697.25
539.575	32880.97
539.94	32969.1
540.305	33266.95
540.67	33261.53
541.034	33430.34
541.399	33432.37
541.764	33566.83
542.129	33716.66
542.494	33705.13
542.858	33844.34
543.223	33924.79
543.587	34271.9
543.952	34234.83
544.316	34369.52
544.681	34346.92
545.045	34493.36
545.41	34810.41
545.774	34875.72
546.138	34950.97
546.503	34955.95
546.867	35153.23
547.231	35343.28
547.595	35500.11
547.959	35544.63
548.324	35713.21
548.688	35694.46
549.052	35818.52
549.416	35946.2
549.779	36082.02
550.143	36113.2
550.507	36456.7
550.871	36540.08
551.235	36447.66
551.599	36684.71
551.962	36833.41
552.326	36876.35
552.689	37124.48
553.053	37117.7
553.417	37183.46
553.78	37614.86
554.143	37551.81
554.507	37860.28
554.87	37852.14
555.234	38298.68
555.597	38241.73
555.96	38329.87
556.323	38522.63
556.686	38540.94
557.05	38846.92
557.413	39116.51
557.776	39161.26
558.139	39446.67
558.502	39451.42
558.865	39626.78
559.228	39868.36
559.59	40008.69
559.953	40135.47
560.316	40530.71
560.679	40607.77
561.041	40877.15
561.404	40823.14
561.767	41213.86
562.129	41198.72
562.492	41668.76
562.854	41503.12
563.217	41763.22
563.579	41815.43
563.941	41967.29
564.304	42241.4
564.666	42598.68
565.028	42660.15
565.39	42858.56
565.753	43072.57
566.115	43058.78
566.477	43374.26
566.839	43662.16
567.201	43849.72
567.563	43963.17
567.925	44210.17
568.287	44317.28
568.648	44340.78
569.01	44641.11
569.372	44993.2
569.734	44896.47
570.095	45171.95
570.457	45384.15
570.819	45503.01
571.18	45532.84
571.542	45838.6
571.903	45831.59
572.265	45921.53
572.626	46152.49
572.987	46282.2
573.349	46456.89
573.71	46555.41
574.071	46686.26
574.432	46880.15
574.794	47047.6
575.155	47012.58
575.516	46961.51
575.877	47255.51
576.238	47281.27
576.599	47574.14
576.96	47631.09
577.32	47637.87
577.681	47781.6
578.042	47966.9
578.403	47850.52
578.763	48052.1
579.124	48083.96
579.485	48290.96
579.845	48434.01
580.206	48319.66
580.566	48428.36
580.927	48341.36
581.287	48483.5
581.648	48340.68
582.008	48733.21
582.368	48554.01
582.728	48664.06
583.089	48537.06
583.449	48683.49
583.809	48709.26
584.169	48785.41
584.529	48852.3
584.889	49022.92
585.249	48898.18
585.609	48838.97
585.969	49009.36
586.329	48984.28
586.688	49029.93
587.048	48913.09
587.408	48968.91
587.768	48980.44
588.127	48880.32
588.487	48879.2
588.846	49109.25
589.206	48872.19
589.565	48855.69
589.925	49033.77
590.284	48967.78
590.643	48995.58
591.003	49047.78
591.362	49107.21
591.721	49153.54
592.08	49199.86
592.44	49218.85
592.799	49272.86
593.158	49254.1
593.517	49225.63
593.876	49320.77
594.235	49310.6
594.593	49358.96
594.952	49358.73
595.311	49295
595.67	49383.36
596.029	49677.59
596.387	49591.72
596.746	49760.53
597.104	49494.77
597.463	49444.15
597.822	49510.14
598.18	49591.72
598.538	49476.92
598.897	49764.14
599.255	49528.44
599.613	50067.19
599.972	49742.68
600.33	49787.65
600.688	49814.76
601.046	49918.26
601.404	50038.49
601.762	49863.12
602.12	50111.25
602.478	50081.42
602.836	50078.71
603.194	49839.85
603.552	50000.07
603.91	49932.05
604.268	50071.25
604.625	50051.37
604.983	50200.97
605.341	50029.67
605.698	50152.38
606.056	50138.6
606.413	50234.41
606.771	50330.46
607.128	50313.73
607.485	50143.79
607.843	50294.53
608.2	50455.42
608.557	50667.85
608.914	50507.4
609.272	50717.34
609.629	50809.99
609.986	50825.36
610.343	50696.55
610.7	51028.29
611.057	50797.11
611.414	50804.57
611.771	50904.23
612.127	51049.99
612.484	50986.03
612.841	51148.97
613.198	51068.06
613.554	50970.67
613.911	51312.13
614.267	51202.75
614.624	51124.56
614.98	51271.22
615.337	51414.04
615.693	51350.77
616.05	51322.75
616.406	51478.67
616.762	51376.76
617.118	51250.43
617.475	51340.83
617.831	51391.45
618.187	51389.41
618.543	51453.14
618.899	51547.37
619.255	51531.33
619.611	51651.78
619.967	51753.47
620.323	51721.83
620.678	51505.34
621.034	51501.5
621.39	51483.42
621.746	51444.1
622.101	51834.6
622.457	51429.86
622.812	51590.31
623.168	51697.43
623.523	51545.11
623.879	51680.93
624.234	51527.71
624.589	51661.72
624.945	51657.88
625.3	51689.52
625.655	51673.02
626.01	51636.86
626.365	51753.02
626.72	51635.73
627.075	51623.53
627.43	51635.05
627.785	51477.54
628.14	51606.58
628.495	51622.63
628.85	51589.86
629.205	51466.02
629.559	51659.01
629.914	51418.79
630.269	51504.89
630.623	51366.14
630.978	51413.14
631.332	51436.87
631.687	51502.18
632.041	51251.79
632.396	51384.44
632.75	51339.24
633.104	51327.49
633.459	51261.96
633.813	51186.7
634.167	51164.56
634.521	51217.89
634.875	51298.34
635.229	51347.83
635.583	51028.29
635.937	51021.74
636.291	50940.38
636.645	50934.51
636.999	50873.72
637.352	50906.94
637.706	50614.52
638.06	50850.67
638.413	50760.73
638.767	50683.67
639.121	50652.48
639.474	50471.92
639.828	50492.26
640.181	50527.51
640.534	50458.59
640.888	50411.13
641.241	50189.44
641.594	50284.58
641.947	50406.16
642.301	50316.67
642.654	50311.02
643.007	50276.45
643.36	50159.39
643.713	50029.9
644.066	50099.73
644.419	49765.73
644.771	49631.49
645.124	49244.38
645.477	49250.71
645.83	48900.44
646.182	48856.82
646.535	48712.87
646.888	48843.26
647.24	48717.84
647.593	48859.99
647.945	48682.82
648.298	48539.99
648.65	48466.32
649.002	48316.05
649.355	48381.58
649.707	48458.42
650.059	48589.71
650.411	48993.32
650.763	49020.66
651.115	49342.91
651.467	49232.63
651.819	49209.58
652.171	49177.49
652.523	49063.37
652.875	49053.43
653.227	48900.21
653.578	49079.64
653.93	49010.94
654.282	48835.35
654.633	48750.16
654.985	48790.38
655.337	48667.45
655.688	48775.24
656.039	48846.43
656.391	48514.46
656.742	48587
657.094	48685.08
657.445	48780.44
657.796	48680.1
658.147	48634.91
658.498	48464.29
658.849	48515.14
659.2	48469.94
659.551	48384.74
659.902	48499.54
660.253	48579.77
660.604	48483.05
660.955	48163.96
661.306	48305.2
661.656	48278.53
662.007	48255.26
662.358	48299.32
662.708	48215.26
663.059	48192.43
663.409	48025.66
663.76	48265.43
664.11	48140.46
664.461	48228.14
664.811	48184.98
665.161	48180.23
665.511	47965.32
665.862	47960.8
666.212	48233.11
666.562	48135.26
666.912	48015.94
667.262	48049.39
667.612	47937.07
667.962	47983.4
668.312	47866.11
668.662	48095.71
669.011	48027.92
669.361	47994.02
669.711	47859.11
670.06	47769.17
670.41	47675.16
670.76	47503.86
671.109	47819.11
671.459	47633.58
671.808	47677.87
672.157	47735.27
672.507	47381.83
672.856	47490.76
673.205	47474.71
673.554	47687.36
673.904	47519.23
674.253	47653.92
674.602	47342.51
674.951	46985.69
675.3	46787.27
675.649	47307.71
675.998	47306.13
676.346	47265.68
676.695	47271.33
677.044	47004.89
677.393	47007.83
677.741	47108.62
678.09	46979.36
678.438	46934.39
678.787	46947.72
679.135	46909.98
679.484	46720.61
679.832	46869.08
680.181	46594.06
680.529	46676.32
680.877	46544.57
681.225	46677.22
681.573	46712.02
681.922	46349.32
682.27	46244.24
682.618	46294.18
682.966	46208.76
683.314	46213.05
683.661	45982.1
684.009	45739.16
684.357	45820.07
684.705	45737.81
685.053	45698.04
685.4	45811.71
685.748	45602.67
686.095	45597.7
686.443	45270.25
686.79	45260.08
687.138	45327.65
687.485	45412.62
687.832	45202
688.18	45284.26
688.527	44968.79
688.874	45036.58
689.221	44846.31
689.568	44815.57
689.915	44623.49
690.262	44620.55
690.609	44618.52
690.956	44370.39
691.303	44503.49
691.65	44315.7
691.997	44167.23
692.344	44065.54
692.69	43994.8
693.037	44108.47
693.383	43726.34
693.73	43830.29
694.077	43474.14
694.423	43541.03
694.769	43396.63
695.116	43389.62
695.462	43324.76
695.808	43096.3
696.155	43139.68
696.501	42797.1
696.847	42869.86
697.193	42432.81
697.539	42610.89
697.885	42445.24
698.231	42324.34
698.577	42221.74
698.923	42079.37
699.269	41952.82
699.614	41777.23
699.96	41679.84
700.306	41724.58
700.651	41474.19
700.997	41346.06
701.342	41448.43
701.688	41445.49
702.033	41187.19
702.379	41151.71
702.724	41029.46
703.069	41042.34
703.415	40605.29
703.76	40745.17
704.105	40740.43
704.45	40468.12
704.795	40317.61
705.14	40214.11
705.485	40216.6
705.83	40043.27
706.175	39885.99
706.52	39767.34
706.865	39717.4
707.209	39581.13
707.554	39507.24
707.899	39522.6
708.243	39428.82
708.588	39385.43
708.932	39196.29
709.277	39064.54
709.621	38967.82
709.966	38832.23
710.31	38890.53
710.654	38618.9
710.998	38635.85
711.342	38601.95
711.687	38527.38
712.031	38403.31
712.375	38286.48
712.719	38374.84
713.063	38288.51
713.407	38330.32
713.75	38164.9
714.094	38175.3
714.438	37864.34
714.782	37866.38
715.125	37687.85
715.469	37842.2
715.812	37769.43
716.156	37384.13
716.499	37444.92
716.843	37508.19
717.186	37317.01
717.53	37401.76
717.873	37398.37
718.216	37251.93
718.559	36960.19
718.902	36830.02
719.246	36984.59
719.589	36920.87
719.932	36662.12
720.275	36618.5
720.617	36601.1
720.96	36538.73
721.303	36491.95
721.646	36550.71
721.989	36201.11
722.331	36484.72
722.674	36283.14
723.016	36371.95
723.359	36129.93
723.701	36125.18
724.044	35980.1
724.386	35698.52
724.729	35960.44
725.071	35718.19
725.413	35851.29
725.755	35750.5
726.097	35572.43
726.439	35422.6
726.782	35528.36
727.124	35588.7
727.465	35273.45
727.807	35256.95
728.149	35172.66
728.491	35216.73
728.833	35090.63
729.175	35045.21
729.516	34948.71
729.858	34965.89
730.199	35020.12
730.541	34952.78
730.882	34854.25
731.224	34948.49
731.565	34534.26
731.906	34580.59
732.248	34689.96
732.589	34557.99
732.93	34401.84
733.271	34496.97
733.612	34492.45
733.953	34362.74
734.294	34187.38
734.635	34110.32
734.976	34159.13
735.317	33923.88
735.658	33902.64
735.999	33930.66
736.339	33849.08
736.68	33923.2
737.021	33809.76
737.361	33604.57
737.702	33716.88
738.042	33597.79
738.383	33598.69
738.723	33742.64
739.063	33465.36
739.404	33638.24
739.744	33437.34
740.084	33294.29
740.424	33396.44
740.764	33184.24
741.104	33251.13
741.444	33014.08
741.784	33034.64
742.124	33199.83
742.464	33036.67
742.804	32925.26
743.143	32968.43
743.483	32996.9
743.823	32662.9
744.162	32731.6
744.502	32723.01
744.841	32639.17
745.181	32713.97
745.52	32522.11
745.86	32622.9
746.199	32458.38
746.538	32471.49
746.877	32517.82
747.216	32399.85
747.556	32437.82
747.895	32222.46
748.234	32062.01
748.573	32094.78
748.911	31969.81
749.25	31812.98
749.589	31809.14
749.928	31728.01
750.267	31773.2
750.605	31659.31
750.944	31688.69
751.283	31377.51
751.621	31518.3
751.96	31356.04
752.298	31287.57
752.636	31334.8
752.975	31189.94
753.313	31052.77
753.651	31177.74
753.989	31063.17
754.327	30886.67
754.666	30775.04
755.004	30834.7
755.342	30921.93
755.679	30796.73
756.017	30677.64
756.355	30635.15
756.693	30477.42
757.031	30530.3
757.368	30321.94
757.706	30252.79
758.044	30197.88
758.381	30168.73
758.719	30049.63
759.056	30106.36
759.394	29910.2
759.731	29868.62
760.068	29691.45
760.405	29547.95
760.743	29426.83
761.08	29604
761.417	29394.74
761.754	29283.1
762.091	29305.47
762.428	29183.22
762.765	28863.45
763.102	29031.13
763.438	28868.2
763.775	28582.1
764.112	28625.94
764.449	28683.12
764.785	28578.26
765.122	28352.73
765.458	28260.3
765.795	28212.17
766.131	28149.12
766.467	28118.84
766.804	27833.87
767.14	27723.82
767.476	27673.42
767.812	27629.36
768.148	27710.26
768.485	27416.93
768.821	27278.86
769.157	27206.54
769.492	27035.48
769.828	27114.8
770.164	26809.94
770.5	26696.73
770.836	26772.66
771.171	26503.96
771.507	26597.97
771.842	26297.87
772.178	26326.79
772.513	26161.37
772.849	26166.35
773.184	26095.61
773.519	26170.87
773.855	25979.91
774.19	25926.58
774.525	25734.94
774.86	25734.27
775.195	25693.59
775.53	25454.73
775.865	25280.04
776.2	25190.55
776.535	25002.99
776.87	24973.83
777.205	24868.53
777.539	24774.29
777.874	24747.17
778.209	24577.91
778.543	24554.41
778.878	24323.68
779.212	24545.15
779.547	24218.6
779.881	24223.57
780.215	24018.83
780.55	24013.18
780.884	23898.61
781.218	23903.35
781.552	23828.55
781.886	23567.09
782.22	23586.07
782.554	23449.58
782.888	23204.39
783.222	23120.78
783.556	23032.19
783.889	23025.19
784.223	22739.09
784.557	22777.51
784.89	22773.67
785.224	22826.32
785.557	22747.9
785.891	22563.28
786.224	22551.3
786.558	22463.39
786.891	22229.95
787.224	22232.89
787.557	22102.72
787.891	22143.4
788.224	22099.33
788.557	22095.04
788.89	22020.47
789.223	21854.14
789.556	21728.72
789.888	21595.62
790.221	21578.9
790.554	21403.99
790.887	21528.73
791.219	21459.13
791.552	21301.39
791.884	21212.8
792.217	21126.93
792.549	21056.2
792.882	20856.65
793.214	20902.76
793.546	20843.55
793.879	20682.65
794.211	20576.44
794.543	20609.88
794.875	20591.58
795.207	20543.44
795.539	20555.19
795.871	20395.88
796.203	20431.13
796.535	20143.45
796.867	20055.32
797.198	20027.52
797.53	19950.69
797.862	19914.76
798.193	19929
798.525	19707.08
798.856	19783.01
799.188	19556.12
799.519	19559.29
799.85	19415.79
800.182	19328.79
800.513	19432.74
800.844	19183.03
801.175	19308
801.506	19256.92
801.837	19193.65
802.168	19144.16
802.499	19095.57
802.83	18942.81
803.161	18859.19
803.491	18924.95
803.822	18802.25
804.153	18843.15
804.483	18588.92
804.814	18576.49
805.145	18574.91
805.475	18454.68
805.805	18457.4
806.136	18461.24
806.466	18366.55
806.796	18245.88
807.126	18242.94
807.457	18215.14
807.787	18107.12
808.117	17996.39
808.447	18002.72
808.777	18006.79
809.107	17929.73
809.436	17910.29
809.766	17829.16
810.096	17716.17
810.426	17775.15
810.755	17779.67
811.085	17707.59
811.414	17658.55
811.744	17477.31
812.073	17497.65
812.403	17533.8
812.732	17469.85
813.061	17365.67
813.39	17249.97
813.719	17207.26
814.049	17283.19
814.378	17208.16
814.707	17179.69
815.036	17134.94
815.365	16979.69
815.693	16869.19
816.022	16813.15
816.351	16751.9
816.68	16641.17
817.008	16716.88
817.337	16600.04
817.665	16634.17
817.994	16664.22
818.322	16649.08
818.651	16498.58
818.979	16447.51
819.307	16466.26
819.636	16416.32
819.964	16309.88
820.292	16402.31
820.62	16434.4
820.948	16301.52
821.276	16329.32
821.604	16272.82
821.932	16288.41
822.259	16287.96
822.587	16253.39
822.915	16250
823.243	16359.37
823.57	16208.87
823.898	16324.34
824.225	16289.32
824.553	16178.13
824.88	16282.76
825.207	16248.41
825.535	16250.67
825.862	16240.51
826.189	16300.39
826.516	16411.12
826.843	16306.94
827.17	16365.02
827.497	16344.23
827.824	16243.67
828.151	16378.58
828.478	16310.33
828.805	16354.17
829.131	16197.57
829.458	16211.81
829.785	16033.5
830.111	16204.35
830.438	16224.69
830.764	16202.77
831.09	16209.09
831.417	16089.1
831.743	16197.12
832.069	16159.15
832.395	16132.71
832.722	16122.32
833.048	16079.38
833.374	16047.52
833.7	15968.42
834.026	16057.91
834.351	16058.82
834.677	16086.38
835.003	16110.79
835.329	16038.48
835.654	16003.22
835.98	15924.36
836.306	16016.1
836.631	15922.77
836.956	15935.65
837.282	15955.31
837.607	15816.34
837.932	15828.09
838.258	15767.07
838.583	15734.76
838.908	15646.4
839.233	15746.28
839.558	15687.53
839.883	15589.9
840.208	15511.71
840.533	15568.66
840.858	15523.01
841.182	15608.43
841.507	15555.33
841.832	15430.13
842.156	15440.07
842.481	15463.58
842.805	15346.52
843.13	15289.8
843.454	15377.03
843.778	15271.49
844.103	15293.64
844.427	15281.66
844.751	15265.39
845.075	15182.45
845.399	15161.44
845.723	15024.49
846.047	15097.03
846.371	14928.9
846.695	14877.15
847.019	14897.26
847.343	14829.47
847.666	14642.36
847.99	14587.67
848.313	14714.22
848.637	14551.28
848.96	14541.34
849.284	14478.97
849.607	14345.87
849.931	14289.82
850.254	14224.96
850.577	14199.2
850.9	14096.38
851.223	14052.77
851.546	14090.05
851.869	13973.67
852.192	13986.55
852.515	13894.35
852.838	13845.54
853.161	13834.69
853.483	13712.44
853.806	13704.07
854.129	13646.22
854.451	13570.29
854.774	13496.4
855.096	13542.27
855.419	13477.19
855.741	13417.3
856.063	13416.85
856.385	13321.94
856.708	13330.07
857.03	13314.25
857.352	13243.97
857.674	13126.69
857.996	13118.78
858.318	13109.29
858.64	13131.66
858.961	12986.13
859.283	13020.93
859.605	12909.52
859.926	12988.39
860.248	12876.07
860.57	12901.61
860.891	12892.8
861.212	12832.23
861.534	12779.13
861.855	12798.56
862.176	12783.87
862.498	12754.95
862.819	12718.79
863.14	12672.46
863.461	12564.9
863.782	12575.52
864.103	12652.8
864.424	12605.12
864.745	12619.81
865.065	12596.08
865.386	12496.42
865.707	12439.02
866.027	12474.05
866.348	12440.15
866.668	12410.32
866.989	12351.34
867.309	12334.85
867.63	12394.96
867.95	12423.43
868.27	12306.6
868.59	12287.61
868.91	12198.35
869.23	12264.11
869.55	12176.66
869.87	12216.88
870.19	12172.59
870.51	12207.84
870.83	12224.79
871.15	12150.9
871.469	12146.15
871.789	12199.93
872.109	12181.63
872.428	12012.59
872.748	12037.68
873.067	12049.88
873.386	12066.38
873.706	12052.82
874.025	11906.38
874.344	11938.7
874.663	12007.85
874.982	11942.54
875.301	12013.5
875.62	11877.46
875.939	11889.43
876.258	11953.61
876.577	11783.9
876.896	11889.89
877.214	11769.89
877.533	11744.8
877.852	11827.29
878.17	11804.46
878.489	11762.2
878.807	11858.7
879.125	11823.45
879.444	11833.62
879.762	11702.77
880.08	11808.31
880.398	11721.75
880.716	11793.84
881.034	11634.3
881.352	11717.46
881.67	11658.25
881.988	11705.03
882.306	11618.48
882.624	11598.14
882.941	11547.52
883.259	11520.86
883.577	11509.78
883.894	11555.43
884.212	11507.75
884.529	11576.9
884.846	11451.25
885.164	11351.37
885.481	11437.24
885.798	11430.91
886.115	11314.98
886.432	11350.24
886.75	11367.86
887.067	11356.34
887.383	11232.95
887.7	11343.23
888.017	11260.3
888.334	11298.49
888.651	11260.75
888.967	11164.25
889.284	11118.83
889.6	11065.05
889.917	11005.16
890.233	11059.17
890.55	10966.75
890.866	10979.4
891.182	10979.17
891.498	10899.85
891.815	10899.4
892.131	10888.33
892.447	10872.51
892.763	10866.18
893.079	10852.85
893.395	10784.6
893.71	10732.63
894.026	10679.3
894.342	10665.28
894.657	10676.13
894.973	10661.22
895.289	10624.38
895.604	10644.49
895.92	10503.93
896.235	10498.96
896.55	10508.68
896.865	10426.42
897.181	10380.32
897.496	10445.18
897.811	10322.92
898.126	10372.18
898.441	10276.82
898.756	10294.45
899.071	10240.21
899.386	10231.4
899.7	10174.9
900.015	10074.57
900.33	10110.27
900.644	10074.57
900.959	10110.95
901.273	10063.94
901.588	9926.09
901.902	9884.06
902.216	9916.83
902.531	9862.37
902.845	9829.83
903.159	9764.52
903.473	9720.22
903.787	9769.04
904.101	9703.05
904.415	9689.04
904.729	9726.78
905.042	9707.8
905.356	9646.55
905.67	9605.2
905.984	9593
906.297	9602.71
906.611	9513.22
906.924	9508.7
907.237	9457.86
907.551	9418.54
907.864	9358.2
908.177	9352.78
908.491	9309.39
908.804	9225.1
909.117	9227.58
909.43	9157.3
909.743	9105.33
910.056	9156.85
910.368	9132.22
910.681	8993.46
910.994	8945.78
911.307	8986.91
911.619	8900.36
911.932	8898.1
912.244	8807.48
912.557	8842.73
912.869	8839.12
913.181	8799.8
913.494	8759.8
913.806	8706.47
914.118	8680.25
914.43	8682.06
914.742	8677.31
915.054	8572.23
915.366	8616.07
915.678	8523.42
915.99	8515.06
916.302	8456.98
916.613	8528.62
916.925	8360.26
917.236	8413.14
917.548	8376.98
917.859	8344.22
918.171	8315.06
918.482	8325.23
918.794	8226.48
919.105	8147.61
919.416	8080.04
919.727	8099.48
920.038	8106.93
920.349	8063.77
920.66	8030.33
920.971	8029.87
921.282	7993.04
921.593	7942.19
921.903	7852.93
922.214	7924.79
922.525	7905.13
922.835	7854.06
923.146	7811.8
923.456	7727.06
923.767	7762.31
924.077	7708.3
924.387	7589.21
924.697	7576.1
925.008	7553.73
925.318	7532.26
925.628	7539.94
925.938	7500.62
926.248	7444.58
926.558	7401.87
926.867	7381.98
927.177	7335.88
927.487	7322.77
927.796	7203.68
928.106	7274.64
928.416	7251.81
928.725	7222.21
929.034	7171.37
929.344	7193.51
929.653	7232.15
929.962	7066.06
930.271	7082.78
930.581	7077.81
930.89	7080.97
931.199	7026.28
931.508	6957.13
931.817	6979.73
932.125	6914.2
932.434	6907.42
932.743	6888.66
933.051	6841.88
933.36	6779.74
933.669	6748.55
933.977	6702.45
934.286	6704.94
934.594	6662.23
934.902	6583.13
935.21	6597.82
935.519	6594.66
935.827	6614.32
936.135	6561.21
936.443	6494.77
936.751	6428.79
937.059	6467.2
937.367	6401.44
937.674	6446.86
937.982	6385.4
938.29	6345.62
938.597	6388.56
938.905	6322.12
939.213	6238.51
939.52	6234.21
939.827	6214.1
940.135	6193.54
940.442	6135.01
940.749	6204.38
941.056	6160.54
941.363	6103.37
941.67	6086.2
941.977	6051.39
942.284	5941.34
942.591	6012.53
942.898	5974.11
943.205	5932.08
943.511	5933.66
943.818	5913.09
944.125	5887.11
944.431	5874.22
944.738	5864.73
945.044	5725.75
945.35	5779.31
945.657	5777.05
945.963	5703.83
946.269	5714
946.575	5689.82
946.881	5663.83
947.187	5651.18
947.493	5617.73
947.799	5640.11
948.105	5566.89
948.41	5546.32
948.716	5516.04
949.022	5492.99
949.327	5481.01
949.633	5431.75
949.938	5471.75
950.244	5406.21
950.549	5403.28
950.854	5389.94
951.16	5338.87
951.465	5327.35
951.77	5313.79
952.075	5290.28
952.38	5310.62
952.685	5215.94
952.99	5147.69
953.294	5157.86
953.599	5165.77
953.904	5160.12
954.209	5084.41
954.513	5066.79
954.818	5134.58
955.122	5067.01
955.426	5006.68
955.731	4998.54
956.035	4947.02
956.339	4967.81
956.643	4995.15
956.948	4919.9
957.252	4868.6
957.556	4845.1
957.86	4854.59
958.163	4853.69
958.467	4807.81
958.771	4801.03
959.075	4820.69
959.378	4710.19
959.682	4737.3
959.985	4673.35
960.289	4686.91
960.592	4630.19
960.896	4623.86
961.199	4600.59
961.502	4664.54
961.805	4619.79
962.108	4585.22
962.411	4561.26
962.714	4556.97
963.017	4548.16
963.32	4530.3
963.623	4525.56
963.926	4465.22
964.228	4419.8
964.531	4439.46
964.833	4408.5
965.136	4409.63
965.438	4381.61
965.741	4378.67
966.043	4361.5
966.345	4352.91
966.648	4297.77
966.95	4308.39
967.252	4300.03
967.554	4252.35
967.856	4254.38
968.158	4258
968.46	4225
968.761	4217.77
969.063	4203.99
969.365	4148.62
969.666	4116.98
969.968	4103.65
970.269	4095.97
970.571	4105.46
970.872	4069.3
971.174	4015.06
971.475	4062.97
971.776	4035.4
972.077	4029.3
972.378	4004.44
972.679	3952.24
972.98	3948.62
973.281	3934.84
973.582	3915.63
973.883	3879.7
974.183	3865.92
974.484	3888.97
974.785	3849.87
975.085	3862.75
975.386	3835.86
975.686	3825.69
975.986	3798.8
976.287	3765.35
976.587	3716.99
976.887	3736.2
977.187	3749.76
977.487	3709.76
977.787	3675.41
978.087	3655.53
978.387	3689.42
978.687	3688.74
978.987	3639.93
979.286	3640.61
979.586	3595.19
979.885	3566.49
980.185	3575.98
980.484	3550.9
980.784	3569.88
981.083	3536.21
981.382	3512.25
981.682	3491.91
981.981	3479.94
982.28	3461.41
982.579	3462.31
982.878	3425.02
983.177	3420.73
983.475	3448.75
983.774	3393.16
984.073	3359.49
984.372	3353.84
984.67	3327.62
984.969	3364.01
985.267	3356.1
985.566	3361.07
985.864	3302.54
986.162	3263.67
986.461	3235.88
986.759	3278.59
987.057	3224.8
987.355	3203.33
987.653	3217.57
987.951	3156.33
988.249	3138.25
988.547	3170.34
988.844	3121.53
989.142	3170.79
989.44	3083.56
989.737	3097.35
990.035	3093.73
990.332	3065.03
990.63	3067.29
990.927	3040.4
991.224	3048.99
991.521	3005.6
991.819	2994.3
992.116	2981.19
992.413	2991.14
992.71	2962.89
993.006	2918.82
993.303	2931.02
993.6	2924.25
993.897	2885.83
994.193	2930.57
994.49	2872.95
994.787	2831.14
995.083	2877.01
995.379	2835.21
995.676	2818.03
995.972	2777.36
996.268	2802.44
996.565	2781.65
996.861	2723.12
997.157	2766.74
997.453	2736.23
997.749	2728.77
998.044	2713.4
998.34	2673.4
998.636	2657.59
998.932	2683.35
999.227	2587.3
999.523	2631.82
999.818	2611.49
1000.114	2595.89
1000.409	2588.89
1000.704	2594.31
1001	2561.09
1001.295	2517.93
1001.59	2567.87
1001.885	2520.87
1002.18	2489.45
1002.475	2496.46
1002.77	2482.9
1003.065	2459.85
1003.359	2484.03
1003.654	2470.47
1003.949	2431.38
1004.243	2431.38
1004.538	2398.61
1004.832	2410.81
1005.127	2389.34
1005.421	2373.07
1005.715	2343.7
1006.009	2313.64
1006.304	2331.27
1006.598	2331.27
1006.892	2278.84
1007.186	2319.97
1007.48	2307.31
1007.773	2294.21
1008.067	2289.01
1008.361	2246.3
1008.655	2223.7
1008.948	2216.47
1009.242	2198.84
1009.535	2193.64
1009.829	2202.23
1010.122	2176.92
1010.415	2179.86
1010.708	2142.12
1011.001	2127.43
1011.295	2153.87
1011.588	2126.07
1011.881	2142.12
1012.173	2046.75
1012.466	2072.06
1012.759	2053.08
1013.052	2046.75
1013.344	2027.09
1013.637	2030.71
1013.93	1992.74
1014.222	1997.72
1014.514	1986.64
1014.807	1962.46
1015.099	1952.52
1015.391	1928.34
1015.683	1928.11
1015.976	1926.08
1016.268	1877.72
1016.56	1953.2
1016.851	1906.64
1017.143	1879.75
1017.435	1883.14
1017.727	1857.38
1018.018	1849.7
1018.31	1830.71
1018.602	1850.83
1018.893	1784.16
1019.185	1792.98
1019.476	1790.26
1019.767	1784.16
1020.058	1760.66
1020.35	1743.03
1020.641	1719.31
1020.932	1741.68
1021.223	1708.46
1021.514	1726.08
1021.804	1688.57
1022.095	1706.65
1022.386	1663.04
1022.677	1620.78
1022.967	1667.56
1023.258	1599.08
1023.548	1648.57
1023.839	1630.27
1024.129	1631.62
1024.419	1582.59
1024.709	1602.25
1025	1561.8
1025.29	1586.88
1025.58	1549.14
1025.87	1523.6
1026.16	1522.25
1026.449	1546.88
1026.739	1517.95
1027.029	1470.5
1027.319	1449.48
1027.608	1477.73
1027.898	1484.73
1028.187	1448.8
1028.477	1449.48
1028.766	1419.88
1029.055	1402.93
1029.344	1419.43
1029.634	1389.6
1029.923	1394.12
1030.212	1381.01
1030.501	1402.03
1030.79	1366.32
1031.078	1359.54
1031.367	1343.95
1031.656	1319.54
1031.945	1331.29
1032.233	1323.61
1032.522	1321.58
1032.81	1318.41
1033.099	1305.08
1033.387	1272.54
1033.675	1253.55
1033.963	1227.57
1034.251	1269.37
1034.54	1243.16
1034.828	1248.13
1035.116	1215.14
1035.403	1222.37
1035.691	1201.58
1035.979	1211.75
1036.267	1188.47
1036.554	1195.93
1036.842	1164.97
1037.129	1173.1
1037.417	1157.74
1037.704	1145.08
1037.992	1150.96
1038.279	1125.2
1038.566	1119.09
1038.853	1119.09
1039.14	1119.09
