Data from aluminium_surface_pro_back_FLMS001491_00073.txt Node
Date: Wed Feb 08 15:34:31 GMT 2017
User: dcchb
Spectrometer: FLMS00149
Trigger mode: 0
Integration Time (sec): 2.000000E-2
Scans to average: 10
Electric dark correction enabled: true
Nonlinearity correction enabled: false
Boxcar width: 0
XAxis mode: Wavelengths
Number of Pixels in Spectrum: 2048
>>>>>Begin Spectral Data<<<<<
341.393	-21.27
341.776	-21.27
342.16	-21.27
342.543	-61.5
342.927	-68.73
343.31	-55.62
343.693	-78.22
344.077	-62.17
344.46	-56.07
344.843	-63.98
345.226	-37.99
345.61	-21.04
345.993	-18.56
346.376	5.17
346.759	4.72
347.142	12.63
347.525	27.99
347.908	40.2
348.291	68.9
348.674	99.4
349.057	134.66
349.44	104.83
349.823	136.47
350.206	176.92
350.588	217.14
350.971	244.94
351.354	258.95
351.737	268.21
352.119	289.23
352.502	269.57
352.884	316.35
353.267	290.81
353.65	311.6
354.032	320.19
354.414	324.71
354.797	336.91
355.179	333.52
355.562	356.57
355.944	364.93
356.326	350.02
356.709	369.45
357.091	363.8
357.473	344.82
357.855	360.87
358.238	392.73
358.62	366.74
359.002	359.51
359.384	342.56
359.766	366.74
360.148	373.75
360.53	360.64
360.912	378.94
361.294	367.19
361.676	384.82
362.057	361.54
362.439	373.97
362.821	378.72
363.203	388.21
363.584	390.24
363.966	360.41
364.348	354.31
364.729	385.72
365.111	350.47
365.493	362.22
365.874	367.65
366.256	371.04
366.637	371.94
367.019	379.85
367.4	365.16
367.781	389.11
368.163	359.28
368.544	349.57
368.925	359.74
369.306	365.16
369.688	376.23
370.069	374.88
370.45	368.55
370.831	391.83
371.212	369
371.593	388.21
371.974	385.5
372.355	394.76
372.736	374.65
373.117	388.66
373.498	367.87
373.879	378.94
374.26	387.76
374.641	387.08
375.021	381.2
375.402	404.48
375.783	418.94
376.163	408.1
376.544	402.45
376.925	414.65
377.305	394.09
377.686	417.14
378.066	410.36
378.447	415.1
378.827	441.77
379.208	425.95
379.588	417.59
379.968	449.45
380.349	444.71
380.729	444.25
381.109	437.93
381.489	448.77
381.87	445.38
382.25	450.36
382.63	459.17
383.01	470.69
383.39	468.66
383.77	474.08
384.15	464.82
384.53	492.84
384.91	468.89
385.29	495.55
385.67	483.57
386.049	491.48
386.429	521.31
386.809	508.21
387.189	534.42
387.568	526.74
387.948	518.15
388.328	517.92
388.707	528.09
389.087	537.81
389.466	567.87
389.846	548.66
390.225	554.76
390.605	570.13
390.984	572.61
391.363	554.53
391.743	604.93
392.122	592.5
392.501	601.54
392.881	622.1
393.26	599.96
393.639	609.67
394.018	632.05
394.397	623.23
394.776	620.07
395.155	656.9
395.534	646.28
395.913	660.29
396.292	662.55
396.671	671.82
397.05	656.23
397.429	671.37
397.808	695.77
398.186	717.92
398.565	704.36
398.944	696.9
399.323	720.4
399.701	726.51
400.08	752.49
400.458	753.4
400.837	753.85
401.215	767.86
401.594	759.5
401.972	766.05
402.351	793.17
402.729	793.85
403.107	810.8
403.486	797.24
403.864	803.57
404.242	818.03
404.62	824.58
404.999	841.31
405.377	885.82
405.755	860.74
406.133	882.21
406.511	879.72
406.889	908.42
407.267	918.14
407.645	922.66
408.023	952.72
408.401	943.22
408.779	968.53
409.156	993.62
409.534	992.94
409.912	989.1
410.29	994.75
410.667	1018.7
411.045	1055.76
411.422	1057.57
411.8	1094.63
412.178	1089.89
412.555	1133.5
412.933	1126.5
413.31	1127.4
413.687	1166.04
414.065	1136.21
414.442	1164.01
414.819	1190.67
415.197	1191.13
415.574	1197.45
415.951	1226.15
416.328	1227.51
416.705	1270.22
417.082	1252.14
417.46	1278.36
417.837	1279.49
418.214	1302.31
418.591	1296.43
418.967	1331.91
419.344	1350.67
419.721	1361.74
420.098	1375.75
420.475	1328.98
420.852	1406.94
421.228	1423.89
421.605	1426.83
421.982	1434.06
422.358	1470.89
422.735	1464.79
423.111	1504.79
423.488	1510.67
423.864	1501.85
424.241	1542.3
424.617	1542.3
424.994	1557.44
425.37	1585.24
425.746	1566.71
426.123	1607.39
426.499	1638.35
426.875	1655.52
427.251	1690.77
427.627	1697.1
428.003	1754.28
428.379	1767.16
428.756	1774.84
429.132	1785.24
429.507	1808.06
429.883	1815.74
430.259	1860.26
430.635	1855.29
431.011	1905.01
431.387	1954.04
431.763	2001.28
432.138	1984.55
432.514	1995.85
432.89	1996.76
433.265	2063.65
433.641	2119.69
434.016	2120.14
434.392	2150.65
434.767	2191.78
435.143	2197.65
435.518	2205.79
435.894	2210.99
436.269	2265
436.644	2289.63
437.02	2314.94
437.395	2335.5
437.77	2352.68
438.145	2396.52
438.52	2407.59
438.895	2435.84
439.271	2476.06
439.646	2490.08
440.021	2521.94
440.395	2559.9
440.77	2529.4
441.145	2567.59
441.52	2602.84
441.895	2565.78
442.27	2636.29
442.645	2647.36
443.019	2658.66
443.394	2695.72
443.769	2708.15
444.143	2726.91
444.518	2782.72
444.892	2727.36
445.267	2778.2
445.641	2831.08
446.016	2843.06
446.39	2843.96
446.764	2856.62
447.139	2864.08
447.513	2914.7
447.887	2960.57
448.262	2923.51
448.636	2935.26
449.01	3034.47
449.384	3021.81
449.758	3035.37
450.132	3113.34
450.506	3096.39
450.88	3099.33
451.254	3122.83
451.628	3163.05
452.002	3233.11
452.376	3228.36
452.75	3240.79
453.123	3276.95
453.497	3361.92
453.871	3399.66
454.244	3447.56
454.618	3435.14
454.992	3531.86
455.365	3561.23
455.739	3636.71
456.112	3645.98
456.486	3662.93
456.859	3716.26
457.232	3816.59
457.606	3788.12
457.979	3820.21
458.352	3949.92
458.725	3998.51
459.099	3993.77
459.472	4125.06
459.845	4118.51
460.218	4110.6
460.591	4191.27
460.964	4274.66
461.337	4356.92
461.71	4406.41
462.083	4434.43
462.456	4455.67
462.829	4476.24
463.201	4563.69
463.574	4622.9
463.947	4669.68
464.32	4787.87
464.692	4770.92
465.065	4821.09
465.438	4960.97
465.81	4937.7
466.183	5001.42
466.555	5109.89
466.928	5175.65
467.3	5146.5
467.672	5226.73
468.045	5405.71
468.417	5472.14
468.789	5450
469.161	5529.54
469.534	5654.06
469.906	5764.34
470.278	5794.85
470.65	5905.58
471.022	5980.15
471.394	6085.24
471.766	6118.23
472.138	6192.35
472.51	6393.93
472.882	6458.78
473.253	6551.66
473.625	6576.52
473.997	6762.73
474.369	6793.47
474.74	6873.69
475.112	7030.07
475.484	7141.48
475.855	7238.43
476.227	7312.77
476.598	7530.4
476.97	7600.22
477.341	7713.22
477.713	7894.23
478.084	7920.89
478.455	8198.63
478.827	8242.24
479.198	8482.69
479.569	8458.73
479.94	8703.25
480.311	8816.24
480.682	9015.33
481.053	9223.91
481.424	9296.45
481.795	9421.64
482.166	9614.41
482.537	9706.84
482.908	9836.32
483.279	10035.64
483.65	10246.48
484.021	10419.58
484.391	10542.29
484.762	10642.63
485.133	10764.21
485.503	10858.44
485.874	11196.51
486.244	11229.73
486.615	11542.72
486.985	11566.67
487.356	11847.34
487.726	11924.4
488.097	12145.64
488.467	12281.68
488.837	12475.35
489.207	12586.31
489.578	12763.7
489.948	12895.9
490.318	13188.78
490.688	13257.93
491.058	13374.76
491.428	13605.94
491.798	13765.03
492.168	14030.11
492.538	14063.78
492.908	14228.07
493.278	14417.9
493.648	14470.33
494.017	14744.67
494.387	14778.79
494.757	14919.35
495.126	15045.45
495.496	15202.51
495.866	15310.53
496.235	15445.44
496.605	15673.68
496.974	15750.97
497.344	15896.5
497.713	16026.44
498.082	16030.06
498.452	16302.37
498.821	16427.79
499.19	16467.11
499.559	16592.08
499.928	16799.98
500.298	16855.57
500.667	17095.12
501.036	17074.55
501.405	17314.77
501.774	17385.05
502.143	17509.12
502.512	17573.07
502.88	17801.31
503.249	17794.98
503.618	18012.83
503.987	18031.36
504.356	18295.99
504.724	18237.46
505.093	18388.87
505.462	18485.36
505.83	18656.43
506.199	18909.08
506.567	19114.95
506.936	19151.11
507.304	19278.56
507.672	19425.45
508.041	19459.57
508.409	19691.43
508.777	19893.69
509.145	19911.54
509.514	19989.5
509.882	20157.86
510.25	20185.88
510.618	20312.43
510.986	20586.1
511.354	20821.8
511.722	20846.88
512.09	21197.61
512.458	21209.13
512.826	21320.99
513.193	21502.23
513.561	21622.45
513.929	21766.63
514.297	21977.7
514.664	22121.42
515.032	22268.54
515.4	22532.49
515.767	22708.98
516.135	22894.06
516.502	22833.04
516.869	23150.1
517.237	23363.88
517.604	23302.64
517.972	23615.4
518.339	23766.58
518.706	23896.97
519.073	24063.29
519.44	24242.05
519.808	24425.32
520.175	24514.58
520.542	24822.82
520.909	25042.03
521.276	25024.4
521.643	25324.73
522.009	25470.94
522.376	25717.26
522.743	25957.26
523.11	26202.45
523.477	26455.55
523.843	26613.06
524.21	26818.7
524.577	27102.08
524.943	27184.79
525.31	27273.15
525.676	27596.99
526.043	27864.32
526.409	27917.43
526.776	28293.47
527.142	28457.53
527.508	28664.08
527.874	28782.04
528.241	28827.46
528.607	29034.24
528.973	29286.21
529.339	29292.76
529.705	29685.29
530.071	29800.32
530.437	29902.91
530.803	30200.08
531.169	30265.62
531.535	30402.56
531.901	30470.13
532.267	30652.95
532.632	30936.33
532.998	31007.52
533.364	31318.7
533.73	31452.25
534.095	31516.21
534.461	31707.39
534.826	31951.67
535.192	31908.51
535.557	32358.44
535.923	32196.64
536.288	32411.55
536.653	32542.39
537.019	32637.53
537.384	32914.59
537.749	32921.82
538.114	33041.59
538.479	33203.62
538.845	33443.16
539.21	33411.3
539.575	33582.14
539.94	33684.28
540.305	33923.15
540.67	33821.91
541.034	34015.8
541.399	34164.05
541.764	34250.6
542.129	34341.89
542.494	34470.03
542.858	34578.95
543.223	34710.02
543.587	34870.24
543.952	34875.89
544.316	35107.3
544.681	35001.99
545.045	35296.44
545.41	35500.51
545.774	35536.44
546.138	35477.46
546.503	35628.64
546.867	35651.24
547.231	36100.27
547.595	36142.07
547.959	36310.2
548.324	36313.82
548.688	36543.87
549.052	36599.46
549.416	36697.76
549.779	36729.63
550.143	36886.91
550.507	37002.84
550.871	37182.95
551.235	37168.94
551.599	37551.3
551.962	37594.92
552.326	37746.78
552.689	38001.91
553.053	37796.27
553.417	37848.02
553.78	38608
554.143	38336.36
554.507	38540.2
554.87	38680.54
555.234	39029
555.597	38880.76
555.96	39123.01
556.323	39296.34
556.686	39376.56
557.05	39607.07
557.413	39810.22
557.776	39836.21
558.139	40038.69
558.502	40121.4
558.865	40440.49
559.228	40670.54
559.59	40715.06
559.953	40926.13
560.316	41379.9
560.679	41409.05
561.041	41602.72
561.404	41831.19
561.767	41941.02
562.129	41887.23
562.492	42329.93
562.854	42261.23
563.217	42493.54
563.579	42735.35
563.941	42848.56
564.304	43166.97
564.666	43499.84
565.028	43474.53
565.39	43726.73
565.753	43929.21
566.115	44031.81
566.477	44323.1
566.839	44437.22
567.201	44869.75
567.563	44919.24
567.925	45153.36
568.287	45037.21
568.648	45279.46
569.01	45378.21
569.372	45797.41
569.734	45650.75
570.095	46037.41
570.457	46147.23
570.819	46391.29
571.18	46438.75
571.542	46700.66
571.903	46764.17
572.265	46864.28
572.626	46965.74
572.987	47188.79
573.349	47361.21
573.71	47440.53
574.071	47661.09
574.432	47673.07
574.794	48059.73
575.155	47877.13
575.516	47893.4
575.877	48176.11
576.238	48152.6
576.599	48336.33
576.96	48337.01
577.32	48481.86
577.681	48583.33
578.042	48701.29
578.403	48747.62
578.763	48803.43
579.124	49027.84
579.485	49113.93
579.845	49329.75
580.206	49267.15
580.566	49188.06
580.927	49343.99
581.287	49568.61
581.648	49348.5
582.008	49647.03
582.368	49533.13
582.728	49576.52
583.089	49567.48
583.449	49482.74
583.809	49572.23
584.169	49788.27
584.529	49639.34
584.889	49916.4
585.249	49733.13
585.609	49693.81
585.969	49818.32
586.329	49736.52
586.688	49878.43
587.048	49886.34
587.408	49891.77
587.768	49828.04
588.127	49826.68
588.487	49862.62
588.846	50055.38
589.206	49789.85
589.565	49843.63
589.925	50101.03
590.284	49919.79
590.643	49935.16
591.003	50035.72
591.362	50189.61
591.721	50056.28
592.08	50161.14
592.44	50193.68
592.799	50198.65
593.158	50134.25
593.517	50103.74
593.876	50186.22
594.235	50234.36
594.593	50325.65
594.952	50305.32
595.311	50271.87
595.67	50283.62
596.029	50530.62
596.387	50573.78
596.746	50568.13
597.104	50360.46
597.463	50353
597.822	50476.84
598.18	50329.72
598.538	50486.55
598.897	50676.83
599.255	50281.14
599.613	50851.52
599.972	50603.16
600.33	50729.94
600.688	50605.19
601.046	50844.51
601.404	50909.37
601.762	50781.69
602.12	50956.6
602.478	50950.5
602.836	50898.29
603.194	50839.76
603.552	50886.77
603.91	50760.9
604.268	50967.67
604.625	50905.98
604.983	51080.89
605.341	50902.81
605.698	51123.15
606.056	51202.24
606.413	51099.42
606.771	51194.33
607.128	51336.25
607.485	51108.46
607.843	51042.25
608.2	51350.49
608.557	51438.62
608.914	51283.14
609.272	51472.06
609.629	51523.81
609.986	51577.82
610.343	51464.38
610.7	51649.69
611.057	51559.07
611.414	51524.04
611.771	51569.69
612.127	51660.99
612.484	51643.59
612.841	51677.71
613.198	51641.33
613.554	51698.73
613.911	51678.84
614.267	51842.22
614.624	51763.81
614.98	51755.22
615.337	51845.84
615.693	51939.62
616.05	51826.63
616.406	52072.5
616.762	51905.05
617.118	52045.61
617.475	51954.54
617.831	52098.04
618.187	51956.57
618.543	52090.13
618.899	52275.89
619.255	52095.33
619.611	52281.08
619.967	52330.12
620.323	52420.51
620.678	52179.84
621.034	52149.79
621.39	52222.33
621.746	52122.22
622.101	52562.88
622.457	52279.73
622.812	52356.11
623.168	52453.28
623.523	52435.66
623.879	52588.87
624.234	52339.16
624.589	52435.43
624.945	52375.77
625.3	52469.55
625.655	52379.61
626.01	52342.1
626.365	52455.09
626.72	52327.41
627.075	52347.52
627.43	52307.52
627.785	52210.58
628.14	52289.9
628.495	52355.21
628.85	52296
629.205	52216.23
629.559	52401.53
629.914	52190.24
630.269	52324.47
630.623	52138.04
630.978	52079.73
631.332	52321.76
631.687	52354.75
632.041	52182.33
632.396	52346.84
632.75	52080.18
633.104	52151.14
633.459	52072.05
633.813	52049
634.167	51979.17
634.521	51994.76
634.875	52009
635.229	51875.9
635.583	51723.58
635.937	51796.8
636.291	51617.82
636.645	51691.27
636.999	51651.95
637.352	51718.61
637.706	51496.02
638.06	51671.16
638.413	51515
638.767	51423.48
639.121	51588.22
639.474	51264.84
639.828	51339.64
640.181	51339.86
640.534	51321.33
640.888	51196.37
641.241	51024.62
641.594	51079.76
641.947	51193.43
642.301	51016.94
642.654	51198.85
643.007	51118.85
643.36	51050.83
643.713	51048.8
644.066	50986.65
644.419	50996.37
644.771	50623.5
645.124	50319.1
645.477	50146.45
645.83	50049.5
646.182	49910.75
646.535	49757.53
646.888	49860.58
647.24	49675.73
647.593	49907.59
647.945	49772.9
648.298	49501.95
648.65	49377.2
649.002	49327.71
649.355	49470.08
649.707	49306.92
650.059	49392.12
650.411	49878.66
650.763	49950.75
651.115	50175.83
651.467	50075.04
651.819	50101.03
652.171	49920.69
652.523	49977.87
652.875	49906
653.227	49912.11
653.578	50069.62
653.93	49964.53
654.282	49737.65
654.633	49702.62
654.985	49863.52
655.337	49722.05
655.688	49779.91
656.039	49915.27
656.391	49522.06
656.742	49571.55
657.094	49528.84
657.445	49603.41
657.796	49493.13
658.147	49427.82
658.498	49348.96
658.849	49366.36
659.2	49302.86
659.551	49319.13
659.902	49372.91
660.253	49278.68
660.604	49289.3
660.955	49117.32
661.306	49235.74
661.656	49275.29
662.007	49252.46
662.358	49227.15
662.708	49180.37
663.059	49064.22
663.409	48946.93
663.76	49301.95
664.11	49130.21
664.461	49195.97
664.811	49046.37
665.161	49165.68
665.511	49061.05
665.862	49168.62
666.212	49122.3
666.562	49116.65
666.912	49029.42
667.262	48881.4
667.612	48718.92
667.962	48839.14
668.312	48824
668.662	49107.61
669.011	48860.61
669.361	48805.92
669.711	48889.99
670.06	48746.71
670.41	48642.31
670.76	48542.2
671.109	48709.2
671.459	48772.02
671.808	48621.97
672.157	48692.48
672.507	48356.44
672.856	48544.01
673.205	48511.01
673.554	48595.98
673.904	48329.1
674.253	48566.38
674.602	48497.23
674.951	47880.75
675.3	47793.52
675.649	48334.97
675.998	48311.02
676.346	48147.41
676.695	48232.15
677.044	47906.96
677.393	48094.75
677.741	48180.4
678.09	48001.42
678.438	47911.71
678.787	47993.74
679.135	47874.42
679.484	47691.6
679.832	47774.99
680.181	47611.6
680.529	47754.42
680.877	47558.27
681.225	47564.82
681.573	47733.63
681.922	47416.8
682.27	47321.44
682.618	47327.54
682.966	47250.25
683.314	47363.25
683.661	47144.49
684.009	47001.22
684.357	46926.42
684.705	46908.57
685.053	46835.12
685.4	46763.26
685.748	46469.26
686.095	46514
686.443	46339.54
686.79	46241.47
687.138	46388.81
687.485	46377.06
687.832	46106.56
688.18	46199.43
688.527	46013.45
688.874	45932.55
689.221	45912.89
689.568	45898.88
689.915	45646.46
690.262	45692.56
690.609	45476.52
690.956	45441.26
691.303	45472.67
691.65	45227.26
691.997	45195.85
692.344	44767.61
692.69	44890.32
693.037	44858.91
693.383	44568.74
693.73	44653.03
694.077	44350.67
694.423	44250.11
694.769	44288.07
695.116	44185.02
695.462	44146.83
695.808	43975.76
696.155	43933.51
696.501	43561.31
696.847	43795.43
697.193	43439.96
697.539	43510.24
697.885	43327.87
698.231	43143.02
698.577	43184.37
698.923	43084.71
699.269	42879.52
699.614	42756.36
699.96	42725.63
700.306	42641.79
700.651	42448.8
700.997	42289.03
701.342	42366.77
701.688	42218.75
702.033	42061.24
702.379	41977.4
702.724	41731.98
703.069	41762.26
703.415	41488.15
703.76	41406.11
704.105	41344.2
704.45	41255.38
704.795	41145.1
705.14	40934.04
705.485	40915.28
705.83	40734.27
706.175	40802.06
706.52	40572.46
706.865	40529.98
707.209	40379.02
707.554	40187.62
707.899	40427.38
708.243	40209.31
708.588	40126.83
708.932	39852.26
709.277	39810.9
709.621	39706.05
709.966	39520.06
710.31	39637.8
710.654	39173.41
710.998	39390.8
711.342	39374.76
711.687	39199.84
712.031	39082.79
712.375	39031.04
712.719	39050.92
713.063	38936.58
713.407	38929.57
713.75	38742.46
714.094	38833.53
714.438	38563.03
714.782	38572.52
715.125	38335.91
715.469	38464.5
715.812	38366.19
716.156	38146.54
716.499	38086.88
716.843	38132.08
717.186	37892.31
717.53	38004.4
717.873	38079.87
718.216	37850.95
718.559	37642.37
718.902	37368.03
719.246	37589.27
719.589	37321.7
719.932	37273.34
720.275	37237.64
720.617	37174.81
720.96	37145.89
721.303	37095.27
721.646	37072.44
721.989	36975.27
722.331	37070.18
722.674	36863.64
723.016	36857.31
723.359	36700.25
723.701	36835.61
724.044	36459.35
724.386	36458.67
724.729	36730.98
725.071	36500.03
725.413	36367.15
725.755	36460.71
726.097	36182.07
726.439	36176.65
726.782	36159.47
727.124	36251
727.465	36133.48
727.807	35972.36
728.149	35945.69
728.491	35828.18
728.833	35857.56
729.175	35650.33
729.516	35522.88
729.858	35608.3
730.199	35693.04
730.541	35495.99
730.882	35423.9
731.224	35491.92
731.565	35268.42
731.906	35256.22
732.248	35379.61
732.589	35184.13
732.93	34930.35
733.271	34904.36
733.612	34930.8
733.953	34943.46
734.294	34709.34
734.635	34611.27
734.976	34675.9
735.317	34562.68
735.658	34408.33
735.999	34394.32
736.339	34330.37
736.68	34365.4
737.021	34349.58
737.361	34175.12
737.702	34301.67
738.042	34170.15
738.383	34018.06
738.723	34101.67
739.063	33962.24
739.404	33835.92
739.744	33731.29
740.084	33741.68
740.424	33647.45
740.764	33439.32
741.104	33719.54
741.444	33507.34
741.784	33368.81
742.124	33568.35
742.464	33315.71
742.804	33299.66
743.143	33257.4
743.483	33279.55
743.823	32974.02
744.162	33065.32
744.502	32988.03
744.841	32910.07
745.181	32986.22
745.52	32857.86
745.86	33014.02
746.199	32863.06
746.538	32647.7
746.877	32710.52
747.216	32686.34
747.556	32477.31
747.895	32451.55
748.234	32341.27
748.573	32228.73
748.911	32280.7
749.25	32300.14
749.589	32054.95
749.928	32023.54
750.267	32105.79
750.605	31894.27
750.944	32003.65
751.283	31551.91
751.621	31822.41
751.96	31568.86
752.298	31576.77
752.636	31540.39
752.975	31361.86
753.313	31258.81
753.651	31347.62
753.989	31171.13
754.327	31054.3
754.666	30822.66
755.004	30859.73
755.342	31000.29
755.679	30899.27
756.017	30542.9
756.355	30728.66
756.693	30624.25
757.031	30686.85
757.368	30390.13
757.706	30376.57
758.044	30208.22
758.381	30349.91
758.719	30080.76
759.056	30239.63
759.394	29986.53
759.731	29859.07
760.068	29804.84
760.405	29646.2
760.743	29577.27
761.08	29592.19
761.417	29479.42
761.754	29458.86
762.091	29341.8
762.428	29078.98
762.765	28964.86
763.102	29063.39
763.438	28938.42
763.775	28769.38
764.112	28761.48
764.449	28840.57
764.785	28719.67
765.122	28517.64
765.458	28266.8
765.795	28335.5
766.131	28192
766.467	28157.2
766.804	28030.87
767.14	27958.78
767.476	27905.23
767.812	27781.39
768.148	27847.6
768.485	27661.39
768.821	27441.51
769.157	27376.43
769.492	27358.35
769.828	27208.3
770.164	26941.64
770.5	26905.03
770.836	26857.57
771.171	26693.28
771.507	26689.44
771.842	26481.76
772.178	26530.35
772.513	26333.06
772.849	26211.94
773.184	26078.38
773.519	25994.54
773.855	26023.02
774.19	25883.58
774.525	25866.41
774.86	25730.14
775.195	25699.18
775.53	25459.64
775.865	25386.2
776.2	25266.2
776.535	25124.96
776.87	25048.58
777.205	25017.17
777.539	24797.96
777.874	24965.19
778.209	24681.36
778.543	24573.11
778.878	24439.56
779.212	24432.1
779.547	24292.44
779.881	24303.29
780.215	24137.19
780.55	24180.58
780.884	23959.12
781.218	23868.27
781.552	23933.35
781.886	23827.37
782.22	23575.85
782.554	23463.76
782.888	23348.96
783.222	23360.26
783.556	23149.19
783.889	23037.78
784.223	22990.55
784.557	22959.37
784.89	22984.45
785.224	22815.42
785.557	22761.41
785.891	22725.93
786.224	22661.07
786.558	22595.31
786.891	22352.38
787.224	22249.56
787.557	22239.61
787.891	22209.33
788.224	22180.41
788.557	22258.37
788.89	22086.17
789.223	21910.13
789.556	21926.63
789.888	21731.83
790.221	21669.23
790.554	21490.48
790.887	21578.16
791.219	21530.48
791.552	21317.38
791.884	21217.94
792.217	21169.13
792.549	21136.37
792.882	20921.46
793.214	20852.76
793.546	20866.09
793.879	20753.55
794.211	20573.22
794.543	20723.72
794.875	20576.15
795.207	20598.07
795.539	20456.83
795.871	20416.38
796.203	20197.63
796.535	20162.61
796.867	19984.98
797.198	20041.48
797.53	20001.71
797.862	19844.87
798.193	19839
798.525	19686.69
798.856	19707.02
799.188	19482.4
799.519	19477.2
799.85	19231.78
800.182	19380.71
800.513	19344.55
800.844	19147.49
801.175	19294.61
801.506	19167.6
801.837	19020.04
802.168	19084.44
802.499	18881.28
802.83	18971.9
803.161	18862.53
803.491	18780.04
803.822	18855.52
804.153	18677.22
804.483	18584.57
804.814	18441.07
805.145	18504.34
805.475	18549.99
805.805	18476.77
806.136	18459.6
806.466	18363.33
806.796	18352.26
807.126	18129.44
807.457	18141.87
807.787	18171.92
808.117	18064.81
808.447	17962.66
808.777	18049.44
809.107	17950.23
809.436	17913.63
809.766	17901.65
810.096	17827.53
810.426	17666.85
810.755	17670.47
811.085	17586.18
811.414	17602.67
811.744	17461.43
812.073	17492.85
812.403	17462.34
812.732	17307.77
813.061	17269.12
813.39	17248.78
813.719	17173.76
814.049	17307.77
814.378	17142.8
814.707	17077.04
815.036	17124.49
815.365	16941.45
815.693	16748.23
816.022	16842.92
816.351	16683.6
816.68	16722.47
817.008	16783.26
817.337	16497.39
817.665	16420.33
817.994	16606.77
818.322	16522.02
818.651	16374.68
818.979	16331.97
819.307	16440.44
819.636	16325.19
819.964	16246.78
820.292	16355.25
820.62	16250.62
820.948	16104.18
821.276	16270.5
821.604	16220.79
821.932	16256.72
822.259	16290.84
822.587	16132.65
822.915	16208.13
823.243	16215.59
823.57	16196.38
823.898	16212.43
824.225	16086.33
824.553	16102.6
824.88	16180.56
825.207	16146.67
825.535	16082.94
825.862	16122.94
826.189	16065.54
826.516	16191.41
826.843	16218.98
827.17	16189.6
827.497	16143.5
827.824	16169.04
828.151	16173.33
828.478	16094.69
828.805	16204.29
829.131	16028.25
829.458	15996.84
829.785	16088.59
830.111	16048.14
830.438	16133.56
830.764	16099.44
831.09	16118.64
831.417	16054.69
831.743	16065.31
832.069	16037.29
832.395	15966.78
832.722	15974.47
833.048	15944.64
833.374	16057.63
833.7	15915.94
834.026	15838.43
834.351	15959.1
834.677	15967.91
835.003	15971.76
835.329	15892.89
835.654	15828.26
835.98	15822.83
836.306	15831.87
836.631	15770.63
836.956	15865.32
837.282	15720.69
837.607	15632.78
837.932	15561.14
838.258	15663.74
838.583	15692.89
838.908	15582.16
839.233	15680.92
839.558	15566.34
839.883	15523.63
840.208	15431.43
840.533	15405.22
840.858	15461.03
841.182	15500.13
841.507	15393.01
841.832	15276.41
842.156	15222.17
842.481	15276.18
842.805	15204.09
843.13	15180.36
843.454	15200.48
843.778	15166.8
844.103	15068.5
844.427	15101.5
844.751	15077.54
845.075	15010.2
845.399	14981.27
845.723	14888.17
846.047	14929.52
846.371	14833.48
846.695	14774.27
847.019	14646.59
847.343	14648.63
847.666	14482.53
847.99	14593.26
848.313	14536.54
848.637	14491.34
848.96	14459.48
849.284	14429.42
849.607	14263.33
849.931	14250.44
850.254	14151.69
850.577	14097.45
850.9	14083.44
851.223	14087.51
851.546	13987.4
851.869	13814.52
852.192	13972.94
852.515	13849.1
852.838	13779.5
853.161	13734.07
853.483	13659.27
853.806	13635.32
854.129	13619.5
854.451	13522.33
854.774	13444.82
855.096	13413.86
855.419	13389.45
855.741	13388.32
856.063	13321.2
856.385	13284.14
856.708	13215.22
857.03	13112.17
857.352	13070.14
857.674	13135.45
857.996	13062.91
858.318	12998.5
858.64	13082.79
858.961	12993.98
859.283	12905.17
859.605	12942
859.926	12832.85
860.248	12854.1
860.57	12743.14
860.891	12798.28
861.212	12782.69
861.534	12803.7
861.855	12673.31
862.176	12765.74
862.498	12651.84
862.819	12744.95
863.14	12672.18
863.461	12645.51
863.782	12714.21
864.103	12664.27
864.424	12619.07
864.745	12606.42
865.065	12500.89
865.386	12508.34
865.707	12480.77
866.027	12541.79
866.348	12447.78
866.668	12478.06
866.989	12497.95
867.309	12290.27
867.63	12427.67
867.95	12461.34
868.27	12255.02
868.59	12291.17
868.91	12280.55
869.23	12285.07
869.55	12195.36
869.87	12213.66
870.19	12286.65
870.51	12210.27
870.83	12313.77
871.15	12101.57
871.469	12155.36
871.789	12159.88
872.109	12101.57
872.428	12059.77
872.748	12147.9
873.067	12078.98
873.386	12074.68
873.706	12127.11
874.025	12085.53
874.344	12000.79
874.663	11959.66
874.982	11907.91
875.301	11994.68
875.62	11922.37
875.939	11951.75
876.258	11919.88
876.577	11858.19
876.896	11851.86
877.214	11889.15
877.533	11810.28
877.852	11798.31
878.17	11858.87
878.489	11818.64
878.807	11732.77
879.125	11680.57
879.444	11653.22
879.762	11728.25
880.08	11752.88
880.398	11651.64
880.716	11665.65
881.034	11642.38
881.352	11720.57
881.67	11562.38
881.988	11562.15
882.306	11611.64
882.624	11560.57
882.941	11518.76
883.259	11504.08
883.577	11516.05
883.894	11431.54
884.212	11389.05
884.529	11450.97
884.846	11427.69
885.164	11342.05
885.481	11331.43
885.798	11296.85
886.115	11217.53
886.432	11164.42
886.75	11291.88
887.067	11248.94
887.383	11134.82
887.7	11203.97
888.017	11163.75
888.334	11159.68
888.651	11099.57
888.967	11012.79
889.284	10955.62
889.6	11017.54
889.917	10897.76
890.233	10906.35
890.55	10845.11
890.866	10893.24
891.182	10874.94
891.498	10829.52
891.815	10770.54
892.131	10803.76
892.447	10712.23
892.763	10733.93
893.079	10740.71
893.395	10691.89
893.71	10702.06
894.026	10624.55
894.342	10602.86
894.657	10522.86
894.973	10511.11
895.289	10520.37
895.604	10497.32
895.92	10423.2
896.235	10457.32
896.55	10448.28
896.865	10346.14
897.181	10312.02
897.496	10279.25
897.811	10215.75
898.126	10238.12
898.441	10245.35
898.756	10168.97
899.071	10109.76
899.386	10123.77
899.7	10047.17
900.015	10020.73
900.33	10017.79
900.644	10039.26
900.959	10011.46
901.273	9925.59
901.588	9937.56
901.902	9855.98
902.216	9779.83
902.531	9810.11
902.845	9802.88
903.159	9722.43
903.473	9764.46
903.787	9699.83
904.101	9628.87
904.415	9667.51
904.729	9608.53
905.042	9569.66
905.356	9518.82
905.67	9546.16
905.984	9499.38
906.297	9383.23
906.611	9346.39
906.924	9391.82
907.237	9335.55
907.551	9301.2
907.864	9286.73
908.177	9254.87
908.491	9218.26
908.804	9148.66
909.117	9219.39
909.43	9091.71
909.743	9081.54
910.056	9030.24
910.368	9097.59
910.681	8943.47
910.994	8957.48
911.307	8894.88
911.619	8834.54
911.932	8844.94
912.244	8794.32
912.557	8826.86
912.869	8747.99
913.181	8692.62
913.494	8652.4
913.806	8637.03
914.118	8611.95
914.43	8577.83
914.742	8550.93
915.054	8477.26
915.366	8410.82
915.678	8452.86
915.99	8384.61
916.302	8364.95
916.613	8357.49
916.925	8293.76
917.236	8373.54
917.548	8242.69
917.859	8213.09
918.171	8214.67
918.482	8126.76
918.794	8016.03
919.105	8136.93
919.416	8033.66
919.727	8055.58
920.038	8008.35
920.349	7983.94
920.66	7993.21
920.971	7926.77
921.282	7925.19
921.593	7807.45
921.903	7834.79
922.214	7773.55
922.525	7779.2
922.835	7774.68
923.146	7685.87
923.456	7702.37
923.767	7627.79
924.077	7651.3
924.387	7567.23
924.697	7597.74
925.008	7533.56
925.318	7425.09
925.628	7472.77
925.938	7463.28
926.248	7400.91
926.558	7323.85
926.867	7333.34
927.177	7320.91
927.487	7273.45
927.796	7218.54
928.106	7171.76
928.416	7252.21
928.725	7181.93
929.034	7098.32
929.344	7146.68
929.653	7107.13
929.962	7095.83
930.271	7045.21
930.581	6998.66
930.89	6937.87
931.199	6973.8
931.508	6899
931.817	6967.7
932.125	6931.99
932.434	6891.32
932.743	6770.64
933.051	6787.82
933.36	6775.16
933.669	6737.65
933.977	6737.42
934.286	6710.08
934.594	6639.8
934.902	6688.16
935.21	6589.18
935.519	6563.41
935.827	6593.92
936.135	6532
936.443	6536.07
936.751	6483.19
937.059	6488.61
937.367	6377.21
937.674	6438.9
937.982	6370.43
938.29	6404.55
938.597	6422.85
938.905	6273.93
939.213	6307.6
939.52	6197.32
939.827	6301.27
940.135	6180.15
940.442	6169.75
940.749	6083.65
941.056	6186.93
941.363	6089.08
941.67	6026.48
941.977	6033.94
942.284	5978.57
942.591	6044.78
942.898	5966.59
943.205	5944.9
943.511	5930.21
943.818	5936.54
944.125	5878.01
944.431	5876.88
944.738	5824.68
945.044	5810.67
945.35	5767.73
945.657	5690.9
945.963	5735.64
946.269	5670.78
946.575	5688.18
946.881	5649.54
947.187	5611.12
947.493	5647.05
947.799	5593.95
948.105	5561.18
948.41	5560.28
948.716	5522.76
949.022	5480.73
949.327	5484.8
949.633	5376.1
949.938	5421.07
950.244	5419.26
950.549	5287.29
950.854	5330.45
951.16	5297.91
951.465	5305.82
951.77	5253.62
952.075	5243.45
952.38	5287.97
952.685	5188.08
952.99	5176.11
953.294	5141.53
953.599	5092.04
953.904	5049.33
954.209	5062.44
954.513	5115.32
954.818	5046.39
955.122	5069.67
955.426	5007.07
955.731	4996.9
956.035	4952.16
956.339	4950.12
956.643	4895.21
956.948	4891.59
957.252	4908.09
957.556	4893.63
957.86	4828.09
958.163	4839.62
958.467	4829.68
958.771	4768.43
959.075	4810.01
959.378	4753.75
959.682	4718.94
959.985	4699.06
960.289	4688.44
960.592	4668.55
960.896	4661.54
961.199	4691.15
961.502	4604.82
961.805	4598.27
962.108	4532.96
962.411	4589
962.714	4568.89
963.017	4511.94
963.32	4577.48
963.623	4521.43
963.926	4469.01
964.228	4434.88
964.531	4466.07
964.833	4455.67
965.136	4351.72
965.438	4388.56
965.741	4372.96
966.043	4319.86
966.345	4384.26
966.648	4333.19
966.95	4299.29
967.252	4283.47
967.554	4280.09
967.856	4254.32
968.158	4256.13
968.46	4213.65
968.761	4143.59
969.063	4130.03
969.365	4145.85
969.666	4157.83
969.968	4078.73
970.269	4064.5
970.571	4024.72
970.872	4062.46
971.174	4022.69
971.475	4046.19
971.776	4030.15
972.077	3922.81
972.378	3984.5
972.679	3922.35
972.98	3925.97
973.281	3914.45
973.582	3905.63
973.883	3864.73
974.183	3842.81
974.484	3874.45
974.785	3816.59
975.085	3829.02
975.386	3816.37
975.686	3747.22
975.986	3778.86
976.287	3705.86
976.587	3707.22
976.887	3698.41
977.187	3712.64
977.487	3733.66
977.787	3674.23
978.087	3614.57
978.387	3615.02
978.687	3662.25
978.987	3622.25
979.286	3570.73
979.586	3556.94
979.885	3544.74
980.185	3532.99
980.484	3494.8
980.784	3503.38
981.083	3476.94
981.382	3481.24
981.682	3439.2
981.981	3450.95
982.28	3444.63
982.579	3411.86
982.878	3441.01
983.177	3427.9
983.475	3399.2
983.774	3369.83
984.073	3345.65
984.372	3349.26
984.67	3356.27
984.969	3324.86
985.267	3318.98
985.566	3283.05
985.864	3286.21
986.162	3282.6
986.461	3234.46
986.759	3239.43
987.057	3177.06
987.355	3178.42
987.653	3169.61
987.951	3175.03
988.249	3161.02
988.547	3181.13
988.844	3112.66
989.142	3114.24
989.44	3081.02
989.737	3075.6
990.035	3090.51
990.332	3042.38
990.63	3057.07
990.927	3032.43
991.224	2999.21
991.521	2989.27
991.819	2968.48
992.116	2969.39
992.413	2950.18
992.71	2939.33
993.006	2966.45
993.303	2912.66
993.6	2874.7
993.897	2865.43
994.193	2866.11
994.49	2867.47
994.787	2820.46
995.083	2853.91
995.379	2776.4
995.676	2804.64
995.972	2770.75
996.268	2789.95
996.565	2766.23
996.861	2716.06
997.157	2728.04
997.453	2733.69
997.749	2726.45
998.044	2643.97
998.34	2678.09
998.636	2684.19
998.932	2610.75
999.227	2625.67
999.523	2622.5
999.818	2610.98
1000.114	2598.77
1000.409	2607.59
1000.704	2573.01
1001	2559
1001.295	2530.3
1001.59	2549.96
1001.885	2522.17
1002.18	2546.35
1002.475	2509.74
1002.77	2462.73
1003.065	2461.83
1003.359	2420.25
1003.654	2435.16
1003.949	2418.44
1004.243	2398.55
1004.538	2375.05
1004.832	2363.75
1005.127	2381.6
1005.421	2344.09
1005.715	2366.46
1006.009	2334.15
1006.304	2336.86
1006.598	2351.77
1006.892	2345.22
1007.186	2277.43
1007.48	2260.7
1007.773	2267.48
1008.067	2260.25
1008.361	2241.95
1008.655	2227.03
1008.948	2170.76
1009.242	2158.33
1009.535	2182.97
1009.829	2144.55
1010.122	2137.32
1010.415	2149.97
1010.708	2119.69
1011.001	2098.45
1011.295	2101.61
1011.588	2089.18
1011.881	2078.34
1012.173	2062.29
1012.466	2060.93
1012.759	2060.93
1013.052	2041.27
1013.344	2047.6
1013.637	2018.68
1013.93	1984.78
1014.222	1998.11
1014.514	1977.77
1014.807	1939.58
1015.099	1915.18
1015.391	1906.81
1015.683	1919.92
1015.976	1931.45
1016.268	1910.88
1016.56	1876.76
1016.851	1861.62
1017.143	1851.67
1017.435	1868.85
1017.727	1862.97
1018.018	1831.56
1018.31	1843.31
1018.602	1836.31
1018.893	1793.6
1019.185	1779.13
1019.476	1772.35
1019.767	1741.62
1020.058	1738.01
1020.35	1748.63
1020.641	1738.91
1020.932	1713.6
1021.223	1709.76
1021.514	1668.4
1021.804	1676.31
1022.095	1677.89
1022.386	1658.23
1022.677	1641.96
1022.967	1646.26
1023.258	1621.85
1023.548	1598.57
1023.839	1598.8
1024.129	1608.52
1024.419	1606.94
1024.709	1592.47
1025	1563.77
1025.29	1560.16
1025.58	1559.7
1025.87	1524.68
1026.16	1499.14
1026.449	1514.06
1026.739	1511.57
1027.029	1498.24
1027.319	1493.27
1027.608	1466.6
1027.898	1467.5
1028.187	1452.36
1028.477	1449.65
1028.766	1432.48
1029.055	1396.09
1029.344	1376.21
1029.634	1394.96
1029.923	1402.87
1030.212	1377.56
1030.501	1400.39
1030.79	1363.78
1031.078	1362.2
1031.367	1359.03
1031.656	1329.43
1031.945	1324.91
1032.233	1306.38
1032.522	1320.61
1032.81	1307.51
1033.099	1278.13
1033.387	1288.53
1033.675	1297.56
1033.963	1297.34
1034.251	1266.83
1034.54	1258.92
1034.828	1215.08
1035.116	1211.47
1035.403	1211.01
1035.691	1199.71
1035.979	1194.06
1036.267	1195.87
1036.554	1179.6
1036.842	1190.9
1037.129	1146.38
1037.417	1152.94
1037.704	1161.3
1037.992	1161.98
1038.279	1123.78
1038.566	1130.11
1038.853	1130.11
1039.14	1130.11
