Data from aluminium_macbook_case_FLMS001491_097.txt Node
Date: Tue Feb 07 10:44:28 GMT 2017
User: dcchb
Spectrometer: FLMS00149
Trigger mode: 0
Integration Time (sec): 2.000000E-2
Scans to average: 10
Electric dark correction enabled: true
Nonlinearity correction enabled: false
Boxcar width: 0
XAxis mode: Wavelengths
Number of Pixels in Spectrum: 2048
>>>>>Begin Spectral Data<<<<<
341.393	-27.89
341.776	-27.89
342.16	-27.89
342.543	-64.05
342.927	-57.5
343.31	-52.3
343.693	-57.5
344.077	-53.66
344.46	-59.31
344.843	-46.88
345.226	-45.3
345.61	-45.3
345.993	-9.14
346.376	-0.1
346.759	8.04
347.142	29.05
347.525	43.06
347.908	58.88
348.291	61.37
348.674	63.63
349.057	105.44
349.44	143.4
349.823	149.28
350.206	191.76
350.588	250.97
350.971	253.23
351.354	252.55
351.737	283.96
352.119	300.91
352.502	321.25
352.884	329.84
353.267	319.89
353.65	366.9
354.032	343.17
354.414	362.83
354.797	376.16
355.179	377.52
355.562	385.88
355.944	390.85
356.326	391.76
356.709	372.32
357.091	417.97
357.473	388.82
357.855	421.13
358.238	431.98
358.62	416.39
359.002	416.84
359.384	402.38
359.766	421.13
360.148	434.47
360.53	445.99
360.912	425.43
361.294	420.23
361.676	419.1
362.057	399.21
362.439	450.51
362.821	427.69
363.203	436.95
363.584	428.59
363.966	441.7
364.348	429.72
364.729	424.75
365.111	417.74
365.493	416.84
365.874	437.4
366.256	438.08
366.637	413.68
367.019	432.21
367.4	421.13
367.781	448.25
368.163	443.28
368.544	443.51
368.925	416.61
369.306	439.66
369.688	443.28
370.069	422.04
370.45	464.3
370.831	439.44
371.212	451.64
371.593	441.47
371.974	462.71
372.355	431.75
372.736	466.1
373.117	470.85
373.498	469.72
373.879	491.64
374.26	449.38
374.641	451.19
375.021	462.49
375.402	458.19
375.783	475.82
376.163	509.72
376.544	520.11
376.925	502.49
377.305	503.16
377.686	502.26
378.066	500.68
378.447	518.53
378.827	523.28
379.208	521.92
379.588	538.64
379.968	527.8
380.349	548.59
380.729	559.66
381.109	552.65
381.489	556.04
381.87	570.06
382.25	571.64
382.63	565.76
383.01	588.59
383.39	611.86
383.77	590.62
384.15	588.81
384.53	585.2
384.91	619.77
385.29	623.84
385.67	622.26
386.049	638.98
386.429	627.91
386.809	672.65
387.189	653.44
387.568	648.7
387.948	655.25
388.328	664.06
388.707	680.34
389.087	723.05
389.466	714.23
389.846	699.09
390.225	716.49
390.605	737.28
390.984	726.66
391.363	752.65
391.743	777.96
392.122	758.98
392.501	779.99
392.881	787.9
393.26	774.57
393.639	789.94
394.018	781.58
394.397	830.61
394.776	832.2
395.155	821.57
395.534	826.77
395.913	861.12
396.292	854.12
396.671	862.7
397.05	851.18
397.429	862.48
397.808	885.53
398.186	902.93
398.565	921.91
398.944	926.2
399.323	919.88
399.701	970.95
400.08	935.7
400.458	955.81
400.837	952.64
401.215	987.67
401.594	994.23
401.972	1018.41
402.351	1028.8
402.729	1031.06
403.107	1034
403.486	1075.58
403.864	1054.34
404.242	1090.27
404.62	1089.82
404.999	1114.9
405.377	1115.58
405.755	1156.48
406.133	1154.67
406.511	1147.89
406.889	1202.13
407.267	1183.37
407.645	1228.34
408.023	1238.74
408.401	1263.82
408.779	1283.94
409.156	1316.02
409.534	1289.58
409.912	1330.26
410.29	1336.36
410.667	1346.08
411.045	1406.42
411.422	1406.87
411.8	1431.28
412.178	1447.09
412.555	1454.33
412.933	1493.2
413.31	1502.91
413.687	1506.08
414.065	1560.99
414.442	1541.78
414.819	1581.78
415.197	1623.14
415.574	1638.28
415.951	1665.17
416.328	1648.9
416.705	1663.36
417.082	1686.41
417.46	1690.48
417.837	1748.78
418.214	1730.93
418.591	1759.18
418.967	1792.17
419.344	1805.96
419.721	1849.12
420.098	1835.79
420.475	1865.84
420.852	1863.58
421.228	1893.41
421.605	1933.86
421.982	1969.57
422.358	1991.49
422.735	2005.95
423.111	1999.85
423.488	2058.6
423.864	2052.28
424.241	2094.76
424.617	2110.81
424.994	2113.74
425.37	2145.61
425.746	2173.18
426.123	2215.66
426.499	2230.35
426.875	2271.71
427.251	2309.22
427.627	2368.43
428.003	2375.66
428.379	2390.35
428.756	2433.28
429.132	2452.94
429.507	2495.65
429.883	2537.69
430.259	2595.09
430.635	2582.21
431.011	2614.07
431.387	2706.04
431.763	2740.62
432.138	2751.02
432.514	2777.46
432.89	2809.77
433.265	2913.95
433.641	2919.6
434.016	2944.23
434.392	2961.18
434.767	3050.22
435.143	3068.52
435.518	3120.95
435.894	3169.99
436.269	3175.64
436.644	3249.53
437.02	3258.57
437.395	3275.52
437.77	3328.4
438.145	3410.21
438.52	3440.26
438.895	3428.96
439.271	3479.81
439.646	3559.13
440.021	3598.45
440.395	3607.72
440.77	3581.95
441.145	3642.07
441.52	3729.97
441.895	3694.27
442.27	3725.9
442.645	3767.49
443.019	3871.66
443.394	3822.85
443.769	3856.97
444.143	3848.16
444.518	3931.78
444.892	3935.62
445.267	3954.83
445.641	4022.17
446.016	4047.25
446.39	4067.59
446.764	4122.73
447.139	4130.41
447.513	4169.06
447.887	4195.72
448.262	4216.97
448.636	4263.97
449.01	4336.51
449.384	4396.62
449.758	4363.18
450.132	4449.05
450.506	4473
450.88	4533.79
451.254	4528.6
451.628	4595.94
452.002	4673
452.376	4664.41
452.75	4763.84
453.123	4804.52
453.497	4848.81
453.871	4885.87
454.244	4989.37
454.618	5003.61
454.992	5107.11
455.365	5157.96
455.739	5243.61
456.112	5308.24
456.486	5376.48
456.859	5442.7
457.232	5526.99
457.606	5587.1
457.979	5638.62
458.352	5753.65
458.725	5763.14
459.099	5822.57
459.472	5969.69
459.845	6045.17
460.218	6122.45
460.591	6157.48
460.964	6225.73
461.337	6333.07
461.71	6448.77
462.083	6550.46
462.456	6499.84
462.829	6597.24
463.201	6690.35
463.574	6687.86
463.947	6858.25
464.32	7016.44
464.692	7059.15
465.065	7164.01
465.438	7194.06
465.81	7332.36
466.183	7459.14
466.555	7644.45
466.928	7676.08
467.3	7654.62
467.672	7847.15
468.045	8034.27
468.417	8064.77
468.789	8102.29
469.161	8270.42
469.534	8388.61
469.906	8511.32
470.278	8569.62
470.65	8674.7
471.022	8871.08
471.394	9053.22
471.766	9042.15
472.138	9237.62
472.51	9439.2
472.882	9586.99
473.253	9764.16
473.625	9856.59
473.997	10098.17
474.369	10126.41
474.74	10283.47
475.112	10495.9
475.484	10631.49
475.855	10854.3
476.227	10984.02
476.598	11236.67
476.97	11373.61
477.341	11674.62
477.713	11793.49
478.084	11930.66
478.455	12248.39
478.827	12373.59
479.198	12717.53
479.569	12733.35
479.94	13123.4
480.311	13202.49
480.682	13507.57
481.053	13820.55
481.424	13994.34
481.795	14119.3
482.166	14443.14
482.537	14583.47
482.908	14889.91
483.279	15029.34
483.65	15336.45
484.021	15608.3
484.391	15779.15
484.762	15972.59
485.133	16156.54
485.503	16355.4
485.874	16832.23
486.244	16980.7
486.615	17336.85
486.985	17564.64
487.356	17772.77
487.726	17980.67
488.097	18405.97
488.467	18441.68
488.837	18896.81
489.207	19092.28
489.578	19271.94
489.948	19506.28
490.318	19835.31
490.688	19900.85
491.058	20201.63
491.428	20405.92
491.798	20568.17
492.168	21083.19
492.538	21204.99
492.908	21340.81
493.278	21613.57
493.648	21725.66
494.017	21960.23
494.387	22143.5
494.757	22393.44
495.126	22620.78
495.496	22745.07
495.866	22962.01
496.235	23265.28
496.605	23415.56
496.974	23656.45
497.344	23867.75
497.713	24081.75
498.082	24253.73
498.452	24577.56
498.821	24665.92
499.19	24816.42
499.559	25021.62
499.928	25214.15
500.298	25421.15
500.667	25707.93
501.036	25631.32
501.405	25916.96
501.774	26000.35
502.143	26215.26
502.512	26320.56
502.88	26570.5
503.249	26602.59
503.618	26745.64
503.987	26994.67
504.356	27133.42
504.724	27272.86
505.093	27534.09
505.462	27498.61
505.83	27810.92
506.199	28031.25
506.567	28468.76
506.936	28356.67
507.304	28827.39
507.672	28955.07
508.041	29175.86
508.409	29310.09
508.777	29602.29
509.145	29825.33
509.514	29947.36
509.882	30179.22
510.25	30329.27
510.618	30606.78
510.986	30656.72
511.354	31054.23
511.722	31247.89
512.09	31660.99
512.458	31525.85
512.826	31937.59
513.193	32026.18
513.561	32073.86
513.929	32441.53
514.297	32818.25
514.664	32907.51
515.032	33043.1
515.4	33411.9
515.767	33549.53
516.135	33677.21
516.502	33521.96
516.869	34102.73
517.237	34223.41
517.604	34334.59
517.972	34701.36
518.339	35083.95
518.706	35017.51
519.073	35251.4
519.44	35614.11
519.808	35956.02
520.175	36080.08
520.542	36527.3
520.909	36912.6
521.276	36979.95
521.643	37464.23
522.009	37634.39
522.376	38108.28
522.743	38168.84
523.11	38588.49
523.477	38886.11
523.843	39150.06
524.21	39496.94
524.577	39699.2
524.943	39933.54
525.31	40032.75
525.676	40495.33
526.043	40660.98
526.409	40839.73
526.776	41313.84
527.142	41410.56
527.508	41704.79
527.874	41894.39
528.241	42261.39
528.607	42186.36
528.973	42731.88
529.339	42690.08
529.705	43086
530.071	43386.56
530.437	43454.13
530.803	43893.66
531.169	43992.19
531.535	43983.6
531.901	44311.73
532.267	44594.66
532.632	44899.29
532.998	45031.94
533.364	45401.19
533.73	45530.46
534.095	45900.62
534.461	46037.56
534.826	46219.93
535.192	46287.95
535.557	46724.32
535.923	46667.15
536.288	46772.46
536.653	47053.13
537.019	47024.88
537.384	47288.15
537.749	47436.39
538.114	47522.27
538.479	47477.97
538.845	47865.99
539.21	47684.75
539.575	47978.75
539.94	48096.04
540.305	48285.86
540.67	48198.18
541.034	48588
541.399	48615.12
541.764	48688.79
542.129	48856.7
542.494	48927.2
542.858	49132.17
543.223	49198.38
543.587	49519.95
543.952	49495.1
544.316	49673.4
544.681	49585.49
545.045	49875.2
545.41	50038.13
545.774	50181.41
546.138	50173.95
546.503	50418.24
546.867	50373.27
547.231	50697.33
547.595	50729.19
547.959	50963.76
548.324	50956.98
548.688	51037.2
549.052	51170.99
549.416	51362.62
549.779	51427.7
550.143	51511.32
550.507	51870.18
550.871	51874.02
551.235	51893
551.599	52078.53
551.962	52046.67
552.326	52160.56
552.689	52444.85
553.053	52233.78
553.417	52428.13
553.78	52808.91
554.143	52645.07
554.507	52824.05
554.87	52968.45
555.234	53223.13
555.597	53101.1
555.96	53306.97
556.323	53431.26
556.686	53454.77
557.05	53606.18
557.413	53728.21
557.776	53870.8
558.139	54080.97
558.502	54102.66
558.865	54234.86
559.228	54476.21
559.59	54524.8
559.953	54599.37
560.316	54946.48
560.679	54920.49
561.041	55131.78
561.404	55159.81
561.767	55380.14
562.129	55338.33
562.492	55641.6
562.854	55624.43
563.217	55664.65
563.579	55855.83
563.941	56052.44
564.304	56117.3
564.666	56271.87
565.028	56371.53
565.39	56358.87
565.753	56519.54
566.115	56613.1
566.477	56716.15
566.839	56801.12
567.201	56989.59
567.563	56945.97
567.925	57147.78
568.287	57208.79
568.648	57238.62
569.01	57383.48
569.372	57547.54
569.734	57464.83
570.095	57691.72
570.457	57754.99
570.819	57751.6
571.18	57833.63
571.542	57958.83
571.903	58032.05
572.265	58085.15
572.626	58133.97
572.987	58202.44
573.349	58310.23
573.71	58361.98
574.071	58384.81
574.432	58495.99
574.794	58706.83
575.155	58556.78
575.516	58621.64
575.877	58805.81
576.238	58702.76
576.599	58847.17
576.96	58864.34
577.32	58913.61
577.681	59059.14
578.042	59065.24
578.403	59041.74
578.763	59116.99
579.124	59156.54
579.485	59210.77
579.845	59245.8
580.206	59231.79
580.566	59228.63
580.927	59342.3
581.287	59359.02
581.648	59231.34
582.008	59361.5
582.368	59375.29
582.728	59463.42
583.089	59456.87
583.449	59417.77
583.809	59438.11
584.169	59462.07
584.529	59430.43
584.889	59612.8
585.249	59446.47
585.609	59373.03
585.969	59519.24
586.329	59425.68
586.688	59508.17
587.048	59461.61
587.408	59500.48
587.768	59459.81
588.127	59483.53
588.487	59430.2
588.846	59600.59
589.206	59415.74
589.565	59423.65
589.925	59568.05
590.284	59530.77
590.643	59515.17
591.003	59598.11
591.362	59614.83
591.721	59588.62
592.08	59533.7
592.44	59594.94
592.799	59660.71
593.158	59625
593.517	59620.25
593.876	59709.74
594.235	59650.99
594.593	59649.18
594.952	59691.89
595.311	59577.54
595.67	59651.89
596.029	59738.44
596.387	59773.7
596.746	59807.59
597.104	59725.56
597.463	59755.17
597.822	59778.89
598.18	59705.9
598.538	59657.99
598.897	59816.63
599.255	59660.03
599.613	59975.27
599.972	59862.28
600.33	59883.3
600.688	59833.36
601.046	59937.53
601.404	60009.85
601.762	59956.74
602.12	60021.37
602.478	60011.66
602.836	60102.28
603.194	59961.71
603.552	60003.52
603.91	59933.47
604.268	60017.98
604.625	59951.32
604.983	60067.02
605.341	59977.76
605.698	60024.54
606.056	60184.08
606.413	60112.44
606.771	60185.89
607.128	60180.47
607.485	60036.51
607.843	60128.26
608.2	60257.07
608.557	60318.09
608.914	60208.94
609.272	60391.31
609.629	60354.7
609.986	60446.67
610.343	60351.53
610.7	60588.82
611.057	60467.24
611.414	60497.07
611.771	60489.61
612.127	60611.19
612.484	60590.85
612.841	60688.47
613.198	60605.99
613.554	60588.82
613.911	60794.91
614.267	60723.95
614.624	60654.8
614.98	60756.95
615.337	60814.35
615.693	60697.97
616.05	60685.76
616.406	60917.4
616.762	60807.34
617.118	60822.93
617.475	60863.16
617.831	60914.68
618.187	60885.76
618.543	60929.6
618.899	61042.82
619.255	60993.33
619.611	60995.36
619.967	61050.05
620.323	61078.97
620.678	61052.53
621.034	60918.98
621.39	60963.72
621.746	60955.59
622.101	61128.01
622.457	60921.46
622.812	60994.23
623.168	61042.59
623.523	60997.17
623.879	61141.8
624.234	60919.66
624.589	60972.99
624.945	60994.91
625.3	61020.44
625.655	60992.65
626.01	61020.44
626.365	60970.73
626.72	60922.14
627.075	60931.86
627.43	60898.64
627.785	60883.95
628.14	60960.11
628.495	60911.75
628.85	60915.59
629.205	60801.69
629.559	60934.8
629.914	60776.16
630.269	60765.76
630.623	60798.3
630.978	60690.96
631.332	60811.86
631.687	60778.87
632.041	60747.46
632.396	60799.21
632.75	60625.88
633.104	60693.67
633.459	60563.28
633.813	60565.09
634.167	60604.18
634.521	60560.34
634.875	60606.9
635.229	60531.19
635.583	60448.48
635.937	60458.88
636.291	60455.94
636.645	60432.44
636.999	60396.51
637.352	60411.65
637.706	60252.33
638.06	60311.99
638.413	60320.8
638.767	60220.24
639.121	60249.39
639.474	60155.38
639.828	60110.19
640.181	60132.33
640.534	60082.84
640.888	59973.24
641.241	59861.6
641.594	59940.02
641.947	59964.2
642.301	59895.73
642.654	59836.07
643.007	59842.4
643.36	59785.45
643.713	59763.75
644.066	59959.91
644.419	59674.72
644.771	59490.99
645.124	59302.07
645.477	59262.52
645.83	59091.45
646.182	58923.32
646.535	58820.28
646.888	58893.27
647.24	58729.88
647.593	58867.96
647.945	58820.28
648.298	58594.97
648.65	58594.29
649.002	58546.84
649.355	58656.66
649.707	58621.86
650.059	58719.26
650.411	59000.61
650.763	58976.88
651.115	59293.94
651.467	59185.46
651.819	59165.58
652.171	59031.8
652.523	59052.81
652.875	58985.92
653.227	58969.88
653.578	59068.4
653.93	59005.13
654.282	58814.17
654.633	58818.24
654.985	58900.27
655.337	58906.83
655.688	58911.35
656.039	58961.97
656.391	58714.74
656.742	58754.74
657.094	58744.57
657.445	58878.58
657.796	58854.4
658.147	58742.09
658.498	58790.67
658.849	58791.12
659.2	58742.99
659.551	58573.73
659.902	58630.45
660.253	58661.41
660.604	58628.42
660.955	58427.07
661.306	58533.05
661.656	58522.2
662.007	58514.07
662.358	58444.47
662.708	58478.14
663.059	58377.8
663.409	58281.08
663.76	58410.57
664.11	58324.02
664.461	58414.64
664.811	58343.45
665.161	58280.85
665.511	58197.24
665.862	58320.18
666.212	58349.1
666.562	58289.22
666.912	58220.07
667.262	58112.95
667.612	58152.95
667.962	58161.08
668.312	58164.02
668.662	58228.65
669.011	58141.42
669.361	58105.27
669.711	58088.77
670.06	57998.6
670.41	58002.44
670.76	57964.03
671.109	58117.7
671.459	57974.87
671.808	57961.09
672.157	57973.52
672.507	57796.8
672.856	57864.14
673.205	57872.5
673.554	57925.61
673.904	57826.4
674.253	57979.85
674.602	57901.66
674.951	57485.85
675.3	57454.66
675.649	57820.75
675.998	57772.62
676.346	57804.93
676.695	57864.59
677.044	57677.71
677.393	57767.42
677.741	57803.8
678.09	57721.77
678.438	57613.08
678.787	57578.95
679.135	57613.98
679.484	57439.29
679.832	57483.36
680.181	57385.28
680.529	57479.07
680.877	57366.08
681.225	57340.99
681.573	57410.37
681.922	57240.43
682.27	57098.74
682.618	57175.35
682.966	57068.46
683.314	57105.07
683.661	57032.98
684.009	56870.95
684.357	56866.88
684.705	56751.18
685.053	56684.74
685.4	56680.9
685.748	56609.49
686.095	56510.96
686.443	56454.91
686.79	56454.91
687.138	56444.52
687.485	56398.87
687.832	56344.41
688.18	56306.9
688.527	56195.94
688.874	56102.61
689.221	56028.48
689.568	55948.03
689.915	55961.59
690.262	55924.98
690.609	55747.59
690.956	55680.92
691.303	55704.43
691.65	55536.29
691.997	55565.67
692.344	55434.83
692.69	55388.95
693.037	55402.74
693.383	55150.99
693.73	55272.12
694.077	55073.93
694.423	55190.09
694.769	55056.31
695.116	54969.98
695.462	54941.73
695.808	54877.55
696.155	54940.15
696.501	54649.54
696.847	54672.59
697.193	54445.02
697.539	54569.54
697.885	54395.53
698.231	54285.93
698.577	54232.37
698.923	54223.33
699.269	53956
699.614	53821.08
699.96	53791.03
700.306	53858.6
700.651	53742.67
700.997	53640.75
701.342	53534.31
701.688	53476.46
702.033	53362.57
702.379	53377.03
702.724	53267.43
703.069	53225.17
703.415	52938.17
703.76	52829.92
704.105	52893.88
704.45	52767.33
704.795	52683.26
705.14	52468.8
705.485	52422.7
705.83	52316.04
706.175	52327.34
706.52	52266.78
706.865	52165.99
707.209	52059.32
707.554	51900.46
707.899	51918.99
708.243	51648.26
708.588	51662.27
708.932	51412.33
709.277	51452.79
709.621	51409.62
709.966	51190.19
710.31	51331.43
710.654	51014.83
710.998	51003.98
711.342	51041.95
711.687	50819.58
712.031	50744.56
712.375	50698.68
712.719	50697.33
713.063	50598.34
713.407	50823.42
713.75	50519.48
714.094	50469.76
714.438	50247.85
714.782	50304.79
715.125	50137.79
715.469	50308.18
715.812	50107.06
716.156	49942.32
716.499	50009.66
716.843	49992.26
717.186	49757.91
717.53	49857.57
717.873	49826.39
718.216	49731.02
718.559	49606.05
718.902	49427.3
719.246	49348.89
719.589	49334.88
719.932	49179.62
720.275	49237.48
720.617	49148.44
720.96	48974.66
721.303	49016.92
721.646	48915.23
721.989	48837.04
722.331	48880.65
722.674	48704.61
723.016	48735.34
723.359	48599.3
723.701	48638.17
724.044	48436.14
724.386	48328.8
724.729	48365.41
725.071	48362.02
725.413	48232.98
725.755	48225.07
726.097	47868.02
726.439	47736.73
726.782	47788.02
727.124	47870.05
727.465	47660.34
727.807	47589.16
728.149	47524.98
728.491	47336.51
728.833	47505.32
729.175	47192.56
729.516	47063.52
729.858	47054.03
730.199	46988.72
730.541	46781.27
730.882	46714.61
731.224	46836.41
731.565	46612.69
731.906	46524.33
732.248	46490.88
732.589	46267.39
732.93	46340.6
733.271	46366.14
733.612	46275.07
733.953	46335.18
734.294	45932.48
734.635	45884.8
734.976	45979.48
735.317	45684.35
735.658	45780.39
735.999	45694.52
736.339	45636.67
736.68	45639.83
737.021	45478.25
737.361	45397.58
737.702	45548.76
738.042	45400.74
738.383	45327.3
738.723	45396.9
739.063	45191.71
739.404	45244.14
739.744	44952.84
740.084	44912.84
740.424	45047.76
740.764	44785.84
741.104	44961.66
741.444	44824.26
741.784	44607.09
742.124	44733.64
742.464	44580.65
742.804	44619.97
743.143	44502.01
743.483	44554.66
743.823	44205.74
744.162	44186.99
744.502	44212.98
744.841	44098.85
745.181	44085.07
745.52	44057.05
745.86	44054.34
746.199	43954.23
746.538	43880.33
746.877	43918.52
747.216	43770.05
747.556	43637.4
747.895	43570.73
748.234	43398.99
748.573	43475.59
748.911	43435.14
749.25	43327.58
749.589	43008.94
749.928	43043.52
750.267	43196.96
750.605	42923.52
750.944	42832.22
751.283	42596.75
751.621	42686.46
751.96	42447.82
752.298	42417.77
752.636	42502.29
752.975	42120.6
753.313	42027.27
753.651	42014.16
753.989	41741.85
754.327	41779.14
754.666	41384.12
755.004	41408.98
755.342	41574.85
755.679	41336.89
756.017	41189.55
756.355	41182.32
756.693	40956.79
757.031	40909.11
757.368	40771.26
757.706	40677.93
758.044	40495.79
758.381	40429.57
758.719	40376.47
759.056	40365.85
759.394	40118.62
759.731	39806.99
760.068	39816.71
760.405	39703.04
760.743	39420.11
761.08	39492.42
761.417	39380.79
761.754	39206.78
762.091	39185.99
762.428	39073.68
762.765	38868.26
763.102	38946.67
763.438	38858.54
763.775	38574.25
764.112	38653.12
764.449	38637.53
764.785	38279.12
765.122	38238.22
765.458	38040.03
765.795	37952.58
766.131	37912.35
766.467	37814.5
766.804	37740.6
767.14	37491.12
767.476	37492.47
767.812	37295.64
768.148	37366.83
768.485	37042.09
768.821	36921.64
769.157	37019.72
769.492	36860.17
769.828	36974.3
770.164	36498.6
770.5	36537.7
770.836	36349
771.171	36100.19
771.507	36102.91
771.842	35727.1
772.178	35763.71
772.513	35595.58
772.849	35625.41
773.184	35408.69
773.519	35379.54
773.855	35367.33
774.19	35230.84
774.525	34977.74
774.86	35070.62
775.195	34861.36
775.53	34613
775.865	34605.09
776.2	34299.56
776.535	34065.22
776.87	34045.56
777.205	33954.26
777.539	33706.81
777.874	33886.02
778.209	33395.63
778.543	33220.72
778.878	33097.56
779.212	33071.8
779.547	32873.16
779.881	32827.51
780.215	32556.11
780.55	32605.15
780.884	32495.09
781.218	32320.63
781.552	32232.27
781.886	32064.37
782.22	31892.4
782.554	31828.22
782.888	31455.57
783.222	31373.77
783.556	31272.53
783.889	31202.02
784.223	31114.34
784.557	30825.98
784.89	30934.91
785.224	30671.41
785.557	30427.35
785.891	30370.18
786.224	30200.24
786.558	30177.64
786.891	29935.16
787.224	29893.35
787.557	29744.43
787.891	29789.63
788.224	29817.42
788.557	29761.6
788.89	29432.57
789.223	29549.63
789.556	29242.07
789.888	29175.86
790.221	29103.54
790.554	29031.45
790.887	29043.66
791.219	28812.02
791.552	28795.75
791.884	28608.64
792.217	28497
792.549	28373.17
792.882	28244.81
793.214	28239.16
793.546	28235.54
793.879	28034.42
794.211	27972.05
794.543	27938.83
794.875	27979.28
795.207	27979.96
795.539	27881.43
795.871	27648.67
796.203	27548.33
796.535	27383.14
796.867	27331.16
797.198	27379.75
797.53	27315.57
797.862	26972.98
798.193	27177.94
798.525	26907.89
798.856	26904.96
799.188	26708.8
799.519	26609.6
799.85	26424.29
800.182	26465.87
800.513	26401.01
800.844	26229.72
801.175	26448.92
801.506	26343.39
801.837	26118.99
802.168	26091.64
802.499	26038.99
802.83	25812.33
803.161	25659.34
803.491	25659.57
803.822	25730.3
804.153	25565.78
804.483	25364.43
804.814	25176.64
805.145	25172.12
805.475	25154.04
805.805	25122.63
806.136	25054.61
806.466	25001.05
806.796	24931.9
807.126	24691.23
807.457	24619.37
807.787	24610.78
808.117	24483.78
808.447	24410.56
808.777	24484.68
809.107	24310.9
809.436	24138.02
809.766	24124.46
810.096	24057.12
810.426	23975.77
810.755	23935.54
811.085	23851.93
811.414	23713.85
811.744	23489.68
812.073	23404.26
812.403	23533.97
812.732	23371.49
813.061	23354.32
813.39	23151.61
813.719	23111.61
814.049	23283.58
814.378	23011.05
814.707	23092.63
815.036	23035.68
815.365	22973.99
815.693	22662.58
816.022	22810.37
816.351	22707.55
816.68	22570.83
817.008	22559.08
817.337	22503.72
817.665	22487.67
817.994	22492.64
818.322	22410.84
818.651	22270.95
818.979	22242.03
819.307	22358.64
819.636	22321.35
819.964	22142.6
820.292	22177.4
820.62	22268.92
820.948	22067.34
821.276	22253.33
821.604	22141.92
821.932	22200.67
822.259	22175.14
822.587	22192.09
822.915	22130.39
823.243	22258.75
823.57	22136.72
823.898	22214.68
824.225	22084.07
824.553	22106.21
824.88	22186.21
825.207	22196.15
825.535	22218.98
825.862	22225.76
826.189	22212.65
826.516	22416.03
826.843	22224.4
827.17	22337.62
827.497	22283.83
827.824	22272.08
828.151	22314.79
828.478	22170.84
828.805	22361.57
829.131	22176.27
829.458	22194.8
829.785	22034.35
830.111	22165.19
830.438	22171.75
830.764	22135.82
831.09	22186.44
831.417	22080.22
831.743	22030.06
832.069	22091.75
832.395	22078.19
832.722	22199.54
833.048	21889.95
833.374	22006.55
833.7	21898.31
834.026	21845.88
834.351	21772.44
834.677	21833
835.003	21929.27
835.329	21889.95
835.654	21750.97
835.98	21725.21
836.306	21716.84
836.631	21514.59
836.956	21643.85
837.282	21552.33
837.607	21467.59
837.932	21346.23
838.258	21477.08
838.583	21398.21
838.908	21187.37
839.233	21242.28
839.558	21191.66
839.883	21111.89
840.208	21014.04
840.533	21070.53
840.858	21034.38
841.182	21061.49
841.507	21049.52
841.832	20892.91
842.156	20862.18
842.481	20872.8
842.805	20788.96
843.13	20691.33
843.454	20697.89
843.778	20663.54
844.103	20526.59
844.427	20369.31
844.751	20371.57
845.075	20386.26
845.399	20313.49
845.723	20249.76
846.047	20166.6
846.371	20129.99
846.695	20166.83
847.019	19990.56
847.343	19886.61
847.666	19774.07
847.99	19730
848.313	19703.56
848.637	19535.66
848.96	19529.56
849.284	19579.27
849.607	19493.85
849.931	19284.59
850.254	19133.18
850.577	19182
850.9	18984.71
851.223	19080.98
851.546	18840.76
851.869	18722.8
852.192	18956.69
852.515	18692.29
852.838	18656.59
853.161	18701.56
853.483	18521.22
853.806	18538.62
854.129	18471.73
854.451	18439.64
854.774	18348.57
855.096	18291.4
855.419	18337.72
855.741	18234
856.063	18121.01
856.385	18180.44
856.708	18096.15
857.03	18068.8
857.352	18156.49
857.674	17915.59
857.996	17956.94
858.318	17909.94
858.64	18024.96
858.961	17812.31
859.283	17784.97
859.605	17677.18
859.926	17718.31
860.248	17739.55
860.57	17661.81
860.891	17722.15
861.212	17524.86
861.534	17507.24
861.855	17486.45
862.176	17545.43
862.498	17478.31
862.819	17482.83
863.14	17445.09
863.461	17347.92
863.782	17346.11
864.103	17263.18
864.424	17264.31
864.745	17191.77
865.065	17179.11
865.386	17081.49
865.707	17197.87
866.027	17057.31
866.348	17113.12
866.668	17075.16
866.989	17099.79
867.309	16860.93
867.63	16917.2
867.95	16802.62
868.27	16759.91
868.59	16790.19
868.91	16922.85
869.23	16617.32
869.55	16665.45
869.87	16760.36
870.19	16618
870.51	16741.61
870.83	16596.53
871.15	16505.68
871.469	16521.73
871.789	16571.67
872.109	16473.37
872.428	16416.64
872.748	16478.56
873.067	16451.45
873.386	16499.58
873.706	16432.01
874.025	16313.82
874.344	16201.28
874.663	16320.38
874.982	16232.69
875.301	16252.13
875.62	16172.36
875.939	16200.83
876.258	16144.11
876.577	16133.49
876.896	16126.48
877.214	15980.5
877.533	16029.31
877.852	16039.71
878.17	15985.02
878.489	16037.9
878.807	15981.63
879.125	15938.47
879.444	15843.1
879.762	15803.55
880.08	15762.65
880.398	15660.96
880.716	15804.91
881.034	15684.91
881.352	15709.09
881.67	15636.33
881.988	15665.48
882.306	15592.71
882.624	15542.09
882.941	15557.01
883.259	15423
883.577	15406.73
883.894	15441.75
884.212	15333.51
884.529	15341.87
884.846	15438.37
885.164	15306.84
885.481	15356.11
885.798	15329.22
886.115	15200.63
886.432	15308.2
886.75	15283.34
887.067	15217.81
887.383	15112.5
887.7	15177.58
888.017	15195.66
888.334	15130.35
888.651	15058.71
888.967	15077.24
889.284	15039.05
889.6	14945.5
889.917	14840.87
890.233	14983.91
890.55	14802.22
890.866	14953.86
891.182	14812.39
891.498	14725.84
891.815	14726.75
892.131	14666.86
892.447	14549.58
892.763	14568.11
893.079	14601.78
893.395	14555.22
893.71	14483.14
894.026	14504.15
894.342	14489.24
894.657	14453.98
894.973	14377.6
895.289	14316.81
895.604	14300.32
895.92	14217.15
896.235	14245.63
896.55	14176.7
896.865	14218.06
897.181	14155.24
897.496	14018.29
897.811	14018.29
898.126	13988.23
898.441	13824.4
898.756	13814.23
899.071	13744.85
899.386	13818.97
899.7	13683.84
900.015	13767
900.33	13613.1
900.644	13612.42
900.959	13555.02
901.273	13446.1
901.588	13440
901.902	13375.14
902.216	13341.47
902.531	13277.97
902.845	13304.18
903.159	13135.83
903.473	13080.69
903.787	13150.52
904.101	12994.14
904.415	12996.17
904.729	12910.97
905.042	12827.59
905.356	12877.53
905.67	12841.15
905.984	12753.01
906.297	12684.54
906.611	12682.51
906.924	12605.9
907.237	12564.09
907.551	12553.92
907.864	12447.26
908.177	12417.2
908.491	12422.63
908.804	12306.7
909.117	12220.14
909.43	12174.04
909.743	12143.54
910.056	12109.64
910.368	12088.17
910.681	11939.7
910.994	11945.35
911.307	11888.63
911.619	11820.83
911.932	11818.8
912.244	11757.78
912.557	11726.15
912.869	11564.57
913.181	11525.7
913.494	11532.48
913.806	11473.5
914.118	11433.27
914.43	11348.76
914.742	11341.75
915.054	11285.71
915.366	11239.38
915.678	11198.02
915.99	11192.15
916.302	11045.26
916.613	11091.36
916.925	11021.53
917.236	11030.35
917.548	10886.62
917.859	11005.26
918.171	10838.49
918.482	10808.43
918.794	10753.29
919.105	10668.1
919.416	10621.09
919.727	10633.75
920.038	10621.54
920.349	10572.28
920.66	10473.3
920.971	10604.82
921.282	10451.15
921.593	10457.03
921.903	10342.68
922.214	10303.59
922.525	10324.38
922.835	10228.56
923.146	10228.78
923.456	10118.28
923.767	10184.49
924.077	10121.89
924.387	10103.36
924.697	10024.27
925.008	10105.4
925.318	9943.37
925.628	9906.53
925.938	9884.16
926.248	9782.69
926.558	9815.69
926.867	9749.93
927.177	9741.79
927.487	9661.34
927.796	9604.85
928.106	9605.3
928.416	9525.3
928.725	9568.69
929.034	9500.67
929.344	9562.14
929.653	9504.74
929.962	9416.15
930.271	9350.84
930.581	9332.54
930.89	9291.86
931.199	9166.89
931.508	9230.39
931.817	9198.76
932.125	9156.5
932.434	9168.47
932.743	8993.56
933.051	8992.21
933.36	8944.98
933.669	8926.9
933.977	8930.74
934.286	8862.04
934.594	8864.98
934.902	8842.83
935.21	8766
935.519	8799.9
935.827	8763.96
936.135	8646.91
936.443	8646
936.751	8606.45
937.059	8555.61
937.367	8503.41
937.674	8460.47
937.982	8452.33
938.29	8437.87
938.597	8400.81
938.905	8236.29
939.213	8310.42
939.52	8254.83
939.827	8246.92
940.135	8164.66
940.442	8095.06
940.749	8138.22
941.056	8199.01
941.363	8036.07
941.67	8057.99
941.977	7994.72
942.284	7899.58
942.591	7976.19
942.898	7900.26
943.205	7829.3
943.511	7792.69
943.818	7820.94
944.125	7728.06
944.431	7682.19
944.738	7672.92
945.044	7669.53
945.35	7565.58
945.657	7550.66
945.963	7505.01
946.269	7476.54
946.575	7465.92
946.881	7397.67
947.187	7355.64
947.493	7375.98
947.799	7317.9
948.105	7218.24
948.41	7265.25
948.716	7189.99
949.022	7208.53
949.327	7171.46
949.633	7064.35
949.938	7060.05
950.244	7023.67
950.549	7015.31
950.854	6920.17
951.16	6971.47
951.465	6880.62
951.77	6895.99
952.075	6802.21
952.38	6829.55
952.685	6789.1
952.99	6779.61
953.294	6713.4
953.599	6619.39
953.904	6637.01
954.209	6581.2
954.513	6645.15
954.818	6564.93
955.122	6551.37
955.426	6493.97
955.731	6457.13
956.035	6407.42
956.339	6437.47
956.643	6458.49
956.948	6301.88
957.252	6310.7
957.556	6281.32
957.86	6266.4
958.163	6299.62
958.467	6206.74
958.771	6232.51
959.075	6213.75
959.378	6184.15
959.682	6128.78
959.985	6088.1
960.289	6058.05
960.592	6024.6
960.896	5992.06
961.199	6038.39
961.502	5980.76
961.805	5985.05
962.108	5863.7
962.411	5865.06
962.714	5846.08
963.017	5856.24
963.32	5809.24
963.623	5816.25
963.926	5776.02
964.228	5733.31
964.531	5721.78
964.833	5722.24
965.136	5668.68
965.438	5652.41
965.741	5593.65
966.043	5603.14
966.345	5583.94
966.648	5569.7
966.95	5587.32
967.252	5569.92
967.554	5558.17
967.856	5509.81
968.158	5445.41
968.46	5478.18
968.761	5423.49
969.063	5421.91
969.365	5389.59
969.666	5355.69
969.968	5346.65
970.269	5336.48
970.571	5320.89
970.872	5268.24
971.174	5210.84
971.475	5233.89
971.776	5170.61
972.077	5260.78
972.378	5129.71
972.679	5126.77
972.98	5164.06
973.281	5103.27
973.582	5062.14
973.883	5058.07
974.183	5083.16
974.484	5034.35
974.785	4962.03
975.085	4997.96
975.386	5004.74
975.686	4934.69
975.986	4897.63
976.287	4906.21
976.587	4867.57
976.887	4860.79
977.187	4782.83
977.487	4830.96
977.787	4708.7
978.087	4735.14
978.387	4752.54
978.687	4711.64
978.987	4717.52
979.286	4688.37
979.586	4686.56
979.885	4646.56
980.185	4652.21
980.484	4590.51
980.784	4653.79
981.083	4534.02
981.382	4512.78
981.682	4515.49
981.981	4563.4
982.28	4507.35
982.579	4443.4
982.878	4493.12
983.177	4421.03
983.475	4393.91
983.774	4348.04
984.073	4328.15
984.372	4317.53
984.67	4294.48
984.969	4308.94
985.267	4250.18
985.566	4262.61
985.864	4247.7
986.162	4148.94
986.461	4226.91
986.759	4141.04
987.057	4080.7
987.355	4099.91
987.653	4129.51
987.951	4070.98
988.249	4049.74
988.547	4050.64
988.844	4032.11
989.142	4004.77
989.44	3951.89
989.737	3962.06
990.035	3967.71
990.332	3918.67
990.63	3857.43
990.927	3882.51
991.224	3830.76
991.521	3827.6
991.819	3847.26
992.116	3790.54
992.413	3789.18
992.71	3767.71
993.006	3750.99
993.303	3734.72
993.6	3698.11
993.897	3708.5
994.193	3651.33
994.49	3647.26
994.787	3619.47
995.083	3601.16
995.379	3609.52
995.676	3591.22
995.972	3531.11
996.268	3557.55
996.565	3531.33
996.861	3491.33
997.157	3477.78
997.453	3444.33
997.749	3469.64
998.044	3407.5
998.34	3404.78
998.636	3408.4
998.932	3325.69
999.227	3335.63
999.523	3347.16
999.818	3301.06
1000.114	3280.94
1000.409	3258.8
1000.704	3282.98
1001	3257.22
1001.295	3221.74
1001.59	3200.04
1001.885	3215.64
1002.18	3169.08
1002.475	3133.15
1002.77	3117.79
1003.065	3155.98
1003.359	3079.82
1003.654	3080.5
1003.949	3036.21
1004.243	3018.35
1004.538	2981.52
1004.832	2976.55
1005.127	2986.94
1005.421	2952.37
1005.715	2935.19
1006.009	2941.74
1006.304	2938.13
1006.598	2894.51
1006.892	2865.81
1007.186	2837.57
1007.48	2853.16
1007.773	2863.33
1008.067	2818.81
1008.361	2825.82
1008.655	2779.49
1008.948	2796.89
1009.242	2757.34
1009.535	2691.13
1009.829	2729.09
1010.122	2701.3
1010.415	2697.46
1010.708	2698.36
1011.001	2645.03
1011.295	2637.35
1011.588	2643
1011.881	2596.44
1012.173	2642.09
1012.466	2574.07
1012.759	2567.97
1013.052	2569.1
1013.344	2568.2
1013.637	2545.82
1013.93	2530.46
1014.222	2495.2
1014.514	2499.27
1014.807	2493.39
1015.099	2456.33
1015.391	2437.35
1015.683	2472.15
1015.976	2419.72
1016.268	2376.56
1016.56	2378.82
1016.851	2367.52
1017.143	2360.74
1017.435	2340.63
1017.727	2320.07
1018.018	2299.5
1018.31	2322.1
1018.602	2276.45
1018.893	2263.8
1019.185	2257.24
1019.476	2241.65
1019.767	2231.48
1020.058	2215.21
1020.35	2184.25
1020.641	2168.43
1020.932	2161.88
1021.223	2166.85
1021.514	2155.1
1021.804	2129.34
1022.095	2094.99
1022.386	2088.21
1022.677	2051.82
1022.967	2050.02
1023.258	2031.49
1023.548	2057.47
1023.839	1999.4
1024.129	2000.98
1024.419	2010.7
1024.709	1983.35
1025	1956.91
1025.29	1931.38
1025.58	1925.73
1025.87	1899.29
1026.16	1894.99
1026.449	1890.25
1026.739	1855.45
1027.029	1880.98
1027.319	1829.23
1027.608	1833.07
1027.898	1818.61
1028.187	1775
1028.477	1782.68
1028.766	1772.74
1029.055	1799.18
1029.344	1735
1029.634	1747.65
1029.923	1713.3
1030.212	1700.87
1030.501	1697.94
1030.79	1697.94
1031.078	1676.24
1031.367	1694.32
1031.656	1664.49
1031.945	1655
1032.233	1629.69
1032.522	1622.46
1032.81	1629.69
1033.099	1621.78
1033.387	1600.09
1033.675	1558.5
1033.963	1567.32
1034.251	1540.88
1034.54	1561.67
1034.828	1533.87
1035.116	1510.82
1035.403	1481.9
1035.691	1499.97
1035.979	1476.47
1036.267	1467.66
1036.554	1471.5
1036.842	1445.06
1037.129	1432.86
1037.417	1436.7
1037.704	1417.49
1037.992	1406.64
1038.279	1385.4
1038.566	1373.65
1038.853	1373.65
1039.14	1373.65
