Data from aluminium_macbook_case_FLMS001491_057.txt Node
Date: Tue Feb 07 10:43:50 GMT 2017
User: dcchb
Spectrometer: FLMS00149
Trigger mode: 0
Integration Time (sec): 2.000000E-2
Scans to average: 10
Electric dark correction enabled: true
Nonlinearity correction enabled: false
Boxcar width: 0
XAxis mode: Wavelengths
Number of Pixels in Spectrum: 2048
>>>>>Begin Spectral Data<<<<<
341.393	-4.14
341.776	-4.14
342.16	-4.14
342.543	-74.19
342.927	-63.57
343.31	-83.01
343.693	-76.23
344.077	-69.67
344.46	-65.38
344.843	-73.06
345.226	-19.05
345.61	-21.31
345.993	-15.66
346.376	5.13
346.759	-10.47
347.142	20.95
347.525	47.84
347.908	54.17
348.291	99.81
348.674	98.68
349.057	107.27
349.44	123.32
349.823	146.14
350.206	178.23
350.588	253.48
350.971	263.2
351.354	286.48
351.737	284.67
352.119	308.17
352.502	306.81
352.884	345.91
353.267	323.76
353.65	343.2
354.032	341.62
354.414	380.26
354.797	376.87
355.179	370.77
355.562	391.11
355.944	390.88
356.326	375.74
356.709	394.5
357.091	398.11
357.473	418.45
357.855	421.39
358.238	419.58
358.62	424.1
359.002	418.22
359.384	397.43
359.766	413.03
360.148	412.8
360.53	413.93
360.912	438.11
361.294	454.61
361.676	427.94
362.057	398.11
362.439	424.78
362.821	430.88
363.203	450.99
363.584	440.14
363.966	439.01
364.348	409.18
364.729	441.73
365.111	438.79
365.493	443.99
365.874	439.24
366.256	438.34
366.637	440.14
367.019	429.3
367.4	420.48
367.781	427.71
368.163	453.25
368.544	452.12
368.925	457.77
369.306	428.84
369.688	446.47
370.069	468.84
370.45	459.13
370.831	457.09
371.212	481.72
371.593	474.27
371.974	444.89
372.355	485.11
372.736	473.14
373.117	494.38
373.498	485.79
373.879	464.78
374.26	483.98
374.641	477.88
375.021	471.33
375.402	487.83
375.783	514.72
376.163	559.01
376.544	554.27
376.925	519.46
377.305	522.4
377.686	503.19
378.066	518.79
378.447	549.52
378.827	533.02
379.208	554.49
379.588	556.3
379.968	548.16
380.349	547.03
380.729	579.8
381.109	568.95
381.489	583.87
381.87	603.76
382.25	592
382.63	603.98
383.01	632.23
383.39	618.22
383.77	631.78
384.15	617.77
384.53	633.81
384.91	637.88
385.29	654.38
385.67	658.67
386.049	640.14
386.429	676.97
386.809	682.17
387.189	699.8
387.568	693.92
387.948	691.66
388.328	715.39
388.707	733.02
389.087	741.38
389.466	726.92
389.846	744.32
390.225	762.17
390.605	759.91
390.984	792.22
391.363	784.77
391.743	801.49
392.122	788.61
392.501	840.81
392.881	810.76
393.26	839.23
393.639	859.34
394.018	834.03
394.397	860.7
394.776	886.46
395.155	867.03
395.534	892.79
395.913	909.74
396.292	910.87
396.671	933.24
397.05	944.99
397.429	940.24
397.808	936.85
398.186	952.45
398.565	954.71
398.944	991.32
399.323	984.99
399.701	1006.68
400.08	1008.94
400.458	1027.47
400.837	1036.51
401.215	1057.08
401.594	1060.01
401.972	1065.89
402.351	1084.65
402.729	1105.89
403.107	1146.34
403.486	1134.59
403.864	1139.56
404.242	1166.9
404.62	1159.45
404.999	1192.67
405.377	1185.21
405.755	1225.43
406.133	1229.95
406.511	1242.83
406.889	1261.59
407.267	1289.39
407.645	1313.12
408.023	1340.23
408.401	1364.19
408.779	1351.08
409.156	1384.53
409.534	1363.96
409.912	1445.09
410.29	1443.28
410.667	1456.39
411.045	1478.31
411.422	1515.14
411.8	1530.28
412.178	1566.44
412.555	1594.01
412.933	1599.66
413.31	1615.71
413.687	1653.22
414.065	1660.22
414.442	1693.9
414.819	1724.63
415.197	1736.15
415.574	1761.24
415.951	1791.97
416.328	1789.94
416.705	1813.67
417.082	1834.68
417.46	1850.5
417.837	1848.92
418.214	1922.82
418.591	1935.02
418.967	1922.14
419.344	1949.71
419.721	1980.67
420.098	1984.51
420.475	2007.33
420.852	2057.28
421.228	2067.67
421.605	2072.42
421.982	2120.33
422.358	2161
422.735	2173.21
423.111	2175.47
423.488	2242.36
423.864	2210.72
424.241	2256.37
424.617	2292.98
424.994	2289.36
425.37	2331.62
425.746	2355.8
426.123	2405.06
426.499	2411.84
426.875	2433.09
427.251	2509.47
427.627	2529.13
428.003	2579.07
428.379	2598.96
428.756	2648.45
429.132	2675.57
429.507	2726.86
429.883	2766.64
430.259	2806.18
430.635	2811.15
431.011	2875.56
431.387	2939.29
431.763	2987.2
432.138	3003.92
432.514	3108.32
432.89	3083.92
433.265	3154.42
433.641	3217.47
434.016	3238.04
434.392	3279.62
434.767	3348.09
435.143	3349.22
435.518	3397.58
435.894	3458.82
436.269	3472.61
436.644	3515.54
437.02	3547.18
437.395	3582.21
437.77	3620.85
438.145	3724.13
438.52	3758.7
438.895	3799.6
439.271	3798.93
439.646	3871.92
440.021	3909.43
440.395	3986.49
440.77	3941.75
441.145	3940.39
441.52	4091.35
441.895	4038.69
442.27	4116.21
442.645	4119.37
443.019	4207.95
443.394	4201.17
443.769	4263.09
444.143	4213.83
444.518	4296.54
444.892	4301.96
445.267	4390.32
445.641	4431
446.016	4426.25
446.39	4487.95
446.764	4525.91
447.139	4531.34
447.513	4594.16
447.887	4625.34
448.262	4621.95
448.636	4663.99
449.01	4690.88
449.384	4769.97
449.758	4850.65
450.132	4901.5
450.506	4949.18
450.88	4997.99
451.254	5025.33
451.628	5103.75
452.002	5115.95
452.376	5166.12
452.75	5237.98
453.123	5253.8
453.497	5372.9
453.871	5391.43
454.244	5504.19
454.618	5491.54
454.992	5596.39
455.365	5651.76
455.739	5789.83
456.112	5877.51
456.486	5978.53
456.859	5992.09
457.232	6131.07
457.606	6122.25
457.979	6194.34
458.352	6294.68
458.725	6421.91
459.099	6468.69
459.472	6605.18
459.845	6636.37
460.218	6682.92
460.591	6832.74
460.964	6805.85
461.337	6989.8
461.71	7090.36
462.083	7231.83
462.456	7220.3
462.829	7282.45
463.201	7423.46
463.574	7454.65
463.947	7570.13
464.32	7790.68
464.692	7847.18
465.065	7828.88
465.438	8004.92
465.81	8126.5
466.183	8215.76
466.555	8455.98
466.928	8474.96
467.3	8518.8
467.672	8595.64
468.045	8882.86
468.417	8885.35
468.789	8979.58
469.161	9085.11
469.534	9238.78
469.906	9458.44
470.278	9507.93
470.65	9645.1
471.022	9881.03
471.394	10048.25
471.766	10134.8
472.138	10243.73
472.51	10474.23
472.882	10656.82
473.253	10749.48
473.625	10891.62
473.997	11149.24
474.369	11227.43
474.74	11356.24
475.112	11643.69
475.484	11848.21
475.855	11997.58
476.227	12192.6
476.598	12459.04
476.97	12618.81
477.341	12922.53
477.713	13110.77
478.084	13275.51
478.455	13558.89
478.827	13737.2
479.198	14114.59
479.569	14131.99
479.94	14531.52
480.311	14562.71
480.682	14973.55
481.053	15244.05
481.424	15620.99
481.795	15701.66
482.166	15965.61
482.537	16192.05
482.908	16523.11
483.279	16714.74
483.65	17011.91
484.021	17414.39
484.391	17596.75
484.762	17796.52
485.133	17963.75
485.503	18217.08
485.874	18693.9
486.244	18844.41
486.615	19128.69
486.985	19375.47
487.356	19826.75
487.726	19967.09
488.097	20460.86
488.467	20489.33
488.837	20925.71
489.207	21187.62
489.578	21507.61
489.948	21651.11
490.318	21969.97
490.688	22143.98
491.058	22462.16
491.428	22630.29
491.798	22970.4
492.168	23310.28
492.538	23416.26
492.908	23703.94
493.278	24017.38
493.648	24199.97
494.017	24517.25
494.387	24722.44
494.757	25008.31
495.126	25223.9
495.496	25263.9
495.866	25633.38
496.235	25846.93
496.605	26085.35
496.974	26250.76
497.344	26501.15
497.713	26714.93
498.082	26879.45
498.452	27193.11
498.821	27450.28
499.19	27462.71
499.559	27806.43
499.928	28086.42
500.298	28163.71
500.667	28401.22
501.036	28401.67
501.405	28851.6
501.774	28857.25
502.143	29121.88
502.512	29254.53
502.88	29642.54
503.249	29489.78
503.618	29750.79
503.987	30017.9
504.356	30192.58
504.724	30269.87
505.093	30462.63
505.462	30665.79
505.83	30880.25
506.199	31155.04
506.567	31601.13
506.936	31607.91
507.304	32079.99
507.672	32225.3
508.041	32351.62
508.409	32727.43
508.777	32859.4
509.145	33284.93
509.514	32996.8
509.882	33580.29
510.25	33663.23
510.618	34010.79
510.986	34069.09
511.354	34371.68
511.722	34800.6
512.09	35202.62
512.458	34917.66
512.826	35506.34
513.193	35663.85
513.561	35718.99
513.929	36113.33
514.297	36237.39
514.664	36494.34
515.032	36766.19
515.4	36916.02
515.767	37177.48
516.135	37323.24
516.502	37315.11
516.869	38007.29
517.237	38152.82
517.604	38164.12
517.972	38607.5
518.339	38817.67
518.706	38893.82
519.073	39296.52
519.44	39575.39
519.808	39928.82
520.175	40047.92
520.542	40531.97
520.909	40829.59
521.276	40839.53
521.643	41308.45
522.009	41563.36
522.376	41990.46
522.743	42219.84
523.11	42639.26
523.477	43013.04
523.843	43187.04
524.21	43681.04
524.577	43919
524.943	44209.16
525.31	44354.47
525.676	44617.97
526.043	45052.08
526.409	45210.27
526.776	45594.66
527.142	45660.2
527.508	45986.97
527.874	46230.35
528.241	46455.21
528.607	46641.41
528.973	47015.87
529.339	47017.9
529.705	47315.97
530.071	47694.95
530.437	47963.41
530.803	48091.32
531.169	48461.03
531.535	48433.46
531.901	48670.97
532.267	48867.12
532.632	49156.6
532.998	49232.53
533.364	49428.46
533.73	49661
534.095	49949.58
534.461	50029.8
534.826	50191.38
535.192	50407.64
535.557	50632.72
535.923	50715.88
536.288	50833.17
536.653	51096.66
537.019	51014.86
537.384	51173.05
537.749	51329.2
538.114	51478.8
538.479	51504.34
538.845	51752.24
539.21	51622.3
539.575	51641.28
539.94	51913.59
540.305	52035.17
540.67	52065.23
541.034	52215.05
541.399	52284.88
541.764	52368.04
542.129	52475.39
542.494	52577.53
542.858	52725.32
543.223	52752.89
543.587	53049.61
543.952	53015.03
544.316	53173.67
544.681	53168.25
545.045	53408.69
545.41	53581.57
545.774	53689.82
546.138	53685.75
546.503	53865.41
546.867	53820.21
547.231	54120.54
547.595	54146.53
547.959	54257.26
548.324	54359.18
548.688	54394.66
549.052	54578.61
549.416	54542.22
549.779	54670.81
550.143	54829
550.507	54963
550.871	55155.99
551.235	55138.14
551.599	55334.52
551.962	55312.15
552.326	55426.95
552.689	55596.66
553.053	55531.8
553.417	55522.09
553.78	55901.06
554.143	55816.09
554.507	56019.02
554.87	56061.28
555.234	56264.44
555.597	56126.14
555.96	56243.65
556.323	56432.57
556.686	56390.54
557.05	56713.24
557.413	56720.92
557.776	56749.85
558.139	56974.48
558.502	57077.07
558.865	57160.01
559.228	57351.87
559.59	57375.82
559.953	57494.46
560.316	57757.28
560.679	57822.82
561.041	57937.16
561.404	58103.26
561.767	58253.76
562.129	58129.25
562.492	58458.96
562.854	58414.21
563.217	58474.55
563.579	58630.48
563.941	58789.8
564.304	58810.36
564.666	58941.88
565.028	59059.39
565.39	59157.02
565.753	59300.29
566.115	59404.24
566.477	59489.66
566.839	59513.39
567.201	59690.79
567.563	59733.73
567.925	59867.51
568.287	59814.63
568.648	59867.96
569.01	59978.92
569.372	60148.4
569.734	60078.8
570.095	60260.27
570.457	60333.03
570.819	60384.1
571.18	60388.17
571.542	60526.25
571.903	60640.37
572.265	60688.73
572.626	60752
572.987	60735.51
573.349	60834.71
573.71	60922.85
574.071	61047.14
574.432	61098.66
574.794	61256.17
575.155	61236.96
575.516	61241.03
575.877	61365.1
576.238	61410.52
576.599	61420.91
576.96	61507.01
577.32	61494.36
577.681	61583.85
578.042	61642.6
578.403	61660.68
578.763	61714.01
579.124	61762.6
579.485	61874.01
579.845	61885.99
580.206	61818.19
580.566	61800.79
580.927	61876.27
581.287	61994.01
581.648	61961.01
582.008	61975.7
582.368	61937.51
582.728	62049.37
583.089	61982.71
583.449	62015.25
583.809	62009.82
584.169	62011.18
584.529	61957.85
584.889	62118.3
585.249	61979.32
585.609	61942.26
585.969	62065.87
586.329	61934.35
586.688	61982.25
587.048	61960.79
587.408	61970.5
587.768	62029.48
588.127	61976.38
588.487	61967.79
588.846	62123.04
589.206	61962.37
589.565	62017.28
589.925	62136.37
590.284	62086.21
590.643	62091.4
591.003	62182.7
591.362	62166.2
591.721	62177.73
592.08	62248.01
592.44	62214.11
592.799	62150.84
593.158	62240.55
593.517	62198.97
593.876	62253.89
594.235	62173.21
594.593	62237.84
594.952	62227.9
595.311	62177.5
595.67	62240.1
596.029	62348.57
596.387	62405.29
596.746	62400.77
597.104	62313.55
597.463	62282.13
597.822	62467.89
598.18	62350.61
598.538	62268.35
598.897	62505.86
599.255	62245.3
599.613	62572.97
599.972	62386.54
600.33	62472.64
600.688	62320.1
601.046	62450.72
601.404	62507.21
601.762	62453.65
602.12	62533.2
602.478	62546.76
602.836	62528.45
603.194	62404.16
603.552	62469.93
603.91	62422.92
604.268	62550.83
604.625	62523.48
604.983	62597.61
605.341	62471.96
605.698	62610.71
606.056	62742.91
606.413	62676.25
606.771	62780.88
607.128	62819.75
607.485	62653.42
607.843	62672.41
608.2	62816.13
608.557	62863.81
608.914	62805.74
609.272	62912.63
609.629	62978.16
609.986	63008.22
610.343	62943.36
610.7	63142.9
611.057	63093.41
611.414	63064.94
611.771	63119.63
612.127	63168.44
612.484	63163.47
612.841	63185.84
613.198	63174.77
613.554	63170.25
613.911	63193.07
614.267	63193.07
614.624	63182.45
614.98	63193.07
615.337	63193.07
615.693	63192.84
616.05	63191.49
616.406	63193.07
616.762	63193.07
617.118	63193.07
617.475	63193.07
617.831	63193.07
618.187	63193.07
618.543	63191.94
618.899	63193.07
619.255	63193.07
619.611	63193.07
619.967	63193.07
620.323	63193.07
620.678	63193.07
621.034	63193.07
621.39	63193.07
621.746	63193.07
622.101	63193.07
622.457	63193.07
622.812	63193.07
623.168	63193.07
623.523	63193.07
623.879	63193.07
624.234	63193.07
624.589	63193.07
624.945	63193.07
625.3	63193.07
625.655	63193.07
626.01	63193.07
626.365	63193.07
626.72	63193.07
627.075	63193.07
627.43	63193.07
627.785	63193.07
628.14	63193.07
628.495	63193.07
628.85	63193.07
629.205	63193.07
629.559	63193.07
629.914	63193.07
630.269	63193.07
630.623	63193.07
630.978	63193.07
631.332	63193.07
631.687	63193.07
632.041	63184.03
632.396	63193.07
632.75	63179.29
633.104	63192.39
633.459	63147.65
633.813	63118.27
634.167	63142.9
634.521	63103.13
634.875	63073.3
635.229	63067.88
635.583	62906.75
635.937	62937.26
636.291	62863.59
636.645	62907.88
636.999	62827.43
637.352	62828.79
637.706	62719.18
638.06	62788.11
638.413	62734.55
638.767	62662.24
639.121	62711.73
639.474	62516.48
639.828	62600.32
640.181	62620.2
640.534	62631.28
640.888	62497.04
641.241	62434.67
641.594	62501.79
641.947	62537.27
642.301	62445.75
642.654	62481.22
643.007	62495.46
643.36	62400.55
643.713	62396.03
644.066	62463.6
644.419	62316.93
644.771	62138.41
645.124	62028.81
645.477	61927.34
645.83	61783.39
646.182	61704.97
646.535	61650.96
646.888	61615.71
647.24	61497.97
647.593	61632.43
647.945	61576.16
648.298	61417.75
648.65	61331.2
649.002	61321.25
649.355	61403.51
649.707	61344.53
650.059	61476.28
650.411	61792.2
650.763	61738.87
651.115	61961.01
651.467	61888.02
651.819	61854.57
652.171	61763.96
652.523	61750.85
652.875	61702.49
653.227	61539.33
653.578	61758.76
653.93	61633.11
654.282	61543.17
654.633	61447.58
654.985	61496.39
655.337	61411.87
655.688	61441.48
656.039	61488.48
656.391	61229.05
656.742	61288.94
657.094	61265.21
657.445	61406.22
657.796	61334.59
658.147	61165.1
658.498	61182.5
658.849	61251.2
659.2	61203.97
659.551	61152.9
659.902	61211.65
660.253	61180.24
660.604	61262.05
660.955	61114.03
661.306	61165.33
661.656	61142.73
662.007	61175.72
662.358	61168.94
662.708	61128.72
663.059	61120.13
663.409	61010.3
663.76	61197.87
664.11	61132.33
664.461	61195.61
664.811	61095.05
665.161	61114.48
665.511	61061.6
665.862	61060.47
666.212	61055.27
666.562	61137.76
666.912	61024.99
667.262	61066.8
667.612	60999.91
667.962	60989.96
668.312	60917.65
668.662	61027.25
669.011	60924.2
669.361	60940.47
669.711	60899.57
670.06	60939.12
670.41	60839.69
670.76	60803.98
671.109	60874.03
671.459	60777.31
671.808	60808.95
672.157	60868.61
672.507	60628.39
672.856	60658.22
673.205	60717.88
673.554	60792.91
673.904	60597.43
674.253	60683.08
674.602	60561.05
674.951	60215.3
675.3	60075.41
675.649	60384.33
675.998	60380.04
676.346	60388.4
676.695	60436.76
677.044	60248.74
677.393	60296.2
677.741	60336.2
678.09	60258.46
678.438	60129.42
678.787	60237.67
679.135	60259.36
679.484	60132.36
679.832	60177.1
680.181	60047.62
680.529	60091.91
680.877	60046.71
681.225	60030.22
681.573	60189.08
681.922	60019.37
682.27	59964.68
682.618	59955.87
682.966	59924.23
683.314	59895.98
683.661	59856.89
684.009	59776.44
684.357	59748.64
684.705	59730.34
685.053	59729.21
685.4	59646.72
685.748	59530.12
686.095	59625.25
686.443	59429.1
686.79	59491.02
687.138	59532.38
687.485	59467.52
687.832	59338.48
688.18	59433.85
688.527	59233.17
688.874	59224.59
689.221	59115.89
689.568	59098.49
689.915	59020.07
690.262	59039.96
690.609	58905.05
690.956	58884.48
691.303	58860.53
691.65	58689.23
691.997	58617.37
692.344	58492.18
692.69	58405.63
693.037	58418.28
693.383	58276.59
693.73	58368.79
694.077	58097.38
694.423	58083.83
694.769	58010.61
695.116	57919.08
695.462	57832.53
695.808	57688.13
696.155	57769.26
696.501	57536.72
696.847	57639.54
697.193	57363.17
697.539	57438.87
697.885	57186
698.231	57150.29
698.577	57114.13
698.923	57066.68
699.269	56863.52
699.614	56810.86
699.96	56762.05
700.306	56764.99
700.651	56570.19
700.997	56551.44
701.342	56496.97
701.688	56534.71
702.033	56422.4
702.379	56406.13
702.724	56383.08
703.069	56431.21
703.415	56042.3
703.76	56133.14
704.105	56139.02
704.45	56049.98
704.795	55893.15
705.14	55899.93
705.485	55857.44
705.83	55733.83
706.175	55809.99
706.52	55650.22
706.865	55590.33
707.209	55564.34
707.554	55464.91
707.899	55538.58
708.243	55384.24
708.588	55337.01
708.932	55087.52
709.277	55132.94
709.621	55080.52
709.966	54867.87
710.31	54933.17
710.654	54616.35
710.998	54730.02
711.342	54734.08
711.687	54669.23
712.031	54546.07
712.375	54423.58
712.719	54527.99
713.063	54406.41
713.407	54486.63
713.75	54264.49
714.094	54183.82
714.438	54158.51
714.782	54102.91
715.125	53934.1
715.469	54036.93
715.812	53862.02
716.156	53669.7
716.499	53695.92
716.843	53769.59
717.186	53466.09
717.53	53624.51
717.873	53483.49
718.216	53394.91
718.559	53330.28
718.902	53102.71
719.246	53142.71
719.589	53031.08
719.932	52847.13
720.275	52827.01
720.617	52733.68
720.96	52724.87
721.303	52570.07
721.646	52587.47
721.989	52291.66
722.331	52410.75
722.674	52323.07
723.016	52375.73
723.359	52294.37
723.701	52318.33
724.044	52120.59
724.386	51900.49
724.729	52047.83
725.071	51938.22
725.413	51909.75
725.755	51826.82
726.097	51779.58
726.439	51613.04
726.782	51671.57
727.124	51929.64
727.465	51688.97
727.807	51620.27
728.149	51693.26
728.491	51523.09
728.833	51513.15
729.175	51443.55
729.516	51344.12
729.858	51242.88
730.199	51281.97
730.541	51258.47
730.882	51165.14
731.224	51242.88
731.565	51077
731.906	51097.79
732.248	51076.1
732.589	50987.52
732.93	50815.32
733.271	50853.51
733.612	50824.58
733.953	50743.45
734.294	50577.13
734.635	50576.9
734.976	50690.35
735.317	50477.7
735.658	50592.72
735.999	50416.46
736.339	50358.61
736.68	50413.07
737.021	50195.45
737.361	49990.71
737.702	50268.89
738.042	50034.77
738.383	49863.25
738.723	49947.09
739.063	49670.49
739.404	49772.86
739.744	49545.97
740.084	49463.26
740.424	49610.6
740.764	49340.1
741.104	49479.31
741.444	49270.27
741.784	49040
742.124	49085.87
742.464	49120.9
742.804	48817.85
743.143	48708.03
743.483	48864.86
743.823	48604.3
744.162	48581.25
744.502	48570.18
744.841	48438.66
745.181	48459.45
745.52	48222.84
745.86	48315.27
746.199	48136.74
746.538	47958.22
746.877	47996.18
747.216	48000.02
747.556	47925.9
747.895	47876.41
748.234	47695.4
748.573	47604.55
748.911	47576.31
749.25	47616.08
749.589	47430.55
749.928	47421.51
750.267	47510.54
750.605	47427.61
750.944	47170.21
751.283	47130.44
751.621	47327.95
751.96	46857.68
752.298	46888.19
752.636	46937.45
752.975	46800.96
753.313	46630.34
753.651	46969.77
753.989	46725.48
754.327	46569.33
754.666	46367.98
755.004	46433.96
755.342	46285.94
755.679	46286.85
756.017	46004.37
756.355	46261.54
756.693	46030.81
757.031	46026.97
757.368	45862.68
757.706	45658.39
758.044	45502.46
758.381	45602.12
758.719	45273.54
759.056	45338.85
759.394	45250.72
759.731	44966.2
760.068	45015.47
760.405	44765.76
760.743	44667.68
761.08	44710.17
761.417	44385.88
761.754	44243.51
762.091	44199.45
762.428	43914.03
762.765	43824.99
763.102	43902.05
763.438	43770.08
763.775	43471.55
764.112	43461.84
764.449	43305.68
764.785	43198.34
765.122	42836.54
765.458	42723.78
765.795	42705.7
766.131	42714.74
766.467	42489.89
766.804	42095.09
767.14	41927.19
767.476	41837.47
767.812	41810.58
768.148	41587.99
768.485	41458.27
768.821	41148.68
769.157	41185.74
769.492	41032.75
769.828	40791.85
770.164	40460.56
770.5	40405.87
770.836	40321.58
771.171	40164.07
771.507	39974.25
771.842	39775.15
772.178	39705.1
772.513	39764.76
772.849	39532.9
773.184	39330.19
773.519	39325.45
773.855	39030.77
774.19	38808.63
774.525	38769.53
774.86	38577.45
775.195	38613.15
775.53	38383.1
775.865	37945.82
776.2	37930.23
776.535	37777.24
776.87	37748.99
777.205	37612.05
777.539	37506.29
777.874	37624.93
778.209	37288.44
778.543	37241.21
778.878	36970.93
779.212	37059.07
779.547	36890.26
779.881	36917.38
780.215	36711.05
780.55	36832.41
780.884	36593.09
781.218	36457.5
781.552	36368.92
781.886	36309.71
782.22	36057.06
782.554	35943.39
782.888	35930.96
783.222	35730.52
783.556	35583.4
783.889	35470.18
784.223	35271.32
784.557	35234.48
784.89	35288.49
785.224	34897.99
785.557	34904.1
785.891	34752.01
786.224	34587.27
786.558	34541.39
786.891	34242.19
787.224	34093.04
787.557	34054.4
787.891	33949.09
788.224	33879.26
788.557	33847.85
788.89	33685.82
789.223	33534.19
789.556	33292.39
789.888	33295.78
790.221	33262.11
790.554	32976.69
790.887	32847.43
791.219	32850.14
791.552	32613.99
791.884	32433.2
792.217	32266.88
792.549	32153.89
792.882	31980.33
793.214	31823.95
793.546	31762.26
793.879	31523.17
794.211	31492.66
794.543	31507.8
794.875	31293.12
795.207	31337.41
795.539	31271.65
795.871	31076.4
796.203	30851.1
796.535	30638.67
796.867	30547.6
797.198	30496.53
797.53	30419.24
797.862	30108.06
798.193	30202.3
798.525	30055.64
798.856	30019.48
799.188	29664.23
799.519	29566.16
799.85	29403.68
800.182	29416.33
800.513	29344.92
800.844	29207.75
801.175	29335.66
801.506	29114.87
801.837	28919.62
802.168	28959.85
802.499	28848.89
802.83	28571.38
803.161	28665.39
803.491	28582.45
803.822	28602.57
804.153	28345.17
804.483	28168.23
804.814	28023.6
805.145	28087.78
805.475	28041
805.805	27956.71
806.136	27923.49
806.466	27979.76
806.796	27887.33
807.126	27657.51
807.457	27682.37
807.787	27798.07
808.117	27511.52
808.447	27466.33
808.777	27460.22
809.107	27479.88
809.436	27338.42
809.766	27400.79
810.096	27221.81
810.426	27168.03
810.755	27236.28
811.085	27238.31
811.414	27110.63
811.744	26973.23
812.073	26917.41
812.403	26906.34
812.732	26617.99
813.061	26654.37
813.39	26594.48
813.719	26556.07
814.049	26614.37
814.378	26522.62
814.707	26315.4
815.036	26424.55
815.365	26185.68
815.693	26074.05
816.022	26011.45
816.351	26086.7
816.68	25824.11
817.008	25935.97
817.337	25619.37
817.665	25603.55
817.994	25809.19
818.322	25749.76
818.651	25528.07
818.979	25381.63
819.307	25522.65
819.636	25338.25
819.964	25237.01
820.292	25168.76
820.62	25149.32
820.948	25234.29
821.276	25249.43
821.604	25116.33
821.932	25108.87
822.259	25185.48
822.587	25083.56
822.915	24974.87
823.243	25095.99
823.57	24808.09
823.898	24859.16
824.225	24899.84
824.553	24815.77
824.88	24861.42
825.207	24930.35
825.535	24809.67
825.862	24801.31
826.189	24766.51
826.516	24838.6
826.843	24955.43
827.17	24829.78
827.497	24799.05
827.824	24719.05
828.151	24770.58
828.478	24699.84
828.805	24717.25
829.131	24596.34
829.458	24586.4
829.785	24510.92
830.111	24532.62
830.438	24730.8
830.764	24463.01
831.09	24480.87
831.417	24430.25
831.743	24646.29
832.069	24553.18
832.395	24485.16
832.722	24525.84
833.048	24362.45
833.374	24373.07
833.7	24292.4
834.026	24258.05
834.351	24320.42
834.677	24238.84
835.003	24345.28
835.329	24273.87
835.654	24402.9
835.98	24137.83
836.306	24201.33
836.631	24136.92
836.956	24198.16
837.282	24173.53
837.607	24137.15
837.932	24056.02
838.258	24176.92
838.583	24072.74
838.908	23950.49
839.233	23966.08
839.558	23879.53
839.883	23914.78
840.208	23817.83
840.533	23903.26
840.858	23970.82
841.182	23931.73
841.507	23875.01
841.832	23851.96
842.156	23794.33
842.481	23781.22
842.805	23761.34
843.13	23655.58
843.454	23715.92
843.778	23504.4
844.103	23589.82
844.427	23437.05
844.751	23474.11
845.075	23483.61
845.399	23298.75
845.723	23340.78
846.047	23298.3
846.371	23179.88
846.695	23126.55
847.019	22986.22
847.343	23000.23
847.666	22746.9
847.99	22707.35
848.313	22672.55
848.637	22523.18
848.96	22584.42
849.284	22420.81
849.607	22271.43
849.931	22265.11
850.254	22220.14
850.577	21988.5
850.9	21806.36
851.223	21833.93
851.546	21805.68
851.869	21637.1
852.192	21645.69
852.515	21414.73
852.838	21440.04
853.161	21394.85
853.483	21204.12
853.806	21163.44
854.129	21077.79
854.451	20988.3
854.774	20810.46
855.096	20773.39
855.419	20760.29
855.741	20709.22
856.063	20592.16
856.385	20521.2
856.708	20358.04
857.03	20310.81
857.352	20417.7
857.674	20233.3
857.996	20196.23
858.318	20091.6
858.64	20082.11
858.961	20019.74
859.283	19935.22
859.605	19782.23
859.926	19752.86
860.248	19807.09
860.57	19677.83
860.891	19725.29
861.212	19519.87
861.534	19444.39
861.855	19408.46
862.176	19405.52
862.498	19317.84
862.819	19389.02
863.14	19184.28
863.461	19211.85
863.782	19206.88
864.103	19184.96
864.424	19052.31
864.745	19070.39
865.065	18940
865.386	18944.52
865.707	18873.11
866.027	18972.99
866.348	18814.58
866.668	18874.91
866.989	18743.84
867.309	18608.71
867.63	18640.12
867.95	18772.09
868.27	18619.1
868.59	18675.14
868.91	18625.2
869.23	18707.46
869.55	18521.7
869.87	18656.84
870.19	18611.42
870.51	18539.55
870.83	18620.23
871.15	18441.48
871.469	18539.78
871.789	18549.72
872.109	18446.22
872.428	18452.33
872.748	18592.89
873.067	18517.63
873.386	18527.35
873.706	18471.99
874.025	18452.55
874.344	18410.74
874.663	18510.18
874.982	18395.38
875.301	18298.43
875.62	18329.39
875.939	18305.66
876.258	18329.84
876.577	18276.51
876.896	18257.3
877.214	18257.98
877.533	18293.23
877.852	18227.92
878.17	18270.41
878.489	18291.43
878.807	18421.82
879.125	18246.68
879.444	18226.34
879.762	18318.09
880.08	18121.71
880.398	18081.94
880.716	18093.92
881.034	18053.47
881.352	18048.04
881.67	17937.08
881.988	17970.08
882.306	17918.1
882.624	17935.5
882.941	17903.19
883.259	17797.88
883.577	17923.3
883.894	17810.31
884.212	17733.47
884.529	17738.9
884.846	17578
885.164	17595.4
885.481	17612.8
885.798	17789.07
886.115	17552.91
886.432	17556.76
886.75	17444.44
887.067	17444.89
887.383	17368.96
887.7	17256.65
888.017	17272.02
888.334	17227.72
888.651	17186.14
888.967	17048.07
889.284	17066.15
889.6	16978.47
889.917	16917.22
890.233	16913.61
890.55	16825.93
890.866	16833.84
891.182	16724.46
891.498	16712.48
891.815	16609.44
892.131	16627.74
892.447	16551.13
892.763	16413.74
893.079	16418.25
893.395	16287.64
893.71	16262.1
894.026	16324.7
894.342	16153.63
894.657	16098.49
894.973	15996.8
895.289	15988.21
895.604	15875.9
895.92	15842.22
896.235	15726.52
896.55	15754.09
896.865	15722.45
897.181	15633.87
897.496	15608.56
897.811	15528.56
898.126	15463.48
898.441	15414.44
898.756	15350.03
899.071	15282.47
899.386	15205.18
899.7	15094.9
900.015	15025.07
900.33	14949.82
900.644	14976.26
900.959	15028.01
901.273	14922.93
901.588	14813.33
901.902	14680.67
902.216	14759.09
902.531	14747.56
902.845	14580.56
903.159	14587.34
903.473	14439.32
903.787	14490.62
904.101	14418.31
904.415	14344.18
904.729	14416.5
905.042	14286.33
905.356	14233.68
905.67	14213.57
905.984	14226
906.297	14138.99
906.611	13996.85
906.924	14045.21
907.237	13966.34
907.551	13914.14
907.864	13815.61
908.177	13813.35
908.491	13761.83
908.804	13706.69
909.117	13634.37
909.43	13589.63
909.743	13593.24
910.056	13580.82
910.368	13462.85
910.681	13514.83
910.994	13405.9
911.307	13378.56
911.619	13194.84
911.932	13399.13
912.244	13261.95
912.557	13259.02
912.869	13135.86
913.181	13174.72
913.494	13183.31
913.806	13019.02
914.118	13069.64
914.43	12941.74
914.742	12971.57
915.054	12891.34
915.366	12828.74
915.678	12827.39
915.99	12808.41
916.302	12671.46
916.613	12689.99
916.925	12712.82
917.236	12576.32
917.548	12557.79
917.859	12586.94
918.171	12557.79
918.482	12442.31
918.794	12466.72
919.105	12397.12
919.416	12294.52
919.727	12258.14
920.038	12250.23
920.349	12162.77
920.66	12132.94
920.971	12047.97
921.282	12053.4
921.593	11956
921.903	11906.06
922.214	11866.06
922.525	11816.79
922.835	11723.46
923.146	11662.67
923.456	11694.76
923.767	11586.97
924.077	11589.68
924.387	11561.21
924.697	11427.43
925.008	11426.75
925.318	11396.24
925.628	11369.35
925.938	11307.2
926.248	11167.77
926.558	11234.44
926.867	11118.96
927.177	11086.64
927.487	10978.85
927.796	10869.7
928.106	10840.1
928.416	10841.23
928.725	10822.47
929.034	10724.17
929.344	10755.58
929.653	10734.79
929.962	10578.41
930.271	10545.41
930.581	10507.9
930.89	10396.94
931.199	10415.02
931.508	10326.21
931.817	10333.22
932.125	10224.52
932.434	10166.89
932.743	10061.13
933.051	10059.33
933.36	10025.43
933.669	9908.82
933.977	9933.68
934.286	9902.95
934.594	9803.97
934.902	9763.29
935.21	9764.64
935.519	9720.35
935.827	9609.62
936.135	9575.27
936.443	9521.71
936.751	9527.81
937.059	9507.25
937.367	9397.87
937.674	9376.86
937.982	9335.73
938.29	9281.27
938.597	9326.92
938.905	9154.49
939.213	9135.06
939.52	9089.63
939.827	9105.68
940.135	9090.09
940.442	8997.88
940.749	9017.32
941.056	8965.8
941.363	8861.39
941.67	8831.56
941.977	8802.64
942.284	8796.76
942.591	8747.95
942.898	8644
943.205	8648.74
943.511	8624.56
943.818	8605.8
944.125	8483.55
944.431	8432.93
944.738	8481.51
945.044	8404.91
945.35	8371.23
945.657	8347.51
945.963	8310.67
946.269	8212.82
946.575	8266.6
946.881	8244.23
947.187	8223.67
947.493	8146.61
947.799	8128.76
948.105	8112.03
948.41	8031.13
948.716	8088.53
949.022	8043.33
949.327	7989.1
949.633	7922.21
949.938	7952.71
950.244	7917.69
950.549	7815.77
950.854	7801.76
951.16	7781.65
951.465	7788.43
951.77	7748.2
952.075	7807.18
952.38	7694.64
952.685	7692.83
952.99	7642.21
953.294	7633.4
953.599	7577.36
953.904	7582.78
954.209	7517.92
954.513	7560.41
954.818	7527.19
955.122	7485.83
955.426	7418.27
955.731	7317.93
956.035	7331.94
956.339	7296.69
956.643	7283.35
956.948	7220.76
957.252	7230.47
957.556	7233.86
957.86	7230.25
958.163	7121.1
958.467	7125.62
958.771	7149.57
959.075	7092.62
959.378	7025.28
959.682	7025.96
959.985	7004.94
960.289	6969.69
960.592	6887.43
960.896	6925.4
961.199	6829.58
961.502	6860.09
961.805	6837.94
962.108	6786.64
962.411	6695.12
962.714	6680.88
963.017	6701
963.32	6627.1
963.623	6581.23
963.926	6630.26
964.228	6527.67
964.531	6561.34
964.833	6538.29
965.136	6445.86
965.438	6463.94
965.741	6441.57
966.043	6397.28
966.345	6362.25
966.648	6328.12
966.95	6327.67
967.252	6257.84
967.554	6219.65
967.856	6233.21
968.158	6199.54
968.46	6185.08
968.761	6156.38
969.063	6149.6
969.365	6092.88
969.666	6027.34
969.968	5981.24
970.269	6023.73
970.571	5967.68
970.872	5972.88
971.174	5876.61
971.475	5873.22
971.776	5853.11
972.077	5814.01
972.378	5816.5
972.679	5755.26
972.98	5755.48
973.281	5653.79
973.582	5675.49
973.883	5675.49
974.183	5627.58
974.484	5569.73
974.785	5550.29
975.085	5550.52
975.386	5543.06
975.686	5458.32
975.986	5372.67
976.287	5420.35
976.587	5301.03
976.887	5276.4
977.187	5358.66
977.487	5285.67
977.787	5224.65
978.087	5205.89
978.387	5252.9
978.687	5180.81
978.987	5147.36
979.286	5123.86
979.586	5172.22
979.885	5092
980.185	5085.45
980.484	5055.39
980.784	5042.73
981.083	4976.3
981.382	4979.01
981.682	4985.56
981.981	4984.43
982.28	4959.8
982.579	4848.16
982.878	4834.15
983.177	4851.1
983.475	4815.4
983.774	4775.85
984.073	4712.8
984.372	4695.4
984.67	4715.06
984.969	4675.06
985.267	4655.85
985.566	4636.19
985.864	4610.43
986.162	4591.22
986.461	4583.31
986.759	4578.11
987.057	4559.36
987.355	4528.85
987.653	4531.79
987.951	4427.16
988.249	4439.59
988.547	4441.17
988.844	4434.16
989.142	4423.99
989.44	4379.02
989.737	4391.23
990.035	4343.32
990.332	4348.97
990.63	4305.13
990.927	4252.92
991.224	4250.67
991.521	4254.73
991.819	4239.82
992.116	4206.82
992.413	4201.17
992.71	4194.4
993.006	4111.69
993.303	4159.82
993.6	4081.18
993.897	4130.89
994.193	4077.56
994.49	4086.6
994.787	4038.69
995.083	4054.06
995.379	4002.54
995.676	4017.45
995.972	3973.16
996.268	3925.93
996.565	3981.75
996.861	3913.95
997.157	3928.87
997.453	3943.1
997.749	3888.64
998.044	3853.84
998.34	3861.3
998.636	3840.05
998.932	3780.62
999.227	3782.88
999.523	3781.98
999.818	3720.51
1000.114	3692.04
1000.409	3672.15
1000.704	3661.53
1001	3627.18
1001.295	3638.48
1001.59	3620.85
1001.885	3637.12
1002.18	3581.53
1002.475	3552.6
1002.77	3553.73
1003.065	3501.53
1003.359	3489.33
1003.654	3465.15
1003.949	3447.97
1004.243	3456.34
1004.538	3444.13
1004.832	3423.79
1005.127	3417.69
1005.421	3387.64
1005.715	3355.32
1006.009	3344.93
1006.304	3290.92
1006.598	3294.08
1006.892	3317.58
1007.186	3273.06
1007.48	3241.43
1007.773	3231.93
1008.067	3228.55
1008.361	3196.91
1008.655	3163.01
1008.948	3179.73
1009.242	3136.12
1009.535	3111.03
1009.829	3087.08
1010.122	3054.54
1010.415	3080.53
1010.708	3038.27
1011.001	3005.05
1011.295	2962.56
1011.588	2984.71
1011.881	2953.75
1012.173	2944.03
1012.466	2906.75
1012.759	2898.16
1013.052	2945.84
1013.344	2871.27
1013.637	2835.56
1013.93	2812.51
1014.222	2800.31
1014.514	2774.09
1014.807	2742.91
1015.099	2728.9
1015.391	2743.59
1015.683	2688.67
1015.976	2702.01
1016.268	2672.18
1016.56	2620.88
1016.851	2649.35
1017.143	2652.74
1017.435	2617.71
1017.727	2578.17
1018.018	2553.99
1018.31	2548.56
1018.602	2527.09
1018.893	2529.13
1019.185	2448.9
1019.476	2457.04
1019.767	2421.56
1020.058	2411.17
1020.35	2391.96
1020.641	2395.57
1020.932	2382.92
1021.223	2369.36
1021.514	2351.73
1021.804	2281.45
1022.095	2280.77
1022.386	2302.69
1022.677	2270.38
1022.967	2242.36
1023.258	2198.29
1023.548	2245.07
1023.839	2185.86
1024.129	2182.47
1024.419	2220.44
1024.709	2162.81
1025	2131.17
1025.29	2106.31
1025.58	2098.86
1025.87	2091.4
1026.16	2057.05
1026.449	2092.08
1026.739	2032.64
1027.029	2016.15
1027.319	2018.86
1027.608	2017.28
1027.898	1996.49
1028.187	1980.89
1028.477	1925.98
1028.766	1936.15
1029.055	1930.73
1029.344	1901.57
1029.634	1920.1
1029.923	1890.73
1030.212	1866.32
1030.501	1854.12
1030.79	1818.64
1031.078	1816.15
1031.367	1788.81
1031.656	1806.89
1031.945	1791.07
1032.233	1790.84
1032.522	1732.99
1032.81	1764.63
1033.099	1731.64
1033.387	1726.89
1033.675	1666.1
1033.963	1673.78
1034.251	1681.24
1034.54	1664.29
1034.828	1671.52
1035.116	1624.75
1035.403	1624.52
1035.691	1620
1035.979	1604.86
1036.267	1598.53
1036.554	1557.63
1036.842	1568.02
1037.129	1555.14
1037.417	1539.55
1037.704	1541.13
1037.992	1531.87
1038.279	1485.09
1038.566	1500.45
1038.853	1500.45
1039.14	1500.45
