Data from aluminium_macbook_case_FLMS001491_018.txt Node
Date: Tue Feb 07 10:43:17 GMT 2017
User: dcchb
Spectrometer: FLMS00149
Trigger mode: 0
Integration Time (sec): 2.000000E-2
Scans to average: 10
Electric dark correction enabled: true
Nonlinearity correction enabled: false
Boxcar width: 0
XAxis mode: Wavelengths
Number of Pixels in Spectrum: 2048
>>>>>Begin Spectral Data<<<<<
341.393	-18.91
341.776	-18.91
342.16	-18.91
342.543	-44.22
342.927	-56.43
343.31	-65.01
343.693	-64.11
344.077	-57.1
344.46	-47.39
344.843	-72.02
345.226	-36.76
345.61	-42.64
345.993	-19.36
346.376	-0.83
346.759	24.93
347.142	5.72
347.525	38.04
347.908	61.31
348.291	72.84
348.674	96.11
349.057	106.28
349.44	136.11
349.823	140.63
350.206	165.26
350.588	232.61
350.971	259.5
351.354	265.15
351.737	278.03
352.119	278.93
352.502	296.33
352.884	328.2
353.267	338.37
353.65	343.56
354.032	357.35
354.414	333.85
354.797	387.63
355.179	361.87
355.562	384.92
355.944	386.5
356.326	404.81
356.709	404.35
357.091	407.52
357.473	386.73
357.855	402.77
358.238	414.75
358.62	400.29
359.002	390.79
359.384	416.33
359.766	430.34
360.148	425.14
360.53	411.36
360.912	438.03
361.294	402.77
361.676	426.05
362.057	431.47
362.439	399.83
362.821	402.32
363.203	419.27
363.584	415.88
363.966	403.68
364.348	427.86
364.729	433.96
365.111	398.7
365.493	428.76
365.874	424.47
366.256	409.33
366.637	401.87
367.019	410
367.4	403.9
367.781	424.69
368.163	425.6
368.544	423.56
368.925	425.82
369.306	455.2
369.688	438.7
370.069	450.91
370.45	441.87
370.831	451.36
371.212	465.37
371.593	454.75
371.974	441.41
372.355	440.74
372.736	476.44
373.117	462.43
373.498	472.83
373.879	445.71
374.26	476.89
374.641	433.28
375.021	471.7
375.402	466.5
375.783	493.16
376.163	520.51
376.544	508.76
376.925	512.83
377.305	516.89
377.686	499.72
378.066	524.12
378.447	525.93
378.827	526.38
379.208	551.47
379.588	555.54
379.968	554.86
380.349	532.03
380.729	547.17
381.109	539.27
381.489	559.38
381.87	563.67
382.25	561.41
382.63	555.99
383.01	568.42
383.39	580.62
383.77	606.16
384.15	593.73
384.53	617.46
384.91	619.04
385.29	625.82
385.67	618.36
386.049	644.12
386.429	636.44
386.809	649.09
387.189	668.53
387.568	659.26
387.948	669.66
388.328	687.06
388.707	685.7
389.087	701.75
389.466	692.71
389.846	711.24
390.225	705.36
390.605	721.86
390.984	728.87
391.363	757.79
391.743	767.28
392.122	748.98
392.501	785.59
392.881	806.6
393.26	770.45
393.639	805.47
394.018	793.27
394.397	804.34
394.776	831.91
395.155	840.27
395.534	874.62
395.913	860.84
396.292	877.56
396.671	884.12
397.05	903.78
397.429	890.44
397.808	891.57
398.186	910.1
398.565	920.72
398.944	910.56
399.323	940.61
399.701	964.57
400.08	940.84
400.458	958.01
400.837	996.43
401.215	1016.09
401.594	1006.82
401.972	1033.72
402.351	1013.15
402.729	1045.92
403.107	1074.17
403.486	1057.22
403.864	1054.73
404.242	1080.72
404.62	1084.56
404.999	1116.43
405.377	1122.3
405.755	1150.1
406.133	1167.27
406.511	1176.54
406.889	1227.61
407.267	1230.77
407.645	1240.94
408.023	1262.41
408.401	1251.56
408.779	1284.78
409.156	1313.26
409.534	1294.27
409.912	1325.69
410.29	1362.07
410.667	1358.45
411.045	1383.76
411.422	1426.7
411.8	1416.3
412.178	1470.54
412.555	1456.98
412.933	1507.15
413.31	1519.35
413.687	1579.24
414.065	1569.75
414.442	1577.2
414.819	1614.49
415.197	1587.15
415.574	1634.15
415.951	1663.53
416.328	1680.03
416.705	1699.01
417.082	1699.91
417.46	1735.84
417.837	1747.14
418.214	1773.36
418.591	1797.54
418.967	1822.4
419.344	1827.14
419.721	1832.79
420.098	1844.99
420.475	1847.71
420.852	1906.01
421.228	1939.91
421.605	1972.45
421.982	1950.53
422.358	1987.59
422.735	2050.19
423.111	2055.61
423.488	2051.32
423.864	2081.37
424.241	2108.26
424.617	2123.18
424.994	2155.72
425.37	2153.01
425.746	2212.22
426.123	2230.29
426.499	2208.6
426.875	2259.67
427.251	2328.37
427.627	2353
428.003	2416.28
428.379	2438.88
428.756	2470.29
429.132	2487.69
429.507	2494.47
429.883	2554.13
430.259	2614.01
430.635	2614.01
431.011	2657.18
431.387	2725.2
431.763	2758.42
432.138	2800.45
432.514	2808.81
432.89	2862.37
433.265	2925.87
433.641	2965.42
434.016	2996.15
434.392	3070.27
434.767	3096.49
435.143	3124.06
435.518	3172.87
435.894	3190.72
436.269	3277.5
436.644	3284.28
437.02	3304.16
437.395	3311.17
437.77	3378.96
438.145	3404.5
438.52	3469.58
438.895	3499.87
439.271	3514.55
439.646	3597.26
440.021	3628.68
440.395	3681.78
440.77	3618.05
441.145	3673.19
441.52	3776.47
441.895	3767.43
442.27	3815.56
442.645	3789.12
443.019	3865.28
443.394	3875.67
443.769	3921.78
444.143	3937.37
444.518	3992.06
444.892	3983.02
445.267	4054.2
445.641	4058.04
446.016	4129.91
446.39	4152.28
446.764	4171.94
447.139	4151.15
447.513	4243.35
447.887	4282.67
448.262	4274.31
448.636	4314.99
449.01	4386.85
449.384	4409.22
449.758	4430.01
450.132	4517.69
450.506	4546.39
450.88	4592.94
451.254	4579.61
451.628	4658.03
452.002	4726.95
452.376	4774.86
452.75	4807.85
453.123	4849.89
453.497	4925.36
453.871	4996.1
454.244	5054.4
454.618	5120.84
454.992	5214.4
455.365	5192.7
455.739	5350.21
456.112	5406.93
456.486	5429.76
456.859	5487.16
457.232	5540.04
457.606	5568.96
457.979	5680.6
458.352	5791.33
458.725	5887.15
459.099	5922.85
459.472	6048.27
459.845	6062.74
460.218	6136.18
460.591	6241.71
460.964	6265.89
461.337	6468.6
461.71	6521.03
462.083	6586.79
462.456	6639.22
462.829	6695.26
463.201	6793.11
463.574	6869.04
463.947	6990.4
464.32	7138.87
464.692	7165.31
465.065	7237.39
465.438	7325.3
465.81	7481.91
466.183	7535.24
466.555	7731.39
466.928	7741.79
467.3	7752.64
467.672	7908.34
468.045	8144.72
468.417	8125.96
468.789	8117.37
469.161	8313.75
469.534	8418.61
469.906	8647.98
470.278	8751.03
470.65	8782.44
471.022	9031.47
471.394	9225.36
471.766	9289.09
472.138	9423.55
472.51	9541.51
472.882	9789.87
473.253	9838.68
473.625	9986.47
473.997	10226.92
474.369	10377.65
474.74	10415.84
475.112	10610.87
475.484	10790.75
475.855	10870.52
476.227	11085.65
476.598	11426.21
476.97	11522.25
477.341	11705.98
477.713	11971.51
478.084	12036.36
478.455	12423.92
478.827	12544.37
479.198	12883.12
479.569	12913.86
479.94	13279.72
480.311	13356.33
480.682	13764.45
481.053	14077.89
481.424	14243.99
481.795	14401.27
482.166	14622.06
482.537	14793.58
482.908	15229.05
483.279	15276.73
483.65	15637.17
484.021	15972.08
484.391	16064.06
484.762	16280.32
485.133	16391.05
485.503	16683.7
485.874	17027.65
486.244	17120.75
486.615	17546.5
486.985	17743.11
487.356	18012.93
487.726	18203.89
488.097	18611.56
488.467	18646.81
488.837	19055.84
489.207	19357.3
489.578	19627.13
489.948	19793
490.318	20140.56
490.688	20221.46
491.058	20583.71
491.428	20855.34
491.798	21028.44
492.168	21479.28
492.538	21542.1
492.908	21875.2
493.278	22187.51
493.648	22143.67
494.017	22486.94
494.387	22660.04
494.757	22771.45
495.126	23027.71
495.496	23179.57
495.866	23370.08
496.235	23602.84
496.605	23790.41
496.974	24064.07
497.344	24144.97
497.713	24299.09
498.082	24440.56
498.452	24770.94
498.821	24977.49
499.19	25055.46
499.559	25370.93
499.928	25630.81
500.298	25655.22
500.667	25977.47
501.036	25999.16
501.405	26407.51
501.774	26382.65
502.143	26642.31
502.512	26740.38
502.88	27124.33
503.249	27086.14
503.618	27366.36
503.987	27349.63
504.356	27620.81
504.724	27833.24
505.093	27974.25
505.462	28074.13
505.83	28237.29
506.199	28560.68
506.567	28850.39
506.936	28941.68
507.304	29317.04
507.672	29360.43
508.041	29481.1
508.409	29768.78
508.777	30132.61
509.145	30253.74
509.514	30401.31
509.882	30549.1
510.25	30709.32
510.618	30832.48
510.986	31157.22
511.354	31443.76
511.722	31692.34
512.09	32109.73
512.458	32033.58
512.826	32427.69
513.193	32674.01
513.561	32858.42
513.929	32981.35
514.297	33302.92
514.664	33621.11
515.032	33512.64
515.4	34197.82
515.767	34197.82
516.135	34480.29
516.502	34405.27
516.869	34797.12
517.237	35023.56
517.604	35025.36
517.972	35341.74
518.339	35666.93
518.706	35690.88
519.073	36041.83
519.44	36181.27
519.808	36597.75
520.175	36606.34
520.542	37052.66
520.909	37302.59
521.276	37376.04
521.643	37969.24
522.009	38165.39
522.376	38427.31
522.743	38748.66
523.11	39163.56
523.477	39593.61
523.843	39814.16
524.21	40220.48
524.577	40390.42
524.943	40634.93
525.31	40883.06
525.676	41277.63
526.043	41499.54
526.409	41820.21
526.776	42198.51
527.142	42408
527.508	42518.73
527.874	42759.85
528.241	42993.29
528.607	43118.48
528.973	43588.3
529.339	43435.31
529.705	43937.9
530.071	44158.01
530.437	44336.08
530.803	44581.72
531.169	45002.96
531.535	44860.59
531.901	44967.7
532.267	45331.99
532.632	45581.24
532.998	45674.35
533.364	45980.78
533.73	46157.05
534.095	46514.1
534.461	46636.36
534.826	46899.85
535.192	47046.52
535.557	47445.38
535.923	47545.49
536.288	47727.63
536.653	47786.38
537.019	47737.57
537.384	48030.9
537.749	48264.56
538.114	48462.75
538.479	48548.85
538.845	48703.2
539.21	48649.41
539.575	48856.41
539.94	48937.99
540.305	49211.88
540.67	49171.89
541.034	49262.73
541.399	49496.85
541.764	49406.23
542.129	49544.53
542.494	49685.77
542.858	49877.4
543.223	49885.76
543.587	50055.25
543.952	50183.38
544.316	50299.76
544.681	50321.69
545.045	50546.99
545.41	50646.87
545.774	50769.36
546.138	50760.54
546.503	50963.25
546.867	51026.75
547.231	51277.37
547.595	51459.28
547.959	51552.84
548.324	51607.08
548.688	51712.16
549.052	51953.28
549.416	52086.61
549.779	52059.04
550.143	52234.4
550.507	52391.01
550.871	52623.09
551.235	52647.27
551.599	52875.74
551.962	52904.89
552.326	53009.75
552.689	53146.47
553.053	52923.2
553.417	53187.82
553.78	53561.83
554.143	53463.75
554.507	53566.57
554.87	53649.96
555.234	53921.59
555.597	53731.31
555.96	53934.47
556.323	54023.73
556.686	54167.01
557.05	54261.69
557.413	54313.67
557.776	54372.2
558.139	54702.81
558.502	54623.04
558.865	54780.1
559.228	54985.52
559.59	55089.02
559.953	55150.03
560.316	55478.84
560.679	55457.14
561.041	55601.55
561.404	55699.85
561.767	55907.3
562.129	55897.81
562.492	56166.73
562.854	56126.5
563.217	56305.48
563.579	56471.58
563.941	56622.54
564.304	56720.84
564.666	56865.47
565.028	56960.83
565.39	57059.14
565.753	57175.52
566.115	57274.5
566.477	57361.95
566.839	57424.32
567.201	57656.18
567.563	57621.61
567.925	57788.61
568.287	57832
568.648	57826.12
569.01	57982.27
569.372	58028.38
569.734	58003.07
570.095	58222.49
570.457	58289.61
570.819	58295.03
571.18	58338.88
571.542	58439.44
571.903	58560.11
572.265	58548.14
572.626	58639.21
572.987	58723.72
573.349	58726.89
573.71	58884.4
574.071	58900.67
574.432	58989.71
574.794	59141.79
575.155	59115.58
575.516	59135.92
575.877	59250.94
576.238	59273.54
576.599	59403.48
576.96	59470.37
577.32	59517.83
577.681	59654.77
578.042	59673.3
578.403	59718.27
578.763	59757.14
579.124	59766.41
579.485	59851.38
579.845	59925.95
580.206	59941.55
580.566	59905.39
580.927	59961.88
581.287	60070.58
581.648	59963.47
582.008	60022.22
582.368	59986.97
582.728	60036.68
583.089	59997.82
583.449	60003.24
583.809	60013.18
584.169	60076.91
584.529	59943.35
584.889	60156.91
585.249	59969.34
585.609	59913.98
585.969	60050.92
586.329	59971.6
586.688	60031.71
587.048	60017.93
587.408	59913.75
587.768	59955.78
588.127	59946.29
588.487	59967.53
588.846	60163.69
589.206	59925.5
589.565	59904.26
589.925	60026.74
590.284	60028.77
590.643	60082.11
591.003	60134.08
591.362	60177.92
591.721	60098.38
592.08	60126.85
592.44	60226.06
592.799	60207.75
593.158	60165.72
593.517	60285.94
593.876	60278.49
594.235	60284.59
594.593	60331.37
594.952	60360.97
595.311	60266.96
595.67	60340.18
596.029	60441.65
596.387	60429.67
596.746	60479.84
597.104	60395.32
597.463	60382.21
597.822	60468.54
598.18	60448.88
598.538	60365.26
598.897	60485.03
599.255	60252.95
599.613	60590.12
599.972	60431.48
600.33	60530.68
600.688	60445.49
601.046	60428.31
601.404	60494.53
601.762	60482.32
602.12	60614.52
602.478	60621.53
602.836	60610.23
603.194	60451.36
603.552	60497.24
603.91	60485.49
604.268	60600.96
604.625	60538.59
604.983	60604.35
605.341	60512.38
605.698	60661.07
606.056	60654.97
606.413	60655.42
606.771	60754.41
607.128	60748.53
607.485	60645.93
607.843	60718.25
608.2	60843.89
608.557	60894.74
608.914	60826.95
609.272	60962.54
609.629	60993.04
609.986	61099.03
610.343	61034.85
610.7	61242.75
611.057	61179.48
611.414	61139.71
611.771	61211.57
612.127	61336.76
612.484	61256.54
612.841	61375.63
613.198	61214.28
613.554	61235.52
613.911	61394.61
614.267	61352.81
614.624	61360.04
614.98	61419.92
615.337	61408.63
615.693	61407.27
616.05	61348.06
616.406	61497.44
616.762	61409.3
617.118	61327.5
617.475	61388.06
617.831	61459.7
618.187	61535.18
618.543	61527.27
618.899	61542.41
619.255	61643.65
619.611	61472.35
619.967	61576.3
620.323	61579.24
620.678	61456.99
621.034	61465.57
621.39	61434.16
621.746	61359.36
622.101	61683.19
622.457	61482.97
622.812	61454.73
623.168	61580.6
623.523	61528.17
623.879	61667.6
624.234	61456.31
624.589	61548.51
624.945	61581.5
625.3	61618.79
625.655	61605
626.01	61576.08
626.365	61578.56
626.72	61491.34
627.075	61590.32
627.43	61612.24
627.785	61529.3
628.14	61570.2
628.495	61620.15
628.85	61560.03
629.205	61522.52
629.559	61689.75
629.914	61489.75
630.269	61595.29
630.623	61485.91
630.978	61466.93
631.332	61581.73
631.687	61643.65
632.041	61444.78
632.396	61441.17
632.75	61348.74
633.104	61329.76
633.459	61178.12
633.813	61207.05
634.167	61294.28
634.521	61242.98
634.875	61215.86
635.229	61177.9
635.583	61061.97
635.937	61045.92
636.291	61072.14
636.645	61021.29
636.999	60897.23
637.352	60947.62
637.706	60778.81
638.06	60983.33
638.413	60840.96
638.767	60753.95
639.121	60787.62
639.474	60647.97
639.828	60689.1
640.181	60635.76
640.534	60582.21
640.888	60532.49
641.241	60414.3
641.594	60505.37
641.947	60518.03
642.301	60418.59
642.654	60428.99
643.007	60391.48
643.36	60363
643.713	60309.9
644.066	60337.92
644.419	60288.2
644.771	60105.61
645.124	59943.58
645.477	59845.95
645.83	59790.81
646.182	59626.07
646.535	59546.98
646.888	59650.03
647.24	59572.29
647.593	59675.56
647.945	59524.83
648.298	59484.83
648.65	59439.19
649.002	59420.88
649.355	59448.9
649.707	59429.47
650.059	59562.12
650.411	59721.44
650.763	59772.51
651.115	59987.19
651.467	59881.21
651.819	59818.84
652.171	59811.15
652.523	59772.96
652.875	59727.99
653.227	59651.16
653.578	59798.95
653.93	59713.08
654.282	59674.66
654.633	59542.23
654.985	59628.79
655.337	59624.94
655.688	59533.87
656.039	59665.17
656.391	59386.98
656.742	59403.25
657.094	59457.72
657.445	59482.12
657.796	59368.68
658.147	59312.41
658.498	59259.98
658.849	59356.02
659.2	59297.27
659.551	59172.98
659.902	59272.41
660.253	59237.16
660.604	59214.78
660.955	59107.67
661.306	59204.62
661.656	59091.4
662.007	59056.14
662.358	59169.59
662.708	59067.67
663.059	58996.49
663.409	58834.46
663.76	59110.61
664.11	59062.25
664.461	59012.76
664.811	59007.78
665.161	59010.72
665.511	58936.6
665.862	59005.75
666.212	59104.73
666.562	59114
666.912	59111.51
667.262	59007.11
667.612	59052.08
667.962	59003.72
668.312	58986.32
668.662	59111.06
669.011	59034.45
669.361	58951.74
669.711	58974.79
670.06	58932.08
670.41	58849.37
670.76	58854.12
671.109	58980.44
671.459	58902.48
671.808	58796.94
672.157	58917.62
672.507	58725.53
672.856	58732.99
673.205	58692.09
673.554	58760.33
673.904	58663.84
674.253	58719.2
674.602	58612.77
674.951	58274.7
675.3	58195.6
675.649	58600.34
675.998	58554.46
676.346	58494.58
676.695	58587.46
677.044	58349.04
677.393	58407.35
677.741	58405.99
678.09	58345.88
678.438	58200.12
678.787	58341.59
679.135	58288.93
679.484	58100.46
679.832	58141.37
680.181	58001.48
680.529	58127.13
680.877	58019.79
681.225	57877.42
681.573	58090.75
681.922	57882.84
682.27	57818.44
682.618	57812.34
682.966	57628.16
683.314	57683.3
683.661	57636.07
684.009	57486.69
684.357	57459.12
684.705	57446.92
685.053	57449.86
685.4	57431.1
685.748	57347.72
686.095	57351.11
686.443	57242.63
686.79	57188.62
687.138	57253.48
687.485	57265.01
687.832	57231.11
688.18	57155.63
688.527	56998.8
688.874	57093.03
689.221	57032.92
689.568	57020.49
689.915	56886.03
690.262	56908.4
690.609	56797.45
690.956	56801.29
691.303	56768.3
691.65	56555.87
691.997	56577.11
692.344	56373.05
692.69	56376.22
693.037	56346.16
693.383	56200.4
693.73	56270.46
694.077	56060.07
694.423	56039.28
694.769	55953.4
695.116	55881.77
695.462	55754.54
695.808	55678.83
696.155	55740.07
696.501	55520.19
696.847	55476.8
697.193	55267.77
697.539	55404.26
697.885	55060.09
698.231	55056.48
698.577	55067.78
698.923	54943.71
699.269	54838.18
699.614	54727.67
699.96	54578.75
700.306	54641.12
700.651	54516.6
700.997	54344.4
701.342	54241.81
701.688	54224.63
702.033	54060.8
702.379	54056.28
702.724	54006.11
703.069	54028.48
703.415	53677.08
703.76	53620.58
704.105	53677.08
704.45	53458.55
704.795	53409.74
705.14	53263.98
705.485	53265.11
705.83	53155.06
706.175	53159.58
706.52	53097.21
706.865	52886.36
707.209	52866.25
707.554	52788.97
707.899	52841.17
708.243	52673.49
708.588	52655.64
708.932	52491.57
709.277	52372.48
709.621	52485.24
709.966	52186.5
710.31	52377.68
710.654	52106.05
710.998	52263.56
711.342	52222.88
711.687	52059.94
712.031	52046.39
712.375	51980.85
712.719	52073.73
713.063	51885.71
713.407	51873.73
713.75	51731.14
714.094	51791.03
714.438	51626.96
714.782	51661.54
715.125	51436.46
715.469	51558.94
715.812	51334.99
716.156	51200.53
716.499	51252.73
716.843	51107.88
717.186	51008.45
717.53	51049.12
717.873	50958.96
718.216	50895
718.559	50616.82
718.902	50565.75
719.246	50570.49
719.589	50352.87
719.932	50318.52
720.275	50358.29
720.617	50135.48
720.96	50110.39
721.303	50071.07
721.646	50045.99
721.989	49843.73
722.331	49969.83
722.674	49782.49
723.016	49675.37
723.359	49659.1
723.701	49648.03
724.044	49302.96
724.386	49188.61
724.729	49341.15
725.071	49125.33
725.413	49211.66
725.755	49098.44
726.097	48839.69
726.439	48680.82
726.782	48709.75
727.124	48886.02
727.465	48467.5
727.807	48478.57
728.149	48298.46
728.491	48205.58
728.833	48322.64
729.175	48141.18
729.516	48077.9
729.858	48003.78
730.199	48054.4
730.541	47778.48
730.882	47782.09
731.224	47880.62
731.565	47687.86
731.906	47771.02
732.248	47759.72
732.589	47545.04
732.93	47391.82
733.271	47338.94
733.612	47623.68
733.953	47535.32
734.294	47371.48
734.635	47237.47
734.976	47401.76
735.317	47165.16
735.658	47195.67
735.999	47081.09
736.339	47241.77
736.68	47270.69
737.021	47057.59
737.361	46809.01
737.702	47132.39
738.042	46908.89
738.383	46881.78
738.723	46917.93
739.063	46725.85
739.404	46840.65
739.744	46684.72
740.084	46515.01
740.424	46549.81
740.764	46397.49
741.104	46461.67
741.444	46282.02
741.784	46168.35
742.124	46222.81
742.464	46096.26
742.804	45864.85
743.143	45866.21
743.483	45854.01
743.823	45588.7
744.162	45648.59
744.502	45730.85
744.841	45410.63
745.181	45473.68
745.52	45196.17
745.86	45220.12
746.199	45077.98
746.538	45124.76
746.877	44937.65
747.216	45001.83
747.556	44920.25
747.895	44796.86
748.234	44466.92
748.573	44466.7
748.911	44438
749.25	44314.39
749.589	44123.43
749.928	44108.29
750.267	44104.9
750.605	43842.53
750.944	43728.19
751.283	43574.07
751.621	43614.07
751.96	43348.76
752.298	43358.93
752.636	43471.92
752.975	43019.5
753.313	43066.73
753.651	43078.94
753.989	42838.72
754.327	42671.49
754.666	42527.09
755.004	42490.48
755.342	42512.63
755.679	42410.48
756.017	42032.19
756.355	42355.12
756.693	42029.02
757.031	42233.76
757.368	41856.37
757.706	41906.99
758.044	41714
758.381	41732.31
758.719	41618.19
759.056	41703.15
759.394	41444.63
759.731	41225.2
760.068	41245.77
760.405	41000.35
760.743	40940.24
761.08	41015.26
761.417	40874.48
761.754	40828.15
762.091	40813.01
762.428	40558.33
762.765	40354.94
763.102	40541.83
763.438	40245.79
763.775	40072.01
764.112	39991.34
764.449	40245.34
764.785	39827.5
765.122	39607.16
765.458	39412.82
765.795	39559.03
766.131	39395.19
766.467	39309.32
766.804	39131.92
767.14	39039.72
767.476	39024.13
767.812	38672.95
768.148	38772.61
768.485	38458.72
768.821	38346.41
769.157	38267.99
769.492	38095.57
769.828	38063.02
770.164	37688.57
770.5	37678.63
770.836	37592.08
771.171	37319.77
771.507	37350.5
771.842	36911.64
772.178	36958.65
772.513	36882.26
772.849	36644.98
773.184	36494.03
773.519	36436.17
773.855	36218.33
774.19	36054.72
774.525	35962.29
774.86	35902.86
775.195	35785.12
775.53	35502.87
775.865	35414.73
776.2	35203.44
776.535	34790.79
776.87	34938.14
777.205	34758.93
777.539	34646.84
777.874	34552.61
778.209	34311.03
778.543	34094.99
778.878	33954.88
779.212	33957.37
779.547	33698.62
779.881	33740.65
780.215	33620.43
780.55	33506.53
780.884	33358.74
781.218	33170.27
781.552	33046.43
781.886	32870.84
782.22	32665.43
782.554	32653.45
782.888	32375.94
783.222	32194.48
783.556	32113.12
783.889	32188.83
784.223	31969.63
784.557	31863.41
784.89	31854.37
785.224	31684.21
785.557	31550.43
785.891	31544.55
786.224	31505.46
786.558	31406.48
786.891	30956.54
787.224	31030.22
787.557	31007.39
787.891	30903.21
788.224	30909.99
788.557	30865.7
788.89	30647.85
789.223	30696.44
789.556	30561.53
789.888	30323.57
790.221	30225.26
790.554	30080.18
790.887	30188.88
791.219	30034.08
791.552	29916.8
791.884	29765.84
792.217	29735.33
792.549	29592.29
792.882	29454.89
793.214	29408.34
793.546	29289.47
793.879	29175.57
794.211	29144.16
794.543	29200.88
794.875	28976.03
795.207	28981
795.539	28957.05
795.871	28823.49
796.203	28593.22
796.535	28563.61
796.867	28491.98
797.198	28379.66
797.53	28373.34
797.862	28045.89
798.193	28139.44
798.525	27852.9
798.856	27877.98
799.188	27575.39
799.519	27524.32
799.85	27362.97
800.182	27426.69
800.513	27409.75
800.844	27106.25
801.175	27147.83
801.506	27193.71
801.837	26987.38
802.168	26912.58
802.499	26739.25
802.83	26631.46
803.161	26537.9
803.491	26424.23
803.822	26482.76
804.153	26151.93
804.483	26011.82
804.814	25890.01
805.145	25993.96
805.475	25807.98
805.805	25711.26
806.136	25642.11
806.466	25599.85
806.796	25621.54
807.126	25267.88
807.457	25335.9
807.787	25223.59
808.117	25179.07
808.447	25056.59
808.777	25109.01
809.107	25043.93
809.436	24938.85
809.766	24791.51
810.096	24686.2
810.426	24603.27
810.755	24615.92
811.085	24524.17
811.414	24331.18
811.744	24229.72
812.073	24217.06
812.403	24245.08
812.732	24007.12
813.061	24039.44
813.39	23901.14
813.719	23884.41
814.049	23978.88
814.378	23918.54
814.707	23816.39
815.036	23752.89
815.365	23654.36
815.693	23524.88
816.022	23654.82
816.351	23494.59
816.68	23511.09
817.008	23512.45
817.337	23300.47
817.665	23353.35
817.994	23449.62
818.322	23333.92
818.651	23307.48
818.979	23337.54
819.307	23319.46
819.636	23318.1
819.964	23045.11
820.292	23125.34
820.62	23098.67
820.948	23163.08
821.276	23085.11
821.604	23161.72
821.932	23132.34
822.259	23232
822.587	23102.06
822.915	23083.76
823.243	23205.34
823.57	23066.81
823.898	23141.38
824.225	23005.57
824.553	23052.35
824.88	23124.43
825.207	23130.76
825.535	23000.6
825.862	23147.26
826.189	22916.08
826.516	23076.53
826.843	23149.07
827.17	23077.88
827.497	23118.33
827.824	23069.07
828.151	23059.35
828.478	23075.17
828.805	23145.9
829.131	23005.57
829.458	22899.81
829.785	22702.75
830.111	22759.47
830.438	22968.51
830.764	22879.92
831.09	22934.38
831.417	22717.67
831.743	22737.1
832.069	22890.54
832.395	22696.87
832.722	22800.15
833.048	22787.04
833.374	22658.91
833.7	22657.1
834.026	22588.4
834.351	22635.86
834.677	22463.43
835.003	22542.75
835.329	22470.44
835.654	22456.2
835.98	22331.23
836.306	22377.79
836.631	22305.47
836.956	22301.63
837.282	22229.77
837.607	22152.26
837.932	22069.55
838.258	22020.28
838.583	22017.57
838.908	21899.16
839.233	21889.21
839.558	21872.49
839.883	21796.79
840.208	21699.84
840.533	21638.37
840.858	21729.44
841.182	21710.91
841.507	21532.61
841.832	21542.78
842.156	21489.22
842.481	21407.87
842.805	21369
843.13	21314.76
843.454	21416.91
843.778	21164.49
844.103	21165.84
844.427	21081.78
844.751	21124.94
845.075	21082.68
845.399	21094.88
845.723	20903.48
846.047	20938.28
846.371	20770.15
846.695	20753.42
847.019	20653.31
847.343	20562.24
847.666	20533.32
847.99	20436.14
848.313	20448.57
848.637	20359.76
848.96	20400.89
849.284	20233.89
849.607	20192.99
849.931	20096.94
850.254	20062.37
850.577	19933.56
850.9	19787.35
851.223	19820.34
851.546	19734.92
851.869	19551.87
852.192	19722.94
852.515	19520.46
852.838	19473.46
853.161	19545.55
853.483	19428.94
853.806	19387.58
854.129	19431.65
854.451	19314.37
854.774	19193.24
855.096	19169.96
855.419	19038.89
855.741	19030.98
856.063	18879.57
856.385	18981.27
856.708	18820.37
857.03	18763.19
857.352	18887.03
857.674	18696.08
857.996	18695.17
858.318	18663.31
858.64	18620.82
858.961	18529.3
859.283	18436.42
859.605	18440.94
859.926	18462.18
860.248	18352.36
860.57	18295.41
860.891	18255.86
861.212	18113.94
861.534	18134.96
861.855	18145.58
862.176	18222.42
862.498	18027.85
862.819	18062.42
863.14	17979.48
863.461	17904.01
863.782	17944.01
864.103	17882.76
864.424	17795.53
864.745	17792.15
865.065	17670.34
865.386	17659.72
865.707	17676.67
866.027	17624.01
866.348	17546.73
866.668	17591.92
866.989	17487.75
867.309	17388.99
867.63	17434.64
867.95	17410.91
868.27	17388.77
868.59	17341.08
868.91	17320.29
869.23	17300.86
869.55	17139.96
869.87	17204.59
870.19	17228.32
870.51	17137.7
870.83	17231.26
871.15	17056.8
871.469	17043.69
871.789	17103.8
872.109	16992.62
872.428	16897.48
872.748	17026.74
873.067	16841.44
873.386	16893.19
873.706	16852.73
874.025	16742
874.344	16682.12
874.663	16718.28
874.982	16654.55
875.301	16647.99
875.62	16645.96
875.939	16572.97
876.258	16590.14
876.577	16401.9
876.896	16537.04
877.214	16499.75
877.533	16466.53
877.852	16435.8
878.17	16498.39
878.489	16549.69
878.807	16391.5
879.125	16378.85
879.444	16459.52
879.762	16366.87
880.08	16296.82
880.398	16279.64
880.716	16292.52
881.034	16269.47
881.352	16297.04
881.67	16185.18
881.988	16172.53
882.306	16120.1
882.624	16142.02
882.941	16064.06
883.259	16075.13
883.577	16090.49
883.894	15946.09
884.212	15986.54
884.529	15935.02
884.846	15823.38
885.164	15897.51
885.481	15795.81
885.798	15849.6
886.115	15824.51
886.432	15859.31
886.75	15692.99
887.067	15790.62
887.383	15647.57
887.7	15703.84
888.017	15710.17
888.334	15575.03
888.651	15617.51
888.967	15500.91
889.284	15542.94
889.6	15569.6
889.917	15472.21
890.233	15537.97
890.55	15413.9
890.866	15436.95
891.182	15445.99
891.498	15387.69
891.815	15328.71
892.131	15204.19
892.447	15215.04
892.763	15160.8
893.079	15122.61
893.395	15140.24
893.71	15132.55
894.026	15032.9
894.342	14905.22
894.657	14876.97
894.973	14907.25
895.289	14861.83
895.604	14805.11
895.92	14805.11
896.235	14672.23
896.55	14693.92
896.865	14623.64
897.181	14538.45
897.496	14487.6
897.811	14417.77
898.126	14332.12
898.441	14393.82
898.756	14301.84
899.071	14255.06
899.386	14267.72
899.7	14139.13
900.015	14131.9
900.33	14036.09
900.644	13986.82
900.959	14032.92
901.273	13899.82
901.588	13892.36
901.902	13756.09
902.216	13745.7
902.531	13698.24
902.845	13582.99
903.159	13503.67
903.473	13468.64
903.787	13403.79
904.101	13344.35
904.415	13406.95
904.729	13324.24
905.042	13217.58
905.356	13199.95
905.67	13137.13
905.984	13198.59
906.297	13030.24
906.611	13049.67
906.924	12910.69
907.237	12867.75
907.551	12865.27
907.864	12740.07
908.177	12822.11
908.491	12684.03
908.804	12676.57
909.117	12582.34
909.43	12492.62
909.743	12499.18
910.056	12437.48
910.368	12339.63
910.681	12337.15
910.994	12302.8
911.307	12285.62
911.619	12112.75
911.932	12108.45
912.244	11998.85
912.557	12020.55
912.869	11950.94
913.181	11854.9
913.494	11845.41
913.806	11757.95
914.118	11717.95
914.43	11724.06
914.742	11713.43
915.054	11631.4
915.366	11619.65
915.678	11486.1
915.99	11468.47
916.302	11339.66
916.613	11390.28
916.925	11325.2
917.236	11329.26
917.548	11282.26
917.859	11300.56
918.171	11171.98
918.482	11104.64
918.794	11075.94
919.105	11134.02
919.416	10956.62
919.727	10925.66
920.038	10931.08
920.349	10875.49
920.66	10816.96
920.971	10815.61
921.282	10786.91
921.593	10757.08
921.903	10667.13
922.214	10602.28
922.525	10664.65
922.835	10541.49
923.146	10524.77
923.456	10539.91
923.767	10489.74
924.077	10460.81
924.387	10430.08
924.697	10327.71
925.008	10342.85
925.318	10323.41
925.628	10259.24
925.938	10193.7
926.248	10161.84
926.558	10135.17
926.867	10084.78
927.177	10014.04
927.487	10061.5
927.796	9956.64
928.106	9951.9
928.416	9930.43
928.725	9891.56
929.034	9849.08
929.344	9869.87
929.653	9832.13
929.962	9742.41
930.271	9689.31
930.581	9631.23
930.89	9628.52
931.199	9486.83
931.508	9505.13
931.817	9502.65
932.125	9460.16
932.434	9464
932.743	9372.93
933.051	9362.31
933.36	9302.2
933.669	9297.45
933.977	9260.39
934.286	9164.58
934.594	9308.07
934.902	9138.14
935.21	9053.39
935.519	9092.26
935.827	9086.61
936.135	9016.78
936.443	8910.34
936.751	8875.32
937.059	8845.71
937.367	8760.74
937.674	8796.68
937.982	8719.84
938.29	8659.73
938.597	8733.63
938.905	8634.42
939.213	8620.86
939.52	8479.85
939.827	8548.77
940.135	8499.28
940.442	8427.42
940.749	8422.67
941.056	8396.46
941.363	8309.23
941.67	8340.42
941.977	8213.19
942.284	8109.91
942.591	8155.34
942.898	8105.62
943.205	8114.89
943.511	7984.72
943.818	7956.25
944.125	7905.85
944.431	7941.1
944.738	7907.43
945.044	7845.97
945.35	7800.32
945.657	7706.53
945.963	7718.74
946.269	7642.13
946.575	7589.7
946.881	7603.03
947.187	7578.63
947.493	7532.98
947.799	7492.08
948.105	7498.86
948.41	7405.07
948.716	7420.67
949.022	7312.87
949.327	7387.67
949.633	7252.76
949.938	7236.04
950.244	7275.13
950.549	7148.58
950.854	7135.02
951.16	7066.33
951.465	7067.46
951.77	7061.81
952.075	6985.88
952.38	6956.95
952.685	6943.39
952.99	6843.73
953.294	6877.4
953.599	6838.31
953.904	6818.2
954.209	6754.02
954.513	6782.94
954.818	6720.57
955.122	6723.96
955.426	6680.57
955.731	6669.95
956.035	6572.78
956.339	6609.39
956.643	6593.8
956.948	6538.66
957.252	6501.82
957.556	6483.29
957.86	6495.27
958.163	6432.22
958.467	6410.75
958.771	6416.17
959.075	6417.75
959.378	6348.38
959.682	6309.74
959.985	6262.96
960.289	6252.34
960.592	6199.91
960.896	6209.62
961.199	6179.57
961.502	6172.11
961.805	6166.91
962.108	6099.57
962.411	6082.62
962.714	6026.35
963.017	6097.31
963.32	6070.19
963.623	6080.14
963.926	6029.29
964.228	5961.27
964.531	5905
964.833	5938.9
965.136	5856.87
965.438	5857.09
965.741	5886.02
966.043	5804.66
966.345	5777.77
966.648	5766.02
966.95	5763.76
967.252	5721.05
967.554	5650.09
967.856	5664.1
968.158	5624.1
968.46	5640.37
968.761	5581.39
969.063	5566.48
969.365	5541.17
969.666	5528.06
969.968	5533.71
970.269	5541.62
970.571	5504.78
970.872	5476.99
971.174	5407.16
971.475	5385.24
971.776	5420.49
972.077	5436.31
972.378	5312.47
972.679	5319.48
972.98	5329.87
973.281	5290.55
973.582	5259.82
973.883	5209.2
974.183	5235.87
974.484	5222.76
974.785	5142.31
975.085	5135.08
975.386	5123.55
975.686	5107.96
975.986	5049.2
976.287	5086.49
976.587	4980.96
976.887	4991.58
977.187	5004.01
977.487	5025.7
977.787	4948.87
978.087	4925.82
978.387	4871.81
978.687	4856.21
978.987	4793.16
979.286	4763.11
979.586	4824.12
979.885	4735.99
980.185	4714.07
980.484	4691.47
980.784	4729.44
981.083	4714.07
981.382	4686.5
981.682	4625.94
981.981	4602.66
982.28	4578.93
982.579	4582.55
982.878	4528.31
983.177	4518.37
983.475	4556.11
983.774	4527.64
984.073	4456.45
984.372	4462.1
984.67	4444.25
984.969	4430.46
985.267	4384.14
985.566	4367.64
985.864	4349.11
986.162	4289.22
986.461	4261.88
986.759	4284.48
987.057	4230.69
987.355	4205.84
987.653	4169.45
987.951	4230.47
988.249	4164.93
988.547	4130.81
988.844	4114.31
989.142	4084.03
989.44	4075.22
989.737	4083.58
990.035	4047.65
990.332	3973.53
990.63	4023.02
990.927	3966.07
991.224	4001.1
991.521	3949.57
991.819	3978.5
992.116	3903.92
992.413	3827.31
992.71	3864.83
993.006	3873.87
993.303	3768.56
993.6	3795.45
993.897	3783.93
994.193	3705.51
994.49	3711.84
994.787	3709.13
995.083	3663.03
995.379	3644.27
995.676	3634.33
995.972	3624.83
996.268	3566.53
996.565	3611.95
996.861	3532.63
997.157	3552.07
997.453	3513.42
997.749	3508.23
998.044	3487.66
998.34	3446.99
998.636	3453.09
998.932	3416.7
999.227	3396.37
999.523	3403.14
999.818	3380.32
1000.114	3357.04
1000.409	3317.05
1000.704	3328.12
1001	3321.57
1001.295	3301.45
1001.59	3267.78
1001.885	3273.43
1002.18	3235.92
1002.475	3239.08
1002.77	3224.39
1003.065	3157.73
1003.359	3182.36
1003.654	3148.91
1003.949	3153.89
1004.243	3112.31
1004.538	3064.62
1004.832	3087.45
1005.127	3115.02
1005.421	3037.28
1005.715	3045.87
1006.009	3036.15
1006.304	3004.51
1006.598	2994.79
1006.892	2976.94
1007.186	2956.6
1007.48	2929.49
1007.773	2901.01
1008.067	2922.25
1008.361	2877.51
1008.655	2883.16
1008.948	2852.65
1009.242	2830.05
1009.535	2824.86
1009.829	2819.66
1010.122	2781.47
1010.415	2779.43
1010.708	2729.04
1011.001	2754.12
1011.295	2729.94
1011.588	2696.04
1011.881	2692.2
1012.173	2659.44
1012.466	2675.93
1012.759	2667.35
1013.052	2644.97
1013.344	2595.71
1013.637	2649.04
1013.93	2602.71
1014.222	2583.96
1014.514	2570.85
1014.807	2561.36
1015.099	2520.91
1015.391	2522.49
1015.683	2508.48
1015.976	2467.35
1016.268	2468.25
1016.56	2469.84
1016.851	2440.01
1017.143	2393.91
1017.435	2415.15
1017.727	2374.02
1018.018	2361.59
1018.31	2351.65
1018.602	2324.98
1018.893	2333.79
1019.185	2304.19
1019.476	2309.16
1019.767	2268.71
1020.058	2290.41
1020.35	2251.99
1020.641	2241.37
1020.932	2254.47
1021.223	2208.15
1021.514	2177.41
1021.804	2148.71
1022.095	2137.42
1022.386	2162.05
1022.677	2126.12
1022.967	2135.38
1023.258	2113.24
1023.548	2091.09
1023.839	2052.45
1024.129	2075.5
1024.419	2057.19
1024.709	2022.84
1025	2003.41
1025.29	1985.78
1025.58	1979.68
1025.87	1953.47
1026.16	1955.73
1026.449	1922.51
1026.739	1948.27
1027.029	1920.25
1027.319	1871.43
1027.608	1923.18
1027.898	1856.97
1028.187	1847.71
1028.477	1833.47
1028.766	1832.34
1029.055	1781.27
1029.344	1800.48
1029.634	1771.32
1029.923	1768.39
1030.212	1726.35
1030.501	1743.08
1030.79	1717.99
1031.078	1736.75
1031.367	1707.82
1031.656	1685.9
1031.945	1673.92
1032.233	1682.06
1032.522	1645.9
1032.81	1647.26
1033.099	1662.63
1033.387	1617.43
1033.675	1602.29
1033.963	1593.48
1034.251	1585.57
1034.54	1586.7
1034.828	1543.76
1035.116	1518.45
1035.403	1534.95
1035.691	1522.74
1035.979	1522.29
1036.267	1503.53
1036.554	1476.64
1036.842	1464.66
1037.129	1459.24
1037.417	1435.06
1037.704	1471.67
1037.992	1418.79
1038.279	1411.11
1038.566	1389.86
1038.853	1389.86
1039.14	1389.86
