Data from aluminium_surface_pro_back_FLMS001491_00004.txt Node
Date: Wed Feb 08 15:33:29 GMT 2017
User: dcchb
Spectrometer: FLMS00149
Trigger mode: 0
Integration Time (sec): 2.000000E-2
Scans to average: 10
Electric dark correction enabled: true
Nonlinearity correction enabled: false
Boxcar width: 0
XAxis mode: Wavelengths
Number of Pixels in Spectrum: 2048
>>>>>Begin Spectral Data<<<<<
341.393	12.81
341.776	12.81
342.16	12.81
342.543	-51.37
342.927	-78.03
343.31	-83.68
343.693	-88.66
344.077	-76.68
344.46	-55.89
344.843	-53.4
345.226	-24.93
345.61	-10.24
345.993	-6.17
346.376	-9.34
346.759	0.16
347.142	22.75
347.525	35.41
347.908	76.31
348.291	65.01
348.674	86.48
349.057	122.86
349.44	131
349.823	145.69
350.206	165.8
350.588	213.71
350.971	233.82
351.354	236.08
351.737	281.28
352.119	281.5
352.502	287.15
352.884	307.72
353.267	328.28
353.65	307.72
354.032	317.89
354.414	343.88
354.797	363.76
355.179	340.94
355.562	326.93
355.944	340.94
356.326	350.2
356.709	366.47
357.091	360.82
357.473	372.12
357.855	393.37
358.238	368.06
358.62	380.26
359.002	374.38
359.384	378.45
359.766	372.8
360.148	386.36
360.53	392.24
360.912	378.9
361.294	367.38
361.676	367.83
362.057	378.68
362.439	350.65
362.821	368.28
363.203	345.01
363.584	385.23
363.966	365.57
364.348	348.39
364.729	372.35
365.111	358.34
365.493	373.03
365.874	361.5
366.256	361.95
366.637	356.3
367.019	356.3
367.4	359.47
367.781	382.52
368.163	382.74
368.544	367.38
368.925	383.2
369.306	385.46
369.688	368.51
370.069	377.55
370.45	345.23
370.831	379.35
371.212	380.71
371.593	383.2
371.974	379.58
372.355	376.64
372.736	396.76
373.117	385.46
373.498	377.09
373.879	385
374.26	383.42
374.641	375.29
375.021	382.52
375.402	399.92
375.783	405.34
376.163	414.61
376.544	421.16
376.925	427.04
377.305	397.66
377.686	411.9
378.066	419.35
378.447	422.07
378.827	434.95
379.208	424.1
379.588	435.4
379.968	421.39
380.349	443.76
380.729	439.92
381.109	453.93
381.489	464.78
381.87	446.7
382.25	458
382.63	427.04
383.01	467.04
383.39	456.41
383.77	471.33
384.15	483.98
384.53	483.31
384.91	467.94
385.29	485.57
385.67	499.8
386.049	480.82
386.429	488.28
386.809	502.29
387.189	511.33
387.568	497.09
387.948	495.74
388.328	522.63
388.707	535.06
389.087	540.25
389.466	543.87
389.846	553.59
390.225	553.81
390.605	542.51
390.984	553.14
391.363	553.36
391.743	565.79
392.122	572.8
392.501	582.96
392.881	599.69
393.26	598.33
393.639	606.02
394.018	634.94
394.397	614.15
394.776	613.47
395.155	623.19
395.534	619.57
395.913	633.59
396.292	667.03
396.671	666.8
397.05	670.87
397.429	657.99
397.808	674.94
398.186	676.75
398.565	706.58
398.944	696.63
399.323	723.3
399.701	724.2
400.08	717.65
400.458	725.33
400.837	724.43
401.215	733.7
401.594	755.16
401.972	768.5
402.351	782.51
402.729	781.6
403.107	783.19
403.486	787.93
403.864	807.82
404.242	821.6
404.62	829.51
404.999	830.64
405.377	832.9
405.755	844.43
406.133	859.79
406.511	857.08
406.889	886.23
407.267	889.62
407.645	904.54
408.023	933.01
408.401	929.62
408.779	917.87
409.156	954.48
409.534	966.68
409.912	995.38
410.29	1012.33
410.667	1009.85
411.045	1005.1
411.422	1043.52
411.8	1032.9
412.178	1090.75
412.555	1066.79
412.933	1068.6
413.31	1103.18
413.687	1139.11
414.065	1142.27
414.442	1127.13
414.819	1139.33
415.197	1167.36
415.574	1168.03
415.951	1168.49
416.328	1196.73
416.705	1227.02
417.082	1219.33
417.46	1224.3
417.837	1264.75
418.214	1297.52
418.591	1277.86
418.967	1287.58
419.344	1317.41
419.721	1355.6
420.098	1326.22
420.475	1352.21
420.852	1365.77
421.228	1398.54
421.605	1400.57
421.982	1416.16
422.358	1447.8
422.735	1464.07
423.111	1459.78
423.488	1490.96
423.864	1494.13
424.241	1507.69
424.617	1521.02
424.994	1525.76
425.37	1551.08
425.746	1550.85
426.123	1574.58
426.499	1587.46
426.875	1631.07
427.251	1633.33
427.627	1697.74
428.003	1690.05
428.379	1707
428.756	1741.58
429.132	1784.29
429.507	1797.62
429.883	1806.66
430.259	1848.02
430.635	1827.9
431.011	1857.51
431.387	1920.33
431.763	1959.65
432.138	1966.43
432.514	1977.5
432.89	2013.89
433.265	2037.16
433.641	2055.69
434.016	2062.02
434.392	2104.96
434.767	2168.46
435.143	2170.27
435.518	2150.61
435.894	2247.78
436.269	2217.27
436.644	2279.42
437.02	2295.24
437.395	2274.22
437.77	2336.14
438.145	2380.21
438.52	2368.45
438.895	2398.74
439.271	2412.07
439.646	2469.24
440.021	2497.04
440.395	2501.78
440.77	2490.71
441.145	2563.25
441.52	2617.26
441.895	2604.38
442.27	2615.91
442.645	2599.41
443.019	2642.57
443.394	2627.66
443.769	2679.41
444.143	2689.12
444.518	2741.78
444.892	2737.71
445.267	2753.53
445.641	2819.52
446.016	2796.69
446.39	2849.8
446.764	2836.01
447.139	2824.71
447.513	2909.23
447.887	2929.8
448.262	2945.84
448.636	2950.81
449.01	3018.61
449.384	3057.93
449.758	3030.81
450.132	3087.31
450.506	3094.09
450.88	3127.98
451.254	3098.15
451.628	3183.8
452.002	3191.94
452.376	3244.82
452.75	3255.89
453.123	3300.86
453.497	3370.24
453.871	3402.1
454.244	3438.94
454.618	3483
454.992	3504.92
455.365	3520.06
455.739	3608.87
456.112	3665.37
456.486	3697.69
456.859	3734.29
457.232	3787.85
457.606	3765.03
457.979	3839.15
458.352	3950.33
458.725	3974.74
459.099	4020.39
459.472	4094.06
459.845	4127.73
460.218	4178.35
460.591	4161.18
460.964	4238.46
461.337	4323.66
461.71	4369.53
462.083	4496.99
462.456	4466.25
462.829	4459.93
463.201	4558
463.574	4612.69
463.947	4647.49
464.32	4740.82
464.692	4803.64
465.065	4840.93
465.438	4928.39
465.81	5022.85
466.183	5053.13
466.555	5103.52
466.928	5209.96
467.3	5177.42
467.672	5334.7
468.045	5424.42
468.417	5407.7
468.789	5481.82
469.161	5524.53
469.534	5647.24
469.906	5784.86
470.278	5808.82
470.65	5886.33
471.022	6021.24
471.394	6117.06
471.766	6151.41
472.138	6249.93
472.51	6395.24
472.882	6451.74
473.253	6580.32
473.625	6671.62
473.997	6775.57
474.369	6789.36
474.74	6908.22
475.112	7026.86
475.484	7114.54
475.855	7274.77
476.227	7320.41
476.598	7552.73
476.97	7598.83
477.341	7797.69
477.713	7933.05
478.084	7971.25
478.455	8235.87
478.827	8290.11
479.198	8568.97
479.569	8587.5
479.94	8819.58
480.311	8897.55
480.682	9061.84
481.053	9311.32
481.424	9361.27
481.795	9443.75
482.166	9745.21
482.537	9764.64
482.908	9948.59
483.279	10092.09
483.65	10196.27
484.021	10448.69
484.391	10619.76
484.762	10708.8
485.133	10795.35
485.503	10958.51
485.874	11188.34
486.244	11273.53
486.615	11502.45
486.985	11617.48
487.356	11857.24
487.726	12013.85
488.097	12228.76
488.467	12369.1
488.837	12572.71
489.207	12673.27
489.578	12835.52
489.948	12974.73
490.318	13174.5
490.688	13294.5
491.058	13494.04
491.428	13685.45
491.798	13864.2
492.168	14150.07
492.538	14184.42
492.908	14337.41
493.278	14512.77
493.648	14459.21
494.017	14770.84
494.387	14834.57
494.757	15045.86
495.126	15166.54
495.496	15176.93
495.866	15373.54
496.235	15533.98
496.605	15796.58
496.974	15811.94
497.344	15959.28
497.713	16082.9
498.082	16237.69
498.452	16457.12
498.821	16487.63
499.19	16521.3
499.559	16726.27
499.928	16849.66
500.298	16990.22
500.667	17070.89
501.036	17128.74
501.405	17330.1
501.774	17325.8
502.143	17590.65
502.512	17616.42
502.88	17742.51
503.249	17749.07
503.618	17916.75
503.987	18069.28
504.356	18150.64
504.724	18268.6
505.093	18479.67
505.462	18473.34
505.83	18670.62
506.199	18717.86
506.567	18987
506.936	19017.28
507.304	19255.47
507.672	19404.16
508.041	19525.52
508.409	19685.29
508.777	19857.49
509.145	19964.6
509.514	19944.49
509.882	20241.88
510.25	20311.03
510.618	20549.9
510.986	20624.7
511.354	20906.5
511.722	21001.86
512.09	21291.8
512.458	21153.27
512.826	21431.23
513.193	21564.79
513.561	21639.81
513.929	21848.85
514.297	22077.77
514.664	22233.47
515.032	22389.17
515.4	22648.37
515.767	22639.56
516.135	22782.16
516.502	22712.33
516.869	23236.61
517.237	23205.19
517.604	23248.13
517.972	23555.02
518.339	23714.56
518.706	23791.39
519.073	23850.38
519.44	24056.7
519.808	24477.25
520.175	24338.5
520.542	24795.44
520.909	24878.6
521.276	24907.07
521.643	25265.25
522.009	25457.57
522.376	25637
522.743	25733.04
523.11	26034.5
523.477	26243.76
523.843	26446.69
524.21	26770.3
524.577	26988.6
524.943	27131.19
525.31	27235.15
525.676	27598.75
526.043	27786.77
526.409	27868.8
526.776	28204.16
527.142	28263.59
527.508	28426.07
527.874	28719.63
528.241	28909.23
528.607	29066.28
528.973	29315.99
529.339	29341.76
529.705	29679.6
530.071	29982.64
530.437	30028.29
530.803	30238
531.169	30477.77
531.535	30456.53
531.901	30510.54
532.267	30723.42
532.632	31021.71
532.998	31012.9
533.364	31263.74
533.73	31341.25
534.095	31444.98
534.461	31680.23
534.826	31876.15
535.192	31962.25
535.557	32240.66
535.923	32280.66
536.288	32331.28
536.653	32507.55
537.019	32476.36
537.384	32751.38
537.749	32923.58
538.114	32825.05
538.479	33032.06
538.845	33346.85
539.21	33306.17
539.575	33376.23
539.94	33637.69
540.305	33774.86
540.67	33754.52
541.034	33864.8
541.399	34175.75
541.764	34198.58
542.129	34333.72
542.494	34306.82
542.858	34476.76
543.223	34663.42
543.587	34862.97
543.952	34772.57
544.316	34914.27
544.681	35001.49
545.045	35194.26
545.41	35446.68
545.774	35434.93
546.138	35576.85
546.503	35719.89
546.867	35788.82
547.231	35948.36
547.595	36053.22
547.959	36275.13
548.324	36257.73
548.688	36365.3
549.052	36446.43
549.416	36586.76
549.779	36819.75
550.143	36839.64
550.507	37025.17
550.871	37138.84
551.235	37119.41
551.599	37438.04
551.962	37570.47
552.326	37704.47
552.689	37833.51
553.053	37673.74
553.417	37893.4
553.78	38345.81
554.143	38064.47
554.507	38406.6
554.87	38518.01
555.234	38849.76
555.597	38579.71
555.96	38911.67
556.323	39033.48
556.686	39101.27
557.05	39431.89
557.413	39593.24
557.776	39692.9
558.139	39915.94
558.502	40172.21
558.865	40250.4
559.228	40450.62
559.59	40517.73
559.953	40789.59
560.316	41338.5
560.679	41200.88
561.041	41433.87
561.404	41602.68
561.767	41901.65
562.129	41838.38
562.492	42328.31
562.854	42311.81
563.217	42321.53
563.579	42527.4
563.941	42784.57
564.304	43026.59
564.666	43395.17
565.028	43457.54
565.39	43524.21
565.753	43778.44
566.115	43994.93
566.477	44148.15
566.839	44271.31
567.201	44646.67
567.563	44701.58
567.925	44843.72
568.287	44830.39
568.648	45054.11
569.01	45290.49
569.372	45488.9
569.734	45523.7
570.095	45661.78
570.457	45839.63
570.819	45937.7
571.18	46125.95
571.542	46308.77
571.903	46470.8
572.265	46604.13
572.626	46667.4
572.987	46880.73
573.349	46999.6
573.71	47227.84
574.071	47294.73
574.432	47468.06
574.794	47812.91
575.155	47758.9
575.516	47583.31
575.877	47884.32
576.238	47975.17
576.599	48138.1
576.96	48100.36
577.32	48215.84
577.681	48308.94
578.042	48478.65
578.403	48425.55
578.763	48586
579.124	48571.08
579.485	48806.56
579.845	48965.87
580.206	48945.76
580.566	48869.15
580.927	48966.1
581.287	49254.91
581.648	49065.98
582.008	49307.33
582.368	49251.06
582.728	49355.47
583.089	49095.36
583.449	49208.35
583.809	49342.59
584.169	49486.54
584.529	49285.87
584.889	49692.41
585.249	49342.36
585.609	49259.88
585.969	49500.32
586.329	49386.88
586.688	49490.38
587.048	49510.04
587.408	49404.51
587.768	49463.04
588.127	49438.4
588.487	49474.79
588.846	49779.41
589.206	49423.04
589.565	49650.6
589.925	49701.45
590.284	49573.77
590.643	49724.72
591.003	49779.19
591.362	49921.33
591.721	49744.16
592.08	49835
592.44	49944.83
592.799	49853.31
593.158	49853.76
593.517	49868
593.876	49926.53
594.235	49879.3
594.593	49912.52
594.952	49965.62
595.311	49818.05
595.67	50032.51
596.029	50087.2
596.387	50144.15
596.746	50154.32
597.104	49969.01
597.463	50017.37
597.822	50248.1
598.18	50062.34
598.538	50108.22
598.897	50293.07
599.255	50082.45
599.613	50494.65
599.972	50325.84
600.33	50386.63
600.688	50303.24
601.046	50351.15
601.404	50434.54
601.762	50489.68
602.12	50666.62
602.478	50584.36
602.836	50629.11
603.194	50409.45
603.552	50557.24
603.91	50465.27
604.268	50738.48
604.625	50636.79
604.983	50752.04
605.341	50562.67
605.698	50778.71
606.056	50753.85
606.413	50820.51
606.771	50881.76
607.128	50887.63
607.485	50695.77
607.843	50838.37
608.2	50965.14
608.557	51149.77
608.914	50968.31
609.272	51201.97
609.629	51198.13
609.986	51324.91
610.343	51108.19
610.7	51354.96
611.057	51251.24
611.414	51225.93
611.771	51303.44
612.127	51401.74
612.484	51340.73
612.841	51343.21
613.198	51225.02
613.554	51394.06
613.911	51639.93
614.267	51558.8
614.624	51509.31
614.98	51647.61
615.337	51812.13
615.693	51773.26
616.05	51672.7
616.406	51874.72
616.762	51768.51
617.118	51814.84
617.475	51729.87
617.831	51837.89
618.187	51834.95
618.543	51946.36
618.899	52192.68
619.255	51980.94
619.611	52017.77
619.967	52076.07
620.323	52157.43
620.678	52012.35
621.034	51944.55
621.39	51975.29
621.746	51909.52
622.101	52293.24
622.457	52049.86
622.812	52044.44
623.168	52163.98
623.523	52071.55
623.879	52059.13
624.234	52022.52
624.589	52045.57
624.945	52097.99
625.3	52071.33
625.655	52027.04
626.01	52060.93
626.365	52026.81
626.72	51979.81
627.075	51973.03
627.43	51976.64
627.785	51882.18
628.14	51969.18
628.495	51975.29
628.85	51897.1
629.205	51899.36
629.559	52069.97
629.914	51919.02
630.269	51988.84
630.623	51865.68
630.978	51871.33
631.332	51996.98
631.687	52014.83
632.041	51756.99
632.396	51895.51
632.75	51825.23
633.104	51860.94
633.459	51648.51
633.813	51644.9
634.167	51663.2
634.521	51622.98
634.875	51526.26
635.229	51490.78
635.583	51331.24
635.937	51401.06
636.291	51279.26
636.645	51333.49
636.999	51282.2
637.352	51345.92
637.706	51149.77
638.06	51276.1
638.413	51188.41
638.767	51154.29
639.121	51075.87
639.474	50974.63
639.828	50957.01
640.181	51010.57
640.534	50953.17
640.888	50826.84
641.241	50754.3
641.594	50754.08
641.947	50853.73
642.301	50660.29
642.654	50692.83
643.007	50715.43
643.36	50657.13
643.713	50659.61
644.066	50616.68
644.419	50360.87
644.771	50233.41
645.124	49826.42
645.477	49898.73
645.83	49625.29
646.182	49482.47
646.535	49372.42
646.888	49390.95
647.24	49266.2
647.593	49394.34
647.945	49279.54
648.298	49121.35
648.65	49059.66
649.002	49028.92
649.355	49234.79
649.707	49013.78
650.059	49203.83
650.411	49696.7
650.763	49679.75
651.115	50087.88
651.467	49896.92
651.819	49918.16
652.171	49936.7
652.523	49751.16
652.875	49819.18
653.227	49550.26
653.578	49858.51
653.93	49706.42
654.282	49590.49
654.633	49406.09
654.985	49444.96
655.337	49421.91
655.688	49283.61
656.039	49513.66
656.391	49254.68
656.742	49269.59
657.094	49295.58
657.445	49219.88
657.796	49203.38
658.147	49243.15
658.498	49160.22
658.849	49186.66
659.2	49044.29
659.551	48939.21
659.902	49131.74
660.253	49049.94
660.604	49206.55
660.955	48918.64
661.306	49052.2
661.656	48905.76
662.007	48877.51
662.358	48895.59
662.708	48894.91
663.059	48825.54
663.409	48545.77
663.76	48856.72
664.11	48685.43
664.461	48754.13
664.811	48700.12
665.161	48617.63
665.511	48508.48
665.862	48539.9
666.212	48663.73
666.562	48645.2
666.912	48586
667.262	48418.77
667.612	48396.85
667.962	48523.85
668.312	48449.73
668.662	48548.26
669.011	48559.78
669.361	48410.86
669.711	48346.45
670.06	48234.14
670.41	48217.64
670.76	48299.9
671.109	48432.33
671.459	48225.1
671.808	48247.47
672.157	48301.26
672.507	48104.88
672.856	48144.43
673.205	48142.39
673.554	48206.57
673.904	48153.01
674.253	48387.36
674.602	48090.19
674.951	47488.62
675.3	47370.44
675.649	47985.56
675.998	47993.24
676.346	47942.85
676.695	48036.63
677.044	47591.22
677.393	47715.28
677.741	47732.46
678.09	47521.84
678.438	47553.71
678.787	47713.93
679.135	47601.84
679.484	47428.51
679.832	47493.6
680.181	47211.57
680.529	47359.81
680.877	47201.4
681.225	47254.05
681.573	47400.04
681.922	47042.08
682.27	47035.98
682.618	47222.87
682.966	46986.94
683.314	47066.26
683.661	46926.15
684.009	46803.22
684.357	46597.35
684.705	46564.13
685.053	46672.15
685.4	46504.7
685.748	46351.25
686.095	46345.38
686.443	46205.95
686.79	46055.89
687.138	46213.18
687.485	46096.34
687.832	45873.53
688.18	45882.34
688.527	45646.19
688.874	45824.94
689.221	45643.7
689.568	45576.13
689.915	45378.17
690.262	45439.41
690.609	45372.97
690.956	45289.36
691.303	45103.38
691.65	44978.18
691.997	44982.7
692.344	44613.67
692.69	44687.79
693.037	44627.68
693.383	44409.84
693.73	44526.89
694.077	44252.1
694.423	44335.49
694.769	44150.18
695.116	44029.05
695.462	44007.36
695.808	43681.27
696.155	43725.11
696.501	43567.6
696.847	43563.76
697.193	43193.14
697.539	43286.47
697.885	43023.2
698.231	42971.91
698.577	42961.51
698.923	42863.89
699.269	42591.35
699.614	42539.83
699.96	42506.38
700.306	42413.28
700.651	42096
700.997	42063.68
701.342	42026.62
701.688	42103
702.033	41762.45
702.379	41743.46
702.724	41645.84
703.069	41767.64
703.415	41264.38
703.76	41110.26
704.105	41291.27
704.45	41085.18
704.795	40877.72
705.14	40656.26
705.485	40802.25
705.83	40586.43
706.175	40556.38
706.52	40524.06
706.865	40350.73
707.209	40209.27
707.554	40064.64
707.899	40223.73
708.243	39921.37
708.588	39859.22
708.932	39680.69
709.277	39516.63
709.621	39577.19
709.966	39337.2
710.31	39505.78
710.654	39137.88
710.998	39075.29
711.342	39142.63
711.687	39036.87
712.031	38843.65
712.375	38705.8
712.719	38681.62
713.063	38659.03
713.407	38807.04
713.75	38604.34
714.094	38479.37
714.438	38352.82
714.782	38275.76
715.125	38104.24
715.469	38235.53
715.812	37972.94
716.156	37780.63
716.499	37896.33
716.843	37937.46
717.186	37653.85
717.53	37861.76
717.873	37771.82
718.216	37646.17
718.559	37601.2
718.902	37148.33
719.246	37349.91
719.589	37175.9
719.932	37123.93
720.275	37030.14
720.617	36959.41
720.96	36884.61
721.303	36871.95
721.646	36889.35
721.989	36533.88
722.331	36741.34
722.674	36613.43
723.016	36619.08
723.359	36409.14
723.701	36401.91
724.044	36280.11
724.386	36130.5
724.729	36337.05
725.071	36160.33
725.413	36152.65
725.755	35934.58
726.097	36024.74
726.439	35764.41
726.782	35756.28
727.124	35823.85
727.465	35641.25
727.807	35780.68
728.149	35639.44
728.491	35460.24
728.833	35648.94
729.175	35361.94
729.516	35387.7
729.858	35219.12
730.199	35377.98
730.541	35213.47
730.882	35098.44
731.224	35200.59
731.565	34911.78
731.906	34952.68
732.248	34957.65
732.589	34704.78
732.93	34730.99
733.271	34568.06
733.612	34621.62
733.953	34573.71
734.294	34434.28
734.635	34458.68
734.976	34519.25
735.317	34189.54
735.658	34240.61
735.999	34156.32
736.339	34123.33
736.68	34030
737.021	34042.88
737.361	33860.51
737.702	33992.71
738.042	33820.06
738.383	33717.69
738.723	33833.62
739.063	33750
739.404	33893.73
739.744	33712.04
740.084	33489.44
740.424	33498.71
740.764	33373.29
741.104	33484.47
741.444	33440.18
741.784	33305.95
742.124	33311.6
742.464	33307.53
742.804	33124.93
743.143	33032.73
743.483	33137.82
743.823	32902.57
744.162	32719.3
744.502	32861.66
744.841	32773.3
745.181	32655.79
745.52	32740.99
745.86	32646.53
746.199	32669.58
746.538	32517.72
746.877	32485.4
747.216	32461.67
747.556	32226.43
747.895	32506.42
748.234	32194.34
748.573	32052.65
748.911	31952.99
749.25	31983.5
749.589	31786.66
749.928	31814.23
750.267	31882.48
750.605	31667.57
750.944	31756.38
751.283	31500.8
751.621	31528.59
751.96	31281.14
752.298	31367.92
752.636	31282.27
752.975	31187.13
753.313	31080.69
753.651	31118.21
753.989	30871.66
754.327	30915.73
754.666	30688.61
755.004	30809.06
755.342	30740.82
755.679	30826.24
756.017	30503.53
756.355	30649.52
756.693	30433.03
757.031	30409.98
757.368	30285.01
757.706	30220.15
758.044	30042.53
758.381	30108.29
758.719	29937.22
759.056	29960.72
759.394	29855.42
759.731	29557.34
760.068	29616.55
760.405	29659.49
760.743	29473.5
761.08	29504.92
761.417	29311.02
761.754	29324.13
762.091	29101.09
762.428	29058.6
762.765	28801.21
763.102	29063.57
763.438	28803.47
763.775	28557.14
764.112	28658.84
764.449	28631.27
764.785	28407.32
765.122	28288.68
765.458	28045.97
765.795	28188.79
766.131	28132.75
766.467	27980.44
766.804	27702.25
767.14	27719.88
767.476	27684.17
767.812	27600.56
768.148	27559.88
768.485	27474.24
768.821	27190.4
769.157	27217.29
769.492	27060.46
769.828	27050.52
770.164	26810.75
770.5	26726.23
770.836	26694.37
771.171	26574.37
771.507	26483.3
771.842	26405.34
772.178	26371.21
772.513	26165.8
772.849	26126.02
773.184	25937.33
773.519	26060.04
773.855	25855.75
774.19	25791.34
774.525	25687.39
774.86	25634.06
775.195	25645.13
775.53	25522.2
775.865	25277
776.2	25106.61
776.535	25049.89
776.87	24991.81
777.205	24848.54
777.539	24631.15
777.874	24794.76
778.209	24523.8
778.543	24521.54
778.878	24363.13
779.212	24430.47
779.547	24176.92
779.881	24290.36
780.215	24141.44
780.55	24097.15
780.884	23925.4
781.218	23755.91
781.552	23927.66
781.886	23710.04
782.22	23551.4
782.554	23503.04
782.888	23324.06
783.222	23277.28
783.556	23063.28
783.889	23211.3
784.223	22905.32
784.557	22879.1
784.89	23052.43
785.224	22917.97
785.557	22737.86
785.891	22778.99
786.224	22633.23
786.558	22495.61
786.891	22393.01
787.224	22225.56
787.557	22184.2
787.891	22122.29
788.224	22184.2
788.557	22036.64
788.89	21947.15
789.223	21878.22
789.556	21752.13
789.888	21725.46
790.221	21623.09
790.554	21421.74
790.887	21449.08
791.219	21402.3
791.552	21320.27
791.884	21118.47
792.217	21234.17
792.549	21059.04
792.882	20886.61
793.214	20847.97
793.546	20852.04
793.879	20782.43
794.211	20553.29
794.543	20698.37
794.875	20593.96
795.207	20601.2
795.539	20525.49
795.871	20313.97
796.203	20183.81
796.535	20103.58
796.867	20138.16
797.198	20025.62
797.53	20047.31
797.862	19819.75
798.193	19895.45
798.525	19802.35
798.856	19765.74
799.188	19578.62
799.519	19437.38
799.85	19402.58
800.182	19426.09
800.513	19386.99
800.844	19208.69
801.175	19287.56
801.506	19324.84
801.837	19179.31
802.168	19063.16
802.499	19135.47
802.83	18951.3
803.161	18877.63
803.491	18893.9
803.822	18930.96
804.153	18778.87
804.483	18633.79
804.814	18493.45
805.145	18546.33
805.475	18485.09
805.805	18465.21
806.136	18486.67
806.466	18455.26
806.796	18328.94
807.126	18158.55
807.457	18082.62
807.787	18146.34
808.117	18114.48
808.447	17949.74
808.777	18057.76
809.107	17994.26
809.436	17911.32
809.766	17921.49
810.096	17864.32
810.426	17820.48
810.755	17736.41
811.085	17753.81
811.414	17666.81
811.744	17417.32
812.073	17542.74
812.403	17463.43
812.732	17396.31
813.061	17375.74
813.39	17355.63
813.719	17177.56
814.049	17358.57
814.378	17225.01
814.707	17110.89
815.036	17050.55
815.365	16968.97
815.693	16853.5
816.022	16886.04
816.351	16886.04
816.68	16722.43
817.008	16851.46
817.337	16613.73
817.665	16615.76
817.994	16604.69
818.322	16691.47
818.651	16481.08
818.979	16458.93
819.307	16489.21
819.636	16394.75
819.964	16300.97
820.292	16355.66
820.62	16325.83
820.948	16295.32
821.276	16364.47
821.604	16271.37
821.932	16266.62
822.259	16358.37
822.587	16288.77
822.915	16198.37
823.243	16259.61
823.57	16174.87
823.898	16306.62
824.225	16225.49
824.553	16192.5
824.88	16271.37
825.207	16299.84
825.535	16282.67
825.862	16297.58
826.189	16310.46
826.516	16332.61
826.843	16326.51
827.17	16349.78
827.497	16354.75
827.824	16320.4
828.151	16305.04
828.478	16200.18
828.805	16326.28
829.131	16261.2
829.458	16177.58
829.785	16066.4
830.111	16175.55
830.438	16243.12
830.764	16218.94
831.09	16180.75
831.417	16129.22
831.743	16253.74
832.069	16115.89
832.395	16086.29
832.722	16149.11
833.048	16069.34
833.374	16094.87
833.7	15994.99
834.026	16158.83
834.351	16175.1
834.677	16134.87
835.003	16046.06
835.329	16031.82
835.654	16009.23
835.98	15855.56
836.306	15937.36
836.631	15794.99
836.956	15798.61
837.282	15869.34
837.607	15751.15
837.932	15808.33
838.258	15772.17
838.583	15640.42
838.908	15723.58
839.233	15627.09
839.558	15676.13
839.883	15490.6
840.208	15441.56
840.533	15479.97
840.858	15508.45
841.182	15463.25
841.507	15360.88
841.832	15316.59
842.156	15307.1
842.481	15314.55
842.805	15267.55
843.13	15283.14
843.454	15304.61
843.778	15201.56
844.103	15265.29
844.427	15148.01
844.751	15128.8
845.075	15101.45
845.399	15066.43
845.723	14984.62
846.047	15082.02
846.371	14930.84
846.695	14882.93
847.019	14821.23
847.343	14761.58
847.666	14672.31
847.99	14706.44
848.313	14701.69
848.637	14646.32
848.96	14443.39
849.284	14453.79
849.607	14428.02
849.931	14345.77
850.254	14243.85
850.577	14307.12
850.9	14115.49
851.223	14076.4
851.546	14022.61
851.869	13872.78
852.192	14070.07
852.515	13800.7
852.838	13806.8
853.161	13788.27
853.483	13748.04
853.806	13722.28
854.129	13720.92
854.451	13513.7
854.774	13543.75
855.096	13494.94
855.419	13584.2
855.741	13457.65
856.063	13389.63
856.385	13295.4
856.708	13292.91
857.03	13268.96
857.352	13322.97
857.674	13231.22
857.996	13219.47
858.318	13035.97
858.64	13129.08
858.961	13057.44
859.283	13050.66
859.605	12939.02
859.926	13033.94
860.248	12909.42
860.57	12967.27
860.891	13000.49
861.212	12817.45
861.534	12785.13
861.855	12740.16
862.176	12713.95
862.498	12764.11
862.819	12788.29
863.14	12642.53
863.461	12713.95
863.782	12651.8
864.103	12677.34
864.424	12611.35
864.745	12741.29
865.065	12520.28
865.386	12615.42
865.707	12546.72
866.027	12541.52
866.348	12512.14
866.668	12558.7
866.989	12495.65
867.309	12414.52
867.63	12400.51
867.95	12389.89
868.27	12379.26
868.59	12362.32
868.91	12341.98
869.23	12341.53
869.55	12332.71
869.87	12234.64
870.19	12288.19
870.51	12287.74
870.83	12267.4
871.15	12253.84
871.469	12247.06
871.789	12245.26
872.109	12196.22
872.428	12163.9
872.748	12178.14
873.067	12176.56
873.386	12181.3
873.706	12107.18
874.025	12030.8
874.344	12088.88
874.663	12139.05
874.982	11982.67
875.301	11940.63
875.62	12001.42
875.939	11997.13
876.258	12013.62
876.577	11945.83
876.896	11958.49
877.214	11936.11
877.533	11901.54
877.852	11909.67
878.17	12026.51
878.489	12005.26
878.807	11894.08
879.125	11892.05
879.444	11917.13
879.762	11839.62
880.08	11869.9
880.398	11812.5
880.716	11841.65
881.034	11825.16
881.352	11759.62
881.67	11723.01
881.988	11755.1
882.306	11767.98
882.624	11662.45
882.941	11646.85
883.259	11594.2
883.577	11677.59
883.894	11570.25
884.212	11581.55
884.529	11574.09
884.846	11547.87
885.164	11440.76
885.481	11424.26
885.798	11434.66
886.115	11329.8
886.432	11377.03
886.75	11304.04
887.067	11378.84
887.383	11306.3
887.7	11266.07
888.017	11266.3
888.334	11330.48
888.651	11173.42
888.967	11209.8
889.284	11161.22
889.6	11102.69
889.917	10999.41
890.233	11041.9
890.55	11013.88
890.866	11009.81
891.182	10974.78
891.498	10959.87
891.815	10936.14
892.131	10853.88
892.447	10890.94
892.763	10843.49
893.079	10790.15
893.395	10765.75
893.71	10740.21
894.026	10726.43
894.342	10706.54
894.657	10557.17
894.973	10648.91
895.289	10576.37
895.604	10579.76
895.92	10568.47
896.235	10488.69
896.55	10432.65
896.865	10445.76
897.181	10484.85
897.496	10414.57
897.811	10428.81
898.126	10330.05
898.441	10308.36
898.756	10290.51
899.071	10251.86
899.386	10315.14
899.7	10126.89
900.015	10109.72
900.33	10103.84
900.644	10067.91
900.959	10097.07
901.273	10064.07
901.588	10026.56
901.902	10007.8
902.216	9943.4
902.531	9928.48
902.845	9977.75
903.159	9939.78
903.473	9851.87
903.787	9787.69
904.101	9773.68
904.415	9818.65
904.729	9807.13
905.042	9726.23
905.356	9684.87
905.67	9683.52
905.984	9680.35
906.297	9625.21
906.611	9496.4
906.924	9515.61
907.237	9513.8
907.551	9507.93
907.864	9455.27
908.177	9406.91
908.491	9429.74
908.804	9311.32
909.117	9317.42
909.43	9298.44
909.743	9193.36
910.056	9244.21
910.368	9198.33
910.681	9090.76
910.994	9060.93
911.307	8989.98
911.619	8960.37
911.932	9028.17
912.244	8996.53
912.557	8934.38
912.869	8851.22
913.181	8893.48
913.494	8748.4
913.806	8713.82
914.118	8759.93
914.43	8651
914.742	8707.95
915.054	8615.75
915.366	8629.98
915.678	8612.58
915.99	8527.84
916.302	8528.52
916.613	8521.06
916.925	8427.5
917.236	8393.83
917.548	8431.57
917.859	8363.1
918.171	8297.79
918.482	8253.72
918.794	8249.66
919.105	8246.94
919.416	8150.22
919.727	8166.04
920.038	8140.96
920.349	8037.23
920.66	8083.56
920.971	8036.33
921.282	8048.08
921.593	7974.63
921.903	7908.65
922.214	7879.95
922.525	7872.49
922.835	7852.83
923.146	7849.21
923.456	7709.56
923.767	7762.21
924.077	7762.66
924.387	7630.24
924.697	7619.16
925.008	7726.73
925.318	7512.95
925.628	7581.42
925.938	7544.14
926.248	7464.82
926.558	7442.22
926.867	7415.33
927.177	7370.36
927.487	7393.63
927.796	7353.41
928.106	7336.91
928.416	7246.97
928.725	7277.03
929.034	7229.34
929.344	7220.76
929.653	7164.49
929.962	7153.87
930.271	7108.9
930.581	7061.89
930.89	7057.37
931.199	7006.3
931.508	7046.98
931.817	7020.31
932.125	6971.95
932.434	6974.21
932.743	6891.73
933.051	6854.44
933.36	6844.27
933.669	6788.68
933.977	6774.21
934.286	6759.53
934.594	6746.64
934.902	6668
935.21	6602.69
935.519	6660.32
935.827	6555.01
936.135	6613.77
936.443	6512.07
936.751	6555.92
937.059	6489.7
937.367	6436.14
937.674	6455.35
937.982	6443.38
938.29	6376.03
938.597	6376.03
938.905	6258.07
939.213	6300.1
939.52	6272.31
939.827	6283.38
940.135	6203.16
940.442	6150.5
940.749	6231.63
941.056	6168.35
941.363	6127.45
941.67	6074.57
941.977	6014.01
942.284	6055.59
942.591	6000.45
942.898	5956.83
943.205	5955.25
943.511	5943.5
943.818	5922.94
944.125	5855.37
944.431	5869.15
944.738	5848.36
945.044	5839.1
945.35	5804.97
945.657	5744.19
945.963	5753.22
946.269	5735.82
946.575	5675.03
946.881	5684.3
947.187	5681.14
947.493	5697.41
947.799	5636.62
948.105	5611.31
948.41	5524.3
948.716	5555.49
949.022	5482.05
949.327	5520.91
949.633	5419.9
949.938	5442.27
950.244	5434.59
950.549	5390.75
950.854	5341.03
951.16	5376.06
951.465	5344.2
951.77	5287.25
952.075	5295.84
952.38	5263.07
952.685	5265.55
952.99	5169.28
953.294	5224.88
953.599	5208.38
953.904	5162.51
954.209	5085.9
954.513	5153.24
954.818	5079.12
955.122	5076.18
955.426	5102.62
955.731	5050.87
956.035	5001.38
956.339	5001.15
956.643	5007.93
956.948	4933.81
957.252	4962.06
957.556	4945.56
957.86	4868.05
958.163	4875.06
958.467	4880.93
958.771	4843.64
959.075	4849.52
959.378	4781.95
959.682	4794.61
959.985	4763.65
960.289	4726.58
960.592	4716.87
960.896	4736.53
961.199	4682.07
961.502	4657.43
961.805	4601.39
962.108	4609.3
962.411	4554.84
962.714	4515.97
963.017	4567.94
963.32	4562.3
963.623	4476.2
963.926	4540.37
964.228	4459.25
964.531	4483.43
964.833	4475.29
965.136	4432.58
965.438	4395.52
965.741	4397.55
966.043	4357.55
966.345	4372.7
966.648	4328.18
966.95	4302.19
967.252	4301.96
967.554	4277.11
967.856	4271.91
968.158	4233.04
968.46	4175.41
968.761	4183.55
969.063	4214.28
969.365	4171.8
969.666	4144.91
969.968	4129.54
970.269	4095.41
970.571	4119.37
970.872	4090.9
971.174	4078.69
971.475	4020.84
971.776	4026.72
972.077	4027.39
972.378	3995.08
972.679	3951.24
972.98	3962.31
973.281	3923.89
973.582	3938.81
973.883	3925.7
974.183	3910.56
974.484	3882.54
974.785	3872.82
975.085	3878.92
975.386	3886.83
975.686	3842.09
975.986	3794.86
976.287	3825.37
976.587	3788.76
976.887	3794.86
977.187	3740.85
977.487	3763.45
977.787	3712.15
978.087	3702.2
978.387	3674.64
978.687	3659.49
978.987	3692.71
979.286	3605.48
979.586	3667.86
979.885	3614.3
980.185	3593.06
980.484	3617.24
980.784	3539.72
981.083	3577.24
981.382	3534.07
981.682	3528.2
981.981	3465.6
982.28	3496.11
982.579	3430.57
982.878	3489.33
983.177	3426.05
983.475	3464.02
983.774	3408.88
984.073	3425.6
984.372	3420.18
984.67	3376.11
984.969	3411.82
985.267	3383.8
985.566	3350.12
985.864	3325.27
986.162	3294.76
986.461	3309.67
986.759	3220.64
987.057	3238.94
987.355	3224.03
987.653	3224.03
987.951	3226.29
988.249	3192.61
988.547	3161.65
988.844	3164.82
989.142	3198.72
989.44	3114.42
989.737	3072.16
990.035	3070.36
990.332	3080.3
990.63	3083.46
990.927	3036.46
991.224	3042.11
991.521	3026.74
991.819	3011.83
992.116	2990.59
992.413	2993.3
992.71	2998.49
993.006	2957.14
993.303	2973.41
993.6	2917.37
993.897	2884.37
994.193	2928.21
994.49	2847.54
994.787	2877.14
995.083	2846.18
995.379	2863.36
995.676	2841.44
995.972	2821.1
996.268	2813.64
996.565	2811.38
996.861	2772.29
997.157	2761.66
997.453	2739.52
997.749	2761.44
998.044	2732.96
998.34	2722.12
998.636	2729.58
998.932	2678.5
999.227	2688.22
999.523	2694.77
999.818	2653.64
1000.114	2637.15
1000.409	2617.04
1000.704	2596.25
1001	2614.1
1001.295	2584.95
1001.59	2602.35
1001.885	2598.51
1002.18	2512.18
1002.475	2553.53
1002.77	2522.57
1003.065	2466.31
1003.359	2494.1
1003.654	2458.85
1003.949	2452.97
1004.243	2458.85
1004.538	2426.98
1004.832	2428.79
1005.127	2388.57
1005.421	2388.12
1005.715	2362.13
1006.009	2372.52
1006.304	2379.3
1006.598	2339.08
1006.892	2325.97
1007.186	2327.33
1007.48	2299.3
1007.773	2332.75
1008.067	2280.55
1008.361	2276.03
1008.655	2252.3
1008.948	2237.38
1009.242	2221.11
1009.535	2215.01
1009.829	2239.87
1010.122	2163.71
1010.415	2149.03
1010.708	2162.36
1011.001	2147.22
1011.295	2163.94
1011.588	2135.01
1011.881	2107.67
1012.173	2065.86
1012.466	2075.36
1012.759	2080.78
1013.052	2058.41
1013.344	2072.42
1013.637	2049.37
1013.93	2028.58
1014.222	2033.1
1014.514	2024.73
1014.807	1972.31
1015.099	1963.04
1015.391	1991.29
1015.683	1972.31
1015.976	1963.27
1016.268	1937.05
1016.56	1948.13
1016.851	1892.53
1017.143	1895.02
1017.435	1879.2
1017.727	1871.29
1018.018	1869.71
1018.31	1853.89
1018.602	1836.49
1018.893	1817.96
1019.185	1807.79
1019.476	1807.34
1019.767	1788.36
1020.058	1772.54
1020.35	1775.48
1020.641	1748.81
1020.932	1720.56
1021.223	1704.29
1021.514	1712.65
1021.804	1723.95
1022.095	1684.63
1022.386	1685.31
1022.677	1692.77
1022.967	1669.49
1023.258	1654.58
1023.548	1668.36
1023.839	1626.55
1024.129	1609.6
1024.419	1610.96
1024.709	1585.65
1025	1567.57
1025.29	1593.56
1025.58	1574.35
1025.87	1567.35
1026.16	1544.75
1026.449	1558.53
1026.739	1528.93
1027.029	1533.9
1027.319	1499.32
1027.608	1489.61
1027.898	1514.24
1028.187	1483.28
1028.477	1468.82
1028.766	1459.33
1029.055	1440.57
1029.344	1464.3
1029.634	1429.27
1029.923	1432.43
1030.212	1423.85
1030.501	1399.21
1030.79	1378.65
1031.078	1397.41
1031.367	1345.66
1031.656	1342.72
1031.945	1342.04
1032.233	1335.94
1032.522	1322.61
1032.81	1332.55
1033.099	1293.23
1033.387	1284.64
1033.675	1309.05
1033.963	1296.84
1034.251	1262.27
1034.54	1269.5
1034.828	1252.55
1035.116	1243.74
1035.403	1234.25
1035.691	1263.4
1035.979	1242.38
1036.267	1218.65
1036.554	1208.03
1036.842	1219.33
1037.129	1185.21
1037.417	1173.68
1037.704	1180.46
1037.992	1175.04
1038.279	1145.66
1038.566	1177.75
1038.853	1177.75
1039.14	1177.75
