Data from aluminium_macbook_case_FLMS001491_025.txt Node
Date: Tue Feb 07 10:43:26 GMT 2017
User: dcchb
Spectrometer: FLMS00149
Trigger mode: 0
Integration Time (sec): 2.000000E-2
Scans to average: 10
Electric dark correction enabled: true
Nonlinearity correction enabled: false
Boxcar width: 0
XAxis mode: Wavelengths
Number of Pixels in Spectrum: 2048
>>>>>Begin Spectral Data<<<<<
341.393	-3.11
341.776	-3.11
342.16	-3.11
342.543	-47.63
342.927	-78.13
343.31	-79.72
343.693	-67.96
344.077	-56.89
344.46	-52.15
344.843	-42.88
345.226	-60.51
345.61	-37.91
345.993	-41.75
346.376	10.45
346.759	18.81
347.142	26.72
347.525	21.52
347.908	67.63
348.291	73.27
348.674	112.14
349.057	109.21
349.44	127.51
349.823	151.46
350.206	168.87
350.588	222.88
350.971	253.84
351.354	272.37
351.737	285.7
352.119	299.26
352.502	315.98
352.884	309.65
353.267	329.77
353.65	334.51
354.032	347.39
354.414	374.51
354.797	379.71
355.179	391.68
355.562	388.07
355.944	379.93
356.326	416.32
356.709	397.79
357.091	387.62
357.473	424.45
357.855	407.28
358.238	399.59
358.62	400.05
359.002	391.91
359.384	410.67
359.766	415.41
360.148	412.7
360.53	406.15
360.912	410.67
361.294	433.49
361.676	412.93
362.057	395.07
362.439	419.71
362.821	421.74
363.203	413.6
363.584	414.51
363.966	441.63
364.348	435.53
364.729	413.38
365.111	405.24
365.493	409.09
365.874	432.59
366.256	419.48
366.637	407.05
367.019	424.9
367.4	417.22
367.781	434.17
368.163	419.03
368.544	421.29
368.925	422.19
369.306	430.1
369.688	424
370.069	426.71
370.45	453.6
370.831	432.81
371.212	432.36
371.593	442.98
371.974	447.73
372.355	433.49
372.736	449.99
373.117	482.08
373.498	469.87
373.879	444.56
374.26	467.61
374.641	424.23
375.021	469.42
375.402	455.64
375.783	469.65
376.163	508.52
376.544	500.38
376.925	512.13
377.305	494.73
377.686	496.54
378.066	519.36
378.447	509.42
378.827	517.56
379.208	533.15
379.588	548.97
379.968	523.21
380.349	534.73
380.729	536.31
381.109	552.58
381.489	557.78
381.87	567.95
382.25	574.5
382.63	553.26
383.01	589.87
383.39	579.93
383.77	579.25
384.15	606.37
384.53	583.77
384.91	611.57
385.29	600.27
385.67	636.2
386.049	648.85
386.429	617.89
386.809	622.19
387.189	642.98
387.568	659.7
387.948	664.67
388.328	674.16
388.707	665.58
389.087	669.42
389.466	678
389.846	692.47
390.225	714.16
390.605	727.49
390.984	698.34
391.363	729.75
391.743	748.51
392.122	751.9
392.501	775.86
392.881	787.15
393.26	777.21
393.639	789.87
394.018	807.27
394.397	779.92
394.776	820.83
395.155	809.07
395.534	811.79
395.913	849.07
396.292	893.14
396.671	862.41
397.05	890.43
397.429	890.65
397.808	904.67
398.186	892.46
398.565	899.92
398.944	915.06
399.323	911.22
399.701	940.37
400.08	938.11
400.458	964.32
400.837	958.68
401.215	965.68
401.594	987.6
401.972	1009.75
402.351	1015.85
402.729	1062.63
403.107	1030.31
403.486	1051.33
403.864	1048.84
404.242	1049.75
404.62	1076.19
404.999	1130.42
405.377	1105.34
405.755	1108.5
406.133	1122.96
406.511	1165
406.889	1182.17
407.267	1179.23
407.645	1187.14
408.023	1221.95
408.401	1209.06
408.779	1235.96
409.156	1272.11
409.534	1283.19
409.912	1303.3
410.29	1355.5
410.667	1332.9
411.045	1384.43
411.422	1399.12
411.8	1392.34
412.178	1427.14
412.555	1439.57
412.933	1468.94
413.31	1479.57
413.687	1527.7
414.065	1520.24
414.442	1560.02
414.819	1564.31
415.197	1578.77
415.574	1601.6
415.951	1634.36
416.328	1632.56
416.705	1657.41
417.082	1675.94
417.46	1703.51
417.837	1692.67
418.214	1742.38
418.591	1753.46
418.967	1773.57
419.344	1798.2
419.721	1807.69
420.098	1823.06
420.475	1856.96
420.852	1851.08
421.228	1916.16
421.605	1928.14
421.982	1933.11
422.358	1942.38
422.735	1990.51
423.111	1989.61
423.488	2048.14
423.864	2054.69
424.241	2052.88
424.617	2102.6
424.994	2110.96
425.37	2134.69
425.746	2131.07
426.123	2181.69
426.499	2191.19
426.875	2243.84
427.251	2273.44
427.627	2310.28
428.003	2330.39
428.379	2363.16
428.756	2395.47
429.132	2437.96
429.507	2484.96
429.883	2515.02
430.259	2551.18
430.635	2571.74
431.011	2615.58
431.387	2659.87
431.763	2726.76
432.138	2737.16
432.514	2781.45
432.89	2792.07
433.265	2857.16
433.641	2907.1
434.016	2909.36
434.392	2966.98
434.767	3049.02
435.143	3021.67
435.518	3089.69
435.894	3108
436.269	3154.1
436.644	3249.91
437.02	3234.1
437.395	3243.81
437.77	3362.91
438.145	3351.61
438.52	3384.6
438.895	3434.99
439.271	3437.48
439.646	3531.49
440.021	3554.31
440.395	3564.71
440.77	3540.3
441.145	3588.89
441.52	3656.23
441.895	3701.2
442.27	3708.21
442.645	3726.06
443.019	3743.23
443.394	3800.41
443.769	3867.75
444.143	3838.83
444.518	3907.3
444.892	3922.89
445.267	3924.93
445.641	4011.48
446.016	4023.45
446.39	4074.07
446.764	4091.93
447.139	4088.76
447.513	4116.11
447.887	4151.36
448.262	4151.81
448.636	4198.59
449.01	4284.01
449.384	4324.69
449.758	4342.77
450.132	4401.3
450.506	4448.3
450.88	4459.37
451.254	4516.55
451.628	4568.52
452.002	4613.04
452.376	4651.01
452.75	4738.24
453.123	4736.66
453.497	4823.66
453.871	4889.19
454.244	5003.09
454.618	5038.12
454.992	5081.5
455.365	5083.99
455.739	5283.08
456.112	5264.32
456.486	5325.34
456.859	5390.88
457.232	5529.63
457.606	5533.24
457.979	5539.35
458.352	5651.21
458.725	5744.31
459.099	5762.16
459.472	5921.71
459.845	5945.21
460.218	6007.58
460.591	6116.73
460.964	6102.72
461.337	6303.39
461.71	6400.34
462.083	6502.48
462.456	6460.23
462.829	6529.83
463.201	6669.03
463.574	6708.13
463.947	6832.42
464.32	7016.14
464.692	7064.28
465.065	7100.66
465.438	7175.01
465.81	7336.81
466.183	7408
466.555	7503.59
466.928	7640.53
467.3	7610.25
467.672	7792.17
468.045	7968.89
468.417	7934.76
468.789	8028.55
469.161	8097.24
469.534	8247.3
469.906	8451.13
470.278	8555.99
470.65	8591.47
471.022	8820.84
471.394	9007.5
471.766	9048.63
472.138	9190.55
472.51	9396.42
472.882	9541.5
473.253	9687.26
473.625	9826.46
473.997	10104.2
474.369	10116.85
474.74	10206.79
475.112	10489.27
475.484	10724.97
475.855	10789.15
476.227	10902.59
476.598	11195.24
476.97	11308.23
477.341	11622.35
477.713	11651.5
478.084	11832.97
478.455	12176.01
478.827	12216.46
479.198	12627.07
479.569	12599.5
479.94	13007.85
480.311	13131.91
480.682	13448.52
481.053	13792.91
481.424	13942.29
481.795	14113.36
482.166	14399.68
482.537	14513.8
482.908	14944.07
483.279	15031.98
483.65	15360.78
484.021	15652.3
484.391	15768.46
484.762	16044.61
485.133	16126.86
485.503	16481.21
485.874	16751.93
486.244	16959.61
486.615	17215.88
486.985	17492.48
487.356	17766.82
487.726	17889.76
488.097	18295.17
488.467	18337.65
488.837	18704.88
489.207	18841.59
489.578	19207.24
489.948	19331.53
490.318	19692.87
490.688	19798.18
491.058	20133.31
491.428	20327.21
491.798	20564.49
492.168	21056.23
492.538	21147.3
492.908	21446.27
493.278	21686.27
493.648	21696.66
494.017	22090.32
494.387	22296.19
494.757	22453.03
495.126	22820.93
495.496	22892.11
495.866	23019.56
496.235	23342.72
496.605	23566.89
496.974	23613.22
497.344	23800.11
497.713	24055.47
498.082	24082.36
498.452	24375.23
498.821	24605.74
499.19	24645.74
499.559	24785.17
499.928	24942.9
500.298	25175.44
500.667	25457.69
501.036	25296.57
501.405	25753.96
501.774	25825.14
502.143	26084.34
502.512	26205.7
502.88	26457.44
503.249	26547.83
503.618	26879.12
503.987	26951.89
504.356	27266.46
504.724	27481.37
505.093	27586.9
505.462	27720.91
505.83	27990.73
506.199	28170.62
506.567	28496.26
506.936	28500.78
507.304	28913.42
507.672	28981.89
508.041	29150.93
508.409	29319.06
508.777	29554.08
509.145	29716.56
509.514	29931.02
509.882	30042.66
510.25	30207.17
510.618	30298.24
510.986	30529.42
511.354	30844.67
511.722	30993.14
512.09	31317.65
512.458	31396.75
512.826	31761.26
513.193	31873.12
513.561	32060.46
513.929	32231.98
514.297	32747.9
514.664	32901.56
515.032	33168.22
515.4	33287.09
515.767	33600.75
516.135	33822.22
516.502	33753.97
516.869	34413.16
517.237	34637.56
517.604	34607.51
517.972	34925.69
518.339	35237.32
518.706	35324.1
519.073	35562.96
519.44	35825.33
519.808	36214.47
520.175	36156.39
520.542	36616.72
520.909	36872.99
521.276	36866.43
521.643	37216.03
522.009	37558.16
522.376	37738.05
522.743	37934.88
523.11	38197.7
523.477	38745.7
523.843	38867.28
524.21	39316.99
524.577	39465.69
524.943	39572.12
525.31	39877.43
525.676	40276.29
526.043	40470.4
526.409	40904.29
526.776	41205.07
527.142	41466.08
527.508	41800.09
527.874	42132.28
528.241	42420.18
528.607	42496.57
528.973	43052.94
529.339	43075.08
529.705	43401.4
530.071	43765.69
530.437	43920.94
530.803	44093.13
531.169	44398.44
531.535	44262.17
531.901	44589.17
532.267	44703.74
532.632	44909.16
532.998	45059.44
533.364	45352.08
533.73	45483.38
534.095	45812.41
534.461	45704.17
534.826	46028.22
535.192	46176.47
535.557	46452.62
535.923	46385.5
536.288	46725.16
536.653	46842.21
537.019	46858.94
537.384	46928.54
537.749	47233.16
538.114	47211.02
538.479	47401.52
538.845	47732.81
539.21	47680.61
539.575	47873.6
539.94	48060.04
540.305	48385.45
540.67	48300.93
541.034	48572.56
541.399	48826.57
541.764	48844.2
542.129	48933.91
542.494	49129.16
542.858	49286.22
543.223	49430.85
543.587	49717.17
543.952	49612.54
544.316	49816.6
544.681	49774.57
545.045	49881.46
545.41	50140.21
545.774	50182.24
546.138	50176.82
546.503	50320.77
546.867	50243.93
547.231	50573.19
547.595	50806.18
547.959	50734.09
548.324	50856.35
548.688	50940.41
549.052	51017.02
549.416	51197.81
549.779	51250.23
550.143	51313.74
550.507	51502.21
550.871	51729.77
551.235	51645.93
551.599	51903.32
551.962	51998.69
552.326	52099.25
552.689	52352.13
553.053	52306.48
553.417	52332.69
553.78	52811.32
554.143	52728.84
554.507	52970.19
554.87	53008.61
555.234	53333.8
555.597	53217.19
555.96	53338.09
556.323	53539.67
556.686	53596.84
557.05	53822.37
557.413	53929.26
557.776	54089.26
558.139	54227.11
558.502	54235.24
558.865	54232.75
559.228	54382.36
559.59	54461.22
559.953	54589.81
560.316	54815.34
560.679	54860.53
561.041	55026.86
561.404	55156.35
561.767	55313.4
562.129	55202.9
562.492	55526.96
562.854	55474.08
563.217	55550.91
563.579	55709.55
563.941	55869.32
564.304	56031.8
564.666	56182.53
565.028	56151.57
565.39	56293.72
565.753	56445.8
566.115	56589.98
566.477	56660.26
566.839	56709.75
567.201	56854.38
567.563	56973.93
567.925	57062.06
568.287	57134.83
568.648	57275.61
569.01	57381.6
569.372	57598.32
569.734	57492.78
570.095	57684.64
570.457	57817.29
570.819	57869.04
571.18	57835.82
571.542	58045.08
571.903	58116.27
572.265	58153.1
572.626	58168.7
572.987	58220.67
573.349	58344.51
573.71	58348.13
574.071	58480.78
574.432	58511.96
574.794	58628.12
575.155	58521
575.516	58522.36
575.877	58584.05
576.238	58685.75
576.599	58791.05
576.96	58737.04
577.32	58836.7
577.681	58927.55
578.042	58923.48
578.403	58874.21
578.763	58994.44
579.124	58981.33
579.485	59142.46
579.845	59179.07
580.206	59096.36
580.566	59167.09
580.927	59205.28
581.287	59362.34
581.648	59302.9
582.008	59390.36
582.368	59334.32
582.728	59423.8
583.089	59439.85
583.449	59440.75
583.809	59449.11
584.169	59557.13
584.529	59477.14
584.889	59689.56
585.249	59490.02
585.609	59431.26
585.969	59619.51
586.329	59465.61
586.688	59584.48
587.048	59519.85
587.408	59475.78
587.768	59539.51
588.127	59513.75
588.487	59410.7
588.846	59557.36
589.206	59463.13
589.565	59448.66
589.925	59582.44
590.284	59387.87
590.643	59401.66
591.003	59436.01
591.362	59484.37
591.721	59391.94
592.08	59498.38
592.44	59465.84
592.799	59460.64
593.158	59483.92
593.517	59375.9
593.876	59482.79
594.235	59485.95
594.593	59535.21
594.952	59595.55
595.311	59470.81
595.67	59538.15
596.029	59692.27
596.387	59684.36
596.746	59719.84
597.104	59608.43
597.463	59667.19
597.822	59772.27
598.18	59697.24
598.538	59780.63
598.897	59935.66
599.255	59737.47
599.613	60090
599.972	59928.42
600.33	59918.48
600.688	59862.89
601.046	59984.47
601.404	60026.5
601.762	59999.83
602.12	60109.44
602.478	60122.09
602.836	60133.39
603.194	59948.99
603.552	60097.23
603.91	59930.68
604.268	60084.58
604.625	59989.89
604.983	60089.1
605.341	59957.8
605.698	60056.78
606.056	60025.82
606.413	60023.34
606.771	60128.87
607.128	60140.85
607.485	59995.54
607.843	60025.6
608.2	60134.75
608.557	60171.81
608.914	60058.14
609.272	60230.79
609.629	60186.95
609.986	60339.03
610.343	60245.48
610.7	60361.18
611.057	60376.32
611.414	60327.96
611.771	60342.65
612.127	60465.36
612.484	60463.33
612.841	60592.14
613.198	60496.77
613.554	60551.68
613.911	60679.14
614.267	60667.39
614.624	60654.05
614.98	60715.97
615.337	60916.19
615.693	60880.04
616.05	60834.84
616.406	60962.97
616.762	60886.59
617.118	60868.74
617.475	60936.99
617.831	60983.54
618.187	60968.62
618.543	60963.65
618.899	61067.6
619.255	60989.41
619.611	60947.61
619.967	61089.52
620.323	61156.19
620.678	61056.98
621.034	60965.91
621.39	60951.45
621.746	60880.04
622.101	61127.26
622.457	60903.54
622.812	60866.93
623.168	60961.39
623.523	60901.05
623.879	60953.93
624.234	60755.75
624.589	60879.59
624.945	60846.37
625.3	60871.9
625.655	60797.78
626.01	60787.16
626.365	60807.5
626.72	60765.92
627.075	60784.9
627.43	60758.46
627.785	60731.34
628.14	60849.53
628.495	60817.89
628.85	60726.82
629.205	60660.61
629.559	60857.89
629.914	60698.12
630.269	60787.16
630.623	60769.08
630.978	60688.18
631.332	60801.4
631.687	60780.15
632.041	60742.41
632.396	60817.21
632.75	60641.17
633.104	60728.4
633.459	60631.68
633.813	60630.78
634.167	60691.12
634.521	60653.15
634.875	60674.17
635.229	60583.1
635.583	60519.37
635.937	60613.6
636.291	60485.47
636.645	60487.05
636.999	60385.36
637.352	60485.02
637.706	60284.35
638.06	60416.55
638.413	60327.28
638.767	60275.08
639.121	60269.88
639.474	60066.05
639.828	60030.12
640.181	60101.98
640.534	60084.58
640.888	59977.69
641.241	59874.87
641.594	59859.73
641.947	59876.22
642.301	59763.68
642.654	59787.41
643.007	59718.26
643.36	59682.1
643.713	59660.86
644.066	59639.17
644.419	59486.63
644.771	59384.71
645.124	59086.86
645.477	59127.77
645.83	58947.66
646.182	58828.79
646.535	58720.55
646.888	58760.32
647.24	58601
647.593	58785.4
647.945	58613.88
648.298	58588.35
648.65	58551.74
649.002	58474.23
649.355	58605.75
649.707	58590.38
650.059	58689.59
650.411	58966.64
650.763	59146.75
651.115	59254.77
651.467	59219.74
651.819	59152.85
652.171	59167.99
652.523	59152.4
652.875	59095.45
653.227	59021.33
653.578	59193.08
653.93	59084.6
654.282	58985.62
654.633	58969.58
654.985	58995.12
655.337	59006.64
655.688	58967.09
656.039	58930.48
656.391	58809.36
656.742	58784.05
657.094	58817.72
657.445	58903.14
657.796	58826.31
658.147	58688
658.498	58709.93
658.849	58723.71
659.2	58671.06
659.551	58579.99
659.902	58700.43
660.253	58596.03
660.604	58537.27
660.955	58412.76
661.306	58506.99
661.656	58412.98
662.007	58379.54
662.358	58339.99
662.708	58335.7
663.059	58291.63
663.409	58088.7
663.76	58178.87
664.11	58189.94
664.461	58166.21
664.811	58138.87
665.161	58104.97
665.511	58052.54
665.862	58119.66
666.212	58109.94
666.562	58107
666.912	58061.58
667.262	58019.1
667.612	58014.12
667.962	58067.23
668.312	58041.69
668.662	58215.7
669.011	58077.17
669.361	58092.54
669.711	58116.27
670.06	58105.87
670.41	58146.32
670.76	58054.8
671.109	58180.67
671.459	58094.35
671.808	58091.18
672.157	58172.76
672.507	57918.76
672.856	57999.89
673.205	58015.48
673.554	58047.57
673.904	58000.34
674.253	58125.31
674.602	57988.36
674.951	57643.74
675.3	57525.1
675.649	57892.09
675.998	57906.78
676.346	57821.81
676.695	57951.53
677.044	57762.38
677.393	57781.14
677.741	57789.95
678.09	57682.16
678.438	57636.96
678.787	57693.23
679.135	57646
679.484	57393.12
679.832	57507.92
680.181	57363.75
680.529	57404.65
680.877	57253.24
681.225	57143.86
681.573	57279
681.922	57058.44
682.27	57018.67
682.618	56963.98
682.966	56849.64
683.314	56947.71
683.661	56865
684.009	56692.13
684.357	56620.26
684.705	56514.5
685.053	56672.01
685.4	56547.5
685.748	56395.18
686.095	56336.2
686.443	56309.54
686.79	56271.12
687.138	56260.5
687.485	56302.3
687.832	56206.71
688.18	56227.05
688.527	56074.29
688.874	56079.26
689.221	55925.37
689.568	55966.49
689.915	55904.58
690.262	55958.36
690.609	55824.58
690.956	55831.36
691.303	55740.51
691.65	55678.37
691.997	55679.72
692.344	55467.75
692.69	55483.57
693.037	55450.35
693.383	55256
693.73	55366.74
694.077	55241.32
694.423	55173.52
694.769	55124.71
695.116	55028.67
695.462	55031.6
695.808	54862.79
696.155	54962.45
696.501	54733.08
696.847	54800.65
697.193	54632.52
697.539	54708.45
697.885	54385.07
698.231	54432.52
698.577	54315.01
698.923	54320.89
699.269	54105.07
699.614	53937.4
699.96	53894.01
700.306	53803.39
700.651	53755.71
700.997	53644.97
701.342	53472.77
701.688	53510.74
702.033	53369.73
702.379	53277.98
702.724	53185.78
703.069	53184.19
703.415	52813.36
703.76	52871.66
704.105	52760.48
704.45	52730.2
704.795	52440.26
705.14	52376.76
705.485	52351.45
705.83	52207.27
706.175	52123.21
706.52	51963.89
706.865	51919.82
707.209	51861.07
707.554	51759.83
707.899	51750.33
708.243	51511.92
708.588	51426.05
708.932	51210.69
709.277	51379.04
709.621	51259.73
709.966	51076.68
710.31	51203.23
710.654	50893.86
710.998	50918.94
711.342	50952.39
711.687	50823.35
712.031	50794.2
712.375	50609.57
712.719	50747.2
713.063	50554.66
713.407	50807.08
713.75	50578.16
714.094	50585.62
714.438	50378.84
714.782	50390.14
715.125	50304.5
715.469	50397.38
715.812	50226.31
716.156	49935.24
716.499	50102.69
716.843	50128.46
717.186	49921
717.53	50035.13
717.873	49888.91
718.216	49848.01
718.559	49657.06
718.902	49466.78
719.246	49568.02
719.589	49309.49
719.932	49283.51
720.275	49139.78
720.617	49189.27
720.96	48970.07
721.303	49040.57
721.646	48996.51
721.989	48845.55
722.331	48871.99
722.674	48787.93
723.016	48833.12
723.359	48601.04
723.701	48635.16
724.044	48210.77
724.386	48110.66
724.729	48327.15
725.071	48216.87
725.413	47958.57
725.755	48056.87
726.097	47918.12
726.439	47629.54
726.782	47619.37
727.124	47640.84
727.465	47492.37
727.807	47360.85
728.149	47238.14
728.491	47124.92
728.833	47191.36
729.175	46949.56
729.516	46791.37
729.858	46804.25
730.199	46913.85
730.541	46721.31
730.882	46526.52
731.224	46657.36
731.565	46362.68
731.906	46400.19
732.248	46529.68
732.589	46042.91
732.93	45895.57
733.271	46016.47
733.612	46096.47
733.953	46166.53
734.294	45837.5
734.635	45673.21
734.976	45779.87
735.317	45630.95
735.658	45522.02
735.999	45658.52
736.339	45522.02
736.68	45750.49
737.021	45587.11
737.361	45421.91
737.702	45553.21
738.042	45233.67
738.383	45461.23
738.723	45524.51
739.063	45168.36
739.404	45308.92
739.744	45202.71
740.084	45108.7
740.424	45150.73
740.764	44977.63
741.104	45018.76
741.444	44738.09
741.784	44732.44
742.124	44860.57
742.464	44624.65
742.804	44712.55
743.143	44596.17
743.483	44551.43
743.823	44360.02
744.162	44359.34
744.502	44200.48
744.841	44227.82
745.181	44396.4
745.52	43924.78
745.86	44053.14
746.199	43830.09
746.538	43837.77
746.877	43803.65
747.216	43858.34
747.556	43577.67
747.895	43620.15
748.234	43391.91
748.573	43267.17
748.911	43386.94
749.25	43167.06
749.589	42987.4
749.928	42940.4
750.267	42985.59
750.605	42751.93
750.944	42745.15
751.283	42522.33
751.621	42572.04
751.96	42410.47
752.298	42269.45
752.636	42235.33
752.975	41972.29
753.313	41925.96
753.651	42064.04
753.989	41585.63
754.327	41593.99
754.666	41409.36
755.004	41382.25
755.342	41425.41
755.679	41241.91
756.017	41128.47
756.355	41170.5
756.693	40933.9
757.031	40991.07
757.368	40688.7
757.706	40611.19
758.044	40492.55
758.381	40519.22
758.719	40249.39
759.056	40345.66
759.394	40029.51
759.731	39845.56
760.068	39814.6
760.405	39598.79
760.743	39514.5
761.08	39586.36
761.417	39375.97
761.754	39439.25
762.091	39369.64
762.428	39124.9
762.765	39019.14
763.102	39152.7
763.438	38898.24
763.775	38731.24
764.112	38767.62
764.449	38627.29
764.785	38510.23
765.122	38285.6
765.458	38155.44
765.795	38042.45
766.131	38096.46
766.467	37876.12
766.804	37698.73
767.14	37573.53
767.476	37682.23
767.812	37437.72
768.148	37408.11
768.485	37189.59
768.821	36929.71
769.157	36976.94
769.492	36885.19
769.828	36701.24
770.164	36476.61
770.5	36362.49
770.836	36301.25
771.171	36088.6
771.507	36148.26
771.842	35682.06
772.178	35665.56
772.513	35708.27
772.849	35408.84
773.184	35390.76
773.519	35347.15
773.855	35167.49
774.19	34932.7
774.525	34802.31
774.86	34788.29
775.195	34617.68
775.53	34507.62
775.865	34234.18
776.2	34078.26
776.535	33847.75
776.87	33845.27
777.205	33701.54
777.539	33425.17
777.874	33470.59
778.209	33230.82
778.543	33291.61
778.878	33086.64
779.212	33038.74
779.547	32846.2
779.881	32797.61
780.215	32528.24
780.55	32585.87
780.884	32252.32
781.218	32413.22
781.552	32323.05
781.886	32032.43
782.22	31621.37
782.554	31665.66
782.888	31367.37
783.222	31321.27
783.556	31202.17
783.889	31255.28
784.223	31039.01
784.557	30969.86
784.89	31005.79
785.224	30706.59
785.557	30432.48
785.891	30572.59
786.224	30445.58
786.558	30420.5
786.891	30254.85
787.224	30103.45
787.557	29853.96
787.891	29867.29
788.224	29767.64
788.557	29768.54
788.89	29682.67
789.223	29589.11
789.556	29268.89
789.888	29155.22
790.221	29254.65
790.554	29004.94
790.887	29096.01
791.219	28924.95
791.552	28818.06
791.884	28651.96
792.217	28603.6
792.549	28566.76
792.882	28386.2
793.214	28222.82
793.546	28223.27
793.879	28141.01
794.211	28009.26
794.543	28076.15
794.875	27897.4
795.207	27972.43
795.539	27846.1
795.871	27664.41
796.203	27560.69
796.535	27343.52
796.867	27398.88
797.198	27288.38
797.53	27244.99
797.862	27117.08
798.193	27100.81
798.525	27011.1
798.856	26933.36
799.188	26629.64
799.519	26492.47
799.85	26355.52
800.182	26368.63
800.513	26433.49
800.844	26204.57
801.175	26222.42
801.506	26055.19
801.837	25986.94
802.168	25939.26
802.499	25759.15
802.83	25819.94
803.161	25675.99
803.491	25518.48
803.822	25549.67
804.153	25359.16
804.483	25208.66
804.814	25093.63
805.145	25189.68
805.475	25099.96
805.805	24984.94
806.136	24953.75
806.466	24829.91
806.796	24842.57
807.126	24524.84
807.457	24445.29
807.787	24415.46
808.117	24414.33
808.447	24299.3
808.777	24436.48
809.107	24297.5
809.436	24258.63
809.766	24171.62
810.096	24023.15
810.426	23958.97
810.755	23958.97
811.085	23861.12
811.414	23759.88
811.744	23584.3
812.073	23628.81
812.403	23586.78
812.732	23428.82
813.061	23516.5
813.39	23353.57
813.719	23357.41
814.049	23338.65
814.378	23166
814.707	23149.28
815.036	23127.13
815.365	23048.26
815.693	22847.82
816.022	22872.9
816.351	22862.51
816.68	22565.34
817.008	22735.73
817.337	22644.43
817.665	22519.24
817.994	22567.82
818.322	22457.55
818.651	22484.21
818.979	22341.16
819.307	22493.48
819.636	22427.04
819.964	22243.99
820.292	22335.51
820.62	22226.82
820.948	22185.24
821.276	22287.61
821.604	22221.39
821.932	22242.41
822.259	22240.38
822.587	22175.07
822.915	22165.35
823.243	22227.95
823.57	22149.53
823.898	22139.59
824.225	22091
824.553	22119.47
824.88	22120.15
825.207	22175.52
825.535	22142.98
825.862	22226.14
826.189	22039.48
826.516	22167.38
826.843	22257.78
827.17	22093.94
827.497	22280.83
827.824	22091.23
828.151	22156.76
828.478	22139.59
828.805	22196.54
829.131	22130.77
829.458	21944.11
829.785	21855.08
830.111	22066.59
830.438	22219.81
830.764	21992.92
831.09	22025.69
831.417	21905.92
831.743	22043.09
832.069	21988.63
832.395	21882.42
832.722	21952.02
833.048	21900.72
833.374	21834.96
833.7	21820.5
834.026	21775.3
834.351	21710.9
834.677	21758.13
835.003	21849.2
835.329	21811.91
835.654	21660.73
835.98	21625.7
836.306	21709.99
836.631	21486.72
836.956	21641.3
837.282	21444.92
837.607	21441.75
837.932	21453.05
838.258	21475.42
838.583	21371.92
838.908	21237.01
839.233	21337.8
839.558	21272.27
839.883	21136
840.208	21102.1
840.533	21100.97
840.858	21159.73
841.182	21051.03
841.507	21062.78
841.832	21044.47
842.156	20873.41
842.481	20868.43
842.805	20849
843.13	20841.32
843.454	20660.53
843.778	20769.23
844.103	20624.37
844.427	20575.11
844.751	20576.46
845.075	20527.65
845.399	20520.42
845.723	20355.91
846.047	20413.98
846.371	20282.69
846.695	20250.15
847.019	19969.93
847.343	19926.09
847.666	19894.67
847.99	19865.52
848.313	19886.54
848.637	19777.84
848.96	19753.21
849.284	19646.55
849.607	19527.23
849.931	19516.15
850.254	19407
850.577	19244.75
850.9	19118.88
851.223	19054.02
851.546	19119.1
851.869	18966.56
852.192	19063.51
852.515	18921.59
852.838	18803.18
853.161	18717.53
853.483	18676.18
853.806	18525.22
854.129	18692.22
854.451	18472.34
854.774	18519.57
855.096	18374.71
855.419	18315.73
855.741	18356.86
856.063	18273.25
856.385	18242.29
856.708	18198.67
857.03	18030.54
857.352	18083.2
857.674	17959.81
857.996	17957.1
858.318	17840.49
858.64	17833.71
858.961	17774.5
859.283	17728.4
859.605	17690.44
859.926	17631.91
860.248	17526.15
860.57	17601.4
860.891	17489.31
861.212	17412.48
861.534	17385.36
861.855	17407.28
862.176	17412.25
862.498	17418.13
862.819	17353.72
863.14	17262.2
863.461	17244.57
863.782	17177.46
864.103	17211.81
864.424	17034.64
864.745	17115.76
865.065	17022.66
865.386	16944.7
865.707	16961.42
866.027	16979.05
866.348	16869.22
866.668	16907.63
866.989	16860.4
867.309	16709
867.63	16824.02
867.95	16784.93
868.27	16645.27
868.59	16686.17
868.91	16676.91
869.23	16664.25
869.55	16567.53
869.87	16586.06
870.19	16609.79
870.51	16546.97
870.83	16504.93
871.15	16383.13
871.469	16448.66
871.789	16411.6
872.109	16483.46
872.428	16344.94
872.748	16359.17
873.067	16393.98
873.386	16374.32
873.706	16330.93
874.025	16247.09
874.344	16266.97
874.663	16267.2
874.982	16206.18
875.301	16202.12
875.62	16103.14
875.939	16127.99
876.258	16189.01
876.577	16054.55
876.896	16069.24
877.214	16118.28
877.533	16074.44
877.852	16024.72
878.17	15944.27
878.489	15982.69
878.807	15977.26
879.125	15943.14
879.444	15855.68
879.762	15849.58
880.08	15911.5
880.398	15765.52
880.716	15895.46
881.034	15906.98
881.352	15775.69
881.67	15699.53
881.988	15822.24
882.306	15812.75
882.624	15677.38
882.941	15641.23
883.259	15653.88
883.577	15602.58
883.894	15557.16
884.212	15517.61
884.529	15511.97
884.846	15423.15
885.164	15395.81
885.481	15420.67
885.798	15429.26
886.115	15376.15
886.432	15423.83
886.75	15235.14
887.067	15198.3
887.383	15250.95
887.7	15215.25
888.017	15057.29
888.334	15145.19
888.651	15148.81
888.967	15143.84
889.284	15001.7
889.6	15013
889.917	14932.32
890.233	14952.21
890.55	14816.16
890.866	14821.81
891.182	14793.57
891.498	14705.43
891.815	14723.06
892.131	14610.97
892.447	14559.67
892.763	14515.16
893.079	14555.38
893.395	14509.51
893.71	14515.61
894.026	14472.67
894.342	14387.25
894.657	14268.61
894.973	14317.87
895.289	14227.03
895.604	14177.76
895.92	14154.03
896.235	14012.57
896.55	14116.52
896.865	14038.56
897.181	14028.84
897.496	14015.73
897.811	13989.97
898.126	13782.74
898.441	13757.43
898.756	13777.55
899.071	13743.88
899.386	13672.69
899.7	13507.5
900.015	13574.39
900.33	13367.84
900.644	13420.27
900.959	13497.1
901.273	13387.95
901.588	13218.92
901.902	13324.68
902.216	13183.21
902.531	13188.41
902.845	13129.43
903.159	13053.95
903.473	13081.97
903.787	12924.69
904.101	12852.6
904.415	12904.58
904.729	12761.08
905.042	12745.71
905.356	12749.78
905.67	12632.94
905.984	12782.55
906.297	12550.46
906.611	12562.21
906.924	12553.85
907.237	12554.98
907.551	12432.72
907.864	12328.77
908.177	12343.01
908.491	12302.33
908.804	12207.42
909.117	12133.97
909.43	12211.49
909.743	12105.95
910.056	12110.47
910.368	12002.68
910.681	12020.08
910.994	11918.61
911.307	11915.9
911.619	11731.27
911.932	11877.94
912.244	11758.62
912.557	11715.68
912.869	11637.04
913.181	11606.53
913.494	11642.91
913.806	11509.36
914.118	11491.73
914.43	11416.03
914.742	11378.29
915.054	11311.4
915.366	11256.94
915.678	11257.39
915.99	11170.61
916.302	11155.47
916.613	11073.89
916.925	11109.37
917.236	11150.5
917.548	11041.57
917.859	11053.1
918.171	10873.44
918.482	10952.54
918.794	10850.39
919.105	10829.6
919.416	10719.55
919.727	10739.21
920.038	10700.57
920.349	10633.45
920.66	10561.81
920.971	10567.91
921.282	10618.08
921.593	10546.67
921.903	10356.39
922.214	10397.07
922.525	10361.14
922.835	10377.41
923.146	10282.5
923.456	10251.54
923.767	10120.24
924.077	10179.22
924.387	10104.42
924.697	10018.1
925.008	10119.56
925.318	10009.74
925.628	9994.6
925.938	9972.22
926.248	9904.2
926.558	9817.65
926.867	9788.05
927.177	9746.47
927.487	9720.7
927.796	9627.6
928.106	9627.83
928.416	9594.61
928.725	9494.5
929.034	9456.98
929.344	9505.12
929.653	9436.87
929.962	9387.61
930.271	9370.43
930.581	9263.54
930.89	9228.06
931.199	9124.56
931.508	9143.77
931.817	9152.81
932.125	9116.43
932.434	9073.26
932.743	8984.68
933.051	8913.95
933.36	8913.04
933.669	8858.81
933.977	8841.41
934.286	8871.46
934.594	8784.01
934.902	8769.32
935.21	8672.82
935.519	8670.79
935.827	8705.36
936.135	8579.27
936.443	8571.81
936.751	8471.47
937.059	8492.94
937.367	8452.04
937.674	8410.23
937.982	8361.42
938.29	8326.62
938.597	8244.13
938.905	8245.72
939.213	8207.75
939.52	8176.56
939.827	8161.65
940.135	8127.98
940.442	8113.52
940.749	8083.23
941.056	8075.32
941.363	7953.07
941.67	7940.41
941.977	7850.92
942.284	7840.08
942.591	7862.22
942.898	7794.2
943.205	7765.73
943.511	7749.23
943.818	7646.86
944.125	7630.14
944.431	7525.96
944.738	7561.89
945.044	7527.77
945.35	7454.1
945.657	7453.87
945.963	7358.96
946.269	7432.4
946.575	7388.34
946.881	7345.17
947.187	7323.93
947.493	7262.92
947.799	7237.61
948.105	7245.52
948.41	7153.77
948.716	7139.08
949.022	7102.69
949.327	7098.17
949.633	6983.15
949.938	7074.45
950.244	7029.02
950.549	6923.26
950.854	6981.12
951.16	6909.25
951.465	6847.79
951.77	6855.7
952.075	6830.16
952.38	6808.92
952.685	6763.04
952.99	6718.98
953.294	6711.29
953.599	6703.84
953.904	6723.5
954.209	6642.37
954.513	6635.81
954.818	6586.32
955.122	6580.45
955.426	6586.55
955.731	6553.1
956.035	6490.73
956.339	6450.51
956.643	6391.98
956.948	6456.38
957.252	6351.3
957.556	6355.37
957.86	6304.52
958.163	6304.07
958.467	6270.4
958.771	6270.17
959.075	6224.07
959.378	6195.6
959.682	6226.79
959.985	6112.89
960.289	6111.08
960.592	6084.87
960.896	6078.77
961.199	6061.59
961.502	6008.26
961.805	6024.3
962.108	5926.23
962.411	5911.99
962.714	5889.39
963.017	5895.04
963.32	5905.66
963.623	5890.07
963.926	5846.91
964.228	5834.48
964.531	5744.09
964.833	5793.58
965.136	5771.2
965.438	5730.53
965.741	5631.09
966.043	5648.95
966.345	5680.81
966.648	5608.04
966.95	5617.99
967.252	5509.97
967.554	5503.41
967.856	5562.17
968.158	5493.02
968.46	5434.72
968.761	5440.14
969.063	5395.62
969.365	5396.3
969.666	5383.87
969.968	5305.68
970.269	5301.39
970.571	5266.13
970.872	5276.08
971.174	5226.13
971.475	5218.9
971.776	5215.29
972.077	5165.12
972.378	5149.53
972.679	5166.7
972.98	5146.14
973.281	5055.74
973.582	5030.21
973.883	5014.16
974.183	5033.37
974.484	4978.68
974.785	4924.45
975.085	4921.51
975.386	4940.04
975.686	4834.05
975.986	4882.64
976.287	4880.15
976.587	4834.28
976.887	4828.4
977.187	4784.34
977.487	4723.32
977.787	4765.81
978.087	4682.65
978.387	4689.88
978.687	4642.65
978.987	4642.42
979.286	4595.87
979.586	4608.3
979.885	4552.48
980.185	4615.08
980.484	4526.94
980.784	4520.39
981.083	4517
981.382	4479.26
981.682	4423.67
981.981	4454.4
982.28	4389.09
982.579	4377.34
982.878	4366.27
983.177	4363.56
983.475	4358.36
983.774	4348.42
984.073	4288.08
984.372	4257.35
984.67	4231.81
984.969	4204.69
985.267	4242.43
985.566	4169.44
985.864	4158.14
986.162	4141.42
986.461	4105.26
986.759	4126.28
987.057	4055.54
987.355	4053.74
987.653	4029.33
987.951	4005.6
988.249	4010.8
988.547	4005.6
988.844	3955.88
989.142	3963.57
989.44	3901.42
989.737	3929.67
990.035	3877.92
990.332	3862.78
990.63	3881.54
990.927	3816.68
991.224	3863.46
991.521	3834.31
991.819	3781.65
992.116	3804.7
992.413	3740.07
992.71	3730.81
993.006	3712.05
993.303	3722.22
993.6	3689.45
993.897	3683.12
994.193	3648.55
994.49	3627.76
994.787	3579.17
995.083	3610.13
995.379	3550.25
995.676	3551.38
995.972	3512.05
996.268	3526.29
996.565	3471.83
996.861	3451.04
997.157	3444.26
997.453	3480.42
997.749	3420.31
998.044	3447.42
998.34	3353.41
998.636	3359.52
998.932	3350.7
999.227	3366.52
999.523	3349.12
999.818	3326.3
1000.114	3266.64
1000.409	3288.56
1000.704	3233.42
1001	3221.89
1001.295	3260.54
1001.59	3196.81
1001.885	3205.17
1002.18	3197.94
1002.475	3141.67
1002.77	3155.23
1003.065	3108.22
1003.359	3125.4
1003.654	3108
1003.949	3111.84
1004.243	3091.95
1004.538	3072.52
1004.832	3044.95
1005.127	3017.6
1005.421	3004.27
1005.715	2968.11
1006.009	2988.9
1006.304	2931.05
1006.598	2927.44
1006.892	2927.44
1007.186	2899.64
1007.48	2861
1007.773	2875.01
1008.067	2823.94
1008.361	2828.46
1008.655	2792.53
1008.948	2827.1
1009.242	2781.23
1009.535	2793.88
1009.829	2767.89
1010.122	2758.63
1010.415	2711.85
1010.708	2675.69
1011.001	2677.73
1011.295	2663.49
1011.588	2645.64
1011.881	2624.62
1012.173	2585.75
1012.466	2613.55
1012.759	2583.04
1013.052	2550.5
1013.344	2563.15
1013.637	2558.41
1013.93	2510.27
1014.222	2527.45
1014.514	2516.83
1014.807	2457.39
1015.099	2438.18
1015.391	2404.06
1015.683	2450.84
1015.976	2432.08
1016.268	2382.82
1016.56	2394.12
1016.851	2352.31
1017.143	2362.48
1017.435	2365.19
1017.727	2324.06
1018.018	2280
1018.31	2265.99
1018.602	2272.99
1018.893	2246.33
1019.185	2255.36
1019.476	2258.08
1019.767	2230.28
1020.058	2203.16
1020.35	2190.28
1020.641	2173.11
1020.932	2154.58
1021.223	2126.1
1021.514	2125.42
1021.804	2099.21
1022.095	2063.96
1022.386	2084.3
1022.677	2070.06
1022.967	2071.19
1023.258	2032.32
1023.548	2005.88
1023.839	1994.13
1024.129	1973.56
1024.419	1979.44
1024.709	1931.08
1025	1898.31
1025.29	1939.67
1025.58	1893.57
1025.87	1897.86
1026.16	1862.38
1026.449	1858.31
1026.739	1840.91
1027.029	1822.16
1027.319	1809.05
1027.608	1825.09
1027.898	1800.46
1028.187	1798.65
1028.477	1786
1028.766	1753.68
1029.055	1738.99
1029.344	1743.74
1029.634	1727.92
1029.923	1714.81
1030.212	1705.1
1030.501	1684.98
1030.79	1653.12
1031.078	1652.67
1031.367	1645.89
1031.656	1656.51
1031.945	1628.94
1032.233	1593.23
1032.522	1602.73
1032.81	1578.77
1033.099	1583.29
1033.387	1561.15
1033.675	1575.16
1033.963	1523.63
1034.251	1511.88
1034.54	1524.54
1034.828	1497.19
1035.116	1505.78
1035.403	1499.23
1035.691	1462.39
1035.979	1454.48
1036.267	1454.71
1036.554	1433.01
1036.842	1423.75
1037.129	1422.62
1037.417	1407.48
1037.704	1390.98
1037.992	1384.65
1038.279	1389.17
1038.566	1386.46
1038.853	1386.46
1039.14	1386.46
