Data from aluminium_macbook_case_FLMS001491_094.txt Node
Date: Tue Feb 07 10:44:27 GMT 2017
User: dcchb
Spectrometer: FLMS00149
Trigger mode: 0
Integration Time (sec): 2.000000E-2
Scans to average: 10
Electric dark correction enabled: true
Nonlinearity correction enabled: false
Boxcar width: 0
XAxis mode: Wavelengths
Number of Pixels in Spectrum: 2048
>>>>>Begin Spectral Data<<<<<
341.393	-10.61
341.776	-10.61
342.16	-10.61
342.543	-67.33
342.927	-50.15
343.31	-71.62
343.693	-64.16
344.077	-77.05
344.46	-68.91
344.843	-42.02
345.226	-46.76
345.61	-22.13
345.993	-44.73
346.376	-2.7
346.759	31.2
347.142	21.93
347.525	32.1
347.908	81.82
348.291	73.91
348.674	77.75
349.057	121.37
349.44	131.99
349.823	155.72
350.206	182.38
350.588	223.74
350.971	249.95
351.354	265.77
351.737	295.83
352.119	296.28
352.502	324.53
352.884	322.04
353.267	350.06
353.65	351.87
354.032	353.9
354.414	369.04
354.797	356.16
355.179	372.66
355.562	396.84
355.944	392.09
356.326	384.86
356.709	403.39
357.091	400.68
357.473	402.26
357.855	390.06
358.238	428.93
358.62	407.91
359.002	411.08
359.384	410.85
359.766	411.75
360.148	402.26
360.53	407.69
360.912	397.52
361.294	431.87
361.676	408.82
362.057	401.81
362.439	424.86
362.821	406.56
363.203	408.59
363.584	396.84
363.966	406.33
364.348	426.67
364.729	422.83
365.111	396.84
365.493	420.57
365.874	430.74
366.256	418.99
366.637	434.35
367.019	428.48
367.4	429.83
367.781	415.14
368.163	440.68
368.544	437.06
368.925	437.74
369.306	442.49
369.688	444.75
370.069	440.23
370.45	442.49
370.831	454.24
371.212	442.26
371.593	453.56
371.974	449.95
372.355	446.56
372.736	470.28
373.117	471.41
373.498	454.01
373.879	464.63
374.26	445.2
374.641	463.5
375.021	460.57
375.402	467.57
375.783	480.68
376.163	526.55
376.544	520.9
376.925	524.97
377.305	510.51
377.686	509.15
378.066	519.1
378.447	519.77
378.827	520
379.208	536.72
379.588	540.11
379.968	524.75
380.349	552.32
380.729	566.78
381.109	571.52
381.489	549.15
381.87	555.93
382.25	566.78
382.63	581.02
383.01	567.91
383.39	603.16
383.77	595.25
384.15	577.85
384.53	577.4
384.91	604.07
385.29	616.72
385.67	631.86
386.049	641.58
386.429	642.48
386.809	640
387.189	653.33
387.568	676.38
387.948	647
388.328	672.54
388.707	677.06
389.087	706.21
389.466	681.13
389.846	700.79
390.225	731.07
390.605	718.64
390.984	729.03
391.363	743.95
391.743	757.51
392.122	767
392.501	788.92
392.881	785.76
393.26	793.67
393.639	803.83
394.018	786.89
394.397	820.56
394.776	808.35
395.155	838.64
395.534	844.06
395.913	840.44
396.292	866.88
396.671	880.89
397.05	889.03
397.429	870.27
397.808	886.09
398.186	910.27
398.565	911.85
398.944	908.24
399.323	906.2
399.701	937.39
400.08	962.93
400.458	944.85
400.837	963.6
401.215	999.76
401.594	1008.58
401.972	1005.41
402.351	1014.68
402.729	1030.95
403.107	1059.65
403.486	1063.94
403.864	1072.3
404.242	1076.37
404.62	1086.99
404.999	1112.75
405.377	1131.74
405.755	1154.79
406.133	1175.12
406.511	1163.15
406.889	1191.17
407.267	1177.61
407.645	1210.15
408.023	1253.31
408.401	1257.16
408.779	1285.4
409.156	1277.04
409.534	1273.65
409.912	1301.9
410.29	1356.36
410.667	1355.68
411.045	1381.22
411.422	1397.72
411.8	1411.28
412.178	1444.95
412.555	1452.86
412.933	1513.87
413.31	1498.73
413.687	1501.44
414.065	1508.45
414.442	1548.67
414.819	1583.25
415.197	1580.99
415.574	1628.9
415.951	1662.12
416.328	1647.43
416.705	1667.54
417.082	1673.19
417.46	1721.55
417.837	1732.4
418.214	1739.63
418.591	1731.95
418.967	1792.96
419.344	1803.81
419.721	1835.45
420.098	1842
420.475	1860.98
420.852	1875.9
421.228	1877.25
421.605	1936.91
421.982	1919.51
422.358	1991.6
422.735	1987.31
423.111	1978.04
423.488	2027.98
423.864	2065.5
424.241	2062.78
424.617	2073.86
424.994	2140.97
425.37	2156.34
425.746	2168.32
426.123	2197.92
426.499	2227.07
426.875	2275.89
427.251	2312.5
427.627	2322.44
428.003	2352.27
428.379	2399.5
428.756	2448.31
429.132	2444.24
429.507	2470.68
429.883	2520.4
430.259	2575.77
430.635	2584.58
431.011	2590.68
431.387	2710
431.763	2715.87
432.138	2744.12
432.514	2776.44
432.89	2822.99
433.265	2862.54
433.641	2928.98
434.016	2933.95
434.392	2998.58
434.767	3061.18
435.143	3077.22
435.518	3091.01
435.894	3135.98
436.269	3187.95
436.644	3221.17
437.02	3243.77
437.395	3258.69
437.77	3358.12
438.145	3385.69
438.52	3453.26
438.895	3462.75
439.271	3457.1
439.646	3556.76
440.021	3600.37
440.395	3607.6
440.77	3571.67
441.145	3610.54
441.52	3694.61
441.895	3684.89
442.27	3766.24
442.645	3754.72
443.019	3879.69
443.394	3808.95
443.769	3843.53
444.143	3874.26
444.518	3986.12
444.892	3916.07
445.267	3990.42
445.641	4022.51
446.016	4009.17
446.39	4072
446.764	4095.27
447.139	4130.53
447.513	4193.58
447.887	4187.25
448.262	4262.95
448.636	4257.3
449.01	4312.44
449.384	4382.27
449.758	4401.71
450.132	4432.89
450.506	4469.5
450.88	4476.96
451.254	4517.18
451.628	4598.76
452.002	4643.06
452.376	4696.61
452.75	4748.59
453.123	4786.78
453.497	4919.43
453.871	4913.78
454.244	4989.49
454.618	5043.05
454.992	5149.94
455.365	5126.21
455.739	5272.87
456.112	5340.44
456.486	5383.15
456.859	5439.65
457.232	5572.07
457.606	5548.12
457.979	5655.91
458.352	5788.79
458.725	5809.35
459.099	5812.29
459.472	6044.15
459.845	6034.43
460.218	6073.07
460.591	6129.8
460.964	6155.78
461.337	6332.73
461.71	6403.69
462.083	6482.1
462.456	6488.88
462.829	6560.29
463.201	6699.95
463.574	6727.97
463.947	6864.01
464.32	6992.82
464.692	7004.12
465.065	7172.03
465.438	7212.48
465.81	7314.4
466.183	7431.23
466.555	7570.89
466.928	7664.67
467.3	7655.63
467.672	7801.16
468.045	8050.65
468.417	8044.77
468.789	8089.74
469.161	8244.77
469.534	8355.95
469.906	8545.55
470.278	8600.24
470.65	8727.02
471.022	8851.76
471.394	9011.08
471.766	9119.1
472.138	9200.9
472.51	9389.37
472.882	9541.68
473.253	9681.12
473.625	9809.7
473.997	10043.59
474.369	10137.15
474.74	10214.66
475.112	10519.74
475.484	10612.16
475.855	10812.39
476.227	10911.14
476.598	11290.79
476.97	11403.1
477.341	11638.13
477.713	11765.58
478.084	11882.64
478.455	12161.5
478.827	12308.17
479.198	12734.14
479.569	12729.85
479.94	13055.04
480.311	13195.15
480.682	13509.49
481.053	13799.2
481.424	14043.49
481.795	14161.68
482.166	14384.27
482.537	14596.47
482.908	14906.51
483.279	15069.45
483.65	15278.03
484.021	15664.69
484.391	15756.66
484.762	16080.04
485.133	16166.59
485.503	16407.72
485.874	16801.38
486.244	16928.16
486.615	17370.63
486.985	17491.98
487.356	17934.68
487.726	18037.05
488.097	18486.31
488.467	18317.05
488.837	18932.17
489.207	19090.13
489.578	19341.2
489.948	19545.04
490.318	19915.87
490.688	19877.01
491.058	20146.6
491.428	20470.66
491.798	20676.76
492.168	21045.79
492.538	21154.71
492.908	21377.08
493.278	21615.26
493.648	21671.76
494.017	21934.13
494.387	22235.59
494.757	22435.58
495.126	22642.36
495.496	22719.19
495.866	22942.69
496.235	23184.72
496.605	23515.55
496.974	23668.54
497.344	23817.92
497.713	24066.95
498.082	24330.45
498.452	24582.19
498.821	24610.44
499.19	24772.02
499.559	25151.44
499.928	25182.18
500.298	25430.76
500.667	25639.57
501.036	25638.21
501.405	25901.48
501.774	25955.72
502.143	26190.51
502.512	26259.21
502.88	26527
503.249	26576.72
503.618	26798.18
503.987	27044.95
504.356	27100.54
504.724	27338.28
505.093	27454.89
505.462	27613.53
505.83	27761.32
506.199	27982.56
506.567	28374.18
506.936	28310.68
507.304	28788.64
507.672	28895.53
508.041	29045.35
508.409	29381.39
508.777	29619.35
509.145	29881.04
509.514	29920.13
509.882	30274.92
510.25	30371.87
510.618	30609.38
510.986	30787.23
511.354	31175.69
511.722	31328
512.09	31616.58
512.458	31625.17
512.826	31761.66
513.193	32025.61
513.561	32235.32
513.929	32412.04
514.297	32733.16
514.664	32958.92
515.032	33054.06
515.4	33412.92
515.767	33562.97
516.135	33811.1
516.502	33686.36
516.869	34080.02
517.237	34327.02
517.604	34367.7
517.972	34750.29
518.339	35003.61
518.706	35081.8
519.073	35228.92
519.44	35510.49
519.808	35952.29
520.175	36171.04
520.542	36480.86
520.909	36865.94
521.276	36962.43
521.643	37408.97
522.009	37705.92
522.376	38002.63
522.743	38165.11
523.11	38682.39
523.477	38916.73
523.843	39167.8
524.21	39456.83
524.577	39739.31
524.943	39814.79
525.31	40049.58
525.676	40549.46
526.043	40751.26
526.409	40893.18
526.776	41233.05
527.142	41299.04
527.508	41532.93
527.874	41965.69
528.241	42253.37
528.607	42339.92
528.973	42691.32
529.339	42696.07
529.705	43021.71
530.071	43337.18
530.437	43522.49
530.803	43848.13
531.169	44105.97
531.535	44119.98
531.901	44390.26
532.267	44699.4
532.632	45034.54
532.998	45094.87
533.364	45423.9
533.73	45597.46
534.095	45805.59
534.461	46041.29
534.826	46177.33
535.192	46379.13
535.557	46728.28
535.923	46760.59
536.288	46834.94
536.653	47101.6
537.019	47021.15
537.384	47304.08
537.749	47511.99
538.114	47481.48
538.479	47628.14
538.845	47833.33
539.21	47719.66
539.575	48026.55
539.94	48042.59
540.305	48478.51
540.67	48276.71
541.034	48455.46
541.399	48712.63
541.764	48843.02
542.129	49052.28
542.494	49095.45
542.858	49195.33
543.223	49231.04
543.587	49477.81
543.952	49527.3
544.316	49593.74
544.681	49630.57
545.045	49895.2
545.41	50039.15
545.774	50149.88
546.138	50183.1
546.503	50386.26
546.867	50461.74
547.231	50736.99
547.595	50823.99
547.959	50962.97
548.324	50939.47
548.688	51132.23
549.052	51291.32
549.416	51307.37
549.779	51347.59
550.143	51574.7
550.507	51688.82
550.871	51899.67
551.235	51861.7
551.599	52119.55
551.962	52151.86
552.326	52207.45
552.689	52380.33
553.053	52294.91
553.417	52537.39
553.78	52752.75
554.143	52712.98
554.507	52762.24
554.87	53038.85
555.234	53190.48
555.597	53125.85
555.96	53254.43
556.323	53508.44
556.686	53443.35
557.05	53665.5
557.413	53832.95
557.776	53825.94
558.139	54072.49
558.502	54098.7
558.865	54204.24
559.228	54421.41
559.59	54576.88
559.953	54588.18
560.316	54945.24
560.679	54940.72
561.041	55107.72
561.404	55178.9
561.767	55428.39
562.129	55347.03
562.492	55687.59
562.854	55644.43
563.217	55658.66
563.579	55834.48
563.941	56028.15
564.304	56097.07
564.666	56285.99
565.028	56349.27
565.39	56441.69
565.753	56509.26
566.115	56514.69
566.477	56742.7
566.839	56803.72
567.201	57006.2
567.563	56945.64
567.925	57127.1
568.287	57189.24
568.648	57254.33
569.01	57463.36
569.372	57533.19
569.734	57486.19
570.095	57665.39
570.457	57730.02
570.819	57750.59
571.18	57780.64
571.542	58003.69
571.903	58040.75
572.265	58061.99
572.626	58169.56
572.987	58261.99
573.349	58241.19
573.71	58402.77
574.071	58401.42
574.432	58475.99
574.794	58634.4
575.155	58665.59
575.516	58639.15
575.877	58684.12
576.238	58781.52
576.599	58875.53
576.96	58885.47
577.32	58959.14
577.681	59011.57
578.042	59073.94
578.403	59030.78
578.763	59118.23
579.124	59178.8
579.485	59241.85
579.845	59252.92
580.206	59226.48
580.566	59313.48
580.927	59311.9
581.287	59374.72
581.648	59218.12
582.008	59351.67
582.368	59353.03
582.728	59393.25
583.089	59367.49
583.449	59463.54
583.809	59422.41
584.169	59421.28
584.529	59396.19
584.889	59540.6
585.249	59392.58
585.609	59364.1
585.969	59614.04
586.329	59488.17
586.688	59542.63
587.048	59505.12
587.408	59444.55
587.768	59529.97
588.127	59494.95
588.487	59416.76
588.846	59590.31
589.206	59473.03
589.565	59435.51
589.925	59556.19
590.284	59540.37
590.643	59549.18
591.003	59585.11
591.362	59684.32
591.721	59566.81
592.08	59586.02
592.44	59579.24
592.799	59651.78
593.158	59582.63
593.517	59621.72
593.876	59673.02
594.235	59652.23
594.593	59647.94
594.952	59742.4
595.311	59679.8
595.67	59659.69
596.029	59757.09
596.387	59873.24
596.746	59908.95
597.104	59753.92
597.463	59727.71
597.822	59828.05
598.18	59745.11
598.538	59714.15
598.897	59892.9
599.255	59630.54
599.613	59989.17
599.972	59856.75
600.33	59877.76
600.688	59792.57
601.046	59881.38
601.404	59973.35
601.762	59946.23
602.12	60028.94
602.478	60087.25
602.836	60057.64
603.194	59963.86
603.552	60005.89
603.91	59891.32
604.268	60012.22
604.625	59957.76
604.983	60175.83
605.341	60066.46
605.698	60119.34
606.056	60122.73
606.413	60106.23
606.771	60225.32
607.128	60200.92
607.485	60152.1
607.843	60193.91
608.2	60298.32
608.557	60328.15
608.914	60229.84
609.272	60361.82
609.629	60413.11
609.986	60540.34
610.343	60329.95
610.7	60503.73
611.057	60573.56
611.414	60478.65
611.771	60536.95
612.127	60600.68
612.484	60562.04
612.841	60688.14
613.198	60550.06
613.554	60600
613.911	60766.33
614.267	60706.89
614.624	60666.44
614.98	60744.41
615.337	60852.2
615.693	60777.63
616.05	60695.37
616.406	60882.93
616.762	60737.85
617.118	60789.83
617.475	60887.23
617.831	60923.84
618.187	60893.33
618.543	60918.64
618.899	61048.8
619.255	60996.15
619.611	61013.1
619.967	61067.56
620.323	61115.7
620.678	60981.91
621.034	60892.65
621.39	60978.98
621.746	60912.54
622.101	61149.82
622.457	60930.16
622.812	61052.42
623.168	61065.98
623.523	61019.65
623.879	61098.07
624.234	60941.46
624.589	61024.17
624.945	61006.55
625.3	61013.1
625.655	61032.08
626.01	60987.11
626.365	61027.56
626.72	60956.15
627.075	60895.14
627.43	60900.79
627.785	60883.84
628.14	60912.76
628.495	60947.34
628.85	60921.58
629.205	60816.49
629.559	60973.33
629.914	60778.3
630.269	60826.21
630.623	60825.99
630.978	60746.89
631.332	60818.08
631.687	60882.26
632.041	60716.61
632.396	60785.53
632.75	60650.62
633.104	60716.16
633.459	60632.09
633.813	60533.79
634.167	60550.96
634.521	60638.19
634.875	60600.45
635.229	60539.44
635.583	60450.18
635.937	60433.45
636.291	60393.68
636.645	60494.69
636.999	60284.76
637.352	60403.4
637.706	60277.53
638.06	60346.45
638.413	60309.61
638.767	60259.22
639.121	60322.72
639.474	60133.12
639.828	60070.07
640.181	60138.32
640.534	60104.65
640.888	59953.47
641.241	59826.69
641.594	59946.91
641.947	59955.5
642.301	59926.57
642.654	59847.93
643.007	59842.96
643.36	59837.76
643.713	59738.1
644.066	59836.63
644.419	59667.6
644.771	59541.27
645.124	59304.22
645.477	59254.05
645.83	59156.42
646.182	58979.71
646.535	58878.92
646.888	58925.47
647.24	58740.62
647.593	58847.73
647.945	58780.62
648.298	58692.48
648.65	58584.46
649.002	58613.16
649.355	58679.38
649.707	58639.38
650.059	58773.38
650.411	59078.91
650.763	58970.89
651.115	59296.53
651.467	59145.35
651.819	59090.66
652.171	59082.75
652.523	59096.77
652.875	59014.28
653.227	58940.61
653.578	59039.82
653.93	59033.72
654.282	58901.74
654.633	58852.93
654.985	58893.61
655.337	58836.66
655.688	58887.05
656.039	58907.84
656.391	58701.75
656.742	58739.26
657.094	58754.4
657.445	58840.95
657.796	58787.62
658.147	58777
658.498	58765.02
658.849	58808.41
659.2	58698.81
659.551	58554.18
659.902	58631.01
660.253	58589.66
660.604	58645.48
660.955	58450.45
661.306	58539.72
661.656	58515.31
662.007	58464.24
662.358	58450.91
662.708	58405.03
663.059	58427.18
663.409	58282.78
663.76	58487.06
664.11	58369.1
664.461	58370.23
664.811	58362.77
665.161	58331.81
665.511	58228.77
665.862	58239.16
666.212	58335.88
666.562	58331.81
666.912	58199.39
667.262	58203.23
667.612	58218.6
667.962	58221.76
668.312	58137.47
668.662	58270.12
669.011	58169.33
669.361	58113.97
669.711	58068.09
670.06	58026.06
670.41	57969.34
670.76	57967.98
671.109	58000.97
671.459	58010.24
671.808	57966.85
672.157	57983.12
672.507	57786.74
672.856	57921.2
673.205	57931.82
673.554	57936.12
673.904	57846.85
674.253	58022.67
674.602	57851.37
674.951	57553.76
675.3	57365.74
675.649	57843.92
675.998	57743.13
676.346	57802.11
676.695	57883.46
677.044	57658.84
677.393	57805.73
677.741	57848.66
678.09	57719.4
678.438	57637.82
678.787	57687.54
679.135	57701.55
679.484	57474.66
679.832	57616.13
680.181	57367.09
680.529	57401.67
680.877	57402.8
681.225	57256.81
681.573	57433.08
681.922	57231.28
682.27	57177.72
682.618	57217.49
682.966	57020.44
683.314	57105.41
683.661	57004.84
684.009	56871.29
684.357	56826.99
684.705	56747.45
685.053	56785.19
685.4	56725.53
685.748	56610.73
686.095	56508.81
686.443	56416.16
686.79	56429.72
687.138	56431.75
687.485	56435.37
687.832	56301.58
688.18	56350.62
688.527	56188.14
688.874	56113.57
689.221	56046.45
689.568	56009.39
689.915	55890.3
690.262	55934.59
690.609	55808.26
690.956	55714.48
691.303	55717.87
691.65	55491.66
691.997	55574.82
692.344	55369.86
692.69	55427.26
693.037	55395.17
693.383	55200.37
693.73	55251.44
694.077	55099.58
694.423	55092.8
694.769	54986.14
695.116	54938.68
695.462	54934.16
695.808	54831.57
696.155	54880.15
696.501	54693.04
696.847	54602.19
697.193	54510.22
697.539	54551.57
697.885	54308.64
698.231	54281.3
698.577	54312.48
698.923	54150
699.269	54016.67
699.614	53841.08
699.96	53843.8
700.306	53887.41
700.651	53607.19
700.997	53572.16
701.342	53505.27
701.688	53505.73
702.033	53364.26
702.379	53350.25
702.724	53271.16
703.069	53235.9
703.415	52981.9
703.76	52908.45
704.105	52867.32
704.45	52830.26
704.795	52603.83
705.14	52523.6
705.485	52511.63
705.83	52294.23
706.175	52358.19
706.52	52224.86
706.865	52079.55
707.209	51972.66
707.554	51862.15
707.899	51935.6
708.243	51666.9
708.588	51710.07
708.932	51435.5
709.277	51462.62
709.621	51447.93
709.966	51259.91
710.31	51240.02
710.654	51043.42
710.998	51023.98
711.342	51103.76
711.687	50952.8
712.031	50828.51
712.375	50685.46
712.719	50663.54
713.063	50607.72
713.407	50726.14
713.75	50526.37
714.094	50552.36
714.438	50333.83
714.782	50426.03
715.125	50118.02
715.469	50220.61
715.812	50073.73
716.156	49930.45
716.499	49897.91
716.843	50020.17
717.186	49685.71
717.53	49893.39
717.873	49861.75
718.216	49649.1
718.559	49523.01
718.902	49200.53
719.246	49487.98
719.589	49328.43
719.932	49219.96
720.275	49144.26
720.617	49127.76
720.96	48980.65
721.303	48936.13
721.646	49059.97
721.989	48790.37
722.331	48906.07
722.674	48701.33
723.016	48725.51
723.359	48676.25
723.701	48687.32
724.044	48420.66
724.386	48202.14
724.729	48467.44
725.071	48239.88
725.413	48149.71
725.755	48228.58
726.097	48033.55
726.439	47655.48
726.782	47770.96
727.124	47800.34
727.465	47504.98
727.807	47664.75
728.149	47545.66
728.491	47323.06
728.833	47249.39
729.175	47157.42
729.516	46934.15
729.858	46995.39
730.199	46942.96
730.541	46723.76
730.882	46774.38
731.224	46930.08
731.565	46510.88
731.906	46548.17
732.248	46545.68
732.589	46317.67
732.93	46317.21
733.271	46309.76
733.612	46275.41
733.953	46223.43
734.294	46053.94
734.635	45763.1
734.976	45899.15
735.317	45698.93
735.658	45693.73
735.999	45663.45
736.339	45640.62
736.68	45727.4
737.021	45552.71
737.361	45205.38
737.702	45455.09
738.042	45343.91
738.383	45253.29
738.723	45336.68
739.063	45147.08
739.404	45220.07
739.744	45055.55
740.084	44915.9
740.424	45132.61
740.764	45004.25
741.104	45061.88
741.444	44775.79
741.784	44672.96
742.124	44783.47
742.464	44669.12
742.804	44517.71
743.143	44490.6
743.483	44559.75
743.823	44378.28
744.162	44283.14
744.502	44237.72
744.841	43978.74
745.181	44138.97
745.52	43875.24
745.86	44068.23
746.199	44037.5
746.538	43816.26
746.877	43851.06
747.216	43910.5
747.556	43647.23
747.895	43765.19
748.234	43627.34
748.573	43406.1
748.911	43339.44
749.25	43411.08
749.589	43077.07
749.928	43057.64
750.267	43177.18
750.605	42839.79
750.944	42871.88
751.283	42677.76
751.621	42592.57
751.96	42456.3
752.298	42438.9
752.636	42370.2
752.975	42268.06
753.313	42002.3
753.651	42064.9
753.989	41837.56
754.327	41642.76
754.666	41562.09
755.004	41549.43
755.342	41408.42
755.679	41422.2
756.017	41292.49
756.355	41040.52
756.693	40888.43
757.031	41006.17
757.368	40633.97
757.706	40544.94
758.044	40548.78
758.381	40525.28
758.719	40298.84
759.056	40280.76
759.394	40163.93
759.731	39807.33
760.068	39775.47
760.405	39731.85
760.743	39506.09
761.08	39429.94
761.417	39358.08
761.754	39336.83
762.091	39162.83
762.428	39148.36
762.765	38813
763.102	39112.21
763.438	38720.8
763.775	38609.85
764.112	38629.73
764.449	38695.95
764.785	38350.19
765.122	38150.65
765.458	38000.6
765.795	38082.63
766.131	38052.35
766.467	37707.72
766.804	37787.04
767.14	37630.21
767.476	37346.6
767.812	37145.48
768.148	37291.69
768.485	37041.3
768.821	37012.15
769.157	36995.2
769.492	36909.55
769.828	36823.23
770.164	36536.68
770.5	36423.69
770.836	36436.34
771.171	36107.99
771.507	35971.95
771.842	35749.81
772.178	35802.91
772.513	35779.19
772.849	35651.96
773.184	35525.18
773.519	35354.56
773.855	35334
774.19	35051.97
774.525	35007.23
774.86	35011.75
775.195	34908.93
775.53	34774.47
775.865	34553.68
776.2	34203.18
776.535	34053.58
776.87	34107.59
777.205	33864.66
777.539	33705.34
777.874	33847.03
778.209	33451.56
778.543	33402.53
778.878	33046.83
779.212	33079.6
779.547	32845.93
779.881	32918.02
780.215	32654.52
780.55	32719.15
780.884	32452.95
781.218	32260.41
781.552	32142.67
781.886	32081.43
782.22	31893.19
782.554	31795.79
782.888	31558.73
783.222	31438.74
783.556	31252.53
783.889	31159.65
784.223	30983.38
784.557	30854.12
784.89	30893.67
785.224	30584.97
785.557	30500.68
785.891	30358.76
786.224	30281.7
786.558	30251.65
786.891	29881.71
787.224	29912.22
787.557	29883.52
787.891	29733.02
788.224	29799.68
788.557	29640.14
788.89	29521.95
789.223	29523.98
789.556	29323.08
789.888	29157.67
790.221	29222.75
790.554	28989.99
790.887	28963.55
791.219	28779.14
791.552	28753.16
791.884	28542.09
792.217	28487.4
792.549	28428.19
792.882	28359.27
793.214	28185.04
793.546	28289.21
793.879	28070.01
794.211	27913.4
794.543	28060.29
794.875	27990.69
795.207	28041.08
795.539	27808.32
795.871	27804.93
796.203	27557.93
796.535	27437.26
796.867	27367.43
797.198	27227.09
797.53	27273.42
797.862	27145.29
798.193	27153.65
798.525	26938.97
798.856	26938.29
799.188	26727.9
799.519	26535.36
799.85	26452.43
800.182	26463.05
800.513	26362.94
800.844	26347.34
801.175	26419.43
801.506	26386.89
801.837	26200
802.168	26110.97
802.499	25989.39
802.83	25783.29
803.161	25791.2
803.491	25781.26
803.822	25717.98
804.153	25578.32
804.483	25228.96
804.814	25216.53
805.145	25277.99
805.475	25198.45
805.805	24958.23
806.136	25045.46
806.466	24977.21
806.796	24990.77
807.126	24697.44
807.457	24641.85
807.787	24652.93
808.117	24510.1
808.447	24437.34
808.777	24433.5
809.107	24228.3
809.436	24181.98
809.766	24081.19
810.096	23928.65
810.426	23990.8
810.755	23925.26
811.085	23837.58
811.414	23762.78
811.744	23501.54
812.073	23555.55
812.403	23501.32
812.732	23396.46
813.061	23415.9
813.39	23149.69
813.719	23083.7
814.049	23269.68
814.378	23132.29
814.707	23082.57
815.036	23033.98
815.365	22826.53
815.693	22689.59
816.022	22735.24
816.351	22674.67
816.68	22527.56
817.008	22596.03
817.337	22477.39
817.665	22401.91
817.994	22547.9
818.322	22425.64
818.651	22225.42
818.979	22231.75
819.307	22327.34
819.636	22156.72
819.964	22064.07
820.292	22257.73
820.62	22181.8
820.948	22070.17
821.276	22154.46
821.604	22125.53
821.932	22253.89
822.259	22201.92
822.587	22134.57
822.915	22143.61
823.243	22185.42
823.57	22082.37
823.898	22226.77
824.225	22024.07
824.553	22113.33
824.88	22204.4
825.207	22203.27
825.535	22157.62
825.862	22176.15
826.189	22123.27
826.516	22224.97
826.843	22290.28
827.17	22258.64
827.497	22287.56
827.824	22235.81
828.151	22284.63
828.478	22180.22
828.805	22267
829.131	22136.83
829.458	22185.87
829.785	21974.8
830.111	22155.14
830.438	22237.62
830.764	22095.25
831.09	22210.28
831.417	22056.61
831.743	22193.33
832.069	22198.3
832.395	22009.38
832.722	22084.18
833.048	22006.22
833.374	21977.97
833.7	21930.06
834.026	21941.13
834.351	21924.41
834.677	21829.5
835.003	21869.72
835.329	21891.42
835.654	21728.26
835.98	21694.13
836.306	21701.36
836.631	21561.03
836.956	21609.84
837.282	21641.48
837.607	21476.96
837.932	21386.12
838.258	21430.64
838.583	21378.44
838.908	21210.08
839.233	21223.86
839.558	21384.31
839.883	21224.31
840.208	21089.4
840.533	21001.95
840.858	20971.89
841.182	20951.1
841.507	20936.86
841.832	20945.9
842.156	20811.9
842.481	20872.01
842.805	20778.45
843.13	20714.95
843.454	20676.53
843.778	20626.14
844.103	20502.53
844.427	20485.8
844.751	20428.18
845.075	20389.76
845.399	20316.32
845.723	20336.88
846.047	20245.81
846.371	20169.43
846.695	20139.82
847.019	20066.38
847.343	19877.91
847.666	19762.43
847.99	19785.71
848.313	19777.35
848.637	19661.64
848.96	19545.71
849.284	19522.44
849.607	19290.81
849.931	19336.91
850.254	19298.04
850.577	19102.34
850.9	19050.13
851.223	19016.69
851.546	18915
851.869	18803.36
852.192	18959.52
852.515	18717.94
852.838	18769.46
853.161	18643.14
853.483	18629.81
853.806	18523.59
854.129	18478.85
854.451	18487.44
854.774	18312.98
855.096	18412.41
855.419	18377.84
855.741	18325.63
856.063	18121.35
856.385	18136.71
856.708	18137.84
857.03	18058.07
857.352	18113.89
857.674	17976.26
857.996	17938.07
858.318	17867.57
858.64	17873.89
858.961	17825.76
859.283	17850.39
859.605	17634.13
859.926	17855.14
860.248	17773.78
860.57	17598.87
860.891	17639.55
861.212	17615.82
861.534	17472.32
861.855	17452.89
862.176	17577.18
862.498	17515.03
862.819	17432.55
863.14	17372.44
863.461	17310.75
863.782	17313.01
864.103	17216.06
864.424	17198.66
864.745	17298.99
865.065	17144.42
865.386	17156.4
865.707	17206.34
866.027	17137.64
866.348	17060.58
866.668	17002.05
866.989	16935.39
867.309	16839.35
867.63	16885.67
867.95	16931.77
868.27	16848.84
868.59	16872.56
868.91	16751.89
869.23	16719.12
869.55	16690.2
869.87	16746.92
870.19	16738.33
870.51	16638.9
870.83	16657.66
871.15	16464.89
871.469	16569.75
871.789	16479.81
872.109	16520.26
872.428	16387.83
872.748	16518.68
873.067	16562.06
873.386	16393.48
873.706	16445.46
874.025	16210.66
874.344	16317.33
874.663	16295.63
874.982	16216.31
875.301	16275.07
875.62	16198.23
875.939	16139.48
876.258	16021.51
876.577	16069.65
876.896	16046.82
877.214	15948.97
877.533	15971.12
877.852	15957.56
878.17	15971.35
878.489	15910.78
878.807	15958.01
879.125	15870.78
879.444	15898.81
879.762	15793.72
880.08	15811.58
880.398	15693.16
880.716	15742.2
881.034	15644.8
881.352	15666.49
881.67	15680.96
881.988	15647.51
882.306	15655.2
882.624	15486.16
882.941	15488.19
883.259	15443
883.577	15452.26
883.894	15435.77
884.212	15539.94
884.529	15461.98
884.846	15349.67
885.164	15391.25
885.481	15341.98
885.798	15358.48
886.115	15291.36
886.432	15252.04
886.75	15207.3
887.067	15287.07
887.383	15121.65
887.7	15208.43
888.017	15063.35
888.334	15194.87
888.651	15047.75
888.967	15029.9
889.284	15057.02
889.6	14955.33
889.917	14751.26
890.233	14866.52
890.55	14854.54
890.866	14892.05
891.182	14761.21
891.498	14809.57
891.815	14749.91
892.131	14669.68
892.447	14664.94
892.763	14620.65
893.079	14597.82
893.395	14561.21
893.71	14486.86
894.026	14515.34
894.342	14488.67
894.657	14382.01
894.973	14279.64
895.289	14328
895.604	14335.46
895.92	14266.98
896.235	14183.37
896.55	14171.39
896.865	14192.64
897.181	14113.99
897.496	14071.28
897.811	14062.02
898.126	13962.81
898.441	13903.83
898.756	13795.81
899.071	13792.65
899.386	13781.12
899.7	13670.84
900.015	13648.69
900.33	13576.61
900.644	13589.04
900.959	13645.76
901.273	13532.31
901.588	13356.27
901.902	13297.29
902.216	13323.05
902.531	13196.28
902.845	13261.36
903.159	13126.22
903.473	13088.26
903.787	13077.18
904.101	13028.37
904.415	12995.38
904.729	12912.89
905.042	12900.47
905.356	12843.97
905.67	12805.78
905.984	12833.57
906.297	12817.3
906.611	12658.66
906.924	12590.42
907.237	12509.97
907.551	12523.75
907.864	12369.41
908.177	12455.51
908.491	12383.19
908.804	12378.67
909.117	12229.98
909.43	12150.88
909.743	12173.25
910.056	12126.25
910.368	12017.1
910.681	11931.45
910.994	11848.74
911.307	11906.14
911.619	11774.62
911.932	11826.37
912.244	11721.06
912.557	11750.44
912.869	11541.63
913.181	11549.77
913.494	11552.25
913.806	11391.13
914.118	11401.97
914.43	11386.83
914.742	11399.26
915.054	11258.02
915.366	11273.16
915.678	11171.25
915.99	11117.69
916.302	11120.4
916.613	10971.03
916.925	11082.66
917.236	10978.03
917.548	10968.99
917.859	10993.4
918.171	10858.49
918.482	10794.53
918.794	10763.57
919.105	10703.91
919.416	10646.06
919.727	10675.21
920.038	10696.46
920.349	10552.51
920.66	10574.43
920.971	10545.05
921.282	10512.51
921.593	10401.32
921.903	10329.23
922.214	10322
922.525	10214.89
922.835	10218.5
923.146	10173.53
923.456	10136.47
923.767	10159.3
924.077	10129.69
924.387	10030.03
924.697	10029.58
925.008	9979.41
925.318	9936.7
925.628	9918.85
925.938	9966.98
926.248	9823.48
926.558	9793.2
926.867	9770.15
927.177	9672.75
927.487	9669.59
927.796	9571.06
928.106	9575.36
928.416	9548.01
928.725	9576.71
929.034	9497.17
929.344	9578.07
929.653	9504.62
929.962	9376.94
930.271	9332.2
930.581	9263.27
930.89	9294.91
931.199	9253.56
931.508	9242.03
931.817	9244.52
932.125	9142.82
932.434	9099.21
932.743	9046.1
933.051	9045.65
933.36	8997.97
933.669	8888.82
933.977	8919.1
934.286	8973.34
934.594	8896.05
934.902	8769.05
935.21	8781.48
935.519	8796.62
935.827	8761.59
936.135	8707.58
936.443	8641.59
936.751	8610.64
937.059	8560.92
937.367	8554.14
937.674	8466.68
937.982	8484.08
938.29	8441.6
938.597	8359.57
938.905	8320.02
939.213	8255.84
939.52	8223.3
939.827	8264.88
940.135	8161.83
940.442	8170.87
940.749	8168.61
941.056	8143.08
941.363	8060.14
941.67	8014.94
941.977	7960.48
942.284	7900.6
942.591	7906.25
942.898	7889.52
943.205	7879.35
943.511	7812.01
943.818	7766.59
944.125	7696.99
944.431	7696.08
944.738	7680.49
945.044	7612.24
945.35	7567.05
945.657	7544.9
945.963	7501.96
946.269	7460.16
946.575	7428.75
946.881	7388.97
947.187	7396.2
947.493	7398.92
947.799	7315.53
948.105	7224
948.41	7226.72
948.716	7229.43
949.022	7148.07
949.327	7160.05
949.633	7066.72
949.938	7097.91
950.244	7061.07
950.549	6983.11
950.854	7020.39
951.16	6911.92
951.465	6881.64
951.77	6931.81
952.075	6833.73
952.38	6751.25
952.685	6788.76
952.99	6738.37
953.294	6672.61
953.599	6645.04
953.904	6651.14
954.209	6565.49
954.513	6605.04
954.818	6571.82
955.122	6552.38
955.426	6503.35
955.731	6497.7
956.035	6438.26
956.339	6435.33
956.643	6449.79
956.948	6349.45
957.252	6380.64
957.556	6290.02
957.86	6279.85
958.163	6271.49
958.467	6230.58
958.771	6249.12
959.075	6181.09
959.378	6194.65
959.682	6106.29
959.985	6134.32
960.289	6071.94
960.592	6024.94
960.896	6020.87
961.199	5982.23
961.502	6011.16
961.805	5939.07
962.108	5884.38
962.411	5955.79
962.714	5852.06
963.017	5871.05
963.32	5873.53
963.623	5777.94
963.926	5754.67
964.228	5720.54
964.531	5748.34
964.833	5743.14
965.136	5670.83
965.438	5652.97
965.741	5613.2
966.043	5622.92
966.345	5570.72
966.648	5589.47
966.95	5565.52
967.252	5554.9
967.554	5498.4
967.856	5521.22
968.158	5462.47
968.46	5453.66
968.761	5431.28
969.063	5405.07
969.365	5375.69
969.666	5375.24
969.968	5311.29
970.269	5334.79
970.571	5330.04
970.872	5269.03
971.174	5221.12
971.475	5278.07
971.776	5216.37
972.077	5154
972.378	5195.81
972.679	5160.33
972.98	5125.08
973.281	5094.12
973.582	5157.17
973.883	5114.68
974.183	5072.88
974.484	5016.61
974.785	4998.3
975.085	5004.85
975.386	4959.66
975.686	4938.87
975.986	4905.2
976.287	4872.43
976.587	4846.44
976.887	4826.1
977.187	4824.52
977.487	4779.1
977.787	4782.26
978.087	4795.14
978.387	4753.34
978.687	4777.74
978.987	4650.51
979.286	4666.33
979.586	4626.56
979.885	4632.89
980.185	4594.02
980.484	4630.63
980.784	4548.82
981.083	4555.15
981.382	4507.47
981.682	4542.27
981.981	4557.86
982.28	4456.39
982.579	4437.41
982.878	4430.86
983.177	4409.84
983.475	4366.23
983.774	4338.21
984.073	4375.72
984.372	4349.96
984.67	4316.96
984.969	4282.16
985.267	4295.27
985.566	4250.98
985.864	4209.17
986.162	4188.38
986.461	4187.25
986.759	4149.28
987.057	4129.4
987.355	4114.48
987.653	4098.21
987.951	4088.49
988.249	4122.84
988.547	4014.15
988.844	4015.5
989.142	3998.33
989.44	3975.73
989.737	3949.97
990.035	3876.07
990.332	3902.51
990.63	3903.64
990.927	3862.74
991.224	3853.25
991.521	3836.98
991.819	3879.01
992.116	3821.16
992.413	3784.77
992.71	3716.53
993.006	3756.98
993.303	3734.15
993.6	3695.74
993.897	3659.8
994.193	3679.69
994.49	3640.6
994.787	3635.62
995.083	3599.24
995.379	3629.75
995.676	3578.23
995.972	3567.6
996.268	3520.15
996.565	3495.06
996.861	3491.22
997.157	3483.31
997.453	3465.23
997.749	3415.29
998.044	3398.34
998.34	3422.97
998.636	3376.42
998.932	3378.91
999.227	3291.68
999.523	3365.12
999.818	3261.62
1000.114	3272.47
1000.409	3259.36
1000.704	3258.69
1001	3285.58
1001.295	3200.83
1001.59	3206.94
1001.885	3176.2
1002.18	3142.76
1002.475	3149.99
1002.77	3144.79
1003.065	3088.52
1003.359	3091.68
1003.654	3068.86
1003.949	3064.11
1004.243	3041.06
1004.538	3038.8
1004.832	2971.69
1005.127	3036.54
1005.421	2952.48
1005.715	2957.68
1006.009	2914.97
1006.304	2921.97
1006.598	2907.51
1006.892	2922.65
1007.186	2854.18
1007.48	2858.92
1007.773	2814.4
1008.067	2827.96
1008.361	2815.53
1008.655	2786.83
1008.948	2742.77
1009.242	2734.41
1009.535	2732.37
1009.829	2725.59
1010.122	2710.23
1010.415	2683.11
1010.708	2707.97
1011.001	2705.93
1011.295	2670.23
1011.588	2635.65
1011.881	2613.05
1012.173	2603.11
1012.466	2598.59
1012.759	2568.99
1013.052	2571.47
1013.344	2542.09
1013.637	2546.16
1013.93	2501.19
1014.222	2491.25
1014.514	2485.15
1014.807	2470.68
1015.099	2507.74
1015.391	2445.6
1015.683	2410.8
1015.976	2410.8
1016.268	2412.38
1016.56	2364.7
1016.851	2373.96
1017.143	2373.06
1017.435	2354.3
1017.727	2338.94
1018.018	2332.83
1018.31	2304.13
1018.602	2278.82
1018.893	2268.66
1019.185	2241.31
1019.476	2197.7
1019.767	2204.93
1020.058	2195.21
1020.35	2177.58
1020.641	2142.78
1020.932	2134.42
1021.223	2160.86
1021.514	2129.68
1021.804	2121.54
1022.095	2090.35
1022.386	2100.3
1022.677	2063.24
1022.967	2054.42
1023.258	2019.4
1023.548	2004.26
1023.839	1983.46
1024.129	1996.35
1024.419	1992.05
1024.709	1980.75
1025	1970.36
1025.29	1940.53
1025.58	1938.72
1025.87	1914.09
1026.16	1923.35
1026.449	1902.56
1026.739	1890.13
1027.029	1868.89
1027.319	1852.62
1027.608	1842
1027.898	1815.79
1028.187	1791.15
1028.477	1781.44
1028.766	1794.09
1029.055	1760.19
1029.344	1723.36
1029.634	1744.38
1029.923	1721.55
1030.212	1709.57
1030.501	1760.65
1030.79	1698.27
1031.078	1655.34
1031.367	1645.62
1031.656	1644.94
1031.945	1644.04
1032.233	1641.55
1032.522	1644.49
1032.81	1613.76
1033.099	1581.67
1033.387	1595
1033.675	1577.83
1033.963	1552.06
1034.251	1560.65
1034.54	1514.32
1034.828	1536.02
1035.116	1535.12
1035.403	1494.21
1035.691	1487.88
1035.979	1491.73
1036.267	1491.95
1036.554	1453.08
1036.842	1454.21
1037.129	1442.69
1037.417	1455.12
1037.704	1401.56
1037.992	1406.3
1038.279	1378.73
1038.566	1390.49
1038.853	1390.49
1039.14	1390.49
