Data from aluminium_macbook_case_FLMS001491_088.txt Node
Date: Tue Feb 07 10:44:17 GMT 2017
User: dcchb
Spectrometer: FLMS00149
Trigger mode: 0
Integration Time (sec): 2.000000E-2
Scans to average: 10
Electric dark correction enabled: true
Nonlinearity correction enabled: false
Boxcar width: 0
XAxis mode: Wavelengths
Number of Pixels in Spectrum: 2048
>>>>>Begin Spectral Data<<<<<
341.393	-6.71
341.776	-6.71
342.16	-6.71
342.543	-55.07
342.927	-41.51
343.31	-64.11
343.693	-63.2
344.077	-74.73
344.46	-75.41
344.843	-66.37
345.226	-34.28
345.61	-19.59
345.993	-20.72
346.376	8.66
346.759	11.82
347.142	28.09
347.525	49.11
347.908	53.63
348.291	63.35
348.674	88.66
349.057	115.1
349.44	123.23
349.823	136.11
350.206	164.13
350.588	229.44
350.971	278.93
351.354	291.59
351.737	283.23
352.119	300.63
352.502	322.1
352.884	325.03
353.267	327.75
353.65	344.69
354.032	351.93
354.414	360.29
354.797	355.32
355.179	394.86
355.562	377.01
355.944	407.97
356.326	384.92
356.709	373.85
357.091	398.03
357.473	395.09
357.855	415.65
358.238	400.51
358.62	411.59
359.002	414.07
359.384	429.44
359.766	422.21
360.148	427.63
360.53	414.97
360.912	411.59
361.294	419.27
361.676	388.76
362.057	407.74
362.439	412.49
362.821	384.24
363.203	426.05
363.584	422.66
363.966	415.43
364.348	431.47
364.729	426.27
365.111	441.64
365.493	422.21
365.874	431.92
366.256	433.73
366.637	423.79
367.019	433.73
367.4	416.1
367.781	428.99
368.163	447.29
368.544	414.52
368.925	441.19
369.306	444.13
369.688	466.27
370.069	438.03
370.45	424.69
370.831	439.83
371.212	450.68
371.593	453.62
371.974	469.44
372.355	472.83
372.736	479.15
373.117	485.93
373.498	445.71
373.879	481.64
374.26	451.36
374.641	462.66
375.021	456.33
375.402	483.22
375.783	513.96
376.163	551.24
376.544	509.44
376.925	510.11
377.305	496.78
377.686	513.96
378.066	495.2
378.447	510.34
378.827	533.39
379.208	540.85
379.588	555.54
379.968	548.76
380.349	535.42
380.729	560.06
381.109	577.91
381.489	568.87
381.87	585.37
382.25	598.7
382.63	577
383.01	598.7
383.39	591.69
383.77	616.33
384.15	616.33
384.53	605.25
384.91	629.66
385.29	630.79
385.67	625.36
386.049	662.2
386.429	681.63
386.809	658.13
387.189	655.42
387.568	697.45
387.948	712.37
388.328	720.5
388.707	724.12
389.087	744.91
389.466	716.66
389.846	735.87
390.225	735.42
390.605	779.26
390.984	767.51
391.363	766.38
391.743	787.62
392.122	818.13
392.501	793.27
392.881	800.95
393.26	831.01
393.639	836.66
394.018	849.99
394.397	871.01
394.776	842.31
395.155	867.17
395.534	870.56
395.913	873.72
396.292	879.6
396.671	914.85
397.05	922.53
397.429	918.46
397.808	931.35
398.186	927.05
398.565	943.32
398.944	952.59
399.323	977.22
399.701	969.76
400.08	1004.11
400.458	998.91
400.837	1015.86
401.215	1043.43
401.594	1006.37
401.972	1060.83
402.351	1064.22
402.729	1062.42
403.107	1081.85
403.486	1106.93
403.864	1133.6
404.242	1113.94
404.62	1155.97
404.999	1155.29
405.377	1184.67
405.755	1200.94
406.133	1201.17
406.511	1228.06
406.889	1257.44
407.267	1275.07
407.645	1277.78
408.023	1278.91
408.401	1313.03
408.779	1317.1
409.156	1354.16
409.534	1374.95
409.912	1382.41
410.29	1421.28
410.667	1407.04
411.045	1449.98
411.422	1457.89
411.8	1475.06
412.178	1476.42
412.555	1539.01
412.933	1537.43
413.31	1583.76
413.687	1576.3
414.065	1626.02
414.442	1625.56
414.819	1680.93
415.197	1692.23
415.574	1697.43
415.951	1733.81
416.328	1719.12
416.705	1784.43
417.082	1806.58
417.46	1780.14
417.837	1832.34
418.214	1835.73
418.591	1858.33
418.967	1836.41
419.344	1884.09
419.721	1908.72
420.098	1933.35
420.475	1936.97
420.852	1993.01
421.228	1987.36
421.605	2012.45
421.982	2056.74
422.358	2077.3
422.735	2114.14
423.111	2087.93
423.488	2141.71
423.864	2146.91
424.241	2212.89
424.617	2247.47
424.994	2242.05
425.37	2256.73
425.746	2287.47
426.123	2319.11
426.499	2351.87
426.875	2383.28
427.251	2410.85
427.627	2472.77
428.003	2468.03
428.379	2535.37
428.756	2536.95
429.132	2558.42
429.507	2630.28
429.883	2659.44
430.259	2726.33
430.635	2743.5
431.011	2787.34
431.387	2870.5
431.763	2905.08
432.138	2927.23
432.514	2957.51
432.89	2976.26
433.265	3044.28
433.641	3104.62
434.016	3138.75
434.392	3137.39
434.767	3223.26
435.143	3220.78
435.518	3279.53
435.894	3338.51
436.269	3322.24
436.644	3411.28
437.02	3446.76
437.395	3455.35
437.77	3477.95
438.145	3579.19
438.52	3601.11
438.895	3660.31
439.271	3650.14
439.646	3746.86
440.021	3786.41
440.395	3795.45
440.77	3740.76
441.145	3818.95
441.52	3906.41
441.895	3912.96
442.27	3965.84
442.645	3961.55
443.019	4030.93
443.394	3976.24
443.769	4068.89
444.143	4029.8
444.518	4162.9
444.892	4117.25
445.267	4178.72
445.641	4228.43
446.016	4260.52
446.39	4277.92
446.764	4325.15
447.139	4317.02
447.513	4400.86
447.887	4414.64
448.262	4427.98
448.636	4505.49
449.01	4550.69
449.384	4639.95
449.758	4624.36
450.132	4710.91
450.506	4708.2
450.88	4752.49
451.254	4761.08
451.628	4879.04
452.002	4870.23
452.376	4919.49
452.75	5030.45
453.123	5078.81
453.497	5121.52
453.871	5138.01
454.244	5255.98
454.618	5305.02
454.992	5379.36
455.365	5426.37
455.739	5512.69
456.112	5599.02
456.486	5650.77
456.859	5718.11
457.232	5844.89
457.606	5787.94
457.979	5904.55
458.352	6064.77
458.725	6147.71
459.099	6150.19
459.472	6339.34
459.845	6387.25
460.218	6439.45
460.591	6497.3
460.964	6481.71
461.337	6672.66
461.71	6771.87
462.083	6860.46
462.456	6916.05
462.829	6952.66
463.201	7106.78
463.574	7092.31
463.947	7149.94
464.32	7299.31
464.692	7422.93
465.065	7447.78
465.438	7557.39
465.81	7699.98
466.183	7831.05
466.555	8024.04
466.928	7992.18
467.3	8133.87
467.672	8254.99
468.045	8451.37
468.417	8502.9
468.789	8536.12
469.161	8671.03
469.534	8858.14
469.906	8998.48
470.278	9041.64
470.65	9203.67
471.022	9413.61
471.394	9582.64
471.766	9662.19
472.138	9715.3
472.51	9936.98
472.882	10100.82
473.253	10197.77
473.625	10388.05
473.997	10606.35
474.369	10651.54
474.74	10778.32
475.112	11030.52
475.484	11132.43
475.855	11396.83
476.227	11549.6
476.598	11927.67
476.97	12022.35
477.341	12270.93
477.713	12386.64
478.084	12541.66
478.455	12928.09
478.827	12881.31
479.198	13444.46
479.569	13419.83
479.94	13813.27
480.311	13957.9
480.682	14300.71
481.053	14512.46
481.424	14793.13
481.795	14993.12
482.166	15162.84
482.537	15436.05
482.908	15666.78
483.279	15868.81
483.65	16182.24
484.021	16448.68
484.391	16707.2
484.762	16801.66
485.133	17031.04
485.503	17274.64
485.874	17596.67
486.244	17796.66
486.615	18247.27
486.985	18416.54
487.356	18826.47
487.726	18943.75
488.097	19374.02
488.467	19459.45
488.837	19964.29
489.207	20159.54
489.578	20404.05
489.948	20595.24
490.318	20853.76
490.688	20882.46
491.058	21319.06
491.428	21508.21
491.798	21685.83
492.168	22196.55
492.538	22209.66
492.908	22521.74
493.278	22830.88
493.648	22828.62
494.017	23105.45
494.387	23445.78
494.757	23600.35
495.126	23811.87
495.496	23888.03
495.866	24145.88
496.235	24459.77
496.605	24570.95
496.974	24825.18
497.344	25163.25
497.713	25322.79
498.082	25467.42
498.452	25828.09
498.821	25918.26
499.19	26030.8
499.559	26318.02
499.928	26512.14
500.298	26635.08
500.667	26982.86
501.036	26918.46
501.405	27274.61
501.774	27323.42
502.143	27573.36
502.512	27706.23
502.88	27914.14
503.249	27941.93
503.618	28266.22
503.987	28401.58
504.356	28528.81
504.724	28626.66
505.093	28772.2
505.462	29053.54
505.83	29353.2
506.199	29463.7
506.567	29782.34
506.936	29776.24
507.304	30201.54
507.672	30406.5
508.041	30533.05
508.409	30829.54
508.777	31140.04
509.145	31267.95
509.514	31383.2
509.882	31640.14
510.25	31840.59
510.618	32218.43
510.986	32279
511.354	32661.13
511.722	32926.21
512.09	33182.7
512.458	33203.94
512.826	33514.44
513.193	33666.53
513.561	33784.49
513.929	34133.18
514.297	34374.31
514.664	34630.8
515.032	34705.6
515.4	35071.46
515.767	35197.79
516.135	35353.94
516.502	35289.31
516.869	35828.73
517.237	35995.51
517.604	36006.81
517.972	36437.3
518.339	36751.65
518.706	36840.23
519.073	37045.2
519.44	37370.61
519.808	37712.07
520.175	37768.8
520.542	38363.36
520.909	38562.9
521.276	38699.39
521.643	39183.45
522.009	39304.8
522.376	39692.13
522.743	39902.98
523.11	40380.7
523.477	40738.21
523.843	41009.84
524.21	41334.8
524.577	41718.75
524.943	41829.48
525.31	42109.02
525.676	42393.31
526.043	42640.98
526.409	42907.87
526.776	43366.61
527.142	43302.89
527.508	43617.23
527.874	44055.41
528.241	44234.84
528.607	44357.55
528.973	44616.07
529.339	44741.95
529.705	45094.7
530.071	45454.02
530.437	45569.72
530.803	45775.14
531.169	46107.56
531.535	45971.07
531.901	46241.57
532.267	46518.17
532.632	46803.13
532.998	46935.56
533.364	47249
533.73	47385.27
534.095	47711.58
534.461	47751.81
534.826	47957.45
535.192	48156.32
535.557	48570.32
535.923	48485.58
536.288	48703.87
536.653	48902.74
537.019	48850.99
537.384	49144.09
537.749	49310.86
538.114	49259.34
538.479	49471.09
538.845	49622.49
539.21	49628.14
539.575	49899.32
539.94	49880.79
540.305	50191.07
540.67	50092.76
541.034	50187.9
541.399	50437.16
541.764	50528.91
542.129	50645.52
542.494	50774.1
542.858	50858.39
543.223	50919.41
543.587	51051.38
543.952	51076.47
544.316	51292.96
544.681	51332.73
545.045	51485.04
545.41	51610.46
545.774	51758.71
546.138	51726.85
546.503	51923
546.867	51924.36
547.231	52339.49
547.595	52435.98
547.959	52588.29
548.324	52540.84
548.688	52684.34
549.052	52722.98
549.416	52844.56
549.779	52882.3
550.143	53092.69
550.507	53280.7
550.871	53357.31
551.235	53339.23
551.599	53684.76
551.962	53687.02
552.326	53672.11
552.689	53878.2
553.053	53863.06
553.417	53889.95
553.78	54268.25
554.143	54214.69
554.507	54422.37
554.87	54443.61
555.234	54689.03
555.597	54490.84
555.96	54735.35
556.323	54774.9
556.686	54858.06
557.05	55085.18
557.413	55171.05
557.776	55161.56
558.139	55418.27
558.502	55510.93
558.865	55563.81
559.228	55767.87
559.59	55887.87
559.953	55892.61
560.316	56185.03
560.679	56183.9
561.041	56385.25
561.404	56523.33
561.767	56697.34
562.129	56707.28
562.492	56954.05
562.854	56964
563.217	57003.54
563.579	57129.19
563.941	57318.11
564.304	57405.57
564.666	57499.35
565.028	57599.01
565.39	57690.98
565.753	57773.69
566.115	57876.51
566.477	57969.17
566.839	58100.24
567.201	58172.78
567.563	58257.52
567.925	58405.99
568.287	58425.2
568.648	58544.52
569.01	58620.45
569.372	58788.81
569.734	58747.45
570.095	58885.98
570.457	58921.46
570.819	59008.24
571.18	58951.06
571.542	59134.11
571.903	59217.27
572.265	59293.2
572.626	59316.48
572.987	59418.85
573.349	59456.81
573.71	59559.18
574.071	59610.71
574.432	59707.2
574.794	59859.97
575.155	59798.05
575.516	59735
575.877	59980.64
576.238	60013.63
576.599	60071.26
576.96	60127.08
577.32	60111.26
577.681	60202.78
578.042	60306.51
578.403	60311.93
578.763	60330.24
579.124	60414.75
579.485	60468.76
579.845	60521.64
580.206	60462.66
580.566	60485.94
580.927	60544.47
581.287	60588.76
581.648	60471.7
582.008	60640.96
582.368	60545.37
582.728	60677.12
583.089	60606.61
583.449	60575.43
583.809	60585.14
584.169	60619.95
584.529	60541.3
584.889	60802.54
585.249	60539.04
585.609	60536.78
585.969	60638.93
586.329	60561.64
586.688	60584.24
587.048	60569.1
587.408	60539.95
587.768	60566.84
588.127	60655.2
588.487	60535.43
588.846	60809.09
589.206	60574.75
589.565	60668.53
589.925	60734.97
590.284	60651.13
590.643	60838.47
591.003	60757.34
591.362	60837.12
591.721	60765.25
592.08	60838.02
592.44	60929.32
592.799	60822.88
593.158	60827.4
593.517	60929.09
593.876	60929.54
594.235	60922.76
594.593	60862.2
594.952	60957.79
595.311	60834.18
595.67	60895.87
596.029	61017
596.387	60985.59
596.746	61003.66
597.104	60846.38
597.463	60908.53
597.822	61061.06
598.18	60913.27
598.538	60934.51
598.897	61075.75
599.255	60849.77
599.613	61126.6
599.972	60956.89
600.33	61003.21
600.688	60940.62
601.046	61003.44
601.404	61064.45
601.762	61030.78
602.12	61179.48
602.478	61137.45
602.836	61186.94
603.194	61025.81
603.552	61090.67
603.91	61027.17
604.268	61145.13
604.625	61103.32
604.983	61207.73
605.341	61114.17
605.698	61251.34
606.056	61313.26
606.413	61340.15
606.771	61427.38
607.128	61480.26
607.485	61372.47
607.843	61395.52
608.2	61521.84
608.557	61569.3
608.914	61501.73
609.272	61594.16
609.629	61652.01
609.986	61782.17
610.343	61613.59
610.7	61766.81
611.057	61735.85
611.414	61753.25
611.771	61763.64
612.127	61809.52
612.484	61797.32
612.841	61848.61
613.198	61678.22
613.554	61800.25
613.911	61920.93
614.267	61919.35
614.624	61896.52
614.98	61897.88
615.337	62014.03
615.693	61966.12
616.05	61902.17
616.406	62000.02
616.762	61932.45
617.118	62014.26
617.475	61957.31
617.831	61918.67
618.187	62020.59
618.543	61996.63
618.899	62105.33
619.255	62058.1
619.611	62021.94
619.967	62117.76
620.323	62116.63
620.678	62082.96
621.034	62049.74
621.39	61995.95
621.746	62002.51
622.101	62292.44
622.457	62042.28
622.812	62143.07
623.168	62172.67
623.523	62171.09
623.879	62158.21
624.234	62076.18
624.589	62166.35
624.945	62243.41
625.3	62280.69
625.655	62234.59
626.01	62251.99
626.365	62292.67
626.72	62212.22
627.075	62262.84
627.43	62195.5
627.785	62172.67
628.14	62232.78
628.495	62277.3
628.85	62237.3
629.205	62077.99
629.559	62240.69
629.914	62129.51
630.269	62092.22
630.623	62012.45
630.978	61972.68
631.332	62053.58
631.687	62066.46
632.041	61926.35
632.396	61916.41
632.75	61821.5
633.104	61816.98
633.459	61756.64
633.813	61719.13
634.167	61726.13
634.521	61742.4
634.875	61702.4
635.229	61685.68
635.583	61544.89
635.937	61555.74
636.291	61489.08
636.645	61516.19
636.999	61379.93
637.352	61477.78
637.706	61381.28
638.06	61445.01
638.413	61388.74
638.767	61341.28
639.121	61358.23
639.474	61261.96
639.828	61238.01
640.181	61224
640.534	61184.45
640.888	61160.95
641.241	61028.3
641.594	61145.81
641.947	61196.65
642.301	61051.35
642.654	61127.5
643.007	61120.5
643.36	61053.83
643.713	61100.61
644.066	61148.29
644.419	60993.95
644.771	60868.07
645.124	60628.53
645.477	60601.64
645.83	60396.22
646.182	60323.91
646.535	60273.97
646.888	60319.39
647.24	60113.97
647.593	60273.06
647.945	60204.14
648.298	59979.28
648.65	60004.59
649.002	59951.04
649.355	59986.97
649.707	59910.81
650.059	60042.79
650.411	60293.85
650.763	60324.13
651.115	60472.83
651.467	60382.89
651.819	60354.87
652.171	60323.68
652.523	60217.47
652.875	60263.8
653.227	60134.53
653.578	60223.12
653.93	60150.81
654.282	60064.03
654.633	60049.11
654.985	60045.72
655.337	59990.81
655.688	60033.29
656.039	60102.9
656.391	59859.74
656.742	59863.36
657.094	59834.43
657.445	60021.77
657.796	59904.03
658.147	59893.64
658.498	59874.43
658.849	59870.36
659.2	59860.64
659.551	59836.69
659.902	59891.38
660.253	59834.88
660.604	59899.29
660.955	59740.19
661.306	59835.56
661.656	59786.52
662.007	59769.8
662.358	59754.88
662.708	59772.74
663.059	59777.48
663.409	59680.31
663.76	59809.35
664.11	59763.47
664.461	59770.25
664.811	59778.84
665.161	59788.56
665.511	59680.31
665.862	59767.54
666.212	59754.88
666.562	59734.77
666.912	59683.93
667.262	59642.12
667.612	59617.71
667.962	59614.77
668.312	59583.36
668.662	59718.5
669.011	59549.92
669.361	59538.17
669.711	59486.64
670.06	59399.86
670.41	59394.44
670.76	59294.78
671.109	59326.87
671.459	59313.77
671.808	59240.55
672.157	59315.12
672.507	59135.01
672.856	59115.58
673.205	59175.92
673.554	59230.15
673.904	59093.88
674.253	59202.81
674.602	59068.35
674.951	58737.74
675.3	58616.83
675.649	58972.08
675.998	58955.81
676.346	58958.52
676.695	59005.3
677.044	58758.75
677.393	58953.55
677.741	58880.78
678.09	58831.07
678.438	58810.95
678.787	58847.11
679.135	58844.4
679.484	58616.83
679.832	58785.42
680.181	58654.12
680.529	58733.22
680.877	58682.82
681.225	58542.49
681.573	58754.23
681.922	58549.27
682.27	58468.59
682.618	58548.14
682.966	58431.75
683.314	58500.68
683.661	58410.51
684.009	58395.82
684.357	58269.5
684.705	58309.5
685.053	58233.12
685.4	58212.1
685.748	58081.71
686.095	58125.32
686.443	58012.33
686.79	57988.83
687.138	58050.3
687.485	57999.22
687.832	57910.41
688.18	57923.75
688.527	57696.63
688.874	57679.01
689.221	57592.91
689.568	57529.18
689.915	57406.7
690.262	57425.45
690.609	57343.2
690.956	57223.42
691.303	57244.44
691.65	57083.99
691.997	57043.77
692.344	56841.29
692.69	56826.6
693.037	56752.02
693.383	56563.1
693.73	56688.52
694.077	56466.38
694.423	56440.39
694.769	56385.48
695.116	56254.41
695.462	56239.27
695.808	56192.94
696.155	56159.27
696.501	55942.1
696.847	55972.84
697.193	55744.37
697.539	55860.07
697.885	55641.32
698.231	55659.85
698.577	55568.55
698.923	55549.12
699.269	55378.73
699.614	55245.4
699.96	55255.57
700.306	55226.87
700.651	55131.05
700.997	55043.37
701.342	55012.18
701.688	54967.66
702.033	54861.23
702.379	54872.07
702.724	54772.42
703.069	54865.97
703.415	54579.88
703.76	54608.13
704.105	54663.72
704.45	54433.44
704.795	54316.83
705.14	54286.78
705.485	54270.51
705.83	54137.86
706.175	54183.05
706.52	54037.97
706.865	53928.14
707.209	53915.49
707.554	53805.44
707.899	53938.09
708.243	53723.4
708.588	53682.5
708.932	53361.83
709.277	53461.49
709.621	53424.2
709.966	53106.92
710.31	53243.87
710.654	52959.36
710.998	53035.29
711.342	52951.22
711.687	52817.89
712.031	52670.78
712.375	52610.44
712.719	52708.29
713.063	52562.08
713.407	52513.04
713.75	52425.13
714.094	52280.5
714.438	52136.1
714.782	52220.17
715.125	52021.08
715.469	52125.71
715.812	51862.21
716.156	51704.93
716.499	51670.12
716.843	51728.2
717.186	51427.64
717.53	51598.26
717.873	51591.71
718.216	51458.38
718.559	51237.37
718.902	51094.09
719.246	51205.5
719.589	50953.08
719.932	50898.17
720.275	50956.7
720.617	50809.81
720.96	50667.89
721.303	50660.66
721.646	50619.76
721.989	50393.32
722.331	50529.59
722.674	50452.08
723.016	50495.01
723.359	50379.76
723.701	50396.71
724.044	50212.54
724.386	50012.09
724.729	50215.47
725.071	50043.95
725.413	50079.66
725.755	50022.71
726.097	49939.77
726.439	49737.07
726.782	49772.1
727.124	49897.06
727.465	49676.28
727.807	49673.11
728.149	49639.44
728.491	49567.81
728.833	49657.52
729.175	49557.86
729.516	49426.79
729.858	49307.7
730.199	49366
730.541	49332.11
730.882	49232
731.224	49332.78
731.565	48923.53
731.906	48833.81
732.248	49011.66
732.589	48778
732.93	48683.31
733.271	48641.28
733.612	48620.49
733.953	48595.85
734.294	48500.72
734.635	48384.11
734.976	48489.87
735.317	48166.49
735.658	48101.86
735.999	48069.32
736.339	48031.12
736.68	48091.69
737.021	47863.67
737.361	47752.49
737.702	47741.87
738.042	47645.15
738.383	47505.94
738.723	47530.35
739.063	47231.37
739.404	47337.58
739.744	47087.87
740.084	46981.43
740.424	47175.78
740.764	46956.8
741.104	46962.68
741.444	46721.33
741.784	46773.98
742.124	46652.86
742.464	46626.87
742.804	46469.58
743.143	46413.09
743.483	46430.71
743.823	46168.57
744.162	46075.02
744.502	46127.67
744.841	45942.14
745.181	46063.94
745.52	45882.48
745.86	45835.48
746.199	45772.88
746.538	45637.51
746.877	45791.63
747.216	45771.07
747.556	45577.63
747.895	45568.59
748.234	45382.38
748.573	45376.28
748.911	45339.22
749.25	45280.91
749.589	45103.29
749.928	45122.05
750.267	45173.35
750.605	45082.05
750.944	45011.32
751.283	44817.88
751.621	44960.7
751.96	44578.11
752.298	44653.36
752.636	44626.47
752.975	44474.16
753.313	44355.51
753.651	44513.25
753.989	44230.77
754.327	44214.05
754.666	44027.39
755.004	44042.08
755.342	44006.82
755.679	44003.89
756.017	43683.67
756.355	43571.13
756.693	43318.48
757.031	43585.37
757.368	43158.48
757.706	43218.37
758.044	43104.93
758.381	43183.12
758.719	42857.93
759.056	43072.61
759.394	42776.12
759.731	42412.51
760.068	42449.8
760.405	42266.98
760.743	42032.41
761.08	42209.81
761.417	41915.58
761.754	41798.75
762.091	41725.53
762.428	41403.5
762.765	41343.39
763.102	41242.38
763.438	41026.79
763.775	40772.33
764.112	40752.22
764.449	40765.33
764.785	40696.85
765.122	40330.08
765.458	40190.65
765.795	40203.99
766.131	40104.1
766.467	39691
766.804	39469.99
767.14	39357.45
767.476	39308.87
767.812	39154.52
768.148	39234.75
768.485	39100.51
768.821	38772.16
769.157	38737.13
769.492	38567.87
769.828	38432.05
770.164	38126.3
770.5	38051.95
770.836	38105.51
771.171	37713.2
771.507	37710.49
771.842	37401.35
772.178	37351.86
772.513	37349.15
772.849	37177.17
773.184	37097.17
773.519	37097.85
773.855	36795.71
774.19	36633.23
774.525	36652.21
774.86	36581.48
775.195	36409.51
775.53	36207.71
775.865	36147.37
776.2	35980.59
776.535	35674.61
776.87	35682.97
777.205	35639.59
777.539	35327.28
777.874	35516.2
778.209	35205.7
778.543	35224
778.878	35006.83
779.212	35073.05
779.547	34837.8
779.881	34882.09
780.215	34581.31
780.55	34759.16
780.884	34501.31
781.218	34329.56
781.552	34287.3
781.886	34190.81
782.22	33943.58
782.554	33921.44
782.888	33502.24
783.222	33398.29
783.556	33190.16
783.889	33300.66
784.223	33071.52
784.557	33074.23
784.89	33057.51
785.224	32821.35
785.557	32652.77
785.891	32601.02
786.224	32430.4
786.558	32436.51
786.891	32037.87
787.224	31908.84
787.557	31872.68
787.891	31959.91
788.224	31754.49
788.557	31689.63
788.89	31587.94
789.223	31533.25
789.556	31282.41
789.888	31143.43
790.221	30992.93
790.554	30785.48
790.887	30799.26
791.219	30587.74
791.552	30438.14
791.884	30305.04
792.217	30217.58
792.549	30166.74
792.882	29790.25
793.214	29688.78
793.546	29829.34
793.879	29551.16
794.211	29456.02
794.543	29436.13
794.875	29390.71
795.207	29282.24
795.539	29050.38
795.871	29159.98
796.203	28752.76
796.535	28598.41
796.867	28620.34
797.198	28428.02
797.53	28428.93
797.862	28317.29
798.193	28270.29
798.525	28000.46
798.856	28069.62
799.188	27829.62
799.519	27678.44
799.85	27566.58
800.182	27610.64
800.513	27567.71
800.844	27265.12
801.175	27364.32
801.506	27471.44
801.837	27252.69
802.168	27244.55
802.499	27118.23
802.83	26979.02
803.161	26865.58
803.491	26939.7
803.822	26916.88
804.153	26618.58
804.483	26581.29
804.814	26457.68
805.145	26518.92
805.475	26439.15
805.805	26367.74
806.136	26453.61
806.466	26346.95
806.796	26322.77
807.126	26172.94
807.457	26057.01
807.787	26192.38
808.117	26068.09
808.447	25977.69
808.777	26044.13
809.107	25881.2
809.436	25875.55
809.766	25782.67
810.096	25617.7
810.426	25525.5
810.755	25665.84
811.085	25519.17
811.414	25504.71
811.744	25218.39
812.073	25245.51
812.403	25285.06
812.732	25106.53
813.061	25123.03
813.39	25038.73
813.719	25012.75
814.049	25040.09
814.378	24859.98
814.707	24831.28
815.036	24764.84
815.365	24681.46
815.693	24431.29
816.022	24476.26
816.351	24295.7
816.68	24198.76
817.008	24313.33
817.337	24013.45
817.665	23944.98
817.994	24060.68
818.322	23865.21
818.651	23886
818.979	23827.24
819.307	23868.6
819.636	23709.73
819.964	23500.7
820.292	23617.98
820.62	23531.66
820.948	23446.01
821.276	23591.09
821.604	23398.55
821.932	23404.43
822.259	23513.58
822.587	23393.35
822.915	23328.27
823.243	23535.95
823.57	23374.15
823.898	23468.15
824.225	23181.16
824.553	23259.8
824.88	23225
825.207	23290.31
825.535	23205.79
825.862	23333.47
826.189	23054.15
826.516	23221.83
826.843	23277.2
827.17	23175.28
827.497	23171.21
827.824	23169.18
828.151	23134.83
828.478	23079.92
828.805	23155.85
829.131	23005.12
829.458	23077.2
829.785	22974.16
830.111	23068.16
830.438	23070.88
830.764	23102.06
831.09	22980.94
831.417	22916.08
831.743	23057.09
832.069	23026.81
832.395	22964.66
832.722	23037.43
833.048	22849.64
833.374	22956.53
833.7	22810.09
834.026	22833.14
834.351	22957.21
834.677	22900.26
835.003	22851.45
835.329	22914.5
835.654	22933.25
835.98	22889.64
836.306	22902.97
836.631	22787.72
836.956	22869.07
837.282	22780.71
837.607	22728.96
837.932	22693.26
838.258	22752.01
838.583	22744.56
838.908	22635.18
839.233	22711.11
839.558	22707.04
839.883	22579.14
840.208	22617.78
840.533	22539.59
840.858	22646.25
841.182	22535.3
841.507	22486.49
841.832	22370.33
842.156	22405.13
842.481	22351.8
842.805	22328.07
843.13	22338.69
843.454	22227.51
843.778	22257.11
844.103	22132.6
844.427	22103.22
844.751	22058.25
845.075	21917.23
845.399	21917.46
845.723	21817.58
846.047	21981.19
846.371	21642.21
846.695	21681.76
847.019	21520.41
847.343	21429.79
847.666	21327.19
847.99	21213.3
848.313	21166.75
848.637	21107.09
848.96	20988.67
849.284	20933.31
849.607	20693.76
849.931	20682.24
850.254	20573.54
850.577	20465.97
850.9	20333.1
851.223	20358.41
851.546	20232.31
851.869	20116.6
852.192	20177.39
852.515	19893.78
852.838	19887.23
853.161	19861.92
853.483	19804.3
853.806	19666.22
854.129	19703.28
854.451	19524.98
854.774	19561.82
855.096	19472.33
855.419	19396.62
855.741	19314.82
856.063	19220.81
856.385	19205.67
856.708	19158.66
857.03	18932.45
857.352	19001.6
857.674	18903.08
857.996	18859.91
858.318	18758.9
858.64	18590.32
858.961	18645.91
859.283	18499.25
859.605	18455.18
859.926	18424.67
860.248	18449.3
860.57	18307.84
860.891	18343.54
861.212	18268.97
861.534	18235.52
861.855	18212.47
862.176	18122.98
862.498	18226.94
862.819	18088.86
863.14	18080.27
863.461	18068.52
863.782	17969.09
864.103	17966.6
864.424	17927.96
864.745	17989.43
865.065	17874.63
865.386	17765.93
865.707	17855.42
866.027	17850.67
866.348	17849.77
866.668	17814.74
866.989	17789.21
867.309	17680.74
867.63	17807.96
867.95	17765.71
868.27	17569.33
868.59	17728.87
868.91	17678.7
869.23	17645.26
869.55	17619.49
869.87	17577.69
870.19	17604.35
870.51	17585.37
870.83	17558.93
871.15	17513.51
871.469	17516.45
871.789	17605.94
872.109	17459.27
872.428	17400.07
872.748	17511.25
873.067	17468.99
873.386	17419.95
873.706	17468.09
874.025	17370.01
874.344	17262.89
874.663	17292.72
874.982	17447.75
875.301	17310.12
875.62	17294.53
875.939	17271.71
876.258	17350.12
876.577	17203.69
876.896	17203.01
877.214	17185.38
877.533	17152.84
877.852	17115.33
878.17	17210.47
878.489	17232.39
878.807	17165.72
879.125	17050.02
879.444	16996.46
879.762	16970.25
880.08	17018.61
880.398	17010.24
880.716	16979.74
881.034	16907.2
881.352	16968.89
881.67	16824.94
881.988	16832.62
882.306	16858.16
882.624	16815.45
882.941	16699.07
883.259	16672.85
883.577	16626.07
883.894	16556.02
884.212	16504.72
884.529	16482.58
884.846	16448
885.164	16503.82
885.481	16471.95
885.798	16379.53
886.115	16288.46
886.432	16236.48
886.75	16161.68
887.067	16263.37
887.383	16102.92
887.7	16114.9
888.017	16039.65
888.334	16049.59
888.651	15941.57
888.967	15825.19
889.284	15843.27
889.6	15756.94
889.917	15704.29
890.233	15755.59
890.55	15664.74
890.866	15745.87
891.182	15575.25
891.498	15605.31
891.815	15460.91
892.131	15382.72
892.447	15400.12
892.763	15302.95
893.079	15178.2
893.395	15201.48
893.71	15252.55
894.026	15158.32
894.342	15117.64
894.657	14893.01
894.973	14933.01
895.289	15003.97
895.604	14862.28
895.92	14738.89
896.235	14795.84
896.55	14822.05
896.865	14714.03
897.181	14657.76
897.496	14677.65
897.811	14561.5
898.126	14462.97
898.441	14345.23
898.756	14336.19
899.071	14278.11
899.386	14325.57
899.7	14163.09
900.015	14144.11
900.33	13962.87
900.644	14022.98
900.959	14100.04
901.273	14003.09
901.588	14013.04
901.902	13983.66
902.216	13812.81
902.531	13800.39
902.845	13779.37
903.159	13717.9
903.473	13623.22
903.787	13665.7
904.101	13673.61
904.415	13595.87
904.729	13516.78
905.042	13420.28
905.356	13466.16
905.67	13414.63
905.984	13398.59
906.297	13351.81
906.611	13262.55
906.924	13196.79
907.237	13148.43
907.551	13156.33
907.864	13138.03
908.177	13079.5
908.491	13115.66
908.804	13037.69
909.117	12869.34
909.43	12852.84
909.743	12881.99
910.056	12835.89
910.368	12859.39
910.681	12769.23
910.994	12730.58
911.307	12655.33
911.619	12608.33
911.932	12560.42
912.244	12527.65
912.557	12527.2
912.869	12420.99
913.181	12345.06
913.494	12372.4
913.806	12319.07
914.118	12336.47
914.43	12176.02
914.742	12143.93
915.054	12136.02
915.366	12096.48
915.678	12079.75
915.99	11998.4
916.302	11971.51
916.613	11886.09
916.925	11821.23
917.236	11792.08
917.548	11867.56
917.859	11739.87
918.171	11705.75
918.482	11639.99
918.794	11587.34
919.105	11649.26
919.416	11445.87
919.727	11444.97
920.038	11437.96
920.349	11267.8
920.66	11308.93
920.971	11334.46
921.282	11230.74
921.593	11186.9
921.903	11068.93
922.214	11071.87
922.525	10921.82
922.835	10913.91
923.146	10924.3
923.456	10824.87
923.767	10783.06
924.077	10808.83
924.387	10642.05
924.697	10624.88
925.008	10579.23
925.318	10574.93
925.628	10532
925.938	10463.52
926.248	10399.57
926.558	10330.65
926.867	10282.51
927.177	10284.55
927.487	10232.12
927.796	10186.47
928.106	10132.69
928.416	10112.8
928.725	10017.21
929.034	9928.17
929.344	9997.77
929.653	9963.2
929.962	9839.59
930.271	9820.6
930.581	9781.73
930.89	9693.6
931.199	9698.12
931.508	9637.78
931.817	9628.74
932.125	9588.75
932.434	9565.24
932.743	9431.24
933.051	9358.47
933.36	9319.83
933.669	9288.64
933.977	9280.96
934.286	9225.59
934.594	9183.33
934.902	9145.59
935.21	9149.66
935.519	9119.15
935.827	9105.59
936.135	8974.98
936.443	8877.35
936.751	8850.46
937.059	8853.62
937.367	8879.61
937.674	8798.94
937.982	8748.77
938.29	8769.33
938.597	8709.67
938.905	8614.08
939.213	8595.32
939.52	8584.25
939.827	8590.81
940.135	8569.79
940.442	8493.18
940.749	8429.45
941.056	8484.14
941.363	8385.39
941.67	8381.55
941.977	8293.64
942.284	8280.53
942.591	8237.82
942.898	8255.9
943.205	8183.36
943.511	8160.08
943.818	8125.73
944.125	8058.16
944.431	8033.76
944.738	8104.72
945.044	8076.24
945.35	7928.22
945.657	7877.83
945.963	7896.36
946.269	7818.4
946.575	7841.45
946.881	7748.34
947.187	7767.32
947.493	7746.31
947.799	7715.8
948.105	7727.1
948.41	7625.18
948.716	7713.99
949.022	7530.27
949.327	7614.33
949.633	7456.37
949.938	7525.3
950.244	7495.92
950.549	7425.86
950.854	7362.14
951.16	7357.39
951.465	7308.58
951.77	7298.41
952.075	7255.7
952.38	7251.41
952.685	7269.48
952.99	7183.16
953.294	7193.78
953.599	7119.66
953.904	7162.82
954.209	7104.29
954.513	7096.83
954.818	7007.8
955.122	7041.24
955.426	6924.18
955.731	6957.4
956.035	6862.26
956.339	6907.01
956.643	6902.49
956.948	6847.8
957.252	6765.77
957.556	6815.71
957.86	6747.24
958.163	6705.66
958.467	6658.88
958.771	6677.41
959.075	6635.15
959.378	6626.79
959.682	6610.74
959.985	6543.85
960.289	6526.23
960.592	6464.53
960.896	6415.72
961.199	6438.09
961.502	6424.31
961.805	6387.02
962.108	6312.67
962.411	6296.18
962.714	6259.34
963.017	6220.92
963.32	6264.99
963.623	6224.54
963.926	6203.52
964.228	6111.55
964.531	6071.1
964.833	6083.07
965.136	6024.77
965.438	6014.15
965.741	5978.67
966.043	5954.26
966.345	5941.84
966.648	5898.67
966.95	5875.85
967.252	5846.47
967.554	5806.7
967.856	5756.3
968.158	5758.56
968.46	5743.87
968.761	5709.98
969.063	5690.99
969.365	5638.57
969.666	5611.67
969.968	5651.45
970.269	5564.67
970.571	5562.18
970.872	5512.92
971.174	5441.51
971.475	5483.54
971.776	5445.35
972.077	5405.58
972.378	5385.69
972.679	5370.32
972.98	5327.84
973.281	5302.08
973.582	5300.5
973.883	5250.1
974.183	5198.35
974.484	5192.02
974.785	5197
975.085	5152.48
975.386	5174.4
975.686	5145.02
975.986	5127.62
976.287	5054.18
976.587	5031.58
976.887	5030.67
977.187	5009.88
977.487	4987.74
977.787	4940.28
978.087	4908.87
978.387	4913.61
978.687	4895.54
978.987	4852.6
979.286	4792.71
979.586	4847.85
979.885	4774.18
980.185	4744.58
980.484	4713.62
980.784	4664.13
981.083	4673.85
981.382	4676.78
981.682	4649.67
981.981	4654.86
982.28	4632.27
982.579	4593.85
982.878	4574.41
983.177	4536.45
983.475	4534.41
983.774	4548.2
984.073	4478.14
984.372	4446.06
984.67	4394.76
984.969	4468.2
985.267	4418.03
985.566	4369.45
985.864	4360.41
986.162	4329.22
986.461	4290.35
986.759	4329.67
987.057	4301.88
987.355	4282.67
987.653	4265.5
987.951	4274.99
988.249	4205.61
988.547	4247.19
988.844	4175.1
989.142	4220.75
989.44	4129.23
989.737	4098.49
990.035	4093.3
990.332	4107.08
990.63	4049.68
990.927	4066.18
991.224	4037.7
991.521	4047.87
991.819	4038.38
992.116	4006.74
992.413	3991.6
992.71	3982.56
993.006	3944.37
993.303	3918.16
993.6	3930.14
993.897	3907.76
994.193	3892.4
994.49	3856.47
994.787	3849.23
995.083	3811.72
995.379	3781.21
995.676	3789.12
995.972	3764.94
996.268	3717.26
996.565	3745.06
996.861	3694.89
997.157	3689.92
997.453	3694.89
997.749	3655.79
998.044	3612.18
998.34	3592.52
998.636	3603.37
998.932	3611.5
999.227	3573.54
999.523	3544.84
999.818	3517.49
1000.114	3505.97
1000.409	3470.71
1000.704	3478.4
1001	3442.24
1001.295	3450.6
1001.59	3446.08
1001.885	3422.58
1002.18	3387.55
1002.475	3345.75
1002.77	3307.78
1003.065	3274.79
1003.359	3317.5
1003.654	3300.1
1003.949	3277.27
1004.243	3277.95
1004.538	3199.99
1004.832	3192.98
1005.127	3178.74
1005.421	3155.47
1005.715	3169.7
1006.009	3176.26
1006.304	3123.15
1006.598	3059.65
1006.892	3101.46
1007.186	3046.54
1007.48	3053.1
1007.773	3037.5
1008.067	3000.9
1008.361	2969.71
1008.655	2935.81
1008.948	2903.05
1009.242	2914.34
1009.535	2915.47
1009.829	2882.03
1010.122	2890.39
1010.415	2859.88
1010.708	2837.74
1011.001	2813.78
1011.295	2802.93
1011.588	2775.36
1011.881	2743.28
1012.173	2751.41
1012.466	2693.11
1012.759	2711.64
1013.052	2722.48
1013.344	2653.79
1013.637	2654.24
1013.93	2631.64
1014.222	2617.63
1014.514	2593.9
1014.807	2615.37
1015.099	2569.04
1015.391	2552.55
1015.683	2490.17
1015.976	2533.79
1016.268	2491.53
1016.56	2478.2
1016.851	2495.82
1017.143	2457.86
1017.435	2408.82
1017.727	2410.85
1018.018	2408.59
1018.31	2374.7
1018.602	2319.11
1018.893	2328.14
1019.185	2310.07
1019.476	2294.25
1019.767	2313.23
1020.058	2272.1
1020.35	2254.93
1020.641	2231.88
1020.932	2205.44
1021.223	2209.73
1021.514	2176.96
1021.804	2166.12
1022.095	2169.96
1022.386	2112.11
1022.677	2130.18
1022.967	2120.92
1023.258	2107.59
1023.548	2072.11
1023.839	2065.78
1024.129	2050.64
1024.419	2066
1024.709	2015.16
1025	2026.23
1025.29	1952.56
1025.58	1966.12
1025.87	1983.75
1026.16	1930.42
1026.449	1935.84
1026.739	1907.37
1027.029	1909.62
1027.319	1902.62
1027.608	1873.47
1027.898	1861.94
1028.187	1852.68
1028.477	1869.85
1028.766	1812.68
1029.055	1809.51
1029.344	1812.23
1029.634	1762.28
1029.923	1790.53
1030.212	1743.75
1030.501	1741.49
1030.79	1752.11
1031.078	1692.68
1031.367	1711.21
1031.656	1675.51
1031.945	1706.47
1032.233	1693.13
1032.522	1645.68
1032.81	1657.43
1033.099	1644.32
1033.387	1638.45
1033.675	1612.46
1033.963	1597.32
1034.251	1587.15
1034.54	1584.44
1034.828	1582.85
1035.116	1539.47
1035.403	1550.09
1035.691	1542.85
1035.979	1529.75
1036.267	1529.97
1036.554	1518.9
1036.842	1482.52
1037.129	1473.48
1037.417	1463.99
1037.704	1464.89
1037.992	1439.35
1038.279	1440.26
1038.566	1402.97
1038.853	1402.97
1039.14	1402.97
