Data from aluminium_macbook_case_FLMS001491_006.txt Node
Date: Tue Feb 07 10:43:07 GMT 2017
User: dcchb
Spectrometer: FLMS00149
Trigger mode: 0
Integration Time (sec): 2.000000E-2
Scans to average: 10
Electric dark correction enabled: true
Nonlinearity correction enabled: false
Boxcar width: 0
XAxis mode: Wavelengths
Number of Pixels in Spectrum: 2048
>>>>>Begin Spectral Data<<<<<
341.393	-7.7
341.776	-7.7
342.16	-7.7
342.543	-49.28
342.927	-73.91
343.31	-58.32
343.693	-82.5
344.077	-63.74
344.46	-65.32
344.843	-65.32
345.226	-52.89
345.61	-30.07
345.993	-9.51
346.376	-1.6
346.759	30.49
347.142	31.85
347.525	42.02
347.908	46.99
348.291	78.63
348.674	83.15
349.057	116.14
349.44	124.05
349.823	139.87
350.206	178.74
350.588	238.62
350.971	255.12
351.354	274.33
351.737	298.96
352.119	299.64
352.502	316.81
352.884	322.24
353.267	343.25
353.65	329.69
354.032	376.25
354.414	370.6
354.797	362.01
355.179	378.51
355.562	373.76
355.944	399.52
356.326	400.88
356.709	409.92
357.091	420.54
357.473	397.94
357.855	424.38
358.238	413.99
358.62	397.72
359.002	434.32
359.384	416.92
359.766	420.31
360.148	437.49
360.53	431.61
360.912	419.64
361.294	440.65
361.676	436.13
362.057	404.5
362.439	426.64
362.821	426.64
363.203	430.26
363.584	428.22
363.966	438.62
364.348	416.47
364.729	422.57
365.111	419.64
365.493	457.83
365.874	431.61
366.256	428.68
366.637	441.56
367.019	456.47
367.4	413.31
367.781	438.84
368.163	448.11
368.544	435.45
368.925	432.97
369.306	439.3
369.688	456.7
370.069	449.92
370.45	460.99
370.831	458.05
371.212	458.05
371.593	454.89
371.974	436.58
372.355	477.71
372.736	464.15
373.117	471.84
373.498	470.71
373.879	463.25
374.26	460.76
374.641	449.01
375.021	478.39
375.402	495.57
375.783	497.37
376.163	533.98
376.544	553.64
376.925	497.83
377.305	512.29
377.686	528.79
378.066	519.97
378.447	543.25
378.827	535.34
379.208	550.71
379.588	548.9
379.968	543.7
380.349	573.53
380.729	561.33
381.109	562.68
381.489	594.09
381.87	581.21
382.25	587.32
382.63	594.32
383.01	611.27
383.39	601.55
383.77	604.94
384.15	614.88
384.53	627.99
384.91	622.34
385.29	644.71
385.67	649.23
386.049	656.92
386.429	642
386.809	641.78
387.189	667.99
387.568	691.27
387.948	705.05
388.328	709.12
388.707	729.91
389.087	723.58
389.466	733.3
389.846	721.77
390.225	738.27
390.605	760.64
390.984	755.22
391.363	778.27
391.743	759.29
392.122	776.46
392.501	813.75
392.881	814.88
393.26	821.21
393.639	825.95
394.018	848.1
394.397	843.35
394.776	856.23
395.155	856.91
395.534	867.31
395.913	880.19
396.292	911.37
396.671	881.54
397.05	926.06
397.429	938.04
397.808	917.93
398.186	934.88
398.565	955.44
398.944	965.84
399.323	961.99
399.701	963.12
400.08	976.46
400.458	999.51
400.837	1016.91
401.215	1003.58
401.594	1045.61
401.972	1051.94
402.351	1062.1
402.729	1084.48
403.107	1100.3
403.486	1111.37
403.864	1090.8
404.242	1114.31
404.62	1139.84
404.999	1145.27
405.377	1152.5
405.755	1177.58
406.133	1173.29
406.511	1227.52
406.889	1244.7
407.267	1263
407.645	1269.33
408.023	1280.18
408.401	1306.17
408.779	1309.1
409.156	1358.37
409.534	1354.3
409.912	1375.54
410.29	1414.19
410.667	1433.17
411.045	1472.72
411.422	1441.98
411.8	1456.44
412.178	1506.61
412.555	1540.06
412.933	1550.45
413.31	1589.55
413.687	1614.41
414.065	1612.15
414.442	1667.96
414.819	1668.87
415.197	1703.44
415.574	1724.23
415.951	1754.06
416.328	1748.19
416.705	1790.67
417.082	1756.55
417.46	1804.46
417.837	1847.17
418.214	1851.01
418.591	1837.23
418.967	1867.96
419.344	1904.79
419.721	1922.2
420.098	1940.27
420.475	1928.3
420.852	1981.18
421.228	2011.91
421.605	2020.27
421.982	2060.5
422.358	2090.33
422.735	2115.64
423.111	2117.44
423.488	2155.64
423.864	2205.13
424.241	2200.15
424.617	2260.04
424.994	2247.38
425.37	2294.16
425.746	2271.11
426.123	2315.18
426.499	2335.07
426.875	2374.16
427.251	2475.18
427.627	2474.27
428.003	2483.31
428.379	2533.03
428.756	2577.77
429.132	2575.74
429.507	2662.51
429.883	2656.64
430.259	2747.48
430.635	2730.31
431.011	2764.43
431.387	2850.76
431.763	2906.12
432.138	2894.15
432.514	2965.11
432.89	2989.06
433.265	3076.52
433.641	3099.79
434.016	3140.24
434.392	3185.66
434.767	3244.19
435.143	3207.36
435.518	3284.19
435.894	3363.29
436.269	3384.3
436.644	3419.33
437.02	3445.54
437.395	3473.79
437.77	3547.92
438.145	3610.74
438.52	3606.9
438.895	3654.81
439.271	3669.95
439.646	3813.22
440.021	3811.19
440.395	3840.56
440.77	3826.1
441.145	3836.27
441.52	3942.03
441.895	3956.27
442.27	3993.55
442.645	4003.5
443.019	4036.49
443.394	4019.77
443.769	4160.1
444.143	4115.58
444.518	4172.08
444.892	4167.79
445.267	4212.53
445.641	4274
446.016	4311.28
446.39	4331.62
446.764	4399.42
447.139	4417.04
447.513	4467.44
447.887	4385.41
448.262	4471.96
448.636	4506.53
449.01	4588.79
449.384	4676.47
449.758	4692.74
450.132	4749.01
450.506	4777.04
450.88	4770.26
451.254	4815.23
451.628	4918.05
452.002	4949.91
452.376	4987.65
452.75	5083.02
453.123	5064.03
453.497	5201.66
453.871	5212.96
454.244	5356.68
454.618	5365.27
454.992	5458.83
455.365	5467.19
455.739	5631.02
456.112	5663.79
456.486	5723.23
456.859	5790.57
457.232	5921.86
457.606	5890.9
457.979	6008.19
458.352	6180.16
458.725	6222.65
459.099	6307.16
459.472	6435.52
459.845	6471.45
460.218	6525.92
460.591	6646.59
460.964	6594.84
461.337	6792.58
461.71	6859.92
462.083	6916.41
462.456	6961.16
462.829	7006.13
463.201	7157.09
463.574	7214.26
463.947	7304.88
464.32	7515.27
464.692	7548.71
465.065	7651.08
465.438	7747.35
465.81	7800.23
466.183	7899.44
466.555	8127.68
466.928	8209.71
467.3	8163.39
467.672	8376.49
468.045	8602.7
468.417	8633.21
468.789	8677.5
469.161	8816.25
469.534	9015.12
469.906	9190.03
470.278	9217.37
470.65	9408.33
471.022	9504.37
471.394	9686.96
471.766	9808.77
472.138	9875.66
472.51	10155.65
472.882	10242.2
473.253	10387.74
473.625	10511.35
473.997	10782.08
474.369	10818.68
474.74	11018.45
475.112	11177.32
475.484	11379.35
475.855	11524.65
476.227	11758.77
476.598	12057.07
476.97	12177.97
477.341	12525.76
477.713	12751.97
478.084	12787.67
478.455	13152.18
478.827	13239.19
479.198	13725.73
479.569	13694.77
479.94	14130.46
480.311	14271.7
480.682	14522.77
481.053	14962.53
481.424	15079.14
481.795	15205.24
482.166	15479.8
482.537	15666.01
482.908	15986.68
483.279	16122.05
483.65	16446.11
484.021	16758.19
484.391	17029.14
484.762	17184.62
485.133	17366.76
485.503	17643.14
485.874	18004.03
486.244	18307.08
486.615	18597.24
486.985	18813.73
487.356	19239.25
487.726	19355.86
488.097	19826.13
488.467	19900.25
488.837	20287.14
489.207	20603.51
489.578	20784.98
489.948	21073.1
490.318	21399.2
490.688	21395.13
491.058	21812.07
491.428	22104.94
491.798	22271.72
492.168	22741.31
492.538	22745.83
492.908	23089.77
493.278	23302.88
493.648	23432.14
494.017	23779.93
494.387	23868.28
494.757	24108.96
495.126	24415.62
495.496	24371.32
495.866	24619
496.235	24955.04
496.605	25154.58
496.974	25276.61
497.344	25574.68
497.713	25800.89
498.082	26086.76
498.452	26340.08
498.821	26413.98
499.19	26552.28
499.559	26947.98
499.928	27136.9
500.298	27279.49
500.667	27646.49
501.036	27602.65
501.405	27927.84
501.774	27933.71
502.143	28376.41
502.512	28413.02
502.88	28675.84
503.249	28629.29
503.618	28892.56
503.987	29015.27
504.356	29331.19
504.724	29441.25
505.093	29477.85
505.462	29603.05
505.83	29819.99
506.199	30141.11
506.567	30405.06
506.936	30494.55
507.304	30867.2
507.672	30959.4
508.041	31265.15
508.409	31601.19
508.777	31727.97
509.145	32005.47
509.514	32072.36
509.882	32471.45
510.25	32600.94
510.618	32897.65
510.986	33072.34
511.354	33356.85
511.722	33794.58
512.09	34026.44
512.458	33923.84
512.826	34449.48
513.193	34729.92
513.561	34694.67
513.929	34921.78
514.297	35384.82
514.664	35528.09
515.032	35638.82
515.4	35895.99
515.767	36189.77
516.135	36298.01
516.502	36110.9
516.869	36839.7
517.237	36878.79
517.604	36875.85
517.972	37290.08
518.339	37509.51
518.706	37719.45
519.073	37949.72
519.44	38140.9
519.808	38529.59
520.175	38728.23
520.542	39235.56
520.909	39441.89
521.276	39613.86
521.643	39959.61
522.009	40239.15
522.376	40598.01
522.743	40919.81
523.11	41407.71
523.477	41834.59
523.843	41869.39
524.21	42477.06
524.577	42716.15
524.943	42911.63
525.31	43261
525.676	43592.96
526.043	43895.78
526.409	44031.37
526.776	44347.75
527.142	44508.65
527.508	44834.74
527.874	45140.04
528.241	45265.69
528.607	45354.5
528.973	45699.58
529.339	45801.72
529.705	46130.52
530.071	46434.25
530.437	46525.77
530.803	46807.34
531.169	47004.85
531.535	46848.7
531.901	47130.27
532.267	47432.19
532.632	47820.2
532.998	47873.3
533.364	48071.49
533.73	48176.57
534.095	48765.26
534.461	48871.92
534.826	49009.54
535.192	49137.45
535.557	49527.27
535.923	49587.16
536.288	49765.23
536.653	49950.54
537.019	49927.49
537.384	50220.36
537.749	50342.39
538.114	50331.77
538.479	50443.18
538.845	50786.9
539.21	50716.39
539.575	50835.71
539.94	50983.05
540.305	51091.98
540.67	51117.74
541.034	51221.01
541.399	51389.37
541.764	51491.06
542.129	51526.31
542.494	51457.84
542.858	51659.87
543.223	51747.33
543.587	51892.63
543.952	51856.48
544.316	52021.89
544.681	51912.29
545.045	52227.54
545.41	52396.57
545.774	52497.81
546.138	52549.56
546.503	52670.01
546.867	52743.01
547.231	53013.51
547.595	53116.33
547.959	53254.4
548.324	53270.22
548.688	53425.7
549.052	53534.4
549.416	53649.87
549.779	53780.04
550.143	53827.72
550.507	54130.99
550.871	54243.98
551.235	54211.67
551.599	54462.51
551.962	54516.74
552.326	54584.31
552.689	54814.36
553.053	54643.29
553.417	54804.19
553.78	55057.52
554.143	54916.06
554.507	55133.23
554.87	55218.42
555.234	55426.78
555.597	55294.35
555.96	55420.45
556.323	55536.38
556.686	55563.27
557.05	55754
557.413	55796.26
557.776	55788.12
558.139	55960.77
558.502	55994.9
558.865	56122.8
559.228	56258.39
559.59	56412.51
559.953	56543.13
560.316	56804.37
560.679	56835.55
561.041	57005.27
561.404	57122.1
561.767	57295.88
562.129	57259.5
562.492	57547.17
562.854	57558.92
563.217	57603.67
563.579	57800.5
563.941	57905.58
564.304	58021.96
564.666	58229.64
565.028	58279.36
565.39	58369.3
565.753	58548.5
566.115	58604.55
566.477	58715.73
566.839	58783.52
567.201	58922.28
567.563	58947.81
567.925	59102.39
568.287	59143.52
568.648	59172.44
569.01	59268.94
569.372	59353.23
569.734	59359.78
570.095	59456.5
570.457	59536.05
570.819	59569.27
571.18	59583.05
571.542	59706.44
571.903	59722.48
572.265	59831.63
572.626	59907.56
572.987	59879.32
573.349	59903.95
573.71	60071.17
574.071	60113.21
574.432	60152.08
574.794	60340.77
575.155	60278.4
575.516	60223.49
575.877	60435.46
576.238	60465.29
576.599	60606.08
576.96	60577.83
577.32	60714.1
577.681	60799.29
578.042	60838.84
578.403	60877.03
578.763	60918.16
579.124	60922.9
579.485	61010.59
579.845	61064.37
580.206	61061.21
580.566	61124.03
580.927	61185.04
581.287	61232.05
581.648	61147.53
582.008	61178.94
582.368	61199.05
582.728	61244.93
583.089	61244.93
583.449	61258.71
583.809	61220.07
584.169	61230.01
584.529	61171.71
584.889	61331.93
585.249	61145.95
585.609	61124.71
585.969	61237.25
586.329	61137.36
586.688	61143.91
587.048	61143.01
587.408	61046.52
587.768	61094.88
588.127	61039.06
588.487	61024.6
588.846	61180.07
589.206	60971.72
589.565	61113.18
589.925	61102.56
590.284	61138.94
590.643	61154.99
591.003	61269.56
591.362	61342.78
591.721	61237.02
592.08	61250.58
592.44	61313.63
592.799	61325.38
593.158	61344.14
593.517	61380.29
593.876	61418.94
594.235	61402.89
594.593	61461.42
594.952	61534.19
595.311	61451.25
595.67	61545.94
596.029	61687.18
596.387	61653.51
596.746	61725.82
597.104	61566.05
597.463	61527.63
597.822	61669.32
598.18	61547.52
598.538	61573.51
598.897	61725.82
599.255	61512.72
599.613	61819.83
599.972	61604.92
600.33	61649.89
600.688	61488.09
601.046	61645.14
601.404	61678.36
601.762	61611.7
602.12	61750.45
602.478	61642.66
602.836	61681.75
603.194	61565.15
603.552	61641.53
603.91	61533.28
604.268	61640.85
604.625	61562.89
604.983	61634.75
605.341	61535.09
605.698	61692.6
606.056	61730.11
606.413	61677.46
606.771	61787.97
607.128	61842.2
607.485	61729.21
607.843	61828.42
608.2	61888.08
608.557	61984.57
608.914	61891.47
609.272	62056.89
609.629	62140.27
609.986	62242.64
610.343	62105.25
610.7	62314.05
611.057	62264.79
611.414	62268.18
611.771	62348.18
612.127	62463.43
612.484	62364.22
612.841	62494.16
613.198	62411.68
613.554	62414.39
613.911	62587.49
614.267	62526.03
614.624	62537.78
614.98	62538.68
615.337	62669.98
615.693	62547.04
616.05	62572.35
616.406	62669.75
616.762	62491
617.118	62521.73
617.475	62505.46
617.831	62558.57
618.187	62563.99
618.543	62588.62
618.899	62698.22
619.255	62606.7
619.611	62528.96
619.967	62670.88
620.323	62711.11
620.678	62546.36
621.034	62494.16
621.39	62509.3
621.746	62446.71
622.101	62723.53
622.457	62557.21
622.812	62559.92
623.168	62632.92
623.523	62622.52
623.879	62679.02
624.234	62491
624.589	62625.91
624.945	62648.51
625.3	62659.58
625.655	62695.29
626.01	62685.8
626.365	62733.48
626.72	62689.18
627.075	62725.12
627.43	62666.59
627.785	62633.82
628.14	62746.58
628.495	62721.95
628.85	62687.38
629.205	62706.13
629.559	62841.27
629.914	62727.83
630.269	62692.8
630.623	62660.49
630.978	62610.77
631.332	62668.62
631.687	62773.48
632.041	62595.63
632.396	62702.07
632.75	62524.44
633.104	62570.77
633.459	62479.25
633.813	62461.62
634.167	62402.86
634.521	62411.9
634.875	62392.7
635.229	62299.14
635.583	62147.05
635.937	62251.46
636.291	62194.06
636.645	62142.08
636.999	62004.23
637.352	62077.68
637.706	61913.39
638.06	61995.19
638.413	61891.01
638.767	61848.53
639.121	61823.45
639.474	61703.9
639.828	61736.22
640.181	61715.65
640.534	61653.28
640.888	61562.89
641.241	61473.4
641.594	61535.77
641.947	61561.76
642.301	61583.68
642.654	61569.89
643.007	61567.63
643.36	61531.7
643.713	61515.2
644.066	61590.23
644.419	61440.4
644.771	61298.04
645.124	61150.02
645.477	61089.23
645.83	60922.45
646.182	60884.03
646.535	60765.85
646.888	60858.27
647.24	60709.12
647.593	60879.29
647.945	60717.94
648.298	60650.82
648.65	60672.29
649.002	60638.62
649.355	60711.38
649.707	60648.33
650.059	60724.49
650.411	60994.09
650.763	61031.38
651.115	61222.56
651.467	61159.73
651.819	61127.19
652.171	60976.69
652.523	61016.23
652.875	60940.08
653.227	60876.35
653.578	61033.18
653.93	60887.42
654.282	60851.27
654.633	60643.59
654.985	60710.03
655.337	60755.22
655.688	60716.13
656.039	60735.34
656.391	60437.49
656.742	60479.75
657.094	60447.44
657.445	60566.75
657.796	60444.27
658.147	60385.29
658.498	60382.58
658.849	60366.53
659.2	60312.98
659.551	60301.45
659.902	60305.07
660.253	60311.62
660.604	60321.34
660.955	60155.01
661.306	60264.16
661.656	60203.6
662.007	60256.03
662.358	60219.19
662.708	60190.04
663.059	60321.11
663.409	60110.95
663.76	60233.2
664.11	60240.44
664.461	60323.15
664.811	60263.49
665.161	60229.59
665.511	60245.63
665.862	60251.96
666.212	60331.96
666.562	60321.79
666.912	60244.05
667.262	60276.37
667.612	60293.77
667.962	60269.36
668.312	60245.41
668.662	60387.32
669.011	60245.86
669.361	60253.32
669.711	60199.08
670.06	60105.52
670.41	60131.51
670.76	60060.55
671.109	60161.57
671.459	60091.51
671.808	60055.81
672.157	60132.64
672.507	59892.87
672.856	59949.82
673.205	59936.94
673.554	59968.58
673.904	59911.63
674.253	60010.16
674.602	59884.51
674.951	59479.78
675.3	59310.29
675.649	59667.34
675.998	59649.04
676.346	59676.38
676.695	59726.1
677.044	59473.22
677.393	59524.3
677.741	59555.03
678.09	59450.63
678.438	59350.29
678.787	59442.72
679.135	59387.35
679.484	59173.57
679.832	59299.44
680.181	59062.84
680.529	59155.04
680.877	59046.34
681.225	59015.38
681.573	59137.87
681.922	59044.08
682.27	58955.95
682.618	58997.76
682.966	58892.9
683.314	58975.16
683.661	58864.43
684.009	58809.96
684.357	58800.02
684.705	58757.99
685.053	58772.23
685.4	58759.57
685.748	58639.57
686.095	58634.6
686.443	58529.97
686.79	58507.15
687.138	58547.82
687.485	58553.7
687.832	58467.83
688.18	58545.57
688.527	58347.6
688.874	58397.32
689.221	58334.05
689.568	58211.11
689.915	58176.99
690.262	58214.27
690.609	58051.34
690.956	58073.94
691.303	58029.42
691.65	57845.24
691.997	57820.84
692.344	57695.19
692.69	57673.5
693.037	57631.46
693.383	57453.16
693.73	57518.93
694.077	57370.45
694.423	57333.85
694.769	57276.45
695.116	57168.2
695.462	57102.89
695.808	57009.33
696.155	57045.04
696.501	56839.85
696.847	56773.86
697.193	56688.89
697.539	56643.92
697.885	56401.89
698.231	56283.7
698.577	56256.81
698.923	56216.13
699.269	56028.12
699.614	55939.98
699.96	55914.9
700.306	55881.68
700.651	55733.44
700.997	55557.4
701.342	55516.49
701.688	55542.03
702.033	55380
702.379	55402.37
702.724	55338.64
703.069	55343.39
703.415	54997.64
703.76	55042.61
704.105	54981.37
704.45	54854.36
704.795	54743.18
705.14	54746.12
705.485	54694.37
705.83	54563.07
706.175	54562.62
706.52	54522.17
706.865	54403.53
707.209	54459.34
707.554	54344.77
707.899	54458.44
708.243	54281.72
708.588	54170.54
708.932	54077.43
709.277	54093.48
709.621	54048.73
709.966	53886.03
710.31	54011.45
710.654	53645.35
710.998	53816.42
711.342	53745.69
711.687	53636.32
712.031	53596.54
712.375	53531.23
712.719	53655.98
713.063	53462.31
713.407	53654.62
713.75	53386.38
714.094	53456.43
714.438	53205.59
714.782	53270.45
715.125	53033.62
715.469	53117.69
715.812	52880.18
716.156	52720.41
716.499	52766.28
716.843	52874.08
717.186	52586.17
717.53	52724.02
717.873	52661.2
718.216	52521.09
718.559	52368.55
718.902	52082.01
719.246	52110.03
719.589	52031.16
719.932	51882.92
720.275	51839.53
720.617	51774.22
720.96	51671.62
721.303	51635.69
721.646	51588.46
721.989	51451.74
722.331	51330.61
722.674	51267.34
723.016	51203.16
723.359	51109.15
723.701	51225.98
724.044	50966.33
724.386	50766.56
724.729	50758.65
725.071	50728.14
725.413	50588.71
725.755	50647.02
726.097	50449.73
726.439	50362.5
726.782	50288.83
727.124	50342.62
727.465	50193.92
727.807	50155.5
728.149	50154.6
728.491	50080.93
728.833	50077.54
729.175	49945.57
729.516	49957.09
729.858	49751.22
730.199	49830.09
730.541	49693.82
730.882	49743.08
731.224	49862.63
731.565	49668.51
731.906	49598
732.248	49706.48
732.589	49356.65
732.93	49442.75
733.271	49435.75
733.612	49437.56
733.953	49533.6
734.294	49321.17
734.635	49284.79
734.976	49263.55
735.317	49113.95
735.658	49223.32
735.999	49155.08
736.339	49217.67
736.68	49304.45
737.021	49171.35
737.361	48911.02
737.702	49021.97
738.042	48939.72
738.383	48840.06
738.723	48869.89
739.063	48647.07
739.404	48771.36
739.744	48595.32
740.084	48350.58
740.424	48416.79
740.764	48239.85
741.104	48347.87
741.444	48108.33
741.784	47980.65
742.124	47968.67
742.464	47992.4
742.804	47745.62
743.143	47837.15
743.483	47601.67
743.823	47332.98
744.162	47314.45
744.502	47350.38
744.841	47072.65
745.181	47317.39
745.52	47111.52
745.86	47013.21
746.199	46856.61
746.538	46798.3
746.877	46850.05
747.216	46678.98
747.556	46315.83
747.895	46545.2
748.234	46263.63
748.573	46164.87
748.911	46231.99
749.25	46075.16
749.589	45819.57
749.928	45897.08
750.267	45859.8
750.605	45732.34
750.944	45589.75
751.283	45487.83
751.621	45494.83
751.96	45156.99
752.298	45147.05
752.636	45178.91
752.975	45021.63
753.313	44793.38
753.651	45107.05
753.989	44683.33
754.327	44762.88
754.666	44579.38
755.004	44674.07
755.342	44658.25
755.679	44408.99
756.017	44209.22
756.355	44375.99
756.693	44084.48
757.031	44351.59
757.368	44004.93
757.706	43795.44
758.044	43722
758.381	43833.18
758.719	43688.55
759.056	43776.46
759.394	43517.49
759.731	43374.44
760.068	43269.58
760.405	43098.51
760.743	43033.43
761.08	43182.35
761.417	42867.11
761.754	42706.66
762.091	42685.42
762.428	42675.02
762.765	42298.53
763.102	42509.83
763.438	42292.66
763.775	42101.93
764.112	42134.25
764.449	42108.94
764.785	41991.42
765.122	41665.78
765.458	41639.34
765.795	41473.92
766.131	41294.27
766.467	41038.91
766.804	40958
767.14	40737.67
767.476	40764.56
767.812	40661.74
768.148	40617.67
768.485	40244.13
768.821	40043.9
769.157	40047.52
769.492	39921.65
769.828	39770.47
770.164	39389.46
770.5	39245.51
770.836	39272.85
771.171	38958.28
771.507	38963.26
771.842	38677.84
772.178	38510.16
772.513	38333.89
772.849	38161.02
773.184	38121.24
773.519	38073.34
773.855	37839.89
774.19	37635.61
774.525	37580.92
774.86	37332.11
775.195	37218.44
775.53	37236.52
775.865	36840.6
776.2	36655.52
776.535	36417.56
776.87	36369.2
777.205	36268.18
777.539	36105.48
777.874	36026.84
778.209	35745.26
778.543	35737.58
778.878	35416.91
779.212	35413.74
779.547	35145.73
779.881	35450.81
780.215	35015.56
780.55	35159.29
780.884	35020.53
781.218	34767.43
781.552	34838.84
781.886	34637.72
782.22	34412.64
782.554	34303.04
782.888	34002.93
783.222	33916.83
783.556	33769.95
783.889	33766.56
784.223	33614.7
784.557	33644.98
784.89	33573.34
785.224	33407.47
785.557	33251.77
785.891	33167.7
786.224	33087.48
786.558	33067.14
786.891	32898.56
787.224	32738.79
787.557	32618.56
787.891	32578.79
788.224	32528.62
788.557	32514.61
788.89	32442.3
789.223	32450.88
789.556	31989.88
789.888	32061.06
790.221	32036.66
790.554	31739.49
790.887	31777.23
791.219	31494.98
791.552	31431.02
791.884	31320.29
792.217	31299.95
792.549	31111.48
792.882	30995.1
793.214	30966.4
793.546	30975.67
793.879	30824.03
794.211	30597.6
794.543	30638.73
794.875	30382.01
795.207	30353.09
795.539	30177.95
795.871	30319.87
796.203	29942.93
796.535	29740.45
796.867	29627.46
797.198	29633.11
797.53	29638.08
797.862	29298.42
798.193	29335.49
798.525	29197.41
798.856	29136.85
799.188	28819.79
799.519	28636.97
799.85	28540.03
800.182	28463.87
800.513	28530.54
800.844	28338.22
801.175	28411.89
801.506	28247.15
801.837	28122.18
802.168	27961.51
802.499	27866.6
802.83	27630.45
803.161	27582.54
803.491	27585.25
803.822	27477.91
804.153	27201.76
804.483	27166.73
804.814	27050.57
805.145	27030.91
805.475	27067.75
805.805	26776
806.136	26890.13
806.466	26921.99
806.796	26721.32
807.126	26567.87
807.457	26465.28
807.787	26557.48
808.117	26408.78
808.447	26289.69
808.777	26267.09
809.107	26042.01
809.436	26067.55
809.766	26054.67
810.096	25956.59
810.426	25940.09
810.755	25783.71
811.085	25684.28
811.414	25757.95
811.744	25510.05
812.073	25465.53
812.403	25581.91
812.732	25411.52
813.061	25505.3
813.39	25319.55
813.719	25221.92
814.049	25343.73
814.378	25153.45
814.707	25007.24
815.036	25035.71
815.365	25090.63
815.693	24836.85
816.022	24889.73
816.351	24646.12
816.68	24678.21
817.008	24873.68
817.337	24656.74
817.665	24615.16
817.994	24563.86
818.322	24514.14
818.651	24492.22
818.979	24330.19
819.307	24452.45
819.636	24367.71
819.964	24343.53
820.292	24287.03
820.62	24367.71
820.948	24313.92
821.276	24383.07
821.604	24379.01
821.932	24239.57
822.259	24324.77
822.587	24303.75
822.915	24203.87
823.243	24271.21
823.57	24167.49
823.898	24288.84
824.225	24043.2
824.553	23992.58
824.88	24101.95
825.207	24266.01
825.535	24197.32
825.862	24130.2
826.189	24117.09
826.516	24196.86
826.843	24215.85
827.17	24156.19
827.497	24155.96
827.824	24146.47
828.151	24064.44
828.478	24019.24
828.805	24142.85
829.131	23963.2
829.458	23993.71
829.785	23800.04
830.111	23846.36
830.438	24045
830.764	23885.01
831.09	23915.06
831.417	23747.61
831.743	23989.64
832.069	23850.21
832.395	23647.05
832.722	23835.52
833.048	23647.27
833.374	23671.68
833.7	23482.08
834.026	23529.76
834.351	23598.91
834.677	23435.75
835.003	23540.61
835.329	23407.96
835.654	23353.95
835.98	23241.63
836.306	23284.57
836.631	23207.51
836.956	23230.11
837.282	23244.12
837.607	23158.25
837.932	23006.61
838.258	23017.46
838.583	22978.59
838.908	22875.32
839.233	22939.5
839.558	22854.53
839.883	22685.27
840.208	22753.51
840.533	22754.19
840.858	22700.18
841.182	22628.77
841.507	22622.89
841.832	22464.48
842.156	22553.29
842.481	22467.64
842.805	22465.16
843.13	22566.62
843.454	22432.62
843.778	22257.71
844.103	22229.01
844.427	22308.55
844.751	22279.85
845.075	22205.96
845.399	22234.43
845.723	22233.07
846.047	22166.63
846.371	22014.32
846.695	21888.68
847.019	21880.54
847.343	21764.84
847.666	21583.37
847.99	21558.52
848.313	21586.08
848.637	21418.63
848.96	21433.55
849.284	21444.62
849.607	21248.69
849.931	21268.13
850.254	21133.89
850.577	20923.28
850.9	20872.88
851.223	20836.73
851.546	20727.58
851.869	20597.64
852.192	20769.84
852.515	20584.53
852.838	20376.85
853.161	20609.84
853.483	20474.25
853.806	20396.06
854.129	20429.51
854.451	20285.33
854.774	20242.62
855.096	20187.03
855.419	20106.58
855.741	20045.11
856.063	20015.73
856.385	19798.11
856.708	19792.23
857.03	19636.76
857.352	19700.71
857.674	19741.61
857.996	19716.53
858.318	19548.85
858.64	19575.74
858.961	19369.65
859.283	19417.55
859.605	19291.23
859.926	19274.96
860.248	19157.67
860.57	19165.81
860.891	19195.87
861.212	19008.07
861.534	18974.18
861.855	18822.54
862.176	18969.88
862.498	18908.42
862.819	18811.47
863.14	18787.51
863.461	18735.31
863.782	18604.69
864.103	18692.83
864.424	18633.62
864.745	18621.19
865.065	18493.51
865.386	18401.54
865.707	18401.08
866.027	18478.14
866.348	18310.46
866.668	18413.06
866.989	18199.28
867.309	17971.72
867.63	18208.32
867.95	18091.49
868.27	17994.31
868.59	17998.83
868.91	18008.33
869.23	17999.51
869.55	17849.91
869.87	18107.08
870.19	17782.12
870.51	17886.3
870.83	17879.74
871.15	17764.49
871.469	17757.03
871.789	17787.09
872.109	17743.02
872.428	17657.83
872.748	17674.78
873.067	17613.31
873.386	17574.21
873.706	17544.38
874.025	17568.56
874.344	17465.29
874.663	17594.78
874.982	17441.34
875.301	17503.93
875.62	17420.09
875.939	17324.05
876.258	17454.89
876.577	17379.42
876.896	17320.21
877.214	17294.22
877.533	17345.07
877.852	17424.39
878.17	17343.48
878.489	17393.2
878.807	17280.21
879.125	17267.33
879.444	17212.19
879.762	17204.96
880.08	17235.92
880.398	17098.97
880.716	17144.85
881.034	17147.78
881.352	17066.88
881.67	17072.08
881.988	17163.38
882.306	17160.21
882.624	16981.69
882.941	16983.04
883.259	16931.97
883.577	16897.39
883.894	16876.83
884.212	16785.53
884.529	16841.8
884.846	16837.96
885.164	16804.29
885.481	16809.94
885.798	16840
886.115	16772.43
886.432	16689.72
886.75	16602.04
887.067	16762.03
887.383	16625.54
887.7	16620.34
888.017	16612.2
888.334	16656.5
888.651	16508.25
888.967	16490.4
889.284	16448.37
889.6	16327.92
889.917	16340.12
890.233	16278.65
890.55	16261.71
890.866	16215.83
891.182	16213.12
891.498	16149.39
891.815	16110.52
892.131	15996.4
892.447	16064.2
892.763	15943.07
893.079	15845.9
893.395	15901.26
893.71	15892
894.026	15834.82
894.342	15736.3
894.657	15702.62
894.973	15519.58
895.289	15530.42
895.604	15496.75
895.92	15428.28
896.235	15332.01
896.55	15287.95
896.865	15228.06
897.181	15293.14
897.496	15258.34
897.811	15136.54
898.126	15047.05
898.441	15017.9
898.756	15026.26
899.071	14873.27
899.386	14930.21
899.7	14775.64
900.015	14661.97
900.33	14610.22
900.644	14598.25
900.959	14561.86
901.273	14461.75
901.588	14389.89
901.902	14395.54
902.216	14347.18
902.531	14271.25
902.845	14196.45
903.159	14110.12
903.473	14096.11
903.787	14055.44
904.101	13961.43
904.415	13967.98
904.729	13871.71
905.042	13811.6
905.356	13801.43
905.67	13746.29
905.984	13668.78
906.297	13616.13
906.611	13578.39
906.924	13525.96
907.237	13409.58
907.551	13442.34
907.864	13347.43
908.177	13336.13
908.491	13278.05
908.804	13175.91
909.117	13130.49
909.43	12976.82
909.743	12985.86
910.056	13008.01
910.368	12860.66
910.681	12857.27
910.994	12864.96
911.307	12761.23
911.619	12725.53
911.932	12711.97
912.244	12561.01
912.557	12594.46
912.869	12477.17
913.181	12485.31
913.494	12411.41
913.806	12370.06
914.118	12399.89
914.43	12360.11
914.742	12275.6
915.054	12251.87
915.366	12200.34
915.678	12132.1
915.99	12107.46
916.302	12003.74
916.613	11968.03
916.925	12006.22
917.236	11943.85
917.548	11882.61
917.859	11897.53
918.171	11762.16
918.482	11701.37
918.794	11741.15
919.105	11797.42
919.416	11632
919.727	11654.37
920.038	11609.62
920.349	11556.97
920.66	11472.9
920.971	11504.09
921.282	11417.99
921.593	11338.67
921.903	11326.24
922.214	11292.8
922.525	11242.18
922.835	11208.73
923.146	11145.23
923.456	11140.71
923.767	11081.95
924.077	11029.3
924.387	11059.36
924.697	11013.48
925.008	10941.39
925.318	10926.93
925.628	10901.62
925.938	10878.12
926.248	10779.36
926.558	10757.9
926.867	10602.64
927.177	10668.41
927.487	10566.04
927.796	10472.93
928.106	10537.11
928.416	10528.3
928.725	10512.7
929.034	10384.12
929.344	10464.34
929.653	10405.36
929.962	10296.66
930.271	10179.61
930.581	10192.26
930.89	10151.58
931.199	10034.3
931.508	10119.95
931.817	10104.13
932.125	10060.96
932.434	10011.02
932.743	9825.04
933.051	9808.54
933.36	9813.74
933.669	9787.75
933.977	9757.92
934.286	9712.72
934.594	9711.14
934.902	9578.04
935.21	9554.99
935.519	9562.45
935.827	9541.43
936.135	9419.4
936.443	9334.88
936.751	9317.26
937.059	9266.41
937.367	9176.69
937.674	9180.54
937.982	9100.76
938.29	9052.63
938.597	9103.25
938.905	8965.4
939.213	8898.51
939.52	8869.81
939.827	8939.86
940.135	8759.53
940.442	8785.29
940.749	8784.61
941.056	8760.43
941.363	8667.78
941.67	8637.72
941.977	8527.45
942.284	8455.58
942.591	8456.94
942.898	8404.51
943.205	8468.92
943.511	8363.38
943.818	8276.83
944.125	8260.33
944.431	8228.47
944.738	8300.78
945.044	8151.18
945.35	8116.16
945.657	8073.9
945.963	8028.93
946.269	8033.22
946.575	7997.06
946.881	7978.53
947.187	7907.35
947.493	7858.31
947.799	7839.55
948.105	7799.33
948.41	7760.46
948.716	7771.98
949.022	7748.48
949.327	7757.3
949.633	7628.94
949.938	7594.36
950.244	7576.06
950.549	7500.81
950.854	7421.26
951.16	7388.27
951.465	7360.92
951.77	7368.38
952.075	7355.27
952.38	7288.16
952.685	7295.16
952.99	7227.82
953.294	7230.3
953.599	7186.24
953.904	7154.6
954.209	7155.73
954.513	7139.23
954.818	7110.08
955.122	7091.32
955.426	7070.08
955.731	7027.15
956.035	6971.78
956.339	6916.41
956.643	6905.34
956.948	6856.08
957.252	6869.41
957.556	6810.88
957.86	6812.01
958.163	6802.97
958.467	6823.99
958.771	6752.58
959.075	6742.63
959.378	6648.17
959.682	6618.34
959.985	6641.39
960.289	6617.44
960.592	6541.96
960.896	6546.93
961.199	6540.6
961.502	6494.28
961.805	6493.83
962.108	6450.66
962.411	6472.13
962.714	6383.55
963.017	6418.57
963.32	6466.26
963.623	6373.38
963.926	6324.57
964.228	6295.19
964.531	6263.32
964.833	6311.46
965.136	6251.35
965.438	6154.4
965.741	6189.2
966.043	6148.75
966.345	6134.74
966.648	6117.57
966.95	6102.2
967.252	6062.88
967.554	6057
967.856	6024.91
968.158	5932.03
968.46	5904.92
968.761	5914.18
969.063	5898.36
969.365	5901.07
969.666	5892.49
969.968	5788.99
970.269	5814.07
970.571	5809.78
970.872	5767.52
971.174	5724.13
971.475	5753.28
971.776	5720.74
972.077	5644.81
972.378	5687.52
972.679	5667.41
972.98	5596.67
973.281	5563.68
973.582	5558.94
973.883	5505.6
974.183	5492.95
974.484	5445.04
974.785	5434.42
975.085	5422.67
975.386	5398.49
975.686	5316.46
975.986	5353.52
976.287	5255.21
976.587	5252.05
976.887	5266.29
977.187	5181.09
977.487	5231.94
977.787	5169.34
978.087	5134.09
978.387	5075.11
978.687	5096.8
978.987	5078.27
979.286	5049.57
979.586	5058.38
979.885	5030.14
980.185	5000.31
980.484	4995.56
980.784	4928.67
981.083	4920.31
981.382	4902.46
981.682	4884.83
981.981	4807.32
982.28	4765.28
982.579	4768
982.878	4790.14
983.177	4743.82
983.475	4711.5
983.774	4677.15
984.073	4664.72
984.372	4616.36
984.67	4613.42
984.969	4562.35
985.267	4576.59
985.566	4516.48
985.864	4489.36
986.162	4453.88
986.461	4446.42
986.759	4434.45
987.057	4385.63
987.355	4384.05
987.653	4397.38
987.951	4339.98
988.249	4308.8
988.547	4338.63
988.844	4214.11
989.142	4314.9
989.44	4238.74
989.737	4192.42
990.035	4189.03
990.332	4150.61
990.63	4164.17
990.927	4117.84
991.224	4134.79
991.521	4077.17
991.819	4091.86
992.116	4064.51
992.413	4069.03
992.71	3965.98
993.006	4019.54
993.303	3946.55
993.6	3959.88
993.897	3940.45
994.193	3924.63
994.49	3888.47
994.787	3859.77
995.083	3881.69
995.379	3824.52
995.676	3834.01
995.972	3789.04
996.268	3780
996.565	3775.25
996.861	3766.89
997.157	3704.3
997.453	3680.34
997.749	3701.81
998.044	3671.75
998.34	3661.81
998.636	3646.9
998.932	3614.13
999.227	3597.63
999.523	3578.2
999.818	3586.56
1000.114	3543.85
1000.409	3519.67
1000.704	3504.53
1001	3460.91
1001.295	3432.66
1001.59	3446.9
1001.885	3417.75
1002.18	3424.75
1002.475	3395.83
1002.77	3393.79
1003.065	3314.47
1003.359	3335.27
1003.654	3314.7
1003.949	3300.92
1004.243	3273.35
1004.538	3291.88
1004.832	3265.66
1005.127	3236.06
1005.421	3234.7
1005.715	3220.47
1006.009	3184.31
1006.304	3150.86
1006.598	3157.19
1006.892	3114.48
1007.186	3148.83
1007.48	3103.63
1007.773	3090.53
1008.067	3010.08
1008.361	3058.44
1008.655	3058.44
1008.948	3045.1
1009.242	2997.2
1009.535	2982.73
1009.829	2978.66
1010.122	2972.34
1010.415	2953.35
1010.708	2933.47
1011.001	2900.25
1011.295	2893.7
1011.588	2886.24
1011.881	2831.55
1012.173	2824.09
1012.466	2834.26
1012.759	2799.91
1013.052	2773.92
1013.344	2743.42
1013.637	2773.7
1013.93	2758.78
1014.222	2677.2
1014.514	2708.84
1014.807	2681.72
1015.099	2663.64
1015.391	2674.27
1015.683	2646.7
1015.976	2599.69
1016.268	2627.04
1016.56	2573.7
1016.851	2574.16
1017.143	2561.5
1017.435	2534.61
1017.727	2510.43
1018.018	2512.46
1018.31	2487.38
1018.602	2473.37
1018.893	2467.49
1019.185	2427.27
1019.476	2400.15
1019.767	2408.74
1020.058	2396.53
1020.35	2370.09
1020.641	2346.14
1020.932	2323.99
1021.223	2318.57
1021.514	2286.71
1021.804	2298.68
1022.095	2272.92
1022.386	2217.78
1022.677	2248.06
1022.967	2225.01
1023.258	2222.75
1023.548	2182.75
1023.839	2190.66
1024.129	2138.01
1024.419	2129.65
1024.709	2112.92
1025	2081.51
1025.29	2076.77
1025.58	2067.5
1025.87	2034.96
1026.16	2032.7
1026.449	2009.65
1026.739	1988.18
1027.029	1984.11
1027.319	1974.62
1027.608	1997.45
1027.898	1992.7
1028.187	1928.75
1028.477	1931.01
1028.766	1911.8
1029.055	1856.43
1029.344	1885.81
1029.634	1869.54
1029.923	1850.78
1030.212	1831.58
1030.501	1817.79
1030.79	1790.67
1031.078	1757.45
1031.367	1757.45
1031.656	1742.54
1031.945	1773.5
1032.233	1744.35
1032.522	1721.97
1032.81	1701.86
1033.099	1699.83
1033.387	1667.74
1033.675	1680.39
1033.963	1617.12
1034.251	1630.45
1034.54	1622.99
1034.828	1625.03
1035.116	1597.01
1035.403	1601.53
1035.691	1565.82
1035.979	1565.14
1036.267	1545.71
1036.554	1519.72
1036.842	1512.71
1037.129	1502.55
1037.417	1509.32
1037.704	1490.57
1037.992	1524.47
1038.279	1446.73
1038.566	1451.02
1038.853	1451.02
1039.14	1451.02
