Data from aluminium_surface_pro_back_FLMS001491_00034.txt Node
Date: Wed Feb 08 15:33:58 GMT 2017
User: dcchb
Spectrometer: FLMS00149
Trigger mode: 0
Integration Time (sec): 2.000000E-2
Scans to average: 10
Electric dark correction enabled: true
Nonlinearity correction enabled: false
Boxcar width: 0
XAxis mode: Wavelengths
Number of Pixels in Spectrum: 2048
>>>>>Begin Spectral Data<<<<<
341.393	4.55
341.776	4.55
342.16	4.55
342.543	-64.83
342.927	-78.84
343.31	-83.36
343.693	-75
344.077	-53.98
344.46	-53.98
344.843	-56.69
345.226	-49.69
345.61	-26.41
345.993	-19.63
346.376	-7.88
346.759	8.39
347.142	20.14
347.525	37.77
347.908	72.12
348.291	83.42
348.674	97.2
349.057	107.6
349.44	116.86
349.823	144.66
350.206	152.11
350.588	207.25
350.971	233.02
351.354	243.64
351.737	274.6
352.119	261.04
352.502	296.97
352.884	285.22
353.267	312.11
353.65	308.04
354.032	328.61
354.414	323.64
354.797	346.01
355.179	339
355.562	351.66
355.944	335.39
356.326	352.11
356.709	360.7
357.091	366.8
357.473	360.92
357.855	373.8
358.238	386.01
358.62	360.47
359.002	378.78
359.384	373.58
359.766	377.65
360.148	388.72
360.53	379.68
360.912	374.71
361.294	369.96
361.676	357.08
362.057	372.22
362.439	355.27
362.821	357.31
363.203	381.94
363.584	368.83
363.966	357.53
364.348	376.29
364.729	350.3
365.111	366.12
365.493	364.09
365.874	370.87
366.256	365.67
366.637	354.6
367.019	355.27
367.4	356.18
367.781	374.93
368.163	358.89
368.544	367.93
368.925	347.82
369.306	379.91
369.688	353.24
370.069	373.35
370.45	370.41
370.831	363.63
371.212	379.91
371.593	369.96
371.974	369.28
372.355	386.68
372.736	369.51
373.117	380.13
373.498	372.9
373.879	385.55
374.26	390.75
374.641	388.27
375.021	363.86
375.402	387.14
375.783	406.35
376.163	419.45
376.544	422.16
376.925	409.06
377.305	418.1
377.686	413.35
378.066	413.35
378.447	413.8
378.827	403.18
379.208	423.97
379.588	419.68
379.968	413.12
380.349	432.33
380.729	433.92
381.109	447.02
381.489	447.47
381.87	423.75
382.25	455.84
382.63	448.15
383.01	463.74
383.39	450.64
383.77	457.42
384.15	474.59
384.53	491.77
384.91	482.5
385.29	474.14
385.67	466.46
386.049	509.17
386.429	488.83
386.809	503.74
387.189	497.42
387.568	487.93
387.948	479.56
388.328	524.76
388.707	540.35
389.087	539.45
389.466	539.68
389.846	529.05
390.225	558.43
390.605	552.1
390.984	537.19
391.363	560.24
391.743	566.57
392.122	558.88
392.501	596.17
392.881	582.61
393.26	587.81
393.639	570.41
394.018	596.62
394.397	607.47
394.776	600.92
395.155	631.65
395.534	615.15
395.913	628.26
396.292	644.76
396.671	674.59
397.05	650.86
397.429	646.11
397.808	636.4
398.186	652.67
398.565	684.3
398.944	664.64
399.323	687.02
399.701	701.48
400.08	687.92
400.458	732.66
400.837	715.72
401.215	721.59
401.594	710.97
401.972	743.51
402.351	756.17
402.729	734.7
403.107	731.53
403.486	758.2
403.864	765.66
404.242	785.77
404.62	789.61
404.999	827.8
405.377	804.53
405.755	824.41
406.133	828.26
406.511	858.31
406.889	856.73
407.267	850.4
407.645	867.35
408.023	889.5
408.401	900.57
408.779	904.86
409.156	937.63
409.534	929.5
409.912	928.37
410.29	953.9
410.667	985.99
411.045	967.46
411.422	980.57
411.8	1011.75
412.178	1023.96
412.555	1016.95
412.933	1023.96
413.31	1048.81
413.687	1089.04
414.065	1093.33
414.442	1116.38
414.819	1121.35
415.197	1123.84
415.574	1153.9
415.951	1159.32
416.328	1159.55
416.705	1180.56
417.082	1180.56
417.46	1212.43
417.837	1223.5
418.214	1197.28
418.591	1235.25
418.967	1237.96
419.344	1254.91
419.721	1283.16
420.098	1252.42
420.475	1299.43
420.852	1299.2
421.228	1320.67
421.605	1341.46
421.982	1312.31
422.358	1362.93
422.735	1365.64
423.111	1397.28
423.488	1407.22
423.864	1405.19
424.241	1439.09
424.617	1446.32
424.994	1469.82
425.37	1497.39
425.746	1491.97
426.123	1510.95
426.499	1534
426.875	1536.03
427.251	1561.12
427.627	1585.3
428.003	1586.88
428.379	1599.99
428.756	1639.53
429.132	1675.69
429.507	1682.24
429.883	1715.69
430.259	1738.74
430.635	1721.34
431.011	1781.9
431.387	1826.42
431.763	1836.82
432.138	1858.28
432.514	1867.32
432.89	1890.37
433.265	1912.29
433.641	1982.35
434.016	1976.47
434.392	1995.91
434.767	2083.14
435.143	2015.57
435.518	2079.52
435.894	2089.69
436.269	2115.9
436.644	2139.18
437.02	2197.94
437.395	2193.19
437.77	2235
438.145	2281.32
438.52	2259.18
438.895	2294.88
439.271	2300.31
439.646	2369.23
440.021	2345.96
440.395	2357.03
440.77	2334.66
441.145	2343.7
441.52	2464.37
441.895	2437.25
442.27	2461.66
442.645	2467.31
443.019	2494.88
443.394	2546.63
443.769	2524.71
444.143	2526.29
444.518	2581.66
444.892	2577.59
445.267	2599.51
445.641	2603.8
446.016	2651.71
446.39	2639.73
446.764	2691.48
447.139	2668.66
447.513	2727.64
447.887	2728.32
448.262	2743.91
448.636	2780.75
449.01	2812.84
449.384	2847.86
449.758	2834.53
450.132	2893.06
450.506	2904.36
450.88	2936.67
451.254	2929.89
451.628	2984.36
452.002	3038.59
452.376	3055.09
452.75	3046.95
453.123	3106.39
453.497	3108.2
453.871	3151.58
454.244	3253.28
454.618	3270
454.992	3332.82
455.365	3309.55
455.739	3431.12
456.112	3448.3
456.486	3470.9
456.859	3471.35
457.232	3550.22
457.606	3566.04
457.979	3594.51
458.352	3656.66
458.725	3671.34
459.099	3783.88
459.472	3810.78
459.845	3899.13
460.218	3911.56
460.591	3935.29
460.964	3944.11
461.337	4051.45
461.71	4100.94
462.083	4204.89
462.456	4192.46
462.829	4267.03
463.201	4269.29
463.574	4288.05
463.947	4385.68
464.32	4467.93
464.692	4493.92
465.065	4552.22
465.438	4615.73
465.81	4687.14
466.183	4702.5
466.555	4828.15
466.928	4839.22
467.3	4878.09
467.672	4983.4
468.045	5071.99
468.417	5070.86
468.789	5144.07
469.161	5249.83
469.534	5322.6
469.906	5399.89
470.278	5438.98
470.65	5504.97
471.022	5615.02
471.394	5667
471.766	5746.09
472.138	5820.21
472.51	5994.67
472.882	6022.24
473.253	6093.2
473.625	6151.73
473.997	6289.81
474.369	6309.24
474.74	6434.21
475.112	6572.28
475.484	6638.72
475.855	6798.72
476.227	6896.57
476.598	7054.08
476.97	7083.46
477.341	7231.7
477.713	7376.11
478.084	7451.58
478.455	7630.79
478.827	7690
479.198	7911.23
479.569	7991.46
479.94	8171.34
480.311	8287.72
480.682	8445.91
481.053	8662.4
481.424	8750.53
481.795	8844.32
482.166	8953.01
482.537	9103.97
482.908	9286.11
483.279	9391.87
483.65	9555.48
484.021	9734.24
484.391	9842.71
484.762	9955.92
485.133	10077.5
485.503	10278.85
485.874	10414.9
486.244	10605.63
486.615	10825.51
486.985	10887.65
487.356	11076.8
487.726	11128.32
488.097	11451.03
488.467	11453.74
488.837	11711.13
489.207	11840.85
489.578	11951.35
489.948	12144.57
490.318	12303.43
490.688	12312.92
491.058	12596.53
491.428	12723.76
491.798	12860.26
492.168	13094.6
492.538	13148.84
492.908	13338.43
493.278	13478.77
493.648	13565.32
494.017	13735.03
494.387	13831.3
494.757	14008.47
495.126	14235.59
495.496	14135.02
495.866	14384.73
496.235	14472.64
496.605	14666.76
496.974	14698.17
497.344	14853.65
497.713	14940.65
498.082	15057.71
498.452	15212.51
498.821	15332.05
499.19	15403.01
499.559	15518.72
499.928	15700.41
500.298	15708.99
500.667	15852.49
501.036	15938.59
501.405	16116.21
501.774	16153.95
502.143	16247.51
502.512	16381.52
502.88	16614.05
503.249	16584.22
503.618	16703.32
503.987	16802.07
504.356	16927.27
504.724	17128.84
505.093	17212.91
505.462	17144.89
505.83	17484.31
506.199	17594.37
506.567	17796.62
506.936	17733.35
507.304	18009.95
507.672	18075.71
508.041	18185.31
508.409	18373.78
508.777	18592.31
509.145	18734.45
509.514	18815.35
509.882	18955.91
510.25	19027.1
510.618	19021.9
510.986	19245.62
511.354	19410.59
511.722	19589.12
512.09	19720.19
512.458	19630.25
512.826	19862.33
513.193	19973.74
513.561	20128.54
513.929	20313.39
514.297	20446.5
514.664	20603.78
515.032	20733.49
515.4	20989.98
515.767	21003.54
516.135	21251.9
516.502	21086.93
516.869	21491.44
517.237	21754.03
517.604	21549.29
517.972	21874.48
518.339	22161.93
518.706	22262.04
519.073	22370.06
519.44	22499.55
519.808	22866.77
520.175	22854.57
520.542	23231.06
520.909	23390.37
521.276	23410.03
521.643	23673.3
522.009	23804.15
522.376	24039.62
522.743	24225.61
523.11	24520.29
523.477	24650.91
523.843	24831.24
524.21	25034.4
524.577	25195.98
524.943	25388.51
525.31	25612.46
525.676	25759.8
526.043	25961.61
526.409	26113.47
526.776	26442.72
527.142	26555.04
527.508	26595.49
527.874	26861.24
528.241	27092.65
528.607	27081.12
528.973	27395.24
529.339	27425.3
529.705	27713.42
530.071	27971.95
530.437	28173.75
530.803	28293.52
531.169	28441.09
531.535	28334.42
531.901	28665.04
532.267	28723.57
532.632	28954.75
532.998	29150.9
533.364	29197.45
533.73	29356.77
534.095	29515.64
534.461	29702.98
534.826	29828.85
535.192	30014.61
535.557	30225.45
535.923	30233.81
536.288	30446.01
536.653	30591.99
537.019	30670.18
537.384	30713.8
537.749	30826.79
538.114	31036.5
538.479	31128.7
538.845	31405.53
539.21	31351.97
539.575	31341.8
539.94	31511.97
540.305	31831.06
540.67	31692.08
541.034	31812.53
541.399	32111.05
541.764	32049.58
542.129	32292.51
542.494	32232.18
542.858	32511.04
543.223	32533.41
543.587	32777.92
543.952	32745.38
544.316	32941.76
544.681	32934.3
545.045	33093.62
545.41	33262.66
545.774	33339.49
546.138	33324.58
546.503	33533.61
546.867	33546.04
547.231	33943.99
547.595	33978.57
547.959	34028.29
548.324	34086.82
548.688	34261.73
549.052	34365.23
549.416	34443.64
549.779	34581.27
550.143	34508.05
550.507	34852.9
550.871	34891.77
551.235	34915.72
551.599	35267.12
551.962	35221.48
552.326	35455.14
552.689	35609.94
553.053	35471.86
553.417	35633.44
553.78	36280.43
554.143	36022.13
554.507	36145.74
554.87	36390.48
555.234	36811.94
555.597	36486.53
555.96	36765.16
556.323	36982.56
556.686	37206.06
557.05	37401.76
557.413	37483.56
557.776	37690.79
558.139	37909.09
558.502	37894.4
558.865	38071.8
559.228	38243.99
559.59	38327.38
559.953	38465.23
560.316	38798.33
560.679	38932.56
561.041	39170.52
561.404	39239
561.767	39496.16
562.129	39470.85
562.492	39869.49
562.854	39961.24
563.217	39935.02
563.579	40250.72
563.941	40398.97
564.304	40639.64
564.666	41042.11
565.028	41049.57
565.39	41170.7
565.753	41449.56
566.115	41704.92
566.477	41673.51
566.839	41872.83
567.201	42129.54
567.563	42107.4
567.925	42615.18
568.287	42646.82
568.648	42757.32
569.01	43002.51
569.372	43146.01
569.734	43165.9
570.095	43549.39
570.457	43754.36
570.819	43846.11
571.18	43944.18
571.542	44235.02
571.903	44404.51
572.265	44664.62
572.626	44648.35
572.987	44765.63
573.349	45099.41
573.71	45224.38
574.071	45333.07
574.432	45515.89
574.794	45806.51
575.155	45775.77
575.516	45733.52
575.877	45876.56
576.238	45935.77
576.599	46022.77
576.96	46199.04
577.32	46234.07
577.681	46246.5
578.042	46587.73
578.403	46444
578.763	46672.7
579.124	46705.01
579.485	46754.28
579.845	46976.19
580.206	46867.5
580.566	47058.9
580.927	47102.07
581.287	47138.22
581.648	47027.27
582.008	47299.8
582.368	47166.47
582.728	47366.92
583.089	47313.81
583.449	47305.68
583.809	47419.35
584.169	47582.05
584.529	47477.2
584.889	47656.85
585.249	47521.04
585.609	47411.21
585.969	47714.03
586.329	47613.47
586.688	47656.18
587.048	47600.81
587.408	47624.31
587.768	47594.93
588.127	47590.87
588.487	47568.04
588.846	47787.02
589.206	47476.75
589.565	47595.16
589.925	47779.34
590.284	47741.37
590.643	47701.6
591.003	47735.72
591.362	47914.25
591.721	47809.84
592.08	47833.57
592.44	48003.51
592.799	48008.48
593.158	47817.08
593.517	47857.3
593.876	47887.36
594.235	47798.77
594.593	47923.29
594.952	48142.72
595.311	47864.98
595.67	48007.13
596.029	48278.53
596.387	48300.45
596.746	48238.76
597.104	48051.42
597.463	48149.27
597.822	48294.8
598.18	48113.34
598.538	48013
598.897	48291.87
599.255	47942.5
599.613	48454.57
599.972	48344.75
600.33	48377.74
600.688	48183.39
601.046	48375.93
601.404	48602.37
601.762	48494.57
602.12	48638.52
602.478	48681.69
602.836	48670.39
603.194	48591.07
603.552	48718.52
603.91	48492.99
604.268	48757.84
604.625	48686.88
604.983	48783.15
605.341	48610.05
605.698	48804.17
606.056	48899.53
606.413	48734.79
606.771	48835.13
607.128	48918.06
607.485	48817.73
607.843	48810.04
608.2	49111.51
608.557	49059.53
608.914	48959.64
609.272	49182.46
609.629	49183.14
609.986	49274.66
610.343	49184.05
610.7	49384.94
611.057	49272.41
611.414	49252.29
611.771	49235.12
612.127	49483.92
612.484	49399.86
612.841	49442.8
613.198	49347.88
613.554	49461.1
613.911	49624.26
614.267	49780.41
614.624	49782.45
614.98	49911.48
615.337	50048.2
615.693	49944.25
616.05	49951.71
616.406	50174.08
616.762	50019.96
617.118	50091.37
617.475	50003.46
617.831	50046.17
618.187	50176.56
618.543	50189.67
618.899	50348.99
619.255	50221.53
619.611	50272.38
619.967	50415.88
620.323	50483.45
620.678	50200.97
621.034	50216.11
621.39	50299.04
621.746	50163.46
622.101	50568.64
622.457	50222.89
622.812	50270.57
623.168	50435.99
623.523	50461.98
623.879	50391.02
624.234	50240.74
624.589	50365.03
624.945	50345.37
625.3	50541.75
625.655	50287.07
626.01	50300.4
626.365	50374.75
626.72	50245.94
627.075	50246.62
627.43	50155.55
627.785	50175.43
628.14	50382.21
628.495	50310.57
628.85	50296.56
629.205	50141.99
629.559	50334.07
629.914	50124.36
630.269	50216.33
630.623	50079.62
630.978	50168.43
631.332	50265.37
631.687	50297.69
632.041	50023.57
632.396	50158.94
632.75	49995.1
633.104	50045.72
633.459	49829.45
633.813	49811.37
634.167	49676.69
634.521	49744.26
634.875	49807.08
635.229	49716.69
635.583	49495.68
635.937	49544.49
636.291	49575.22
636.645	49572.51
636.999	49456.58
637.352	49445.96
637.706	49367.77
638.06	49475.56
638.413	49415.23
638.767	49224.27
639.121	49284.38
639.474	49026.31
639.828	48996.93
640.181	49026.76
640.534	49130.71
640.888	48925.3
641.241	48706.54
641.594	48712.19
641.947	48709.03
642.301	48523.72
642.654	48631.29
643.007	48629.03
643.36	48481.47
643.713	48354.92
644.066	48514.91
644.419	48311.98
644.771	47960.12
645.124	47694.14
645.477	47540.93
645.83	47385.9
646.182	47268.39
646.535	47050.32
646.888	47135.96
647.24	46874.05
647.593	47212.35
647.945	46996.76
648.298	46816.88
648.65	46637.67
649.002	46827.05
649.355	46865.24
649.707	46741.62
650.059	46843.77
650.411	47344.32
650.763	47453.24
651.115	47616.63
651.467	47533.02
651.819	47441.72
652.171	47396.75
652.523	47363.98
652.875	47249.86
653.227	47237.2
653.578	47603.97
653.93	47302.29
654.282	47044.44
654.633	46989.98
654.985	47104.1
655.337	46948.62
655.688	47150.43
656.039	47171.9
656.391	46910.66
656.742	46892.58
657.094	46903.2
657.445	46883.32
657.796	46848.51
658.147	46774.39
658.498	46692.81
658.849	46802.87
659.2	46761.96
659.551	46680.61
659.902	46761.51
660.253	46721.96
660.604	46757.89
660.955	46450.78
661.306	46733.71
661.656	46593.61
662.007	46434.74
662.358	46444.68
662.708	46422.08
663.059	46444
663.409	46255.08
663.76	46606.26
664.11	46431.35
664.461	46548.63
664.811	46586.6
665.161	46503.89
665.511	46373.72
665.862	46449.43
666.212	46515.19
666.562	46330.11
666.912	46444.68
667.262	46343.67
667.612	46431.58
667.962	46351.58
668.312	46218.02
668.662	46486.72
669.011	46153.39
669.361	46187.97
669.711	46126.95
670.06	46079.04
670.41	45937.13
670.76	45932.15
671.109	46105.26
671.459	45997.69
671.808	45915.21
672.157	46053.28
672.507	45717.92
672.856	45894.19
673.205	45914.75
673.554	45887.86
673.904	45948.65
674.253	46150.45
674.602	45896
674.951	45350.02
675.3	45052.63
675.649	45814.87
675.998	45672.5
676.346	45713.18
676.695	45772.61
677.044	45284.94
677.393	45526.97
677.741	45526.29
678.09	45507.53
678.438	45385.05
678.787	45323.58
679.135	45413.52
679.484	45026.41
679.832	45093.53
680.181	45028.9
680.529	45029.58
680.877	44971.73
681.225	45056.02
681.573	45206.3
681.922	44864.61
682.27	44734.22
682.618	44710.04
682.966	44628.91
683.314	44693.77
683.661	44494
684.009	44397.73
684.357	44203.39
684.705	44190.73
685.053	44246.1
685.4	44061.69
685.748	43875.71
686.095	43915.26
686.443	43684.08
686.79	43609.28
687.138	43652.44
687.485	43644.08
687.832	43491.77
688.18	43597.98
688.527	43216.75
688.874	43165.9
689.221	43087.26
689.568	43052.46
689.915	43005
690.262	42932.23
690.609	42934.27
690.956	42878.67
691.303	42797.1
691.65	42543.77
691.997	42490.66
692.344	42286.37
692.69	42342.19
693.037	42188.07
693.383	42025.14
693.73	42154.4
694.077	41904.69
694.423	41848.19
694.769	41847.29
695.116	41676.9
695.462	41642.78
695.808	41567.07
696.155	41546.28
696.501	41295.21
696.847	41245.95
697.193	40899.97
697.539	40959.86
697.885	40731.16
698.231	40642.8
698.577	40552.41
698.923	40450.04
699.269	40335.24
699.614	40207.11
699.96	39968.24
700.306	40051.86
700.651	39982.93
700.997	39654.58
701.342	39667.91
701.688	39592.66
702.033	39382.27
702.379	39307.7
702.724	39302.95
703.069	39366.9
703.415	38986.57
703.76	38918.33
704.105	38783.19
704.45	38688.05
704.795	38383.65
705.14	38389.98
705.485	38420.26
705.83	38136.88
706.175	38340.94
706.52	38124.22
706.865	37903.89
707.209	37875.19
707.554	37851.69
707.899	37902.31
708.243	37759.49
708.588	37641.52
708.932	37196.11
709.277	37390.91
709.621	37463.22
709.966	37283.12
710.31	37290.35
710.654	36902.56
710.998	37032.05
711.342	37014.65
711.687	36957.93
712.031	36790.7
712.375	36596.58
712.719	36708.67
713.063	36504.61
713.407	36753.86
713.75	36476.13
714.094	36432.06
714.438	36248.34
714.782	36286.31
715.125	35949.37
715.469	36107.78
715.812	36034.79
716.156	35825.07
716.499	35683.38
716.843	35716.38
717.186	35534.69
717.53	35704.63
717.873	35672.54
718.216	35568.13
718.559	35353.9
718.902	35054.47
719.246	35214.7
719.589	35000.24
719.932	34934.25
720.275	35039.33
720.617	34966.79
720.96	34823.97
721.303	34956.62
721.646	34784.42
721.989	34595.95
722.331	34733.58
722.674	34595.28
723.016	34544.66
723.359	34532.23
723.701	34466.47
724.044	34319.58
724.386	34089.3
724.729	34162.07
725.071	34113.48
725.413	34073.26
725.755	33951.68
726.097	33722.08
726.439	33653.61
726.782	33673.72
727.124	33887.72
727.465	33599.6
727.807	33689.99
728.149	33357.34
728.491	33449.54
728.833	33374.97
729.175	33289.32
729.516	33291.58
729.858	33149.21
730.199	33144.24
730.541	32986.05
730.882	33030.35
731.224	33009.78
731.565	32793.74
731.906	32859.28
732.248	32910.58
732.589	32727.3
732.93	32503.81
733.271	32544.48
733.612	32666.29
733.953	32611.83
734.294	32467.42
734.635	32302.68
734.976	32451.83
735.317	32210.71
735.658	32263.36
735.999	32027.21
736.339	31977.49
736.68	31975.91
737.021	31967.32
737.361	31983.59
737.702	32007.32
738.042	31806.2
738.383	31697.73
738.723	31872.86
739.063	31676.71
739.404	31657.73
739.744	31456.6
740.084	31525.53
740.424	31532.53
740.764	31490.73
741.104	31482.14
741.444	31326.66
741.784	31248.25
742.124	31309.71
742.464	31211.41
742.804	31108.36
743.143	31168.93
743.483	31125.31
743.823	30892.32
744.162	30737.75
744.502	30990.17
744.841	30778.65
745.181	30924.64
745.52	30776.39
745.86	30742.04
746.199	30703.18
746.538	30689.16
746.877	30691.88
747.216	30657.3
747.556	30604.2
747.895	30519
748.234	30210.99
748.573	30220.25
748.911	30296.86
749.25	30140.48
749.589	30036.98
749.928	30050.76
750.267	30065
750.605	29886.02
750.944	29929.86
751.283	29808.06
751.621	29689.19
751.96	29540.95
752.298	29581.4
752.636	29660.04
752.975	29328.52
753.313	29237.23
753.651	29388.63
753.989	29150
754.327	29058.7
754.666	29018.7
755.004	29001.75
755.342	29003.79
755.679	28912.94
756.017	28860.96
756.355	28724.92
756.693	28674.98
757.031	28715.88
757.368	28572.16
757.706	28533.06
758.044	28432.28
758.381	28329.45
758.719	28241.77
759.056	28216.01
759.394	28157.71
759.731	27998.61
760.068	27937.6
760.405	27905.28
760.743	27698.06
761.08	27703.93
761.417	27551.39
761.754	27449.7
762.091	27387.56
762.428	27277.05
762.765	27206.77
763.102	27280.21
763.438	26945.08
763.775	27042.93
764.112	26884.97
764.449	27039.32
764.785	26819.66
765.122	26618.54
765.458	26621.93
765.795	26576.5
766.131	26398.66
766.467	26355.72
766.804	26327.92
767.14	26123.64
767.476	26110.53
767.812	25922.74
768.148	25967.71
768.485	25782.85
768.821	25631.44
769.157	25621.28
769.492	25420.83
769.828	25498.57
770.164	25199.59
770.5	25225.35
770.836	25211.34
771.171	25064
771.507	24900.39
771.842	24704.69
772.178	24702.66
772.513	24661.3
772.849	24630.12
773.184	24392.16
773.519	24360.74
773.855	24392.16
774.19	24274.64
774.525	24179.51
774.86	24154.2
775.195	24027.19
775.53	23917.14
775.865	23734.55
776.2	23685.06
776.535	23502.91
776.87	23447.1
777.205	23323.26
777.539	23296.59
777.874	23266.08
778.209	23070.83
778.543	23062.47
778.878	22922.36
779.212	22833.78
779.547	22650.05
779.881	22769.6
780.215	22608.25
780.55	22639.88
780.884	22467.69
781.218	22364.41
781.552	22321.25
781.886	22233.12
782.22	22148.37
782.554	22058.88
782.888	21855.05
783.222	21870.41
783.556	21669.51
783.889	21640.36
784.223	21555.62
784.557	21463.19
784.89	21526.92
785.224	21367.83
785.557	21305.91
785.891	21118.12
786.224	21183.43
786.558	21142.75
786.891	20954.73
787.224	20790.89
787.557	20767.39
787.891	20705.7
788.224	20698.69
788.557	20666.83
788.89	20628.19
789.223	20498.47
789.556	20333.05
789.888	20414.63
790.221	20267.74
790.554	20146.84
790.887	20106.84
791.219	20128.31
791.552	20010.12
791.884	19886.74
792.217	19846.29
792.549	19791.82
792.882	19688.1
793.214	19586.63
793.546	19658.72
793.879	19385.28
794.211	19375.56
794.543	19422.57
794.875	19244.04
795.207	19279.07
795.539	19155.23
795.871	19157.72
796.203	18962.92
796.535	18844.73
796.867	18860.78
797.198	18754.11
797.53	18792.98
797.862	18743.49
798.193	18657.16
798.525	18540.33
798.856	18541.69
799.188	18350.73
799.519	18317.29
799.85	18182.15
800.182	18234.35
800.513	18138.99
800.844	17967.24
801.175	18062.38
801.506	18047.46
801.837	17975.37
802.168	17889.5
802.499	17843.4
802.83	17713.69
803.161	17672.78
803.491	17649.51
803.822	17510.08
804.153	17527.25
804.483	17353.7
804.814	17287.94
805.145	17334.04
805.475	17329.97
805.805	17341.95
806.136	17203.87
806.466	17180.59
806.796	17102.18
807.126	16977.89
807.457	16986.93
807.787	16886.14
808.117	16816.99
808.447	16881.17
808.777	16849.08
809.107	16809.08
809.436	16726.14
809.766	16706.26
810.096	16560.04
810.426	16518.24
810.755	16562.76
811.085	16376.77
811.414	16429.43
811.744	16295.87
812.073	16307.17
812.403	16289.09
812.732	16147.17
813.061	16197.34
813.39	16131.13
813.719	16044.13
814.049	16128.19
814.378	16083.22
814.707	15997.57
815.036	15858.59
815.365	15788.54
815.693	15772.27
816.022	15758.26
816.351	15626.06
816.68	15554.87
817.008	15651.59
817.337	15533.18
817.665	15475.33
817.994	15612.5
818.322	15504.93
818.651	15388.32
818.979	15294.77
819.307	15435.1
819.636	15329.57
819.964	15252.96
820.292	15293.64
820.62	15305.61
820.948	15184.26
821.276	15236.69
821.604	15238.05
821.932	15276.46
822.259	15217.48
822.587	15177.48
822.915	15146.97
823.243	15151.27
823.57	15179.06
823.898	15218.61
824.225	15172.06
824.553	15067.88
824.88	15090.7
825.207	15123.02
825.535	15105.85
825.862	15174.54
826.189	14970.93
826.516	15093.19
826.843	15225.84
827.17	15179.06
827.497	15224.49
827.824	15222.23
828.151	15174.32
828.478	15097.48
828.805	15176.35
829.131	15070.37
829.458	15140.2
829.785	14981.33
830.111	15099.52
830.438	15194.43
830.764	15031.72
831.09	15183.58
831.417	15023.81
831.743	15108.78
832.069	15124.6
832.395	14910.6
832.722	15064.94
833.048	15023.59
833.374	15036.7
833.7	14931.16
834.026	14988.79
834.351	14947.21
834.677	14877.6
835.003	14964.15
835.329	14920.54
835.654	14962.35
835.98	14815.68
836.306	14844.84
836.631	14744.27
836.956	14865.85
837.282	14841.45
837.607	14802.8
837.932	14714.44
838.258	14758.96
838.583	14668.34
838.908	14624.5
839.233	14663.82
839.558	14747.44
839.883	14672.18
840.208	14539.08
840.533	14616.59
840.858	14635.12
841.182	14571.4
841.507	14643.71
841.832	14475.35
842.156	14470.83
842.481	14438.07
842.805	14428.8
843.13	14413.89
843.454	14347.9
843.778	14338.86
844.103	14258.64
844.427	14241.24
844.751	14208.24
845.075	14253.66
845.399	14264.74
845.723	14157.62
846.047	14161.01
846.371	13996.27
846.695	14009.15
847.019	13904.97
847.343	13841.92
847.666	13723.28
847.99	13728.93
848.313	13716.96
848.637	13604.19
848.96	13551.08
849.284	13547.02
849.607	13451.88
849.931	13398.55
850.254	13347.93
850.577	13269.51
850.9	13180.25
851.223	13195.39
851.546	13117.42
851.869	13076.29
852.192	13100.25
852.515	12910.42
852.838	12909.52
853.161	12900.48
853.483	12872.01
853.806	12834.27
854.129	12818
854.451	12761.5
854.774	12652.58
855.096	12584.33
855.419	12651.22
855.741	12592.01
856.063	12560.38
856.385	12500.94
856.708	12518.57
857.03	12470.43
857.352	12489.87
857.674	12404.45
857.996	12428.18
858.318	12299.14
858.64	12270.21
858.961	12251.91
859.283	12168.52
859.605	12166.49
859.926	12160.16
860.248	12171.46
860.57	12091.01
860.891	12129.65
861.212	12139.14
861.534	12015.76
861.855	12036.77
862.176	11940.96
862.498	12063.89
862.819	12001.07
863.14	11917.46
863.461	11976.89
863.782	11862.99
864.103	11918.36
864.424	11907.74
864.745	11956.55
865.065	11834.97
865.386	11765.59
865.707	11747.97
866.027	11810.79
866.348	11686.95
866.668	11822.77
866.989	11691.02
867.309	11695.31
867.63	11720.4
867.95	11699.38
868.27	11632.49
868.59	11609.89
868.91	11610.34
869.23	11523.57
869.55	11530.8
869.87	11493.96
870.19	11560.85
870.51	11544.81
870.83	11462.1
871.15	11403.12
871.469	11437.92
871.789	11494.87
872.109	11444.47
872.428	11354.98
872.748	11446.73
873.067	11369.9
873.386	11392.72
873.706	11454.87
874.025	11425.72
874.344	11377.58
874.663	11383.46
874.982	11325.61
875.301	11288.77
875.62	11305.27
875.939	11260.3
876.258	11300.07
876.577	11227.76
876.896	11201.77
877.214	11216.23
877.533	11169.9
877.852	11188.66
878.17	11167.19
878.489	11225.27
878.807	11165.16
879.125	11091.94
879.444	11138.94
879.762	11107.31
880.08	11167.19
880.398	10995.22
880.716	11055.1
881.034	11008.78
881.352	11063.01
881.67	10993.19
881.988	11068.89
882.306	11049.46
882.624	10940.31
882.941	10895.79
883.259	10899.18
883.577	10879.97
883.894	10850.14
884.212	10898.05
884.529	10826.86
884.846	10778.95
885.164	10749.35
885.481	10766.07
885.798	10787.54
886.115	10709.13
886.432	10762.23
886.75	10655.12
887.067	10696.47
887.383	10640.65
887.7	10642.23
888.017	10628.22
888.334	10609.01
888.651	10510.94
888.967	10552.52
889.284	10555.68
889.6	10422.35
889.917	10497.38
890.233	10430.71
890.55	10385.97
890.866	10381.68
891.182	10383.26
891.498	10354.33
891.815	10320.43
892.131	10314.79
892.447	10310.94
892.763	10243.83
893.079	10243.83
893.395	10090.84
893.71	10159.31
894.026	10125.86
894.342	10036.83
894.657	10054.68
894.973	10064.4
895.289	10049.03
895.604	9996.83
895.92	10004.51
896.235	9909.82
896.55	9856.94
896.865	9869.6
897.181	9829.15
897.496	9849.49
897.811	9702.82
898.126	9673.9
898.441	9664.41
898.756	9710.73
899.071	9626.22
899.386	9661.7
899.7	9600
900.015	9488.14
900.33	9405.43
900.644	9442.94
900.959	9437.52
901.273	9339.22
901.588	9383.06
901.902	9306.45
902.216	9283.4
902.531	9247.69
902.845	9245.21
903.159	9222.38
903.473	9208.6
903.787	9142.61
904.101	9141.26
904.415	9127.25
904.729	9135.61
905.042	9009.28
905.356	9148.04
905.67	8982.16
905.984	8991.2
906.297	9012.67
906.611	8863.52
906.924	8903.52
907.237	8841.38
907.551	8828.95
907.864	8733.81
908.177	8731.32
908.491	8772
908.804	8704.88
909.117	8686.58
909.43	8669.4
909.743	8550.09
910.056	8641.16
910.368	8542.85
910.681	8497.43
910.994	8511.22
911.307	8450.88
911.619	8306.02
911.932	8366.36
912.244	8275.52
912.557	8254.5
912.869	8245.24
913.181	8235.52
913.494	8207.95
913.806	8120.94
914.118	8117.33
914.43	7998.69
914.742	8062.87
915.054	7994.17
915.366	7992.13
915.678	8046.37
915.99	7984.45
916.302	7857.9
916.613	7816.55
916.925	7869.43
917.236	7799.6
917.548	7744.68
917.859	7725.7
918.171	7674.63
918.482	7663.78
918.794	7581.98
919.105	7600.73
919.416	7577.68
919.727	7592.15
920.038	7557.12
920.349	7457.91
920.66	7484.58
920.971	7532.26
921.282	7453.39
921.593	7413.84
921.903	7376.78
922.214	7362.32
922.525	7287.29
922.835	7346.95
923.146	7292.04
923.456	7266.96
923.767	7258.37
924.077	7217.01
924.387	7165.04
924.697	7094.53
925.008	7126.39
925.318	7083.23
925.628	7038.49
925.938	6980.41
926.248	6992.61
926.558	6897.25
926.867	6933.86
927.177	6892.95
927.487	6866.29
927.796	6798.49
928.106	6826.52
928.416	6796.91
928.725	6797.59
929.034	6780.64
929.344	6810.24
929.653	6736.12
929.962	6754.43
930.271	6600.53
930.581	6601.89
930.89	6627.2
931.199	6598.95
931.508	6537.03
931.817	6552.4
932.125	6497.94
932.434	6473.08
932.743	6406.64
933.051	6463.81
933.36	6399.18
933.669	6351.95
933.977	6314.66
934.286	6294.33
934.594	6321.9
934.902	6179.75
935.21	6251.39
935.519	6198.74
935.827	6170.94
936.135	6123.48
936.443	6076.25
936.751	6068.57
937.059	6075.8
937.367	6013.88
937.674	6029.02
937.982	6000.1
938.29	5969.36
938.597	5933.66
938.905	5888.01
939.213	5886.65
939.52	5824.28
939.827	5857.73
940.135	5783.6
940.442	5777.05
940.749	5768.01
941.056	5752.65
941.363	5706.32
941.67	5681.91
941.977	5712.42
942.284	5624.51
942.591	5634.91
942.898	5617.96
943.205	5595.36
943.511	5558.07
943.818	5547.68
944.125	5550.62
944.431	5483.95
944.738	5519.21
945.044	5484.86
945.35	5432.65
945.657	5425.42
945.963	5405.08
946.269	5321.92
946.575	5367.12
946.881	5349.04
947.187	5244.41
947.493	5250.74
947.799	5261.58
948.105	5295.48
948.41	5191.98
948.716	5209.83
949.022	5237.4
949.327	5126.67
949.633	5079.22
949.938	5095.26
950.244	5077.41
950.549	5073.57
950.854	5069.27
951.16	5058.88
951.465	5001.93
951.77	5021.14
952.075	4963.29
952.38	4970.52
952.685	4902.27
952.99	4883.06
953.294	4900.69
953.599	4833.8
953.904	4801.03
954.209	4836.29
954.513	4787.02
954.818	4780.02
955.122	4756.97
955.426	4760.81
955.731	4681.26
956.035	4735.95
956.339	4658.44
956.643	4643.75
956.948	4626.8
957.252	4605.33
957.556	4655.5
957.86	4585.22
958.163	4589.96
958.467	4531.21
958.771	4517.65
959.075	4489.63
959.378	4488.05
959.682	4481.49
959.985	4478.78
960.289	4400.14
960.592	4404.21
960.896	4458.89
961.199	4371.21
961.502	4360.82
961.805	4341.83
962.108	4326.24
962.411	4316.98
962.714	4325.56
963.017	4237.43
963.32	4320.37
963.623	4230.2
963.926	4259.58
964.228	4237.66
964.531	4163.99
964.833	4166.25
965.136	4138.68
965.438	4126.25
965.741	4121.95
966.043	4132.57
966.345	4138.22
966.648	4083.08
966.95	4094.61
967.252	4039.7
967.554	4038.79
967.856	4010.32
968.158	3985.01
968.46	4000.83
968.761	3974.39
969.063	3937.55
969.365	3969.64
969.666	3940.49
969.968	3910.66
970.269	3892.36
970.571	3838.57
970.872	3872.02
971.174	3826.14
971.475	3835.18
971.776	3801.96
972.077	3800.38
972.378	3788.4
972.679	3803.54
972.98	3732.13
973.281	3713.83
973.582	3693.94
973.883	3701.17
974.183	3653.27
974.484	3663.89
974.785	3640.16
975.085	3650.1
975.386	3639.03
975.686	3628.86
975.986	3600.84
976.287	3608.52
976.587	3535.98
976.887	3521.74
977.187	3541.4
977.487	3482.2
977.787	3452.37
978.087	3460.05
978.387	3486.49
978.687	3511.8
978.987	3408.53
979.286	3433.84
979.586	3411.46
979.885	3385.25
980.185	3355.65
980.484	3350.22
980.784	3335.99
981.083	3353.39
981.382	3317
981.682	3331.47
981.981	3278.59
982.28	3290.79
982.579	3222.99
982.878	3290.56
983.177	3261.19
983.475	3243.78
983.774	3233.16
984.073	3196.33
984.372	3185.71
984.67	3185.93
984.969	3169.44
985.267	3166.72
985.566	3098.25
985.864	3110.23
986.162	3108.2
986.461	3052.38
986.759	3068.87
987.057	3029.33
987.355	3030.01
987.653	3016.9
987.951	3030.68
988.249	2979.38
988.547	2951.59
988.844	2964.92
989.142	2945.94
989.44	2964.24
989.737	2940.74
990.035	2912.04
990.332	2895.77
990.63	2903.23
990.927	2835.89
991.224	2845.83
991.521	2855.32
991.819	2858.71
992.116	2852.83
992.413	2817.58
992.71	2793.85
993.006	2770.8
993.303	2774.87
993.6	2806.51
993.897	2768.99
994.193	2788.66
994.49	2739.39
994.787	2689.68
995.083	2708.88
995.379	2680.86
995.676	2657.13
995.972	2612.39
996.268	2628.89
996.565	2624.59
996.861	2630.24
997.157	2598.38
997.453	2636.57
997.749	2600.86
998.044	2566.29
998.34	2553.86
998.636	2550.7
998.932	2539.85
999.227	2494.2
999.523	2510.02
999.818	2489.23
1000.114	2469.12
1000.409	2444.26
1000.704	2473.86
1001	2440.42
1001.295	2408.33
1001.59	2445.84
1001.885	2407.87
1002.18	2361.1
1002.475	2390.7
1002.77	2381.43
1003.065	2336.69
1003.359	2322
1003.654	2344.6
1003.949	2331.49
1004.243	2320.42
1004.538	2278.39
1004.832	2261.21
1005.127	2250.36
1005.421	2234.32
1005.715	2234.09
1006.009	2263.47
1006.304	2236.35
1006.598	2188.22
1006.892	2185.96
1007.186	2169.91
1007.48	2167.43
1007.773	2143.93
1008.067	2156.81
1008.361	2123.36
1008.655	2145.28
1008.948	2116.13
1009.242	2092.85
1009.535	2094.89
1009.829	2078.62
1010.122	2029.58
1010.415	2056.7
1010.708	2027.77
1011.001	2016.02
1011.295	2034.55
1011.588	1976.02
1011.881	2020.54
1012.173	1995.91
1012.466	1953.88
1012.759	1966.3
1013.052	1982.57
1013.344	1948.68
1013.637	1929.02
1013.93	1892.41
1014.222	1903.71
1014.514	1877.04
1014.807	1869.58
1015.099	1853.99
1015.391	1860.77
1015.683	1861
1015.976	1820.77
1016.268	1849.47
1016.56	1776.7
1016.851	1779.19
1017.143	1814.9
1017.435	1773.09
1017.727	1772.19
1018.018	1790.04
1018.31	1799.75
1018.602	1763.37
1018.893	1717.5
1019.185	1726.08
1019.476	1720.43
1019.767	1701.45
1020.058	1688.35
1020.35	1677.05
1020.641	1660.78
1020.932	1649.7
1021.223	1641.34
1021.514	1629.82
1021.804	1608.57
1022.095	1622.58
1022.386	1597.5
1022.677	1581.46
1022.967	1585.3
1023.258	1568.35
1023.548	1553.66
1023.839	1543.94
1024.129	1533.77
1024.419	1536.71
1024.709	1525.41
1025	1489.03
1025.29	1486.77
1025.58	1473.89
1025.87	1448.58
1026.16	1470.95
1026.449	1437.5
1026.739	1454
1027.029	1427.34
1027.319	1413.55
1027.608	1419.65
1027.898	1396.83
1028.187	1373.1
1028.477	1406.77
1028.766	1367
1029.055	1380.78
1029.344	1372.87
1029.634	1337.62
1029.923	1315.93
1030.212	1338.52
1030.501	1343.04
1030.79	1322.71
1031.078	1313.89
1031.367	1304.4
1031.656	1303.27
1031.945	1289.03
1032.233	1284.74
1032.522	1260.56
1032.81	1267.11
1033.099	1247.91
1033.387	1250.39
1033.675	1225.76
1033.963	1233.89
1034.251	1224.63
1034.54	1190.73
1034.828	1211.97
1035.116	1196.83
1035.403	1199.09
1035.691	1188.25
1035.979	1169.26
1036.267	1166.33
1036.554	1164.74
1036.842	1134.46
1037.129	1172.88
1037.417	1126.55
1037.704	1121.13
1037.992	1110.06
1038.279	1091.52
1038.566	1092.2
1038.853	1092.2
1039.14	1092.2
