Data from aluminium_surface_pro_back_FLMS001491_00090.txt Node
Date: Wed Feb 08 15:34:40 GMT 2017
User: dcchb
Spectrometer: FLMS00149
Trigger mode: 0
Integration Time (sec): 2.000000E-2
Scans to average: 10
Electric dark correction enabled: true
Nonlinearity correction enabled: false
Boxcar width: 0
XAxis mode: Wavelengths
Number of Pixels in Spectrum: 2048
>>>>>Begin Spectral Data<<<<<
341.393	-10.1
341.776	-10.1
342.16	-10.1
342.543	-71.57
342.927	-67.72
343.31	-70.44
343.693	-76.99
344.077	-60.27
344.46	-50.55
344.843	-67.5
345.226	-31.79
345.61	-31.12
345.993	-15.97
346.376	-3.32
346.759	17.92
347.142	28.09
347.525	36
347.908	40.52
348.291	59.96
348.674	102.89
349.057	122.55
349.44	130.24
349.823	176.11
350.206	186.05
350.588	219.5
350.971	230.35
351.354	245.26
351.737	254.3
352.119	269.67
352.502	300.18
352.884	317.58
353.267	322.55
353.65	332.49
354.032	330.23
354.414	333.85
354.797	354.19
355.179	357.12
355.562	372.04
355.944	365.94
356.326	374.07
356.709	361.64
357.091	375.88
357.473	365.71
357.855	385.6
358.238	395.77
358.62	373.85
359.002	382.43
359.384	387.18
359.766	394.41
360.148	373.17
360.53	369.1
360.912	392.83
361.294	388.99
361.676	381.76
362.057	377.01
362.439	384.02
362.821	384.02
363.203	368.65
363.584	354.86
363.966	388.31
364.348	359.61
364.729	373.39
365.111	375.88
365.493	387.63
365.874	372.94
366.256	377.69
366.637	361.42
367.019	371.36
367.4	350.12
367.781	364.13
368.163	369.78
368.544	395.54
368.925	384.02
369.306	386.05
369.688	382.66
370.069	376.33
370.45	378.59
370.831	390.34
371.212	383.56
371.593	366.61
371.974	371.13
372.355	389.21
372.736	390.79
373.117	385.37
373.498	394.18
373.879	417.01
374.26	398.48
374.641	382.21
375.021	396.22
375.402	413.62
375.783	391.7
376.163	425.6
376.544	413.17
376.925	440.74
377.305	397.57
377.686	423.79
378.066	412.72
378.447	425.6
378.827	442.54
379.208	437.8
379.588	417.46
379.968	451.58
380.349	443.9
380.729	457.01
381.109	461.08
381.489	449.32
381.87	456.33
382.25	468.53
382.63	486.16
383.01	465.14
383.39	477.57
383.77	463.79
384.15	501.07
384.53	499.72
384.91	492.04
385.29	486.39
385.67	498.81
386.049	507.18
386.429	508.31
386.809	521.41
387.189	520.73
387.568	513.5
387.948	529.1
388.328	537.68
388.707	541.53
389.087	535.2
389.466	548.98
389.846	558.93
390.225	568.19
390.605	569.1
390.984	588.08
391.363	569.1
391.743	595.08
392.122	598.02
392.501	607.06
392.881	605.03
393.26	621.07
393.639	620.62
394.018	613.61
394.397	653.16
394.776	635.08
395.155	629.43
395.534	657.45
395.913	657.68
396.292	676.89
396.671	662.2
397.05	663.78
397.429	700.62
397.808	685.02
398.186	709.66
398.565	700.39
398.944	714.63
399.323	726.38
399.701	713.95
400.08	724.12
400.458	722.99
400.837	768.19
401.215	774.97
401.594	763.21
401.972	799.37
402.351	804.8
402.729	794.4
403.107	801.18
403.486	809.31
403.864	820.39
404.242	849.99
404.62	854.06
404.999	868.3
405.377	876.43
405.755	890.44
406.133	866.94
406.511	899.93
406.889	900.84
407.267	917.11
407.645	939.48
408.023	921.85
408.401	971.12
408.779	980.84
409.156	1005.02
409.534	1011.12
409.912	1004.11
410.29	1016.77
410.667	1064.68
411.045	1070.1
411.422	1055.18
411.8	1086.37
412.178	1109.65
412.555	1111.68
412.933	1135.63
413.31	1173.15
413.687	1209.08
414.065	1186.48
414.442	1151
414.819	1200.72
415.197	1213.82
415.574	1240.94
415.951	1235.29
416.328	1256.99
416.705	1252.02
417.082	1284.1
417.46	1325.46
417.837	1322.52
418.214	1333.37
418.591	1328.17
418.967	1354.61
419.344	1352.58
419.721	1395.51
420.098	1384.22
420.475	1407.94
420.852	1406.81
421.228	1431.22
421.605	1453.59
421.982	1448.17
422.358	1452.69
422.735	1508.96
423.111	1498.79
423.488	1524.55
423.864	1526.58
424.241	1555.28
424.617	1606.81
424.994	1575.62
425.37	1617.43
425.746	1607.71
426.123	1641.84
426.499	1624.21
426.875	1692.46
427.251	1693.81
427.627	1750.08
428.003	1742.62
428.379	1757.31
428.756	1795.73
429.132	1792.79
429.507	1837.08
429.883	1852.9
430.259	1911.43
430.635	1893.81
431.011	1940.36
431.387	1983.07
431.763	2013.8
432.138	2040.02
432.514	2030.53
432.89	2040.92
433.265	2101.26
433.641	2129.28
434.016	2164.31
434.392	2170.86
434.767	2223.51
435.143	2222.84
435.518	2245.66
435.894	2291.08
436.269	2297.64
436.644	2348.94
437.02	2354.58
437.395	2392.55
437.77	2407.24
438.145	2448.82
438.52	2467.8
438.895	2511.19
439.271	2502.6
439.646	2569.04
440.021	2550.06
440.395	2612.88
440.77	2587.35
441.145	2641.58
441.52	2684.29
441.895	2640.45
442.27	2686.33
442.645	2733.33
443.019	2735.82
443.394	2735.37
443.769	2777.85
444.143	2779.66
444.518	2852.88
444.892	2807.68
445.267	2856.04
445.641	2873.44
446.016	2896.49
446.39	2950.5
446.764	2930.16
447.139	2935.81
447.513	2989.14
447.887	2998.18
448.262	3033.89
448.636	3004.51
449.01	3052.19
449.384	3101.91
449.758	3122.47
450.132	3161.12
450.506	3155.92
450.88	3196.37
451.254	3223.71
451.628	3294.45
452.002	3322.47
452.376	3345.75
452.75	3391.85
453.123	3404.5
453.497	3462.8
453.871	3462.13
454.244	3574.21
454.618	3578.51
454.992	3612.63
455.365	3652.18
455.739	3731.95
456.112	3734.66
456.486	3766.07
456.859	3809.91
457.232	3946.63
457.606	3925.39
457.979	3984.37
458.352	4020.98
458.725	4081.77
459.099	4094.88
459.472	4191.6
459.845	4259.39
460.218	4292.61
460.591	4301.65
460.964	4354.31
461.337	4413.97
461.71	4545.26
462.083	4565.83
462.456	4563.57
462.829	4602.21
463.201	4728.76
463.574	4772.37
463.947	4818.93
464.32	4879.26
464.692	4961.07
465.065	5017.34
465.438	5086.72
465.81	5159.26
466.183	5238.58
466.555	5335.07
466.928	5366.94
467.3	5344.11
467.672	5437.22
468.045	5605.12
468.417	5603.54
468.789	5647.38
469.161	5737.55
469.534	5859.8
469.906	5933.25
470.278	5991.1
470.65	6105.45
471.022	6188.61
471.394	6326.68
471.766	6419.56
472.138	6446
472.51	6581.82
472.882	6704.08
473.253	6765.32
473.625	6818.2
473.997	7013.22
474.369	7062.48
474.74	7161.46
475.112	7286.21
475.484	7359.88
475.855	7580.21
476.227	7627.21
476.598	7877.15
476.97	7932.74
477.341	8029.92
477.713	8223.36
478.084	8275.56
478.455	8508.1
478.827	8583.8
479.198	8833.96
479.569	8870.35
479.94	9151.24
480.311	9204.35
480.682	9417.68
481.053	9662.64
481.424	9779.7
481.795	9889.3
482.166	10083.65
482.537	10169.75
482.908	10447.71
483.279	10521.15
483.65	10713.24
484.021	10921.82
484.391	10955.26
484.762	11135.15
485.133	11299.43
485.503	11484.29
485.874	11750.95
486.244	11793.66
486.615	11960.21
486.985	12216.7
487.356	12450.82
487.726	12557.48
488.097	12878.38
488.467	12904.59
488.837	13060.29
489.207	13288.76
489.578	13490.56
489.948	13628.19
490.318	13836.54
490.688	13918.12
491.058	14142.07
491.428	14364.66
491.798	14472.01
492.168	14719.91
492.538	14805.56
492.908	15052.33
493.278	15187.92
493.648	15236.73
494.017	15372.32
494.387	15577.51
494.757	15681.24
495.126	15927.34
495.496	15905.42
495.866	16072.87
496.235	16193.77
496.605	16388.11
496.974	16489.58
497.344	16604.61
497.713	16804.15
498.082	16871.04
498.452	17148.32
498.821	17296.11
499.19	17294.76
499.559	17518.25
499.928	17669.21
500.298	17691.81
500.667	17895.65
501.036	17904.01
501.405	18172.25
501.774	18250.21
502.143	18333.37
502.512	18403.88
502.88	18609.3
503.249	18702.18
503.618	18847.48
503.987	18826.24
504.356	19004.32
504.724	19199.34
505.093	19320.47
505.462	19417.64
505.83	19571.08
506.199	19680.23
506.567	19909.83
506.936	19929.94
507.304	20212.87
507.672	20174.46
508.041	20362.02
508.409	20564.05
508.777	20735.12
509.145	20923.36
509.514	20914.1
509.882	21242.45
510.25	21221.89
510.618	21468.43
510.986	21558.37
511.354	21854.64
511.722	21982.77
512.09	22161.07
512.458	22122.88
512.826	22425.7
513.193	22591.57
513.561	22612.36
513.929	22935.51
514.297	23002.63
514.664	23266.13
515.032	23295.05
515.4	23474.71
515.767	23702.95
516.135	23881.7
516.502	23784.08
516.869	24262.48
517.237	24405.08
517.604	24300.9
517.972	24656.6
518.339	24888
518.706	24903.82
519.073	25090.26
519.44	25252.51
519.808	25541.32
520.175	25542.9
520.542	25949.22
520.909	26267.18
521.276	26219.04
521.643	26530.67
522.009	26573.16
522.376	26908.29
522.743	27104.44
523.11	27404.1
523.477	27618.78
523.843	27871.88
524.21	28114.36
524.577	28305.77
524.943	28446.1
525.31	28659.88
525.676	29091.74
526.043	29120.43
526.409	29309.58
526.776	29678.16
527.142	29724.03
527.508	29975.33
527.874	30246.51
528.241	30438.59
528.607	30399.27
528.973	30711.35
529.339	30790.9
529.705	31258.91
530.071	31449.87
530.437	31663.64
530.803	31799.46
531.169	32057.53
531.535	31935.73
531.901	32159.45
532.267	32295.72
532.632	32610.96
532.998	32726.89
533.364	32916.04
533.73	32978.86
534.095	33200.78
534.461	33390.83
534.826	33551.73
535.192	33697.72
535.557	33951.95
535.923	33918.27
536.288	34174.31
536.653	34267.87
537.019	34353.97
537.384	34568.65
537.749	34722.1
538.114	34755.09
538.479	34907.4
538.845	34991.92
539.21	34962.77
539.575	35132.93
539.94	35349.65
540.305	35502.64
540.67	35360.72
541.034	35479.36
541.399	35804.33
541.764	35822.18
542.129	35893.36
542.494	36064.66
542.858	36213.81
543.223	36229.63
543.587	36544.65
543.952	36581.03
544.316	36731.76
544.681	36808.37
545.045	36959.78
545.41	37275.47
545.774	37235.93
546.138	37339.65
546.503	37465.75
546.867	37574
547.231	37872.07
547.595	37956.36
547.959	38124.27
548.324	38192.06
548.688	38339.18
549.052	38472.96
549.416	38432.05
549.779	38536.23
550.143	38798.82
550.507	39059.61
550.871	38984.36
551.235	39106.61
551.599	39478.58
551.962	39413.72
552.326	39521.97
552.689	39570.1
553.053	39626.37
553.417	39705.02
553.78	40208.05
554.143	40117.89
554.507	40168.28
554.87	40520.81
555.234	40675.39
555.597	40701.37
555.96	40806.68
556.323	41014.36
556.686	41192.89
557.05	41337.74
557.413	41547.68
557.776	41488.02
558.139	41732.98
558.502	41864.73
558.865	41994.9
559.228	42468.78
559.59	42590.82
559.953	42586.3
560.316	43018.83
560.679	43146.51
561.041	43388.76
561.404	43475.76
561.767	43746.72
562.129	43644.12
562.492	44259.47
562.854	44115.29
563.217	44276.42
563.579	44495.62
563.941	44748.72
564.304	45091.54
564.666	45173.12
565.028	45313
565.39	45415.6
565.753	45661.92
566.115	45754.35
566.477	46077.05
566.839	46189.14
567.201	46329.02
567.563	46467.1
567.925	46715.68
568.287	46822.12
568.648	46934.43
569.01	47182.56
569.372	47440.86
569.734	47293.52
570.095	47731.92
570.457	47771.7
570.819	47821.64
571.18	47962.88
571.542	48206.26
571.903	48316.54
572.265	48486.93
572.626	48470.43
572.987	48698
573.349	48941.83
573.71	49024.77
574.071	49050.53
574.432	49206.46
574.794	49551.76
575.155	49511.09
575.516	49545.21
575.877	49622.04
576.238	49664.98
576.599	49784.75
576.96	49983.62
577.32	49895.03
577.681	50076.95
578.042	50071.52
578.403	50152.2
578.763	50341.8
579.124	50270.16
579.485	50528.91
579.845	50631.28
580.206	50508.57
580.566	50626.99
580.927	50651.62
581.287	50812.75
581.648	50653.65
582.008	50910.6
582.368	50762.58
582.728	50890.71
583.089	50885.74
583.449	50923.93
583.809	51013.42
584.169	51135.45
584.529	51015
584.889	51346.74
585.249	51055.68
585.609	51160.31
585.969	51365.95
586.329	51179.97
586.688	51127.09
587.048	51349.23
587.408	51182
587.768	51115.11
588.127	51214.09
588.487	51165.05
588.846	51405.05
589.206	51134.32
589.565	51309.23
589.925	51354.43
590.284	51175.45
590.643	51293.64
591.003	51431.71
591.362	51500.86
591.721	51469
592.08	51359.17
592.44	51374.54
592.799	51442.33
593.158	51411.6
593.517	51478.49
593.876	51461.32
594.235	51295.22
594.593	51450.47
594.952	51608.88
595.311	51394.88
595.67	51505.16
596.029	51664.93
596.387	51706.28
596.746	51759.61
597.104	51597.81
597.463	51533.86
597.822	51870.12
598.18	51665.38
598.538	51624.48
598.897	51839.39
599.255	51651.82
599.613	52030.11
599.972	51780.4
600.33	51948.54
600.688	51811.82
601.046	51835.32
601.404	51966.39
601.762	51861.08
602.12	52110.34
602.478	52126.84
602.836	52223.33
603.194	52058.36
603.552	52103.79
603.91	52008.42
604.268	52123.22
604.625	52111.02
604.983	52151.92
605.341	52077.8
605.698	52250.9
606.056	52287.96
606.413	52272.59
606.771	52272.37
607.128	52278.24
607.485	52311.46
607.843	52316.89
608.2	52505.36
608.557	52534.06
608.914	52406.38
609.272	52606.6
609.629	52666.93
609.986	52792.81
610.343	52615.41
610.7	52845.23
611.057	52807.04
611.414	52687.27
611.771	52758.46
612.127	52924.78
612.484	52899.24
612.841	53095.62
613.198	52911.22
613.554	52899.92
613.911	53089.52
614.267	53009.07
614.624	53088.84
614.98	53197.77
615.337	53256.75
615.693	53247.94
616.05	53255.62
616.406	53360.93
616.762	53232.34
617.118	53283.87
617.475	53221.5
617.831	53310.99
618.187	53269.18
618.543	53363.64
618.899	53541.26
619.255	53480.02
619.611	53466.01
619.967	53541.71
620.323	53596.63
620.678	53441.6
621.034	53419.91
621.39	53453.58
621.746	53432.79
622.101	53758.21
622.457	53404.09
622.812	53647.02
623.168	53717.3
623.523	53761.14
623.879	53864.19
624.234	53649.73
624.589	53780.35
624.945	53739.67
625.3	53759.11
625.655	53753.91
626.01	53689.05
626.365	53708.49
626.72	53670.98
627.075	53685.89
627.43	53637.98
627.785	53600.24
628.14	53646.34
628.495	53677.98
628.85	53700.81
629.205	53458.1
629.559	53751.88
629.914	53587.36
630.269	53612.22
630.623	53508.95
630.978	53511.88
631.332	53643.18
631.687	53483.41
632.041	53499.23
632.396	53461.26
632.75	53308.05
633.104	53448.83
633.459	53305.34
633.813	53409.51
634.167	53315.05
634.521	53298.1
634.875	53294.71
635.229	53195.73
635.583	53046.36
635.937	52960.94
636.291	52967.27
636.645	52968.17
636.999	52749.42
637.352	52814.95
637.706	52705.35
638.06	52774.95
638.413	52680.27
638.767	52547.16
639.121	52607.5
639.474	52377.9
639.828	52445.47
640.181	52493.15
640.534	52467.17
640.888	52259.94
641.241	52256.1
641.594	52256.78
641.947	52386.26
642.301	52274.18
642.654	52289.09
643.007	52238.47
643.36	52247.51
643.713	52136.55
644.066	52325.47
644.419	52010.68
644.771	51738.15
645.124	51543.35
645.477	51541.77
645.83	51394.88
646.182	51115.34
646.535	51047.09
646.888	51104.26
647.24	50974.78
647.593	51114.43
647.945	51058.39
648.298	50779.3
648.65	50775.23
649.002	50650.49
649.355	50778.85
649.707	50738.17
650.059	50835.12
650.411	51226.29
650.763	51314.65
651.115	51582.67
651.467	51431.94
651.819	51336.12
652.171	51258.16
652.523	51218.61
652.875	51173.87
653.227	51114.66
653.578	51286.41
653.93	51233.75
654.282	51124.15
654.633	50975.68
654.985	51053.87
655.337	51082.8
655.688	51116.47
656.039	51175.22
656.391	50876.02
656.742	50910.82
657.094	50899.75
657.445	50938.17
657.796	50866.53
658.147	50736.14
658.498	50754.89
658.849	50804.38
659.2	50737.04
659.551	50687.1
659.902	50695.91
660.253	50704.5
660.604	50668.34
660.955	50470.61
661.306	50590.6
661.656	50536.14
662.007	50506.54
662.358	50517.61
662.708	50473.55
663.059	50446.65
663.409	50340.89
663.76	50468.8
664.11	50462.92
664.461	50548.12
664.811	50438.52
665.161	50405.07
665.511	50192.42
665.862	50329.37
666.212	50509.48
666.562	50448.46
666.912	50281.01
667.262	50219.99
667.612	50254.34
667.962	50264.74
668.312	50250.95
668.662	50398.29
669.011	50301.8
669.361	50165.53
669.711	50099.54
670.06	50103.16
670.41	50098.19
670.76	50019.09
671.109	50086.21
671.459	49985.2
671.808	50001.69
672.157	50067
672.507	49777.97
672.856	49746.33
673.205	49820.46
673.554	50051.18
673.904	49857.06
674.253	49961.24
674.602	49883.28
674.951	49271.54
675.3	49134.6
675.649	49795.6
675.998	49679.67
676.346	49701.36
676.695	49776.16
677.044	49605.77
677.393	49742.72
677.741	49770.51
678.09	49572.33
678.438	49605.32
678.787	49545.89
679.135	49617.07
679.484	49382.27
679.832	49483.52
680.181	49200.58
680.529	49396.96
680.877	49286.01
681.225	49167.59
681.573	49346.34
681.922	48999.46
682.27	48840.37
682.618	48970.53
682.966	48902.06
683.314	48810.76
683.661	48783.65
684.009	48534.61
684.357	48582.52
684.705	48488.29
685.053	48426.37
685.4	48479.25
685.748	48291
686.095	48154.51
686.443	48068.64
686.79	48003.1
687.138	48081.97
687.485	48002.65
687.832	47828.42
688.18	47828.87
688.527	47618.93
688.874	47723.34
689.221	47622.55
689.568	47413.29
689.915	47364.02
690.262	47242.22
690.609	47205.16
690.956	47193.86
691.303	47112.96
691.65	46860.99
691.997	46823.02
692.344	46682.23
692.69	46632.06
693.037	46552.07
693.383	46297.16
693.73	46438.62
694.077	46096.94
694.423	46059.2
694.769	45934.23
695.116	45841.35
695.462	45927.9
695.808	45631.64
696.155	45720.68
696.501	45370.18
696.847	45345.32
697.193	45166.11
697.539	45368.14
697.885	45006.34
698.231	44808.38
698.577	44710.31
698.923	44790.98
699.269	44618.11
699.614	44384.44
699.96	44395.97
700.306	44204.11
700.651	43993.49
700.997	43980.61
701.342	43902.42
701.688	43847.28
702.033	43723.67
702.379	43571.58
702.724	43422.21
703.069	43499.04
703.415	43110.8
703.76	43243.45
704.105	43269.22
704.45	43082.33
704.795	42798.27
705.14	42661.1
705.485	42662.68
705.83	42608.67
706.175	42603.24
706.52	42547.65
706.865	42338.62
707.209	42255.46
707.554	42123.03
707.899	42104.5
708.243	41969.81
708.588	41947.22
708.932	41742.7
709.277	41564.63
709.621	41626.09
709.966	41386.33
710.31	41492.31
710.654	41015.26
710.998	41258.65
711.342	41202.6
711.687	40959.45
712.031	40811.88
712.375	40733.24
712.719	40742.95
713.063	40635.84
713.407	40715.84
713.75	40495.5
714.094	40293.7
714.438	40254.83
714.782	40247.6
715.125	40086.7
715.469	40087.38
715.812	39993.37
716.156	39753.83
716.499	39675.86
716.843	39855.29
717.186	39549.31
717.53	39748.18
717.873	39617.33
718.216	39589.99
718.559	39478.81
718.902	39045.15
719.246	39297.12
719.589	39091.47
719.932	39078.82
720.275	38977.35
720.617	39067.52
720.96	38948.2
721.303	38879.95
721.646	38811.03
721.989	38647.87
722.331	38694.19
722.674	38552.05
723.016	38646.29
723.359	38558.15
723.701	38455.1
724.044	38095.79
724.386	37984.61
724.729	38170.82
725.071	37974.89
725.413	38076.81
725.755	38003.82
726.097	37722.69
726.439	37659.42
726.782	37624.17
727.124	37906.19
727.465	37456.26
727.807	37489.25
728.149	37430.72
728.491	37310.05
728.833	37373.55
729.175	37237.96
729.516	37157.06
729.858	37075.93
730.199	37046.1
730.541	37039.1
730.882	36891.53
731.224	37117.29
731.565	36705.77
731.906	36657.86
732.248	36661.03
732.589	36458.32
732.93	36402.5
733.271	36369.74
733.612	36344.2
733.953	36470.07
734.294	36256.97
734.635	36078.44
734.976	36211.55
735.317	35951.67
735.658	36082.96
735.999	35932.69
736.339	35997.54
736.68	35917.77
737.021	35797.55
737.361	35718.91
737.702	35911.44
738.042	35657.66
738.383	35541.51
738.723	35586.48
739.063	35471.68
739.404	35559.14
739.744	35385.81
740.084	35232.14
740.424	35311.46
740.764	35131.8
741.104	35245.7
741.444	34868.76
741.784	35031.92
742.124	34873.96
742.464	34768.65
742.804	34795.54
743.143	34685.49
743.483	34774.98
743.823	34473.74
744.162	34405.04
744.502	34500.63
744.841	34321.88
745.181	34307.19
745.52	34251.37
745.86	34371.14
746.199	34121.89
746.538	34193.07
746.877	34110.13
747.216	34006.63
747.556	33979.52
747.895	33832.18
748.234	33759.41
748.573	33646.42
748.911	33564.39
749.25	33658.62
749.589	33389.93
749.928	33418.85
750.267	33549.7
750.605	33382.47
750.944	33277.61
751.283	33218.86
751.621	33252.08
751.96	33064.29
752.298	33052.53
752.636	33050.05
752.975	32887.79
753.313	32891.64
753.651	32905.65
753.989	32735.26
754.327	32715.14
754.666	32624.98
755.004	32633.79
755.342	32643.05
755.679	32554.02
756.017	32275.15
756.355	32456.62
756.693	32306.79
757.031	32153.35
757.368	31984.09
757.706	32012.11
758.044	31833.81
758.381	31898.89
758.719	31818.67
759.056	31787.71
759.394	31594.04
759.731	31420.04
760.068	31311.56
760.405	31292.36
760.743	30965.81
761.08	31063.66
761.417	30936.66
761.754	30793.84
762.091	30540.51
762.428	30670.45
762.765	30376.67
763.102	30506.16
763.438	30286.28
763.775	30258.71
764.112	30145.04
764.449	30098.26
764.785	30020.98
765.122	29748.67
765.458	29747.76
765.795	29758.38
766.131	29689.01
766.467	29526.75
766.804	29496.7
767.14	29302.13
767.476	29372.41
767.812	29131.51
768.148	29173.31
768.485	29086.31
768.821	28901.23
769.157	28841.8
769.492	28679.09
769.828	28773.33
770.164	28500.34
770.5	28333.11
770.836	28273.9
771.171	28098.54
771.507	28126.11
771.842	27868.49
772.178	27836.85
772.513	27782.62
772.849	27564.09
773.184	27573.81
773.519	27520.93
773.855	27253.82
774.19	27280.03
774.525	27190.09
774.86	27113.48
775.195	26974.5
775.53	26848.4
775.865	26683.89
776.2	26577.9
776.535	26325.71
776.87	26390.56
777.205	26194.41
777.539	26099.27
777.874	26251.58
778.209	25902.89
778.543	25869.9
778.878	25691.82
779.212	25671.94
779.547	25561.66
779.881	25552.17
780.215	25429.46
780.55	25489.8
780.884	25152.18
781.218	25159.64
781.552	25053.2
781.886	25084.38
782.22	24858.17
782.554	24735.01
782.888	24484.17
783.222	24307.23
783.556	24347
783.889	24309.49
784.223	24116.72
784.557	24159.44
784.89	24265.42
785.224	24000.8
785.557	23858.2
785.891	23807.81
786.224	23772.55
786.558	23674.25
786.891	23530.53
787.224	23384.99
787.557	23396.52
787.891	23392.68
788.224	23239.46
788.557	23187.94
788.89	23089.86
789.223	23055.51
789.556	23005.79
789.888	22931.22
790.221	22894.61
790.554	22558.8
790.887	22627.72
791.219	22618.68
791.552	22512.47
791.884	22393.83
792.217	22289.2
792.549	22245.36
792.882	22084.01
793.214	22005.82
793.546	22129.43
793.879	21863.22
794.211	21787.97
794.543	21711.14
794.875	21731.02
795.207	21639.05
795.539	21576.23
795.871	21637.02
796.203	21361.99
796.535	21263.92
796.867	21113.87
797.198	21029.8
797.53	20973.76
797.862	21009.46
798.193	20991.16
798.525	20798.62
798.856	20867.77
799.188	20619.19
799.519	20575.12
799.85	20463.49
800.182	20463.26
800.513	20413.77
800.844	20271.18
801.175	20261.68
801.506	20369.03
801.837	20251.29
802.168	20143.27
802.499	20108.92
802.83	20032.54
803.161	19985.76
803.491	19994.35
803.822	19898.08
804.153	19785.31
804.483	19588.93
804.814	19528.37
805.145	19448.37
805.475	19521.82
805.805	19360.01
806.136	19361.82
806.466	19394.59
806.796	19358.21
807.126	19146.23
807.457	19052.9
807.787	19083.18
808.117	19003.86
808.447	18871.66
808.777	19007.71
809.107	18838.22
809.436	18906.47
809.766	18785.11
810.096	18707.6
810.426	18719.13
810.755	18668.51
811.085	18577.21
811.414	18515.29
811.744	18428.29
812.073	18343.77
812.403	18362.53
812.732	18229.2
813.061	18325.92
813.39	18137.45
813.719	18028.07
814.049	18109.65
814.378	18146.71
814.707	17947.4
815.036	18003.67
815.365	17862.88
815.693	17754.41
816.022	17770.22
816.351	17684.58
816.68	17571.36
817.008	17703.11
817.337	17450.23
817.665	17643.45
817.994	17478.26
818.322	17464.02
818.651	17334.98
818.979	17334.76
819.307	17345.6
819.636	17291.59
819.964	17141.77
820.292	17231.26
820.62	17211.6
820.948	17133.41
821.276	17176.57
821.604	17106.51
821.932	17151.26
822.259	17157.59
822.587	17097.7
822.915	17087.76
823.243	17132.28
823.57	17147.64
823.898	17092.28
824.225	17121.43
824.553	16991.71
824.88	16988.55
825.207	17130.92
825.535	16996.23
825.862	16979.96
826.189	16978.61
826.516	17126.17
826.843	17125.72
827.17	17013.63
827.497	17060.64
827.824	17011.83
828.151	17057.25
828.478	16933.64
828.805	17053.63
829.131	16911.26
829.458	16916.46
829.785	16789.69
830.111	16907.65
830.438	17018.15
830.764	16950.13
831.09	16953.98
831.417	16755.56
831.743	16901.1
832.069	16898.61
832.395	16806.63
832.722	16826.52
833.048	16946.29
833.374	16779.52
833.7	16651.38
834.026	16845.28
834.351	16862.9
834.677	16869.01
835.003	16835.56
835.329	16788.78
835.654	16766.41
835.98	16662.68
836.306	16631.72
836.631	16555.34
836.956	16671.04
837.282	16570.26
837.607	16528.68
837.932	16386.31
838.258	16423.14
838.583	16466.3
838.908	16338.62
839.233	16392.86
839.558	16382.24
839.883	16301.34
840.208	16262.24
840.533	16252.52
840.858	16305.18
841.182	16280.77
841.507	16332.3
841.832	16196.25
842.156	16212.98
842.481	16212.75
842.805	16116.48
843.13	16189.93
843.454	16057.95
843.778	15948.35
844.103	15871.74
844.427	15988.58
844.751	15852.99
845.075	15918.97
845.399	15823.84
845.723	15712.43
846.047	15813.44
846.371	15620.68
846.695	15583.62
847.019	15459.1
847.343	15550.17
847.666	15396.5
847.99	15352.89
848.313	15316.96
848.637	15166.68
848.96	15183.63
849.284	15147.47
849.607	15139.11
849.931	14963.74
850.254	14877.19
850.577	14798.78
850.9	14608.73
851.223	14676.97
851.546	14643.75
851.869	14519.69
852.192	14531.67
852.515	14471.1
852.838	14481.27
853.161	14472.46
853.483	14408.73
853.806	14347.94
854.129	14247.15
854.451	14233.59
854.774	14276.98
855.096	14099.81
855.419	14060.04
855.741	14092.81
856.063	13983.88
856.385	13996.31
856.708	13926.26
857.03	13930.55
857.352	13863.89
857.674	13829.54
857.996	13815.75
858.318	13734.17
858.64	13737.79
858.961	13732.36
859.283	13629.99
859.605	13605.81
859.926	13590
860.248	13557.91
860.57	13538.92
860.891	13637.45
861.212	13526.04
861.534	13424.8
861.855	13511.35
862.176	13498.25
862.498	13434.97
862.819	13416.22
863.14	13343.45
863.461	13274.52
863.782	13301.87
864.103	13423.22
864.424	13309.33
864.745	13262.32
865.065	13253.73
865.386	13211.25
865.707	13200.85
866.027	13161.31
866.348	13155.43
866.668	13082.89
866.989	13174.64
867.309	13042.89
867.63	13127.18
867.95	13106.84
868.27	12894.65
868.59	12901.43
868.91	12895.32
869.23	12929
869.55	12828.66
869.87	12943.46
870.19	12874.31
870.51	12934.19
870.83	12928.77
871.15	12803.35
871.469	12786.85
871.789	12804.71
872.109	12797.25
872.428	12708.21
872.748	12809.45
873.067	12795.21
873.386	12742.33
873.706	12759.74
874.025	12742.79
874.344	12659.4
874.663	12722.22
874.982	12674.77
875.301	12651.72
875.62	12654.65
875.939	12571.72
876.258	12701.43
876.577	12583.92
876.896	12624.82
877.214	12531.04
877.533	12555.22
877.852	12546.63
878.17	12507.09
878.489	12464.15
878.807	12447.65
879.125	12392.06
879.444	12432.06
879.762	12322.01
880.08	12393.42
880.398	12318.39
880.716	12347.54
881.034	12272.52
881.352	12333.31
881.67	12284.72
881.988	12256.02
882.306	12241.78
882.624	12237.94
882.941	12169.47
883.259	12116.14
883.577	12093.76
883.894	12040.88
884.212	12122.92
884.529	12093.76
884.846	12123.82
885.164	11948.46
885.481	11922.47
885.798	11985.07
886.115	11903.03
886.432	11915.92
886.75	11948.91
887.067	11985.97
887.383	11912.53
887.7	11918.4
888.017	11911.62
888.334	11921.79
888.651	11778.97
888.967	11814
889.284	11714.11
889.6	11688.35
889.917	11538.3
890.233	11544.4
890.55	11611.74
890.866	11588.47
891.182	11543.5
891.498	11460.33
891.815	11480.9
892.131	11410.62
892.447	11502.82
892.763	11430.5
893.079	11275.71
893.395	11337.17
893.71	11292.2
894.026	11265.76
894.342	11232.32
894.657	11145.09
894.973	11073.23
895.289	11244.07
895.604	11189.38
895.92	11091.53
896.235	11007.69
896.55	11037.97
896.865	11016.5
897.181	10964.3
897.496	10928.6
897.811	10817.64
898.126	10840.24
898.441	10777.41
898.756	10762.05
899.071	10711.88
899.386	10833.91
899.7	10617.19
900.015	10631.66
900.33	10531.32
900.644	10587.59
900.959	10572.67
901.273	10516.63
901.588	10419.68
901.902	10357.99
902.216	10458.78
902.531	10377.88
902.845	10334.71
903.159	10315.51
903.473	10270.76
903.787	10245.45
904.101	10148.73
904.415	10165.45
904.729	10152.35
905.042	10082.52
905.356	10087.94
905.67	10052.01
905.984	10036.19
906.297	10037.55
906.611	9974.05
906.924	9947.38
907.237	9933.37
907.551	9794.16
907.864	9790.55
908.177	9844.78
908.491	9778.8
908.804	9699.02
909.117	9656.09
909.43	9734.5
909.743	9606.15
910.056	9573.83
910.368	9538.58
910.681	9488.18
910.994	9421.07
911.307	9404.8
911.619	9366.38
911.932	9425.36
912.244	9306.04
912.557	9293.16
912.869	9290.22
913.181	9225.59
913.494	9183.56
913.806	9117.12
914.118	9141.07
914.43	8986.73
914.742	9052.71
915.054	9044.58
915.366	8990.79
915.678	8977.46
915.99	8926.84
916.302	8878.71
916.613	8833.74
916.925	8781.99
917.236	8762.78
917.548	8774.3
917.859	8725.49
918.171	8574.53
918.482	8610.47
918.794	8553.07
919.105	8545.83
919.416	8444.37
919.727	8457.93
920.038	8415.44
920.349	8363.69
920.66	8391.04
920.971	8362.11
921.282	8354.2
921.593	8253.86
921.903	8266.52
922.214	8205.28
922.525	8170.7
922.835	8116.02
923.146	8099.07
923.456	8073.3
923.767	8112.4
924.077	8050.93
924.387	8030.14
924.697	8001.44
925.008	7924.38
925.318	7917.15
925.628	7823.59
925.938	7812.29
926.248	7805.97
926.558	7679.42
926.867	7725.52
927.177	7649.14
927.487	7659.3
927.796	7531.85
928.106	7575.69
928.416	7529.82
928.725	7445.3
929.034	7455.69
929.344	7510.16
929.653	7460.89
929.962	7378.18
930.271	7390.61
930.581	7315.81
930.89	7313.32
931.199	7263.61
931.508	7260.9
931.817	7226.32
932.125	7203.27
932.434	7148.81
932.743	7103.84
933.051	7128.7
933.36	7053.22
933.669	7081.24
933.977	6985.88
934.286	7011.41
934.594	7014.12
934.902	6921.02
935.21	6932.77
935.519	6881.7
935.827	6824.75
936.135	6862.26
936.443	6759.21
936.751	6787.24
937.059	6747.46
937.367	6726
937.674	6723.96
937.982	6704.75
938.29	6641.25
938.597	6647.13
938.905	6629.05
939.213	6537.07
939.52	6555.6
939.827	6581.82
940.135	6483.06
940.442	6508.15
940.749	6437.19
941.056	6525.1
941.363	6453.69
941.67	6397.19
941.977	6354.93
942.284	6300.7
942.591	6242.39
942.898	6229.74
943.205	6255.5
943.511	6235.61
943.818	6230.64
944.125	6184.31
944.431	6118.55
944.738	6134.6
945.044	6120.59
945.35	6063.87
945.657	6016.18
945.963	6003.53
946.269	5949.29
946.575	5947.48
946.881	5923.98
947.187	5884.89
947.493	5872.68
947.799	5867.26
948.105	5833.14
948.41	5804.66
948.716	5779.81
949.022	5734.61
949.327	5741.84
949.633	5694.61
949.938	5753.37
950.244	5675.18
950.549	5598.34
950.854	5570.09
951.16	5620.49
951.465	5582.75
951.77	5552.24
952.075	5530.09
952.38	5502.98
952.685	5507.95
952.99	5449.87
953.294	5429.76
953.599	5392.7
953.904	5325.13
954.209	5344.56
954.513	5356.31
954.818	5291.68
955.122	5267.28
955.426	5279.93
955.731	5245.81
956.035	5239.93
956.339	5186.83
956.643	5185.92
956.948	5133.95
957.252	5139.6
957.556	5136.21
957.86	5083.55
958.163	5043.55
958.467	5062.08
958.771	5017.57
959.075	4991.13
959.378	4931.24
959.682	4966.72
959.985	4924.46
960.289	4946.16
960.592	4919.94
960.896	4894.41
961.199	4833.84
961.502	4893.28
961.805	4861.19
962.108	4783.9
962.411	4771.02
962.714	4774.63
963.017	4706.61
963.32	4763.34
963.623	4696.9
963.926	4731.25
964.228	4670.91
964.531	4625.03
964.833	4650.8
965.136	4601.31
965.438	4637.46
965.741	4568.31
966.043	4554.08
966.345	4507.97
966.648	4552.72
966.95	4525.83
967.252	4474.53
967.554	4447.86
967.856	4429.33
968.158	4420.07
968.46	4430.69
968.761	4413.06
969.063	4378.26
969.365	4349.79
969.666	4325.15
969.968	4326.06
970.269	4296.68
970.571	4319.05
970.872	4298.26
971.174	4230.24
971.475	4197.7
971.776	4192.73
972.077	4175.33
972.378	4113.86
972.679	4198.83
972.98	4171.71
973.281	4067.31
973.582	4117.93
973.883	4112.28
974.183	4044.94
974.484	4040.19
974.785	4041.55
975.085	4015.11
975.386	4022.34
975.686	4015.78
975.986	3983.92
976.287	3973.75
976.587	3904.15
976.887	3890.59
977.187	3900.98
977.487	3868.44
977.787	3838.84
978.087	3845.39
978.387	3858.95
978.687	3800.2
978.987	3792.51
979.286	3770.37
979.586	3791.38
979.885	3752.06
980.185	3733.98
980.484	3706.19
980.784	3659.64
981.083	3651.27
981.382	3675
981.682	3625.51
981.981	3605.85
982.28	3614.21
982.579	3566.3
982.878	3585.06
983.177	3577.15
983.475	3607.21
983.774	3548.68
984.073	3513.88
984.372	3504.16
984.67	3505.74
984.969	3481.34
985.267	3471.62
985.566	3460.54
985.864	3440.21
986.162	3396.14
986.461	3388
986.759	3414.22
987.057	3364.5
987.355	3341
987.653	3362.47
987.951	3319.98
988.249	3325.18
988.547	3344.62
988.844	3266.88
989.142	3273.43
989.44	3260.78
989.737	3281.57
990.035	3239.76
990.332	3225.75
990.63	3196.14
990.927	3175.81
991.224	3184.85
991.521	3165.86
991.819	3177.61
992.116	3149.14
992.413	3103.94
992.71	3139.2
993.006	3085.64
993.303	3082.93
993.6	3076.37
993.897	3043.38
994.193	3013.78
994.49	2981.69
994.787	3003.61
995.083	2984.4
995.379	2969.03
995.676	2989.37
995.972	2959.09
996.268	2935.59
996.565	2908.02
996.861	2899.43
997.157	2876.15
997.453	2892.65
997.749	2814.46
998.044	2852.2
998.34	2879.77
998.636	2816.49
998.932	2809.71
999.227	2771.3
999.523	2767
999.818	2771.52
1000.114	2765.42
1000.409	2747.57
1000.704	2717.51
1001	2738.53
1001.295	2698.08
1001.59	2672.32
1001.885	2672.32
1002.18	2613.79
1002.475	2628.93
1002.77	2613.56
1003.065	2619.44
1003.359	2596.39
1003.654	2609.72
1003.949	2569.72
1004.243	2512.77
1004.538	2542.6
1004.832	2498.54
1005.127	2483.17
1005.421	2474.36
1005.715	2467.58
1006.009	2468.71
1006.304	2446.11
1006.598	2397.52
1006.892	2413.79
1007.186	2392.32
1007.48	2382.83
1007.773	2376.51
1008.067	2387.58
1008.361	2341.25
1008.655	2372.89
1008.948	2333.34
1009.242	2312.55
1009.535	2324.53
1009.829	2285.43
1010.122	2243.18
1010.415	2240.69
1010.708	2263.74
1011.001	2264.42
1011.295	2253.57
1011.588	2179.45
1011.881	2162.95
1012.173	2189.39
1012.466	2151.2
1012.759	2188.04
1013.052	2134.03
1013.344	2175.83
1013.637	2100.13
1013.93	2105.33
1014.222	2104.42
1014.514	2065.1
1014.807	2030.07
1015.099	2068.49
1015.391	2064.42
1015.683	2018.1
1015.976	2009.28
1016.268	1986.69
1016.56	1998.21
1016.851	1970.19
1017.143	1992.56
1017.435	1961.83
1017.727	1948.49
1018.018	1906.01
1018.31	1925.9
1018.602	1896.74
1018.893	1887.03
1019.185	1882.51
1019.476	1844.09
1019.767	1851.77
1020.058	1849.06
1020.35	1832.34
1020.641	1851.55
1020.932	1819.23
1021.223	1793.92
1021.514	1768.16
1021.804	1783.98
1022.095	1773.13
1022.386	1717.31
1022.677	1706.47
1022.967	1692.46
1023.258	1706.69
1023.548	1670.76
1023.839	1668.73
1024.129	1710.08
1024.419	1678.67
1024.709	1642.51
1025	1615.4
1025.29	1600.25
1025.58	1616.07
1025.87	1624.43
1026.16	1583.98
1026.449	1595.28
1026.739	1595.73
1027.029	1584.21
1027.319	1540.14
1027.608	1528.84
1027.898	1549.86
1028.187	1503.53
1028.477	1515.29
1028.766	1502.4
1029.055	1525
1029.344	1481.16
1029.634	1442.29
1029.923	1451.56
1030.212	1426.02
1030.501	1463.53
1030.79	1443.2
1031.078	1397.77
1031.367	1380.37
1031.656	1390.32
1031.945	1400.71
1032.233	1386.02
1032.522	1390.09
1032.81	1354.39
1033.099	1344.67
1033.387	1364.55
1033.675	1334.5
1033.963	1312.35
1034.251	1307.83
1034.54	1294.73
1034.828	1301.51
1035.116	1276.65
1035.403	1279.58
1035.691	1285.91
1035.979	1287.95
1036.267	1243.43
1036.554	1248.17
1036.842	1212.02
1037.129	1226.71
1037.417	1221.28
1037.704	1221.51
1037.992	1195.75
1038.279	1181.51
1038.566	1181.51
1038.853	1181.51
1039.14	1181.51
