Data from aluminium_macbook_case_FLMS001491_001.txt Node
Date: Tue Feb 07 10:43:06 GMT 2017
User: dcchb
Spectrometer: FLMS00149
Trigger mode: 0
Integration Time (sec): 2.000000E-2
Scans to average: 10
Electric dark correction enabled: true
Nonlinearity correction enabled: false
Boxcar width: 0
XAxis mode: Wavelengths
Number of Pixels in Spectrum: 2048
>>>>>Begin Spectral Data<<<<<
341.393	-37.05
341.776	-37.05
342.16	-37.05
342.543	-78.18
342.927	-63.26
343.31	-49.25
343.693	-72.98
344.077	-44.73
344.46	-57.16
344.843	-38.18
345.226	-28.69
345.61	-51.06
345.993	-22.13
346.376	-13.77
346.759	17.41
347.142	-7.9
347.525	26
347.908	47.47
348.291	59
348.674	118.2
349.057	117.75
349.44	119.56
349.823	124.98
350.206	156.17
350.588	251.31
350.971	261.48
351.354	284.98
351.737	293.11
352.119	293.79
352.502	308.93
352.884	336.73
353.267	350.51
353.65	326.79
354.032	360.68
354.414	362.04
354.797	360.91
355.179	378.31
355.562	405.43
355.944	381.7
356.326	369.72
356.709	402.94
357.091	407.01
357.473	414.01
357.855	419.21
358.238	394.81
358.62	402.94
359.002	423.51
359.384	394.81
359.766	427.8
360.148	409.95
360.53	441.58
360.912	421.92
361.294	437.97
361.676	410.85
362.057	417.63
362.439	416.5
362.821	423.05
363.203	406.78
363.584	423.28
363.966	405.2
364.348	417.4
364.729	426.44
365.111	418.08
365.493	402.04
365.874	422.38
366.256	422.38
366.637	430.51
367.019	431.64
367.4	429.83
367.781	426.9
368.163	437.74
368.544	410.17
368.925	426.67
369.306	442.26
369.688	430.06
370.069	451.75
370.45	437.97
370.831	467.35
371.212	466.22
371.593	448.14
371.974	456.73
372.355	429.38
372.736	477.74
373.117	480.23
373.498	483.17
373.879	463.05
374.26	465.76
374.641	451.08
375.021	444.07
375.402	484.97
375.783	499.89
376.163	530.85
376.544	514.8
376.925	516.61
377.305	508.93
377.686	517.74
378.066	528.14
378.447	524.29
378.827	526.55
379.208	549.15
379.588	554.8
379.968	562.71
380.349	555.03
380.729	545.54
381.109	542.82
381.489	566.55
381.87	565.2
382.25	592.54
382.63	594.12
383.01	584.63
383.39	620.79
383.77	606.1
384.15	580.11
384.53	611.75
384.91	637.06
385.29	634.8
385.67	661.69
386.049	638.64
386.429	655.36
386.809	672.31
387.189	666.66
387.568	696.04
387.948	688.36
388.328	695.82
388.707	713.89
389.087	717.28
389.466	725.19
389.846	749.37
390.225	740.33
390.605	754.12
390.984	760.45
391.363	779.88
391.743	756.15
392.122	789.15
392.501	807
392.881	808.81
393.26	839.31
393.639	810.16
394.018	831.18
394.397	851.07
394.776	846.09
395.155	862.82
395.534	845.87
395.913	881.12
396.292	907.11
396.671	931.97
397.05	903.95
397.429	915.02
397.808	919.09
398.186	927.45
398.565	939.42
398.944	935.36
399.323	955.92
399.701	988.91
400.08	990.27
400.458	969.48
400.837	996.37
401.215	1039.99
401.594	1030.72
401.972	1070.49
402.351	1074.34
402.729	1086.31
403.107	1087.44
403.486	1125.63
403.864	1113.21
404.242	1102.36
404.62	1141
404.999	1163.83
405.377	1178.74
405.755	1193.66
406.133	1202.24
406.511	1198.4
406.889	1218.74
407.267	1246.31
407.645	1281.56
408.023	1288.12
408.401	1308.91
408.779	1320.43
409.156	1347.78
409.534	1350.71
409.912	1380.32
410.29	1415.34
410.667	1425.74
411.045	1444.72
411.422	1477.94
411.8	1464.83
412.178	1514.1
412.555	1527.43
412.933	1551.39
413.31	1559.07
413.687	1590.71
414.065	1632.06
414.442	1627.32
414.819	1646.52
415.197	1685.39
415.574	1728.33
415.951	1733.08
416.328	1748.22
416.705	1745.05
417.082	1773.75
417.46	1794.54
417.837	1802.45
418.214	1832.28
418.591	1863.02
418.967	1898.95
419.344	1880.64
419.721	1921.32
420.098	1932.62
420.475	1954.31
420.852	1971.94
421.228	2027.53
421.605	2060.52
421.982	2081.54
422.358	2102.56
422.735	2100.07
423.111	2089.9
423.488	2185.49
423.864	2183.91
424.241	2180.3
424.617	2212.16
424.994	2239.73
425.37	2290.8
425.746	2299.61
426.123	2349.1
426.499	2354.3
426.875	2403.57
427.251	2452.38
427.627	2472.04
428.003	2478.82
428.379	2554.98
428.756	2566.5
429.132	2588.19
429.507	2667.74
429.883	2684.46
430.259	2758.81
430.635	2750.45
431.011	2766.5
431.387	2869.54
431.763	2854.63
432.138	2945.93
432.514	2964.68
432.89	2994.51
433.265	3071.57
433.641	3098.69
434.016	3117.22
434.392	3159.03
434.767	3260.04
435.143	3235.86
435.518	3272.24
435.894	3330.55
436.269	3392.92
436.644	3425.23
437.02	3476.76
437.395	3461.84
437.77	3519.92
438.145	3596.08
438.52	3633.36
438.895	3677.88
439.271	3704.78
439.646	3777.77
440.021	3825.9
440.395	3853.25
440.77	3853.47
441.145	3918.1
441.52	3941.38
441.895	3961.49
442.27	3981.38
442.645	4018.89
443.019	4057.08
443.394	4096.18
443.769	4091.66
444.143	4104.09
444.518	4224.08
444.892	4214.14
445.267	4182.05
445.641	4288.71
446.016	4299.11
446.39	4334.59
446.764	4391.31
447.139	4369.16
447.513	4467.24
447.887	4468.6
448.262	4487.58
448.636	4510.63
449.01	4625.88
449.384	4640.12
449.758	4706.56
450.132	4778.42
450.506	4815.48
450.88	4864.97
451.254	4815.25
451.628	4910.85
452.002	4956.95
452.376	5026.1
452.75	5065.87
453.123	5113.33
453.497	5188.13
453.871	5223.61
454.244	5320.33
454.618	5388.35
454.992	5453.66
455.365	5510.6
455.739	5631.5
456.112	5684.16
456.486	5737.04
456.859	5764.16
457.232	5912.4
457.606	5926.64
457.979	5995.34
458.352	6171.6
458.725	6255.44
459.099	6248.44
459.472	6448.21
459.845	6496.34
460.218	6529.11
460.591	6573.85
460.964	6616.56
461.337	6784.24
461.71	6926.39
462.083	6987.18
462.456	7028.3
462.829	7056.33
463.201	7181.07
463.574	7147.62
463.947	7292.25
464.32	7527.27
464.692	7501.06
465.065	7619.7
465.438	7769.98
465.81	7879.58
466.183	7956.42
466.555	8196.86
466.928	8178.78
467.3	8226.46
467.672	8409.51
468.045	8568.15
468.417	8663.06
468.789	8650.86
469.161	8837.07
469.534	8981.02
469.906	9175.14
470.278	9250.62
470.65	9338.3
471.022	9575.36
471.394	9727.44
471.766	9775.8
472.138	9921.34
472.51	10124.72
472.882	10234.55
473.253	10369.01
473.625	10542.34
473.997	10729.68
474.369	10796.79
474.74	10968.77
475.112	11198.59
475.484	11427.96
475.855	11614.17
476.227	11664.79
476.598	12066.36
476.97	12151.33
477.341	12499.35
477.713	12758.55
478.084	12762.39
478.455	13173.68
478.827	13295.48
479.198	13634.91
479.569	13757.62
479.94	14156.7
480.311	14220.21
480.682	14665.62
481.053	14935.44
481.424	15128.66
481.795	15309.22
482.166	15511.02
482.537	15675.99
482.908	16032.13
483.279	16158.69
483.65	16543.76
484.021	16830.98
484.391	17016.52
484.762	17094.25
485.133	17217.64
485.503	17573.79
485.874	18021.69
486.244	18132.64
486.615	18473.88
486.985	18865.28
487.356	19184.59
487.726	19415.77
488.097	19849.44
488.467	19895.31
488.837	20322.87
489.207	20633.37
489.578	20844.44
489.948	21088.5
490.318	21416.4
490.688	21515.15
491.058	21802.38
491.428	22121.69
491.798	22297.51
492.168	22771.39
492.538	22829.92
492.908	23050.93
493.278	23399.17
493.648	23389.91
494.017	23685.95
494.387	23956.45
494.757	24184.69
495.126	24396.21
495.496	24524.57
495.866	24610.67
496.235	24885.69
496.605	25255.4
496.974	25316.64
497.344	25671.2
497.713	25810.18
498.082	26061.02
498.452	26323.39
498.821	26569.03
499.19	26612.65
499.559	26880.21
499.928	27203.59
500.298	27349.58
500.667	27670.92
501.036	27675.9
501.405	27979.17
501.774	28118.82
502.143	28342.09
502.512	28469.55
502.88	28647.4
503.249	28747.73
503.618	28966.71
503.987	29012.58
504.356	29227.04
504.724	29442.63
505.093	29495.51
505.462	29699.8
505.83	29860.92
506.199	30141.37
506.567	30627.68
506.936	30389.05
507.304	30886.43
507.672	31161.45
508.041	31217.05
508.409	31546.76
508.777	31807.54
509.145	32122.79
509.514	32093.86
509.882	32508.31
510.25	32673.73
510.618	32832.82
510.986	33033.72
511.354	33406.59
511.722	33771.1
512.09	34172.9
512.458	33954.38
512.826	34406.57
513.193	34490.41
513.561	34756.84
513.929	35089.26
514.297	35293.78
514.664	35551.4
515.032	35619.87
515.4	36075
515.767	36167.88
516.135	36397.48
516.502	36144.83
516.869	36870.01
517.237	36878.37
517.604	36843.34
517.972	37499.59
518.339	37576.65
518.706	37644.45
519.073	37903.65
519.44	38316.29
519.808	38659.11
520.175	38676.96
520.542	39334.35
520.909	39475.81
521.276	39555.13
521.643	40136.81
522.009	40453.19
522.376	40783.57
522.743	41059.95
523.11	41422.43
523.477	41952.81
523.843	42031.68
524.21	42410.2
524.577	42715.28
524.943	42971.99
525.31	43201.82
525.676	43524.75
526.043	43839.54
526.409	44070.04
526.776	44382.12
527.142	44502.12
527.508	44901.43
527.874	45138.49
528.241	45255.1
528.607	45525.14
528.973	45811.01
529.339	45707.96
529.705	46191.79
530.071	46423.2
530.437	46512.92
530.803	46701.16
531.169	46897.76
531.535	47043.07
531.901	47289.84
532.267	47415.26
532.632	47702.49
532.998	47652.55
533.364	48106.77
533.73	48316.71
534.095	48748.56
534.461	48666.53
534.826	49029.01
535.192	49138.38
535.557	49644.81
535.923	49505.15
536.288	49852.49
536.653	50026.5
537.019	49923.45
537.384	50148.53
537.749	50312.14
538.114	50428.07
538.479	50542.19
538.845	50666.93
539.21	50699.47
539.575	50936.3
539.94	51029.63
540.305	51133.81
540.67	51188.95
541.034	51199.57
541.399	51402.73
541.764	51496.29
542.129	51466.46
542.494	51630.75
542.858	51729.05
543.223	51712.1
543.587	51920.91
543.952	51943.06
544.316	52011.53
544.681	51984.64
545.045	52268.02
545.41	52448.13
545.774	52458.52
546.138	52559.99
546.503	52752.3
546.867	52811.96
547.231	53067.55
547.595	53073.65
547.959	53269.12
548.324	53302.34
548.688	53423.02
549.052	53601.09
549.416	53691.48
549.779	53858.26
550.143	53842.67
550.507	54116.56
550.871	54246.5
551.235	54266.61
551.599	54522.65
551.962	54614.17
552.326	54682.42
552.689	54836.31
553.053	54769.87
553.417	54751.34
553.78	55103.2
554.143	55051
554.507	55196.98
554.87	55226.81
555.234	55487.59
555.597	55307.26
555.96	55449.86
556.323	55549.74
556.686	55479.01
557.05	55777.08
557.413	55741.6
557.776	55846.91
558.139	56058.65
558.502	56051.42
558.865	56142.94
559.228	56383.39
559.59	56452.77
559.953	56492.54
560.316	56792.87
560.679	56907.67
561.041	57041.68
561.404	57172.75
561.767	57369.35
562.129	57216.36
562.492	57559.86
562.854	57532.51
563.217	57645.73
563.579	57800.3
563.941	57913.07
564.304	58035.1
564.666	58236.9
565.028	58277.58
565.39	58348.31
565.753	58563.22
566.115	58692.48
566.477	58704.01
566.839	58735.87
567.201	58931.35
567.563	59018.35
567.925	59122.53
568.287	59155.29
568.648	59187.61
569.01	59274.61
569.372	59453.82
569.734	59347.15
570.095	59499.47
570.457	59574.04
570.819	59605.9
571.18	59553.93
571.542	59731.55
571.903	59729.74
572.265	59830.76
572.626	59892.45
572.987	59862.39
573.349	59943.52
573.71	60046.12
574.071	60137.42
574.432	60258.09
574.794	60405.43
575.155	60371.31
575.516	60302.16
575.877	60417.86
576.238	60461.25
576.599	60602.71
576.96	60640.23
577.32	60704.86
577.681	60806.78
578.042	60802.48
578.403	60863.27
578.763	60994.12
579.124	60947.11
579.485	61023.95
579.845	61134
580.206	61117.96
580.566	61106.43
580.927	61165.41
581.287	61301
581.648	61154.79
582.008	61308.23
582.368	61275.47
582.728	61317.05
583.089	61282.02
583.449	61253.54
583.809	61246.77
584.169	61285.41
584.529	61214
584.889	61312.98
585.249	61200.89
585.609	61066.88
585.969	61275.47
586.329	61118.41
586.688	61126.09
587.048	61139.88
587.408	61104.85
587.768	61132.42
588.127	60996.6
588.487	61025.75
588.846	61181.68
589.206	61004.29
589.565	61086.09
589.925	61148.01
590.284	61087.22
590.643	61183.72
591.003	61235.69
591.362	61320.89
591.721	61274.34
592.08	61278.85
592.44	61427.55
592.799	61401.79
593.158	61331.96
593.517	61387.78
593.876	61451.73
594.235	61369.25
594.593	61477.49
594.952	61497.83
595.311	61478.4
595.67	61566.98
596.029	61681.33
596.387	61688.11
596.746	61706.64
597.104	61555.68
597.463	61529.7
597.822	61691.05
598.18	61618.73
598.538	61578.28
598.897	61736.92
599.255	61551.16
599.613	61846.98
599.972	61651.27
600.33	61706.19
600.688	61618.96
601.046	61710.03
601.404	61681.78
601.762	61697.83
602.12	61785.96
602.478	61708.22
602.836	61738.28
603.194	61666.64
603.552	61637.49
603.91	61592.29
604.268	61580.54
604.625	61575.12
604.983	61684.95
605.341	61624.16
605.698	61754.77
606.056	61742.12
606.413	61703.7
606.771	61771.5
607.128	61809.91
607.485	61820.76
607.843	61812.63
608.2	61954.32
608.557	62020.98
608.914	61921.78
609.272	62126.97
609.629	62196.34
609.986	62219.62
610.343	62136.69
610.7	62348.66
611.057	62273.4
611.414	62296.23
611.771	62315.44
612.127	62414.64
612.484	62419.39
612.841	62508.43
613.198	62480.18
613.554	62428.66
613.911	62613.51
614.267	62550.01
614.624	62509.33
614.98	62504.36
615.337	62677.01
615.693	62625.03
616.05	62547.07
616.406	62729.44
616.762	62589.1
617.118	62588.42
617.475	62536.45
617.831	62572.61
618.187	62498.26
618.543	62615.54
618.899	62663
619.255	62587.07
619.611	62556.56
619.967	62642.43
620.323	62720.62
620.678	62534.64
621.034	62531.03
621.39	62493.29
621.746	62524.02
622.101	62651.02
622.457	62510.91
622.812	62574.64
623.168	62634.53
623.523	62629.55
623.879	62688.99
624.234	62511.59
624.589	62647.86
624.945	62621.64
625.3	62720.4
625.655	62726.05
626.01	62667.29
626.365	62759.27
626.72	62711.81
627.075	62664.58
627.43	62720.17
627.785	62660.06
628.14	62739.16
628.495	62748.19
628.85	62699.38
629.205	62691.93
629.559	62855.31
629.914	62726.5
630.269	62743.9
630.623	62652.6
630.978	62615.32
631.332	62707.52
631.687	62767.4
632.041	62663.45
632.396	62711.59
632.75	62538.71
633.104	62587.97
633.459	62418.03
633.813	62414.42
634.167	62376.91
634.521	62328.77
634.875	62390.01
635.229	62339.62
635.583	62193.63
635.937	62186.18
636.291	62206.06
636.645	62135.56
636.999	62084.26
637.352	62047.87
637.706	61904.6
638.06	61981.89
638.413	61882.23
638.767	61804.26
639.121	61928.33
639.474	61685.85
639.828	61726.75
640.181	61717.04
640.534	61623.93
640.888	61613.54
641.241	61502.13
641.594	61505.52
641.947	61635.23
642.301	61563.59
642.654	61598.17
643.007	61517.49
643.36	61535.8
643.713	61557.94
644.066	61624.16
644.419	61434.33
644.771	61308.68
645.124	61160.21
645.477	61058.52
645.83	60932.65
646.182	60797.96
646.535	60785.08
646.888	60794.8
647.24	60692.66
647.593	60871.63
647.945	60770.85
648.298	60670.28
648.65	60632.09
649.002	60608.14
649.355	60710.96
649.707	60656.27
650.059	60748.02
650.411	61024.62
650.763	60993.21
651.115	61211.96
651.467	61121.34
651.819	61062.59
652.171	61042.48
652.523	60943.04
652.875	60887.9
653.227	60793.9
653.578	61017.39
653.93	60907.34
654.282	60795.03
654.633	60675.71
654.985	60723.62
655.337	60753.67
655.688	60721.81
656.039	60729.26
656.391	60414.02
656.742	60470.51
657.094	60528.37
657.445	60550.74
657.796	60376.73
658.147	60429.84
658.498	60355.49
658.849	60473
659.2	60360.69
659.551	60287.69
659.902	60338.99
660.253	60260.12
660.604	60315.26
660.955	60192.1
661.306	60217.19
661.656	60233.68
662.007	60180.58
662.358	60206.57
662.708	60252.89
663.059	60263.29
663.409	60123.41
663.76	60271.42
664.11	60253.8
664.461	60265.77
664.811	60232.1
665.161	60285.89
665.511	60212.22
665.862	60286.56
666.212	60313.68
666.562	60317.75
666.912	60296.06
667.262	60268.94
667.612	60250.18
667.962	60301.71
668.312	60188.94
668.662	60367.47
669.011	60191.65
669.361	60252.89
669.711	60210.86
670.06	60211.76
670.41	60071.2
670.76	60080.47
671.109	60166.79
671.459	60134.7
671.808	60024.88
672.157	60084.08
672.507	59856.75
672.856	59880.25
673.205	59937.42
673.554	59941.94
673.904	59889.51
674.253	60015.61
674.602	59878.89
674.951	59471.22
675.3	59389.64
675.649	59681.61
675.998	59650.2
676.346	59650.42
676.695	59702.85
677.044	59473.7
677.393	59550.99
677.741	59541.95
678.09	59467.6
678.438	59391.9
678.787	59421.73
679.135	59366.59
679.484	59216.76
679.832	59230.77
680.181	59113.26
680.529	59181.06
680.877	59043.89
681.225	59049.31
681.573	59164.11
681.922	59090.21
682.27	58984.23
682.618	58938.13
682.966	58936.54
683.314	59016.77
683.661	58867.84
684.009	58853.38
684.357	58793.27
684.705	58828.75
685.053	58799.6
685.4	58755.31
685.748	58651.13
686.095	58595.31
686.443	58543.33
686.79	58514.18
687.138	58564.8
687.485	58549.44
687.832	58475.31
688.18	58500.85
688.527	58369.1
688.874	58416.56
689.221	58297.24
689.568	58284.13
689.915	58161.42
690.262	58206.62
690.609	58043.46
690.956	58033.97
691.303	57983.12
691.65	57877.14
691.997	57904.93
692.344	57783.81
692.69	57647.54
693.037	57618.61
693.383	57454.1
693.73	57513.76
694.077	57405.74
694.423	57398.05
694.769	57286.19
695.116	57138.4
695.462	57057.27
695.808	56946.31
696.155	57023.83
696.501	56811.4
696.847	56781.8
697.193	56608.02
697.539	56673.33
697.885	56427.01
698.231	56351.98
698.577	56351.3
698.923	56187.92
699.269	56053
699.614	55968.26
699.96	55894.82
700.306	55824.76
700.651	55652.34
700.997	55578.67
701.342	55587.48
701.688	55544.99
702.033	55382.74
702.379	55388.84
702.724	55288.5
703.069	55343.87
703.415	55042.86
703.76	55039.02
704.105	55013.93
704.45	54892.36
704.795	54752.7
705.14	54640.39
705.485	54675.86
705.83	54566.26
706.175	54673.38
706.52	54456.21
706.865	54345.25
707.209	54421.63
707.554	54288.3
707.899	54475.19
708.243	54268.19
708.588	54267.51
708.932	54063.45
709.277	53982.78
709.621	54068.65
709.966	53881.08
710.31	53954.3
710.654	53568.55
710.998	53746.85
711.342	53774.19
711.687	53720.86
712.031	53535.1
712.375	53519.96
712.719	53564.71
713.063	53432.51
713.407	53617.14
713.75	53343.47
714.094	53418.5
714.438	53138.73
714.782	53256.24
715.125	53033.65
715.469	53116.36
715.812	52937.38
716.156	52794.78
716.499	52844.05
716.843	52741.68
717.186	52541.23
717.53	52645.41
717.873	52570.61
718.216	52403.61
718.559	52273.67
718.902	51981.02
719.246	52085.65
719.589	52009.04
719.932	51878.42
720.275	51863.06
720.617	51759.78
720.96	51728.15
721.303	51606.79
721.646	51568.6
721.989	51401.15
722.331	51414.48
722.674	51279.12
723.016	51205.9
723.359	51142.17
723.701	51106.01
724.044	50847.04
724.386	50705.35
724.729	50814.72
725.071	50737.21
725.413	50591.68
725.755	50535.18
726.097	50514.39
726.439	50260.84
726.782	50317.79
727.124	50462.87
727.465	50137.68
727.807	50115.76
728.149	50096.32
728.491	50075.53
728.833	50079.38
729.175	49967.74
729.516	49857.69
729.858	49911.92
730.199	49908.76
730.541	49717.8
730.882	49845.48
731.224	49780.63
731.565	49516.23
731.906	49618.6
732.248	49598.26
732.589	49348.55
732.93	49416.12
733.271	49456.79
733.612	49541.99
733.953	49494.53
734.294	49235.56
734.635	49292.96
734.976	49284.59
735.317	49218.83
735.658	49193.52
735.999	49260.19
736.339	49125.05
736.68	49237.14
737.021	49070.14
737.361	48838.5
737.702	49021.1
738.042	48859.29
738.383	48773.19
738.723	48906.3
739.063	48723.48
739.404	48779.52
739.744	48607.55
740.084	48418.85
740.424	48489.36
740.764	48182.02
741.104	48398.52
741.444	48009.15
741.784	48032.65
742.124	47876.95
742.464	47795.82
742.804	47697.07
743.143	47716.95
743.483	47619.33
743.823	47395.38
744.162	47376.85
744.502	47396.28
744.841	47113.13
745.181	47199.45
745.52	47034.71
745.86	46947.03
746.199	46685.11
746.538	46740.93
746.877	46756.07
747.216	46648.51
747.556	46410.32
747.895	46516.53
748.234	46307.5
748.573	46069.54
748.911	46173.26
749.25	46040.39
749.589	45823.67
749.928	45819.15
750.267	45928.75
750.605	45599.95
750.944	45692.37
751.283	45346.17
751.621	45551.36
751.96	45206.96
752.298	45081.77
752.636	45324.47
752.975	44941.88
753.313	44735.56
753.651	45073.41
753.989	44707.31
754.327	44656.47
754.666	44487.21
755.004	44562.91
755.342	44554.55
755.679	44413.31
756.017	44343.48
756.355	44413.76
756.693	44132.41
757.031	44328.11
757.368	43897.62
757.706	43940.33
758.044	43666.89
758.381	43833.44
758.719	43804.29
759.056	43677.96
759.394	43449.95
759.731	43354.58
760.068	43168.82
760.405	43115.72
760.743	43009.28
761.08	43175.83
761.417	42867.36
761.754	42740.81
762.091	42689.29
762.428	42463.98
762.765	42349.64
763.102	42477.54
763.438	42302.63
763.775	42158.91
764.112	42226.25
764.449	42262.18
764.785	41912.36
765.122	41628.52
765.458	41624.91
765.795	41562.99
766.131	41269.21
766.467	41137.01
766.804	40976.11
767.14	40788.32
767.476	40747.42
767.812	40494.77
768.148	40689.34
768.485	40464.49
768.821	40070.82
769.157	39909.25
769.492	39808.23
769.828	39840.77
770.164	39347.23
770.5	39301.58
770.836	39323.95
771.171	38961.48
771.507	38889.61
771.842	38616.85
772.178	38441.04
772.513	38404.88
772.849	38224.77
773.184	38079.24
773.519	37922.41
773.855	37792.01
774.19	37548.41
774.525	37516.54
774.86	37290.56
775.195	37209.21
775.53	37017.12
775.865	36720.18
776.2	36520.41
776.535	36408.32
776.87	36331.49
777.205	36255.11
777.539	36036.13
777.874	36078.84
778.209	35798.85
778.543	35667.32
778.878	35543.49
779.212	35568.34
779.547	35216.72
779.881	35233.89
780.215	35028.25
780.55	35159.77
780.884	34748.03
781.218	34771.98
781.552	34788.7
781.886	34536.28
782.22	34382.84
782.554	34415.38
782.888	33909.86
783.222	33829.41
783.556	33688.85
783.889	33642.29
784.223	33550.54
784.557	33573.14
784.89	33622.18
785.224	33399.14
785.557	33264.68
785.891	33146.04
786.224	33105.58
786.558	33028.07
786.891	32816.55
787.224	32667.4
787.557	32579.72
787.891	32627.63
788.224	32504.24
788.557	32550.34
788.89	32372.72
789.223	32321.42
789.556	32032.39
789.888	32089.79
790.221	31865.62
790.554	31735.22
790.887	31697.71
791.219	31601.22
791.552	31432.18
791.884	31315.57
792.217	31364.61
792.549	31118.97
792.882	30903.61
793.214	30959.65
793.546	30952.42
793.879	30742.26
794.211	30529.15
794.543	30580.45
794.875	30390.4
795.207	30455.03
795.539	30243.96
795.871	30208.26
796.203	29958.32
796.535	29762.4
796.867	29679.01
797.198	29692.57
797.53	29629.07
797.862	29373.71
798.193	29276.08
798.525	29195.86
798.856	29102.98
799.188	28815.08
799.519	28738.24
799.85	28630.45
800.182	28590.45
800.513	28615.98
800.844	28269.55
801.175	28406.72
801.506	28256.9
801.837	28095.32
802.168	27924.25
802.499	27804.71
802.83	27689.23
803.161	27468.9
803.491	27486.98
803.822	27502.12
804.153	27323.36
804.483	27168.79
804.814	27068.45
805.145	27107.55
805.475	26991.39
805.805	26980.1
806.136	26925.18
806.466	26802.25
806.796	26773.1
807.126	26485.65
807.457	26504.85
807.787	26522.25
808.117	26341.47
808.447	26257.85
808.777	26190.96
809.107	26096.5
809.436	26098.76
809.766	25963.63
810.096	25859.67
810.426	25774.25
810.755	25817.41
811.085	25752.33
811.414	25721.6
811.744	25457.2
812.073	25568.16
812.403	25474.6
812.732	25372.91
813.061	25331.78
813.39	25185.79
813.719	25174.49
814.049	25379.01
814.378	25189.41
814.707	25172.46
815.036	25016.98
815.365	25052.69
815.693	24856.31
816.022	24875.52
816.351	24775.63
816.68	24599.37
817.008	24780.15
817.337	24576.32
817.665	24549.65
817.994	24609.54
818.322	24501.06
818.651	24395.76
818.979	24271.24
819.307	24435.98
819.636	24428.75
819.964	24286.83
820.292	24311.01
820.62	24262.2
820.948	24290.67
821.276	24370.9
821.604	24338.13
821.932	24398.47
822.259	24349.43
822.587	24194.63
822.915	24110.57
823.243	24314.18
823.57	24221.98
823.898	24229.43
824.225	24096.78
824.553	24002.77
824.88	24127.52
825.207	24252.48
825.535	24061.75
825.862	24168.42
826.189	24169.32
826.516	24179.04
826.843	24193.5
827.17	24082.54
827.497	24127.29
827.824	24120.96
828.151	24123.67
828.478	24142.66
828.805	24197.12
829.131	23865.15
829.458	23980.4
829.785	23890.91
830.111	23862.21
830.438	23949.89
830.764	23889.1
831.09	23917.8
831.417	23802.55
831.743	23885.71
832.069	23791.93
832.395	23680.75
832.722	23720.97
833.048	23725.49
833.374	23704.93
833.7	23445.27
834.026	23562.33
834.351	23531.37
834.677	23525.27
835.003	23439.4
835.329	23394.88
835.654	23332.51
835.98	23292.96
836.306	23260.19
836.631	23219.06
836.956	23339.06
837.282	23320.53
837.607	23155.11
837.932	23090.25
838.258	22970.94
838.583	23008.45
838.908	22998.73
839.233	22877.6
839.558	22765.52
839.883	22770.94
840.208	22647.33
840.533	22715.8
840.858	22663.15
841.182	22669.02
841.507	22626.54
841.832	22471.97
842.156	22514.9
842.481	22502.7
842.805	22453.66
843.13	22485.07
843.454	22405.07
843.778	22307.9
844.103	22198.07
844.427	22215.93
844.751	22237.17
845.075	22299.99
845.399	22210.96
845.723	22072.65
846.047	22116.49
846.371	21904.52
846.695	21875.15
847.019	21891.64
847.343	21752.66
847.666	21533.23
847.99	21605.32
848.313	21561.26
848.637	21395.16
848.96	21502.05
849.284	21491.65
849.607	21277.87
849.931	21244.65
850.254	21071.78
850.577	20973.7
850.9	20792.24
851.223	20784.33
851.546	20614.61
851.869	20729.86
852.192	20699.13
852.515	20557.89
852.838	20504.11
853.161	20487.84
853.483	20407.84
853.806	20336.88
854.129	20413.49
854.451	20214.4
854.774	20216.43
855.096	20234.96
855.419	20174.4
855.741	20017.11
856.063	19956.1
856.385	19996.55
856.708	19784.8
857.03	19723.79
857.352	19677.01
857.674	19648.54
857.996	19578.03
858.318	19408.54
858.64	19525.38
858.961	19413.06
859.283	19308.88
859.605	19314.31
859.926	19330.58
860.248	19205.84
860.57	19108.89
860.891	19123.35
861.212	19086.97
861.534	18956.13
861.855	18909.8
862.176	18850.82
862.498	18899.4
862.819	18773.53
863.14	18832.29
863.461	18662.12
863.782	18588.68
864.103	18680.43
864.424	18510.49
864.745	18502.13
865.065	18433.88
865.386	18435.46
865.707	18443.82
866.027	18505.06
866.348	18292.41
866.668	18304.84
866.989	18232.76
867.309	18075.7
867.63	18154.57
867.95	18060.56
868.27	17965.42
868.59	18109.14
868.91	17993.21
869.23	17926.32
869.55	17791.64
869.87	17969.26
870.19	17901.24
870.51	17887.23
870.83	17819.88
871.15	17756.61
871.469	17755.03
871.789	17680.91
872.109	17677.74
872.428	17617.4
872.748	17663.05
873.067	17628.48
873.386	17622.15
873.706	17555.71
874.025	17468.03
874.344	17491.98
874.663	17564.3
874.982	17402.72
875.301	17492.66
875.62	17365.89
875.939	17343.96
876.258	17395.26
876.577	17312.1
876.896	17466.9
877.214	17312.55
877.533	17374.47
877.852	17283.18
878.17	17384.64
878.489	17348.71
878.807	17383.06
879.125	17249.73
879.444	17215.38
879.762	17188.26
880.08	17170.86
880.398	17164.76
880.716	17134.03
881.034	17084.99
881.352	17114.37
881.67	17077.31
881.988	17199.11
882.306	17043.18
882.624	17025.78
882.941	16944.88
883.259	16856.97
883.577	16896.07
883.894	16858.55
884.212	16793.47
884.529	16861.72
884.846	16773.36
885.164	16864.2
885.481	16735.17
885.798	16758.67
886.115	16705.11
886.432	16728.39
886.75	16657.88
887.067	16671.21
887.383	16630.31
887.7	16586.02
888.017	16590.09
888.334	16556.87
888.651	16537.43
888.967	16581.73
889.284	16386.02
889.6	16360.49
889.917	16233.71
890.233	16294.05
890.55	16173.37
890.866	16230.77
891.182	16305.12
891.498	16184.67
891.815	16069.65
892.131	16008.63
892.447	16047.28
892.763	15922.31
893.079	15968.63
893.395	15757.11
893.71	15842.99
894.026	15797.34
894.342	15700.62
894.657	15576.33
894.973	15654.29
895.289	15486.61
895.604	15502.43
895.92	15431.92
896.235	15315.54
896.55	15349.22
896.865	15197.13
897.181	15293.62
897.496	15267.64
897.811	15084.82
898.126	15083.01
898.441	14974.76
898.756	14963.69
899.071	14919.17
899.386	14953.52
899.7	14699.97
900.015	14778.38
900.33	14531.84
900.644	14560.08
900.959	14575.68
901.273	14453.65
901.588	14449.58
901.902	14290.71
902.216	14282.58
902.531	14244.61
902.845	14174.78
903.159	14201.67
903.473	14135.46
903.787	14041.23
904.101	13991.96
904.415	14005.07
904.729	13880.78
905.042	13736.83
905.356	13725.98
905.67	13787.9
905.984	13716.72
906.297	13652.76
906.611	13589.71
906.924	13521.47
907.237	13524.86
907.551	13457.29
907.864	13333.45
908.177	13358.08
908.491	13267.46
908.804	13126.45
909.117	13128.71
909.43	13049.61
909.743	12957.87
910.056	12973.91
910.368	12886.45
910.681	12811.88
910.994	12747.48
911.307	12847.13
911.619	12652.11
911.932	12744.09
912.244	12636.97
912.557	12664.99
912.869	12541.15
913.181	12508.84
913.494	12509.06
913.806	12406.24
914.118	12410.31
914.43	12365.11
914.742	12330.31
915.054	12260.71
915.366	12141.39
915.678	12098.45
915.99	12142.52
916.302	11954.73
916.613	12001.28
916.925	11987.95
917.236	11895.52
917.548	11932.13
917.859	11966.03
918.171	11778.01
918.482	11700.5
918.794	11789.08
919.105	11824.56
919.416	11677.45
919.727	11589.09
920.038	11663.89
920.349	11505.02
920.66	11449.2
920.971	11413.73
921.282	11465.93
921.593	11371.69
921.903	11310.23
922.214	11262.32
922.525	11223
922.835	11185.26
923.146	11206.73
923.456	11169.66
923.767	11110
924.077	11031.36
924.387	11011.93
924.697	10963.34
925.008	10911.59
925.318	10901.42
925.628	10900.97
925.938	10865.04
926.248	10758.83
926.558	10729.68
926.867	10734.2
927.177	10635.21
927.487	10576.46
927.796	10576.01
928.106	10514.54
928.416	10492.85
928.725	10540.98
929.034	10366.75
929.344	10422.11
929.653	10389.35
929.962	10274.32
930.271	10258.95
930.581	10151.16
930.89	10143.7
931.199	10052.86
931.508	10077.94
931.817	10074.55
932.125	10018.73
932.434	9984.61
932.743	9886.08
933.051	9800.43
933.36	9813.32
933.669	9739.87
933.977	9681.12
934.286	9699.42
934.594	9652.87
934.902	9559.76
935.21	9568.35
935.519	9500.33
935.827	9418.3
936.135	9356.6
936.443	9310.5
936.751	9215.59
937.059	9204.07
937.367	9181.02
937.674	9171.07
937.982	9143.95
938.29	9027.35
938.597	9056.73
938.905	8948.03
939.213	8905.09
939.52	8824.41
939.827	8866.45
940.135	8789.16
940.442	8783.06
940.749	8764.76
941.056	8730.41
941.363	8632.56
941.67	8585.1
941.977	8546.91
942.284	8444.99
942.591	8512.56
942.898	8446.35
943.205	8384.65
943.511	8417.42
943.818	8291.77
944.125	8291.32
944.431	8182.85
944.738	8259.01
945.044	8210.19
945.35	8166.35
945.657	8043.64
945.963	8032.35
946.269	8014.94
946.575	7960.03
946.881	7931.11
947.187	7934.72
947.493	7882.97
947.799	7855.4
948.105	7794.84
948.41	7741.28
948.716	7750.54
949.022	7694.95
949.327	7671.68
949.633	7637.33
949.938	7602.53
950.244	7585.35
950.549	7497.44
950.854	7430.78
951.16	7376.32
951.465	7407.73
951.77	7365.24
952.075	7344.91
952.38	7305.13
952.685	7296.09
952.99	7188.75
953.294	7264.68
953.599	7146.27
953.904	7136.55
954.209	7159.15
954.513	7058.81
954.818	7038.02
955.122	7081.86
955.426	7040.96
955.731	6981.3
956.035	6976.33
956.339	6941.3
956.643	6926.84
956.948	6875.99
957.252	6862.66
957.556	6896.33
957.86	6836.9
958.163	6839.61
958.467	6785.15
958.771	6765.03
959.075	6719.61
959.378	6618.82
959.682	6626.28
959.985	6619.05
960.289	6585.15
960.592	6548.09
960.896	6564.81
961.199	6540.86
961.502	6528.88
961.805	6480.97
962.108	6486.62
962.411	6426.96
962.714	6373.18
963.017	6390.35
963.32	6442.33
963.623	6369.34
963.926	6305.61
964.228	6278.72
964.531	6315.33
964.833	6266.29
965.136	6175.9
965.438	6165.05
965.741	6205.05
966.043	6177.25
966.345	6144.71
966.648	6121.89
966.95	6061.32
967.252	6054.32
967.554	5981.1
967.856	6040.76
968.158	5963.7
968.46	5971.38
968.761	5930.93
969.063	5938.84
969.365	5870.59
969.666	5869.46
969.968	5826.08
970.269	5793.76
970.571	5762.57
970.872	5784.95
971.174	5706.08
971.475	5741.11
971.776	5649.13
972.077	5668.11
972.378	5646.42
972.679	5625.85
972.98	5586.53
973.281	5565.74
973.582	5542.47
973.883	5566.65
974.183	5505.86
974.484	5471.51
974.785	5420.89
975.085	5382.92
975.386	5408.91
975.686	5360.55
975.986	5301.34
976.287	5317.61
976.587	5233.32
976.887	5247.56
977.187	5225.19
977.487	5154.45
977.787	5151.29
978.087	5138.41
978.387	5104.06
978.687	5088.92
978.987	5085.53
979.286	5060.67
979.586	5054.8
979.885	5023.61
980.185	4963.05
980.484	4889.6
980.784	4921.47
981.083	4931.18
981.382	4873.56
981.682	4875.14
981.981	4835.59
982.28	4825.65
982.579	4721.25
982.878	4775.26
983.177	4691.42
983.475	4754.92
983.774	4672.89
984.073	4573.45
984.372	4632.89
984.67	4587.24
984.969	4590.18
985.267	4546.56
985.566	4533.91
985.864	4507.24
986.162	4457.3
986.461	4434.93
986.759	4431.31
987.057	4407.13
987.355	4363.06
987.653	4296.4
987.951	4329.84
988.249	4315.38
988.547	4315.83
988.844	4258.66
989.142	4308.6
989.44	4271.09
989.737	4228.83
990.035	4200.13
990.332	4177.53
990.63	4169.62
990.927	4127.59
991.224	4083.97
991.521	4102.73
991.819	4090.98
992.116	4049.4
992.413	4062.28
992.71	4022.06
993.006	3969.4
993.303	3917.88
993.6	3929.63
993.897	3907.93
994.193	3895.96
994.49	3895.28
994.787	3848.95
995.083	3823.87
995.379	3805.56
995.676	3846.92
995.972	3834.72
996.268	3806.24
996.565	3749.29
996.861	3708.62
997.157	3742.51
997.453	3702.06
997.749	3690.09
998.044	3680.6
998.34	3669.3
998.636	3665.45
998.932	3630.2
999.227	3626.13
999.523	3532.35
999.818	3560.15
1000.114	3548.85
1000.409	3539.13
1000.704	3477.89
1001	3479.47
1001.295	3497.32
1001.59	3470.21
1001.885	3419.13
1002.18	3398.79
1002.475	3389.08
1002.77	3395.18
1003.065	3369.19
1003.359	3336.65
1003.654	3341.62
1003.949	3300.72
1004.243	3307.72
1004.538	3248.97
1004.832	3296.2
1005.127	3224.79
1005.421	3195.86
1005.715	3242.87
1006.009	3197.22
1006.304	3183.43
1006.598	3155.41
1006.892	3136.88
1007.186	3111.12
1007.48	3123.55
1007.773	3048.52
1008.067	3052.82
1008.361	3027.73
1008.655	2984.12
1008.948	3015.98
1009.242	3008.52
1009.535	3002.87
1009.829	3020.27
1010.122	2953.16
1010.415	2949.09
1010.708	2892.37
1011.001	2916.32
1011.295	2872.03
1011.588	2870.45
1011.881	2844.23
1012.173	2837.68
1012.466	2749.55
1012.759	2815.31
1013.052	2805.36
1013.344	2774.63
1013.637	2705.25
1013.93	2698.7
1014.222	2714.07
1014.514	2718.81
1014.807	2660.06
1015.099	2656.67
1015.391	2666.16
1015.683	2635.43
1015.976	2632.71
1016.268	2615.54
1016.56	2597.46
1016.851	2586.84
1017.143	2523.11
1017.435	2540.96
1017.727	2495.32
1018.018	2495.77
1018.31	2469.1
1018.602	2485.6
1018.893	2459.61
1019.185	2416.45
1019.476	2445.6
1019.767	2410.35
1020.058	2356.11
1020.35	2364.92
1020.641	2362.21
1020.932	2343.68
1021.223	2307.75
1021.514	2299.84
1021.804	2261.2
1022.095	2245.38
1022.386	2219.84
1022.677	2212.16
1022.967	2195.44
1023.258	2164.93
1023.548	2166.74
1023.839	2167.41
1024.129	2175.78
1024.419	2137.81
1024.709	2098.26
1025	2085.83
1025.29	2042.22
1025.58	2057.81
1025.87	2017.59
1026.16	2000.19
1026.449	2017.14
1026.739	2031.6
1027.029	1968.78
1027.319	1967.87
1027.608	1945.73
1027.898	1928.78
1028.187	1950.25
1028.477	1908.44
1028.766	1886.29
1029.055	1868.44
1029.344	1891.49
1029.634	1873.41
1029.923	1831.83
1030.212	1821.66
1030.501	1799.06
1030.79	1803.13
1031.078	1792.28
1031.367	1763.81
1031.656	1756.8
1031.945	1721.1
1032.233	1720.87
1032.522	1751.61
1032.81	1668.44
1033.099	1667.99
1033.387	1690.37
1033.675	1645.85
1033.963	1635.9
1034.251	1628.45
1034.54	1617.37
1034.828	1609.01
1035.116	1576.24
1035.403	1595.23
1035.691	1593.64
1035.979	1567.88
1036.267	1562.23
1036.554	1550.26
1036.842	1524.95
1037.129	1513.19
1037.417	1489.92
1037.704	1470.94
1037.992	1472.52
1038.279	1444.95
1038.566	1441.11
1038.853	1441.11
1039.14	1441.11
