Data from aluminium_surface_pro_back_FLMS001491_00046.txt Node
Date: Wed Feb 08 15:34:07 GMT 2017
User: dcchb
Spectrometer: FLMS00149
Trigger mode: 0
Integration Time (sec): 2.000000E-2
Scans to average: 10
Electric dark correction enabled: true
Nonlinearity correction enabled: false
Boxcar width: 0
XAxis mode: Wavelengths
Number of Pixels in Spectrum: 2048
>>>>>Begin Spectral Data<<<<<
341.393	-24.6
341.776	-24.6
342.16	-24.6
342.543	-67.77
342.927	-53.08
343.31	-65.73
343.693	-56.47
344.077	-74.09
344.46	-58.05
344.843	-59.86
345.226	-49.24
345.61	-44.94
345.993	-9.01
346.376	-5.62
346.759	34.6
347.142	34.6
347.525	26.47
347.908	55.17
348.291	59.91
348.674	102.62
349.057	109.63
349.44	122.51
349.823	138.78
350.206	163.87
350.588	205.67
350.971	214.49
351.354	253.35
351.737	259.23
352.119	279.79
352.502	283.18
352.884	295.16
353.267	300.81
353.65	324.99
354.032	340.36
354.414	334.71
354.797	326.57
355.179	320.47
355.562	353.24
355.944	348.95
356.326	335.61
356.709	343.52
357.091	346.01
357.473	379
357.855	369.96
358.238	375.16
358.62	372.9
359.002	346.23
359.384	370.87
359.766	361.15
360.148	372.67
360.53	369.06
360.912	370.19
361.294	367.25
361.676	349.62
362.057	366.8
362.439	355.27
362.821	343.07
363.203	363.63
363.584	364.76
363.966	366.57
364.348	373.13
364.729	343.3
365.111	347.82
365.493	341.49
365.874	341.71
366.256	381.71
366.637	348.72
367.019	367.25
367.4	365.89
367.781	358.66
368.163	375.61
368.544	362.28
368.925	364.76
369.306	374.71
369.688	373.35
370.069	381.04
370.45	359.57
370.831	383.52
371.212	376.29
371.593	385.55
371.974	360.7
372.355	392.79
372.736	369.74
373.117	377.65
373.498	379.91
373.879	401.83
374.26	380.81
374.641	372.45
375.021	357.53
375.402	370.41
375.783	371.09
376.163	414.48
376.544	412.9
376.925	404.99
377.305	416.51
377.686	424.88
378.066	407.48
378.447	406.35
378.827	417.42
379.208	411.54
379.588	442.28
379.968	426.46
380.349	421.49
380.729	429.62
381.109	428.49
381.489	423.29
381.87	458.1
382.25	437.53
382.63	458.77
383.01	457.64
383.39	455.61
383.77	460.58
384.15	452.45
384.53	472.78
384.91	459.68
385.29	470.98
385.67	496.51
386.049	494.7
386.429	493.35
386.809	493.35
387.189	496.06
387.568	512.56
387.948	488.83
388.328	519.79
388.707	521.6
389.087	518.88
389.466	539
389.846	511.2
390.225	548.26
390.605	533.8
390.984	547.13
391.363	546
391.743	558.21
392.122	556.4
392.501	585.55
392.881	576.74
393.26	587.13
393.639	598.43
394.018	601.82
394.397	598.66
394.776	599.56
395.155	603.85
395.534	597.98
395.913	631.2
396.292	640.01
396.671	642.05
397.05	636.85
397.429	659.67
397.808	642.5
398.186	677.98
398.565	685.66
398.944	680.01
399.323	679.56
399.701	703.29
400.08	724.98
400.458	725.21
400.837	726.11
401.215	729.05
401.594	737.64
401.972	726.11
402.351	731.53
402.729	754.13
403.107	768.14
403.486	772.21
403.864	770.4
404.242	780.12
404.62	787.35
404.999	804.3
405.377	847.24
405.755	824.64
406.133	826.22
406.511	825.77
406.889	853.11
407.267	888.14
407.645	890.17
408.023	875.03
408.401	892.89
408.779	886.78
409.156	921.36
409.534	911.64
409.912	939.89
410.29	964.97
410.667	1010.85
411.045	958.87
411.422	974.92
411.8	983.96
412.178	1029.61
412.555	1013.11
412.933	1039.77
413.31	1053.56
413.687	1086.33
414.065	1093.11
414.442	1093.11
414.819	1099.89
415.197	1136.27
415.574	1143.95
415.951	1153.22
416.328	1135.14
416.705	1171.75
417.082	1165.87
417.46	1182.6
417.837	1215.59
418.214	1267.57
418.591	1225.98
418.967	1234.12
419.344	1266.44
419.721	1264.18
420.098	1272.99
420.475	1282.48
420.852	1260.79
421.228	1308.69
421.605	1325.19
421.982	1357.73
422.358	1366.77
422.735	1385.53
423.111	1389.37
423.488	1390.95
423.864	1427.11
424.241	1454.91
424.617	1436.15
424.994	1456.49
425.37	1468.46
425.746	1490.61
426.123	1510.05
426.499	1523.15
426.875	1527.22
427.251	1599.53
427.627	1606.54
428.003	1608.35
428.379	1626.65
428.756	1635.01
429.132	1662.13
429.507	1701.23
429.883	1694.67
430.259	1745.29
430.635	1739.87
431.011	1750.26
431.387	1808.79
431.763	1813.09
432.138	1837.72
432.514	1878.85
432.89	1872.97
433.265	1936.7
433.641	1937.15
434.016	1980.77
434.392	1986.64
434.767	2039.3
435.143	2019.41
435.518	2065.96
435.894	2103.25
436.269	2092.85
436.644	2136.47
437.02	2166.75
437.395	2154.55
437.77	2219.18
438.145	2222.34
438.52	2261.66
438.895	2302.11
439.271	2288.33
439.646	2361.32
440.021	2353.41
440.395	2382.11
440.77	2325.39
441.145	2395.67
441.52	2462.34
441.895	2456.91
442.27	2422.34
442.645	2463.01
443.019	2508.44
443.394	2507.76
443.769	2536.68
444.143	2521.32
444.518	2560.19
444.892	2569.9
445.267	2620.75
445.641	2647.87
446.016	2644.93
446.39	2645.83
446.764	2686.06
447.139	2679.96
447.513	2708.21
447.887	2723.35
448.262	2749.11
448.636	2776.23
449.01	2790.24
449.384	2837.69
449.758	2854.42
450.132	2889.44
450.506	2931.02
450.88	2983.23
451.254	2966.28
451.628	2956.33
452.002	3037.24
452.376	3048.31
452.75	3082.89
453.123	3128.31
453.497	3128.99
453.871	3150.68
454.244	3266.38
454.618	3258.93
454.992	3314.97
455.365	3331.24
455.739	3350.9
456.112	3416.66
456.486	3429.99
456.859	3479.94
457.232	3553.38
457.606	3552.48
457.979	3625.24
458.352	3657.11
458.725	3722.64
459.099	3760.38
459.472	3826.82
459.845	3848.06
460.218	3893.49
460.591	3968.06
460.964	3992.24
461.337	4088.73
461.71	4103.65
462.083	4138.22
462.456	4189.52
462.829	4219.8
463.201	4300.71
463.574	4325.11
463.947	4325.56
464.32	4450.53
464.692	4491.44
465.065	4514.94
465.438	4585.44
465.81	4675.61
466.183	4695.27
466.555	4824.53
466.928	4886.45
467.3	4864.99
467.672	4939.79
468.045	5068.14
468.417	5060.91
468.789	5134.13
469.161	5197.63
469.534	5257.29
469.906	5381.13
470.278	5441.24
470.65	5522.14
471.022	5604.4
471.394	5702.25
471.766	5733.21
472.138	5806.88
472.51	5970.72
472.882	6056.37
473.253	6122.35
473.625	6196.25
473.997	6344.04
474.369	6383.14
474.74	6478.95
475.112	6549.23
475.484	6658.16
475.855	6794.88
476.227	6777.7
476.598	7023.8
476.97	7117.13
477.341	7292.27
477.713	7364.13
478.084	7400.29
478.455	7637.79
478.827	7702.42
479.198	7937.45
479.569	7906.04
479.94	8181.06
480.311	8227.61
480.682	8474.83
481.053	8628.5
481.424	8738.78
481.795	8825.11
482.166	9035.04
482.537	9117.08
482.908	9280.91
483.279	9348.48
483.65	9582.38
484.021	9765.2
484.391	9816.04
484.762	10040.89
485.133	10105.07
485.503	10239.53
485.874	10481.11
486.244	10584.83
486.615	10720.88
486.985	10898.95
487.356	11047.2
487.726	11175.1
488.097	11510.69
488.467	11359.73
488.837	11713.84
489.207	11828.42
489.578	12037.23
489.948	12119.48
490.318	12257.56
490.688	12453.03
491.058	12561.73
491.428	12781.39
491.798	12894.38
492.168	13147.48
492.538	13203.52
492.908	13291.66
493.278	13570.29
493.648	13561.71
494.017	13793.56
494.387	13938.87
494.757	14005.54
495.126	14200.11
495.496	14210.73
495.866	14387.9
496.235	14524.17
496.605	14643.03
496.974	14742.69
497.344	14879.19
497.713	14923.48
498.082	15092.29
498.452	15283.02
498.821	15293.19
499.19	15323.69
499.559	15596.45
499.928	15661.31
500.298	15726.17
500.667	15950.8
501.036	15988.76
501.405	16108.76
501.774	16084.35
502.143	16300.39
502.512	16360.05
502.88	16628.74
503.249	16625.81
503.618	16806.59
503.987	16864.22
504.356	17047.72
504.724	17080.94
505.093	17185.57
505.462	17284.32
505.83	17291.1
506.199	17577.65
506.567	17796.4
506.936	17732.44
507.304	18001.36
507.672	18015.15
508.041	18134.01
508.409	18271.41
508.777	18463.27
509.145	18604.06
509.514	18644.28
509.882	18843.6
510.25	18986.42
510.618	19083.37
510.986	19214.21
511.354	19415.11
511.722	19548.44
512.09	19742.79
512.458	19620.98
512.826	19845.38
513.193	20098.48
513.561	20101.87
513.929	20318.14
514.297	20460.73
514.664	20681.97
515.032	20798.35
515.4	20924.9
515.767	21085.12
516.135	21178.45
516.502	21091.68
516.869	21577.09
517.237	21730.98
517.604	21651.89
517.972	21927.81
518.339	22130.52
518.706	22195.83
519.073	22314.92
519.44	22484.63
519.808	22821.12
520.175	22818.19
520.542	23051.85
520.909	23182.24
521.276	23277.61
521.643	23523.03
522.009	23677.6
522.376	23902.45
522.743	24095.44
523.11	24387.41
523.477	24697.23
523.843	24701.3
524.21	24924.57
524.577	25245.92
524.943	25390.77
525.31	25572.46
525.676	25679.58
526.043	25957.31
526.409	26059.91
526.776	26427.13
527.142	26387.36
527.508	26569.5
527.874	26846.55
528.241	26931.52
528.607	27133.33
528.973	27312.76
529.339	27435.92
529.705	27564.28
530.071	27930.14
530.437	28001.78
530.803	28170.36
531.169	28296.01
531.535	28416.68
531.901	28616
532.267	28768.31
532.632	29051.47
532.998	29061.64
533.364	29239.71
533.73	29345.47
534.095	29603.09
534.461	29687.61
534.826	29804.44
535.192	30107.94
535.557	30162.17
535.923	30354.48
536.288	30363.52
536.653	30576.17
537.019	30575.72
537.384	30717.41
537.749	30856.39
538.114	31013.9
538.479	30932.55
538.845	31219.55
539.21	31104.97
539.575	31369.6
539.94	31383.61
540.305	31690.04
540.67	31513.55
541.034	31810.72
541.399	32014.55
541.764	31958.74
542.129	32072.86
542.494	32015.46
542.858	32356.01
543.223	32296.13
543.587	32499.51
543.952	32475.56
544.316	32631.71
544.681	32654.99
545.045	32768.21
545.41	33045.04
545.774	33041.42
546.138	33131.59
546.503	33141.76
546.867	33230.11
547.231	33522.99
547.595	33700.39
547.959	33785.81
548.324	33811.34
548.688	33956.88
549.052	34324.55
549.416	34035.74
549.779	34260.37
550.143	34319.13
550.507	34668.04
550.871	34665.33
551.235	34702.84
551.599	35096.05
551.962	35102.16
552.326	35346.22
552.689	35530.85
553.053	35389.61
553.417	35567.23
553.78	36015.35
554.143	35653.78
554.507	36179.42
554.87	36158.85
555.234	36572.17
555.597	36381.9
555.96	36531.27
556.323	36779.63
556.686	36709.8
557.05	36994.31
557.413	37017.59
557.776	37258.03
558.139	37461.64
558.502	37536.67
558.865	37834.51
559.228	38087.16
559.59	38063.66
559.953	38208.97
560.316	38605.34
560.679	38711.78
561.041	39078.32
561.404	39064.76
561.767	39234.25
562.129	39267.02
562.492	39553.56
562.854	39535.49
563.217	39571.87
563.579	39859.77
563.941	40024.29
564.304	40094.34
564.666	40645.97
565.028	40510.83
565.39	40865.17
565.753	40939.97
566.115	41262.22
566.477	41356.91
566.839	41385.38
567.201	41833.96
567.563	41896.33
567.925	42082.76
568.287	42098.13
568.648	42231.23
569.01	42627.38
569.372	42925.23
569.734	42780.82
570.095	43095.62
570.457	43127.26
570.819	43373.13
571.18	43360.47
571.542	43639.33
571.903	43761.36
572.265	43928.82
572.626	44007.23
572.987	44175.36
573.349	44316.38
573.71	44447.45
574.071	44563.15
574.432	44641.11
574.794	45027.32
575.155	44984.16
575.516	45063.48
575.877	45119.75
576.238	45283.13
576.599	45510.24
576.96	45380.98
577.32	45474.09
577.681	45651.26
578.042	45825.26
578.403	45876.79
578.763	45951.59
579.124	46210.79
579.485	46149.78
579.845	46458.92
580.206	46427.51
580.566	46452.59
580.927	46462.99
581.287	46767.84
581.648	46551.57
582.008	46788.4
582.368	46678.8
582.728	46786.14
583.089	46705.92
583.449	46716.31
583.809	46902.52
584.169	47045.8
584.529	46873.6
584.889	47243.08
585.249	46990.21
585.609	46938.91
585.969	47228.62
586.329	47068.62
586.688	47239.24
587.048	47104.78
587.408	47151.78
587.768	47088.28
588.127	47088.28
588.487	47123.76
588.846	47393.58
589.206	47135.06
589.565	47206.47
589.925	47351.55
590.284	47155.4
590.643	47314.94
591.003	47359.01
591.362	47447.82
591.721	47356.3
592.08	47361.95
592.44	47524.65
592.799	47374.83
593.158	47344.32
593.517	47425
593.876	47441.94
594.235	47298.45
594.593	47458.89
594.952	47602.84
595.311	47422.51
595.67	47688.72
596.029	47775.72
596.387	47710.41
596.746	47801.94
597.104	47669.06
597.463	47629.51
597.822	47837.41
598.18	47758.32
598.538	47894.81
598.897	48021.14
599.255	47795.38
599.613	48226.33
599.972	47916.73
600.33	48180.91
600.688	47938.65
601.046	48036.73
601.404	48154.47
601.762	48145.88
602.12	48281.02
602.478	48325.54
602.836	48383.39
603.194	48169.84
603.552	48116.96
603.91	48103.4
604.268	48302.49
604.625	48200.57
604.983	48425.87
605.341	48271.75
605.698	48447.34
606.056	48507.91
606.413	48492.31
606.771	48544.06
607.128	48645.08
607.485	48394.91
607.843	48632.87
608.2	48715.13
608.557	48822.93
608.914	48612.31
609.272	48794
609.629	48978.4
609.986	49067.44
610.343	48878.52
610.7	49028.57
611.057	48934.33
611.414	49040.77
611.771	49003.71
612.127	49169.13
612.484	49153.09
612.841	49171.39
613.198	49014.33
613.554	49259.75
613.911	49358.5
614.267	49319.41
614.624	49277.38
614.98	49489.57
615.337	49499.97
615.693	49547.88
616.05	49495.68
616.406	49748.78
616.762	49584.49
617.118	49591.72
617.475	49597.37
617.831	49690.93
618.187	49736.12
618.543	49883.91
618.899	50014.76
619.255	49847.76
619.611	49758.27
619.967	49956.45
620.323	50001.65
620.678	49826.06
621.034	49859.73
621.39	49981.99
621.746	49907.42
622.101	50309.21
622.457	49947.64
622.812	49994.65
623.168	50039.16
623.523	50004.36
623.879	50187.41
624.234	49988.09
624.589	50008.66
624.945	50007.53
625.3	50145.15
625.655	50094.3
626.01	50202.32
626.365	50126.17
626.72	49948.32
627.075	49949.9
627.43	49939.51
627.785	49924.59
628.14	49992.61
628.495	49967.08
628.85	50001.43
629.205	49846.63
629.559	49986.06
629.914	49794.65
630.269	49913.74
630.623	49878.04
630.978	49801.88
631.332	49881.43
631.687	49896.8
632.041	49819.28
632.396	49789.68
632.75	49623.13
633.104	49753.97
633.459	49522.57
633.813	49521.44
634.167	49558.95
634.521	49528.67
634.875	49533.42
635.229	49475.79
635.583	49277.15
635.937	49288.9
636.291	49305.85
636.645	49220.88
636.999	49184.27
637.352	49161.67
637.706	48955.8
638.06	49070.6
638.413	49158.06
638.767	48871.51
639.121	49035.8
639.474	48648.92
639.828	48758.75
640.181	48907.22
640.534	48871.74
640.888	48714
641.241	48576.38
641.594	48644.62
641.947	48734.34
642.301	48664.29
642.654	48596.94
643.007	48618.41
643.36	48622.25
643.713	48428.59
644.066	48545.19
644.419	48335.25
644.771	47983.17
645.124	47680.13
645.477	47673.13
645.83	47508.61
646.182	47153.14
646.535	47186.36
646.888	47221.39
647.24	46998.34
647.593	47187.71
647.945	47082.86
648.298	46863.88
648.65	46843.09
649.002	46531.23
649.355	46829.76
649.707	46616.2
650.059	46802.64
650.411	47265
650.763	47349.97
651.115	47717.19
651.467	47492.34
651.819	47449.63
652.171	47490.76
652.523	47335.05
652.875	47333.47
653.227	47178.9
653.578	47389.06
653.93	47238.56
654.282	46857.55
654.633	46897.1
654.985	47093.25
655.337	47108.39
655.688	46922.41
656.039	47064.33
656.391	46672.02
656.742	46663.43
657.094	46757.89
657.445	46797.44
657.796	46743.88
658.147	46716.09
658.498	46507.96
658.849	46665.69
659.2	46570.56
659.551	46535.53
659.902	46620.27
660.253	46559.71
660.604	46580.5
660.955	46294.86
661.306	46520.16
661.656	46394.74
662.007	46420.5
662.358	46580.72
662.708	46426.15
663.059	46453.5
663.409	46059.38
663.76	46417.34
664.11	46362.43
664.461	46241.98
664.811	46284.46
665.161	46221.41
665.511	46189.1
665.862	46251.24
666.212	46255.31
666.562	46175.99
666.912	46116.78
667.262	46053.96
667.612	46121.53
667.962	46031.81
668.312	45970.12
668.662	46130.34
669.011	46198.36
669.361	46025.48
669.711	45958.59
670.06	46020.97
670.41	45682.22
670.76	45733.97
671.109	46021.64
671.459	45785.72
671.808	45720.18
672.157	45908.88
672.507	45496.69
672.856	45709.56
673.205	45579.85
673.554	45716.57
673.904	45538.27
674.253	45740.75
674.602	45546.18
674.951	45021.9
675.3	44911.62
675.649	45396.8
675.998	45371.72
676.346	45437.25
676.695	45353.64
677.044	45181.44
677.393	45262.57
677.741	45341.89
678.09	45249.69
678.438	45081.78
678.787	45143.47
679.135	45273.87
679.484	45019.64
679.832	45075.68
680.181	44903.03
680.529	45037.26
680.877	44827.32
681.225	44820.77
681.573	44937.6
681.922	44646.09
682.27	44638.4
682.618	44459.65
682.966	44427.11
683.314	44624.17
683.661	44283.61
684.009	44170.62
684.357	44272.08
684.705	44162.48
685.053	44141.01
685.4	44282.25
685.748	43908.48
686.095	43883.17
686.443	43762.04
686.79	43717.52
687.138	43714.81
687.485	43673.46
687.832	43517.75
688.18	43485.44
688.527	43251.55
688.874	43298.32
689.221	43205.9
689.568	43188.5
689.915	42817.21
690.262	42930.65
690.609	42837.55
690.956	42611.56
691.303	42691.11
691.65	42452.02
691.997	42398.01
692.344	42137.68
692.69	41966.16
693.037	42187.62
693.383	41845.26
693.73	41864.46
694.077	41628.31
694.423	41647.52
694.769	41598.71
695.116	41454.76
695.462	41404.14
695.808	41276.01
696.155	41354.2
696.501	40971.83
696.847	40923.92
697.193	40619.3
697.539	40932.96
697.885	40745.62
698.231	40507.66
698.577	40482.13
698.923	40415.69
699.269	40200.55
699.614	40018.19
699.96	39952.65
700.306	39952.88
700.651	39682.37
700.997	39644.64
701.342	39452.1
701.688	39454.13
702.033	39286.45
702.379	39272.22
702.724	39092.33
703.069	39149.96
703.415	38813.92
703.76	38865.67
704.105	38927.59
704.45	38744.32
704.795	38644.89
705.14	38422.97
705.485	38396.98
705.83	38214.16
706.175	38425.46
706.52	38170.78
706.865	37984.34
707.209	38006.94
707.554	37808.53
707.899	37898.24
708.243	37661.86
708.588	37596.55
708.932	37396.11
709.277	37417.35
709.621	37322.21
709.966	37163.34
710.31	37246.28
710.654	36814.43
710.998	36802.68
711.342	36896.01
711.687	36736.24
712.031	36584.83
712.375	36542.12
712.719	36649.23
713.063	36474.78
713.407	36573.08
713.75	36284.05
714.094	36300.77
714.438	36101.45
714.782	36050.61
715.125	35881.34
715.469	36023.71
715.812	35801.35
716.156	35643.84
716.499	35576.95
716.843	35724.74
717.186	35393
717.53	35599.54
717.873	35549.15
718.216	35443.84
718.559	35345.54
718.902	35062.16
719.246	35148.03
719.589	35026.9
719.932	34923.4
720.275	34865.33
720.617	34840.92
720.96	34746.91
721.303	34724.09
721.646	34743.07
721.989	34417.43
722.331	34512.79
722.674	34321.84
723.016	34380.14
723.359	34248.85
723.701	34415.17
724.044	34104.22
724.386	33945.58
724.729	33935.86
725.071	33928.18
725.413	33881.85
725.755	33947.38
726.097	33675.98
726.439	33605.25
726.782	33741.74
727.124	33742.87
727.465	33592.82
727.807	33576.77
728.149	33483.22
728.491	33398.7
728.833	33429.88
729.175	33242.77
729.516	33080.74
729.858	33290.68
730.199	33220.85
730.541	33045.71
730.882	33088.42
731.224	33053.4
731.565	32877.13
731.906	32840.29
732.248	32760.97
732.589	32676.46
732.93	32644.59
733.271	32518.27
733.612	32594.88
733.953	32527.53
734.294	32405.96
734.635	32307.43
734.976	32523.24
735.317	32226.53
735.658	32177.04
735.999	32111.95
736.339	32081.44
736.68	32165.96
737.021	32019.75
737.361	31826.54
737.702	31955.12
738.042	31797.38
738.383	31841.22
738.723	31727.33
739.063	31609.59
739.404	31685.97
739.744	31596.03
740.084	31552.64
740.424	31333.44
740.764	31407.56
741.104	31463.38
741.444	31261.13
741.784	31241.47
742.124	31195.14
742.464	31184.97
742.804	31145.42
743.143	31025.43
743.483	31013.9
743.823	30837.18
744.162	30780.91
744.502	30886
744.841	30587.7
745.181	30700.46
745.52	30552.45
745.86	30664.31
746.199	30525.33
746.538	30498.89
746.877	30530.07
747.216	30366.91
747.556	30314.71
747.895	30341.38
748.234	30155.17
748.573	30162.62
748.911	30165.11
749.25	30083.98
749.589	30035.17
749.928	29992.23
750.267	30040.14
750.605	30023.87
750.944	29843.54
751.283	29750.21
751.621	29857.77
751.96	29547.73
752.298	29669.76
752.636	29532.81
752.975	29359.26
753.313	29287.62
753.651	29462.08
753.989	29185.02
754.327	29134.18
754.666	29109.55
755.004	29104.12
755.342	29071.13
755.679	29048.08
756.017	28810.8
756.355	28881.98
756.693	28681.53
757.031	28708.43
757.368	28511.59
757.706	28528.09
758.044	28576.45
758.381	28417.81
758.719	28359.28
759.056	28316.35
759.394	28145.05
759.731	27967.65
760.068	27904.83
760.405	27767.43
760.743	27743.25
761.08	27733.31
761.417	27663.71
761.754	27531.73
762.091	27566.76
762.428	27441.57
762.765	27191.86
763.102	27267.11
763.438	27097.62
763.775	26962.26
764.112	26943.95
764.449	27005.65
764.785	26761.13
765.122	26724.52
765.458	26718.42
765.795	26525.66
766.131	26476.39
766.467	26409.96
766.804	26222.84
767.14	26174.03
767.476	26062.39
767.812	25947.59
768.148	25983.75
768.485	25809.29
768.821	25741.5
769.157	25676.19
769.492	25515.06
769.828	25485.23
770.164	25296.99
770.5	25151.46
770.836	25198.91
771.171	25077.33
771.507	25023.55
771.842	24825.36
772.178	24827.85
772.513	24758.02
772.849	24812.26
773.184	24638.93
773.519	24533.17
773.855	24519.38
774.19	24324.36
774.525	24163.91
774.86	24163.46
775.195	24046.85
775.53	23915.33
775.865	23747.2
776.2	23677.6
776.535	23507.43
776.87	23457.04
777.205	23394.22
777.539	23327.32
777.874	23292.3
778.209	23078.97
778.543	22972.98
778.878	22855.92
779.212	22827.22
779.547	22636.72
779.881	22800.56
780.215	22521.02
780.55	22598.76
780.884	22542.94
781.218	22380.46
781.552	22417.52
781.886	22140.92
782.22	22173.23
782.554	21986.34
782.888	21843.97
783.222	21873.35
783.556	21775.27
783.889	21714.94
784.223	21561.5
784.557	21627.48
784.89	21525.11
785.224	21494.38
785.557	21332.12
785.891	21302.07
786.224	21291.45
786.558	21311.11
786.891	21072.47
787.224	21001.74
787.557	20901.4
787.891	20948.18
788.224	20815.3
788.557	20745.25
788.89	20648.07
789.223	20728.75
789.556	20467.06
789.888	20371.92
790.221	20421.64
790.554	20250.57
790.887	20315.88
791.219	20088.31
791.552	20003.12
791.884	19967.86
792.217	19828.21
792.549	19842.44
792.882	19615.56
793.214	19586.63
793.546	19678.61
793.879	19465.96
794.211	19447.2
794.543	19392.96
794.875	19326.75
795.207	19416.92
795.539	19356.13
795.871	19211.5
796.203	19034.1
796.535	18912.75
796.867	18947.55
797.198	18774.68
797.53	18831.4
797.862	18671.18
798.193	18724.06
798.525	18536.72
798.856	18633.89
799.188	18418.98
799.519	18278.19
799.85	18176.5
800.182	18196.39
800.513	18237.06
800.844	17923.85
801.175	18157.29
801.506	17994.36
801.837	17965.66
802.168	17889.73
802.499	17891.08
802.83	17767.47
803.161	17774.93
803.491	17665.55
803.822	17695.83
804.153	17544.88
804.483	17433.24
804.814	17368.61
805.145	17331.32
805.475	17276.86
805.805	17283.19
806.136	17197.54
806.466	17173.36
806.796	17195.51
807.126	16987.15
807.457	16907.38
807.787	16922.52
808.117	16856.53
808.447	16806.59
808.777	16868.74
809.107	16837.33
809.436	16721.85
809.766	16743.77
810.096	16646.6
810.426	16558.24
810.755	16633.26
811.085	16534.06
811.414	16506.26
811.744	16268.08
812.073	16294.74
812.403	16309.43
812.732	16117.57
813.061	16137.46
813.39	16098.59
813.719	16046.16
814.049	16048.87
814.378	16005.71
814.707	15980.4
815.036	15984.24
815.365	15841.42
815.693	15778.14
816.022	15758.26
816.351	15716.45
816.68	15614.31
817.008	15716.45
817.337	15553.97
817.665	15524.59
817.994	15620.63
818.322	15502.9
818.651	15542.67
818.979	15470.36
819.307	15498.6
819.636	15388.32
819.964	15256.12
820.292	15342.9
820.62	15332.28
820.948	15275.56
821.276	15311.26
821.604	15250.93
821.932	15269.91
822.259	15272.4
822.587	15256.35
822.915	15230.14
823.243	15343.81
823.57	15332.28
823.898	15196.24
824.225	15130.25
824.553	15233.3
824.88	15216.58
825.207	15269.23
825.535	15157.6
825.862	15302.68
826.189	15165.96
826.516	15189.91
826.843	15264.94
827.17	15194.21
827.497	15192.17
827.824	15158.05
828.151	15261.1
828.478	15200.98
828.805	15221.77
829.131	15019.07
829.458	15107.43
829.785	14937.49
830.111	15026.98
830.438	15134.09
830.764	15137.26
831.09	15114.21
831.417	15064.72
831.743	15105.62
832.069	15159.86
832.395	15015.45
832.722	15011.38
833.048	14992.85
833.374	14951.27
833.7	14902.01
834.026	14948.11
834.351	15099.52
834.677	14934.78
835.003	14995.57
835.329	14916.25
835.654	14953.08
835.98	14898.17
836.306	14979.75
836.631	14764.39
836.956	14855.68
837.282	14760.54
837.607	14728.23
837.932	14696.14
838.258	14714.22
838.583	14805.29
838.908	14721.45
839.233	14660.43
839.558	14602.13
839.883	14577.05
840.208	14573.88
840.533	14530.72
840.858	14562.36
841.182	14529.82
841.507	14577.72
841.832	14374.11
842.156	14463.38
842.481	14441
842.805	14391.29
843.13	14462.25
843.454	14338.41
843.778	14370.5
844.103	14312.42
844.427	14198.52
844.751	14270.39
845.075	14240.11
845.399	14162.59
845.723	14095.7
846.047	14061.58
846.371	13937.29
846.695	13988.14
847.019	13838.99
847.343	13891.41
847.666	13739.78
847.99	13671.76
848.313	13666.79
848.637	13585.21
848.96	13646.9
849.284	13580.69
849.607	13425.89
849.931	13401.26
850.254	13386.57
850.577	13295.05
850.9	13261.6
851.223	13114.94
851.546	13189.51
851.869	13090.53
852.192	13115.16
852.515	13090.53
852.838	12966.69
853.161	13075.84
853.483	12848.28
853.806	12876.53
854.129	12869.07
854.451	12794.49
854.774	12711.78
855.096	12665.01
855.419	12682.63
855.741	12687.6
856.063	12535.74
856.385	12510.21
856.708	12519.25
857.03	12515.18
857.352	12448.74
857.674	12434.73
857.996	12404.22
858.318	12324.22
858.64	12239.93
858.961	12156.32
859.283	12148.18
859.605	12132.59
859.926	12210.78
860.248	12119.94
860.57	12138.47
860.891	12167.62
861.212	12048.3
861.534	12034.97
861.855	12041.52
862.176	12038.36
862.498	11966.95
862.819	11994.52
863.14	11949.54
863.461	11960.17
863.782	11971.46
864.103	11941.18
864.424	11916.1
864.745	11831.58
865.065	11825.03
865.386	11800.17
865.707	11766.5
866.027	11741.41
866.348	11787.97
866.668	11709.32
866.989	11618.03
867.309	11684.01
867.63	11653.96
867.95	11620.29
868.27	11608.99
868.59	11557.24
868.91	11550.01
869.23	11634.98
869.55	11543.45
869.87	11607.41
870.19	11483.34
870.51	11437.92
870.83	11549.56
871.15	11528.09
871.469	11506.39
871.789	11434.53
872.109	11520.18
872.428	11346.4
872.748	11425.26
873.067	11428.88
873.386	11398.15
873.706	11445.38
874.025	11365.15
874.344	11309.11
874.663	11451.7
874.982	11349.33
875.301	11258.49
875.62	11279.73
875.939	11321.99
876.258	11298.04
876.577	11193.63
876.896	11239.51
877.214	11194.99
877.533	11163.8
877.852	11096.23
878.17	11161.32
878.489	11175.55
878.807	11260.52
879.125	11115.44
879.444	11112.5
879.762	11039.51
880.08	11031.6
880.398	11063.47
880.716	11008.33
881.034	10982.34
881.352	10940.31
881.67	10919.97
881.988	10924.94
882.306	10866.64
882.624	10836.13
882.941	10804.04
883.259	10799.07
883.577	10800.42
883.894	10747.54
884.212	10796.13
884.529	10698.05
884.846	10646.53
885.164	10734.44
885.481	10703.93
885.798	10711.84
886.115	10609.69
886.432	10645.4
886.75	10625.29
887.067	10600.2
887.383	10521.11
887.7	10550.71
888.017	10453.99
888.334	10558.62
888.651	10503.03
888.967	10515.01
889.284	10448.12
889.6	10438.85
889.917	10364.73
890.233	10310.94
890.55	10418.29
890.866	10379.87
891.182	10252.64
891.498	10271.17
891.815	10264.39
892.131	10176.71
892.447	10263.71
892.763	10205.64
893.079	10166.09
893.395	10157.28
893.71	10116.6
894.026	10119.54
894.342	10098.75
894.657	9974.46
894.973	10017.17
895.289	10024.62
895.604	9949.37
895.92	9923.38
896.235	9818.3
896.55	9959.09
896.865	9895.59
897.181	9840.45
897.496	9792.99
897.811	9773.1
898.126	9740.79
898.441	9700.34
898.756	9666.89
899.071	9574.01
899.386	9612.2
899.7	9567.23
900.015	9548.03
900.33	9496.95
900.644	9434.36
900.959	9418.54
901.273	9397.97
901.588	9392.1
901.902	9238.43
902.216	9321.82
902.531	9290.86
902.845	9271.42
903.159	9233.01
903.473	9227.58
903.787	9125.44
904.101	9055.61
904.415	9070.75
904.729	9043.86
905.042	9056.74
905.356	8979.23
905.67	9008.15
905.984	8962.96
906.297	8929.96
906.611	8809.51
906.924	8897.65
907.237	8800.25
907.551	8840.93
907.864	8735.39
908.177	8703.08
908.491	8725.9
908.804	8668.5
909.117	8626.47
909.43	8556.64
909.743	8564.77
910.056	8584.44
910.368	8499.24
910.681	8449.98
910.994	8450.65
911.307	8492.46
911.619	8328.62
911.932	8402.29
912.244	8340.83
912.557	8345.12
912.869	8288.4
913.181	8222.18
913.494	8260.38
913.806	8146.48
914.118	8193.71
914.43	8128.85
914.742	8104.67
915.054	8069.42
915.366	8045.24
915.678	8035.98
915.99	7996.88
916.302	7972.47
916.613	7896.09
916.925	7880.5
917.236	7842.53
917.548	7851.57
917.859	7827.62
918.171	7761.18
918.482	7746.04
918.794	7705.59
919.105	7653.39
919.416	7634.86
919.727	7591.24
920.038	7559.38
920.349	7569.77
920.66	7520.73
920.971	7494.52
921.282	7522.99
921.593	7417.01
921.903	7449.32
922.214	7376.11
922.525	7397.8
922.835	7354.64
923.146	7268.99
923.456	7304.92
923.767	7273.74
924.077	7235.77
924.387	7205.49
924.697	7136.11
925.008	7174.08
925.318	7067.19
925.628	7085.94
925.938	7047.3
926.248	6949.9
926.558	6969.34
926.867	6984.25
927.177	6950.81
927.487	6910.13
927.796	6832.16
928.106	6813.18
928.416	6804.6
928.725	6724.82
929.034	6706.74
929.344	6696.12
929.653	6718.27
929.962	6607.31
930.271	6648.67
930.581	6570.7
930.89	6593.53
931.199	6551.27
931.508	6488.22
931.817	6480.54
932.125	6489.8
932.434	6473.08
932.743	6427.66
933.051	6391.05
933.36	6350.14
933.669	6341.78
933.977	6296.36
934.286	6311.27
934.594	6250.49
934.902	6209.81
935.21	6192.63
935.519	6202.13
935.827	6211.62
936.135	6175.69
936.443	6110.83
936.751	6097.5
937.059	6009.81
937.367	5955.35
937.674	6015.92
937.982	6034.9
938.29	6032.64
938.597	5963.26
938.905	5865.64
939.213	5916.03
939.52	5867.9
939.827	5877.16
940.135	5866.99
940.442	5808.69
940.749	5778.18
941.056	5823.6
941.363	5754.45
941.67	5683.27
941.977	5657.51
942.284	5630.61
942.591	5648.24
942.898	5594.68
943.205	5657.28
943.511	5568.02
943.818	5598.98
944.125	5496.38
944.431	5509.26
944.738	5484.86
945.044	5460.68
945.35	5494.8
945.657	5434.69
945.963	5355.37
946.269	5364.41
946.575	5356.05
946.881	5334.35
947.187	5347.23
947.493	5300.68
947.799	5280.34
948.105	5246.44
948.41	5223.85
948.716	5210.96
949.022	5199.44
949.327	5152.66
949.633	5095.94
949.938	5106.79
950.244	5097.97
950.549	5068.14
950.854	5045.77
951.16	5036.73
951.465	5035.6
951.77	5031.31
952.075	5001.03
952.38	4956.28
952.685	4900.24
952.99	4920.8
953.294	4876.74
953.599	4881.48
953.904	4841.03
954.209	4796.96
954.513	4793.8
954.818	4744.76
955.122	4762.39
955.426	4759
955.731	4702.28
956.035	4721.03
956.339	4720.58
956.643	4674.71
956.948	4659.34
957.252	4649.17
957.556	4653.92
957.86	4602.62
958.163	4587.03
958.467	4584.77
958.771	4596.97
959.075	4589.96
959.378	4558.1
959.682	4525.78
959.985	4478.1
960.289	4445.34
960.592	4436.3
960.896	4415.96
961.199	4433.36
961.502	4409.86
961.805	4364.89
962.108	4342.96
962.411	4366.92
962.714	4295.28
963.017	4281.05
963.32	4309.97
963.623	4245.11
963.926	4241.27
964.228	4217.77
964.531	4193.14
964.833	4185.45
965.136	4168.51
965.438	4159.24
965.741	4142.07
966.043	4134.61
966.345	4101.84
966.648	4124.89
966.95	4113.14
967.252	4056.42
967.554	4066.14
967.856	4027.72
968.158	3949.08
968.46	4010.32
968.761	3949.3
969.063	3951.56
969.365	3957.89
969.666	3933.03
969.968	3898.68
970.269	3904.56
970.571	3894.62
970.872	3810.55
971.174	3821.85
971.475	3848.74
971.776	3777.1
972.077	3811.45
972.378	3750.44
972.679	3781.62
972.98	3742.75
973.281	3723.77
973.582	3771
973.883	3719.03
974.183	3674.06
974.484	3674.96
974.785	3647.62
975.085	3667.05
975.386	3620.5
975.686	3616.88
975.986	3594.51
976.287	3609.88
976.587	3564.23
976.887	3578.24
977.187	3514.51
977.487	3538.47
977.787	3491.91
978.087	3445.14
978.387	3462.08
978.687	3471.12
978.987	3433.84
979.286	3430.45
979.586	3415.53
979.885	3366.27
980.185	3372.37
980.484	3351.13
980.784	3343.67
981.083	3331.69
981.382	3322.88
981.682	3344.35
981.981	3272.94
982.28	3276.78
982.579	3251.69
982.878	3245.37
983.177	3277.91
983.475	3255.08
983.774	3196.78
984.073	3200.4
984.372	3175.99
984.67	3149.1
984.969	3133.96
985.267	3175.54
985.566	3133.51
985.864	3079.27
986.162	3114.52
986.461	3091.7
986.759	3079.5
987.057	3019.38
987.355	3002.89
987.653	3032.26
987.951	3014.41
988.249	3030.23
988.547	2998.82
988.844	2981.64
989.142	2949.1
989.44	2950.01
989.737	2938.48
990.035	2940.74
990.332	2929.89
990.63	2918.14
990.927	2911.59
991.224	2882.44
991.521	2908.88
991.819	2870.91
992.116	2856.22
992.413	2846.96
992.71	2815.32
993.006	2870.69
993.303	2829.56
993.6	2793.4
993.897	2766.74
994.193	2783.01
994.49	2720.41
994.787	2728.77
995.083	2740.75
995.379	2707.98
995.676	2624.82
995.972	2649.45
996.268	2624.82
996.565	2663.24
996.861	2622.56
997.157	2649.9
997.453	2603.12
997.749	2558.15
998.044	2573.75
998.34	2557.25
998.636	2589.34
998.932	2555.44
999.227	2527.87
999.523	2553.63
999.818	2482.9
1000.114	2488.78
1000.409	2484.93
1000.704	2459.62
1001	2477.03
1001.295	2450.59
1001.59	2428.21
1001.885	2432.28
1002.18	2417.14
1002.475	2403.58
1002.77	2360.64
1003.065	2360.19
1003.359	2378.04
1003.654	2318.39
1003.949	2340.76
1004.243	2340.98
1004.538	2302.11
1004.832	2294.43
1005.127	2283.36
1005.421	2271.38
1005.715	2253.08
1006.009	2252.17
1006.304	2232.96
1006.598	2214.89
1006.892	2224.15
1007.186	2170.14
1007.48	2208.78
1007.773	2181.67
1008.067	2177.37
1008.361	2117.03
1008.655	2106.19
1008.948	2096.02
1009.242	2115
1009.535	2114.77
1009.829	2058.96
1010.122	2073.42
1010.415	2046.08
1010.708	2054.66
1011.001	2041.56
1011.295	1979.41
1011.588	2027.32
1011.881	1988.68
1012.173	1976.25
1012.466	1972.86
1012.759	1967.89
1013.052	1936.47
1013.344	1960.65
1013.637	1928.11
1013.93	1921.11
1014.222	1907.32
1014.514	1883.37
1014.807	1876.59
1015.099	1914.1
1015.391	1860.77
1015.683	1861.9
1015.976	1816.93
1016.268	1844.95
1016.56	1796.59
1016.851	1820.55
1017.143	1781
1017.435	1786.87
1017.727	1760.21
1018.018	1739.42
1018.31	1743.71
1018.602	1744.62
1018.893	1723.15
1019.185	1675.46
1019.476	1680.44
1019.767	1672.3
1020.058	1701.23
1020.35	1656.03
1020.641	1688.57
1020.932	1642.47
1021.223	1632.3
1021.514	1650.15
1021.804	1608.12
1022.095	1597.5
1022.386	1599.53
1022.677	1584.62
1022.967	1600.21
1023.258	1535.81
1023.548	1560.89
1023.839	1557.73
1024.129	1531.06
1024.419	1509.14
1024.709	1525.64
1025	1488.12
1025.29	1499.65
1025.58	1469.82
1025.87	1462.59
1026.16	1484.06
1026.449	1482.93
1026.739	1472.98
1027.029	1459.42
1027.319	1435.02
1027.608	1463.72
1027.898	1444.96
1028.187	1397.05
1028.477	1402.03
1028.766	1389.37
1029.055	1390.27
1029.344	1385.3
1029.634	1369.03
1029.923	1331.29
1030.212	1335.59
1030.501	1338.98
1030.79	1339.43
1031.078	1306.21
1031.367	1329.71
1031.656	1305.3
1031.945	1273.44
1032.233	1285.19
1032.522	1263.05
1032.81	1258.3
1033.099	1258.75
1033.387	1235.48
1033.675	1232.99
1033.963	1222.37
1034.251	1214.91
1034.54	1210.39
1034.828	1188.92
1035.116	1183.27
1035.403	1205.42
1035.691	1170.62
1035.979	1180.11
1036.267	1172.2
1036.554	1127.68
1036.842	1153.67
1037.129	1153.9
1037.417	1135.37
1037.704	1119.32
1037.992	1120.68
1038.279	1117.06
1038.566	1077.29
1038.853	1077.29
1039.14	1077.29
