Data from aluminium_macbook_case_FLMS001491_087.txt Node
Date: Tue Feb 07 10:44:17 GMT 2017
User: dcchb
Spectrometer: FLMS00149
Trigger mode: 0
Integration Time (sec): 2.000000E-2
Scans to average: 10
Electric dark correction enabled: true
Nonlinearity correction enabled: false
Boxcar width: 0
XAxis mode: Wavelengths
Number of Pixels in Spectrum: 2048
>>>>>Begin Spectral Data<<<<<
341.393	3.25
341.776	3.25
342.16	3.25
342.543	-66.58
342.927	-52.57
343.31	-67.03
343.693	-79.91
344.077	-71.78
344.46	-69.52
344.843	-36.3
345.226	-12.57
345.61	-33.59
345.993	-18.9
346.376	-13.47
346.759	13.87
347.142	34.66
347.525	50.93
347.908	64.49
348.291	71.72
348.674	92.51
349.057	74.89
349.44	125.51
349.823	141.1
350.206	175.9
350.588	260.19
350.971	285.73
351.354	291.15
351.737	301.55
352.119	307.42
352.502	328.66
352.884	347.65
353.267	341.32
353.65	350.58
354.032	366.63
354.414	368.44
354.797	389
355.179	393.52
355.562	389.23
355.944	417.7
356.326	429.68
356.709	397.14
357.091	418.38
357.473	426.97
357.855	419.73
358.238	443.01
358.62	433.52
359.002	393.52
359.384	428.77
359.766	427.42
360.148	444.82
360.53	421.99
360.912	413.41
361.294	425.61
361.676	449.56
362.057	439.4
362.439	416.57
362.821	418.38
363.203	426.06
363.584	434.42
363.966	440.07
364.348	433.52
364.729	450.92
365.111	439.4
365.493	447.08
365.874	439.17
366.256	429.23
366.637	446.17
367.019	444.37
367.4	449.56
367.781	444.82
368.163	438.04
368.544	417.7
368.925	456.34
369.306	441.88
369.688	457.02
370.069	473.07
370.45	465.61
370.831	454.08
371.212	439.62
371.593	481.43
371.974	475.1
372.355	478.49
372.736	482.78
373.117	466.51
373.498	481.88
373.879	480.3
374.26	470.35
374.641	461.99
375.021	460.41
375.402	472.39
375.783	523.69
376.163	547.64
376.544	558.49
376.925	545.16
377.305	551.48
377.686	551.03
378.066	525.04
378.447	547.19
378.827	535.66
379.208	567.3
379.588	550.35
379.968	595.1
380.349	555.55
380.729	571.14
381.109	576.11
381.489	567.08
381.87	592.61
382.25	609.33
382.63	607.53
383.01	610.46
383.39	584.7
383.77	632.84
384.15	647.75
384.53	648.88
384.91	627.86
385.29	657.69
385.67	654.08
386.049	673.97
386.429	669.45
386.809	689.33
387.189	710.8
387.568	686.62
387.948	705.38
388.328	698.82
388.707	707.64
389.087	728.43
389.466	733.85
389.846	747.18
390.225	752.16
390.605	758.03
390.984	781.08
391.363	756.68
391.743	780.18
392.122	800.74
392.501	798.26
392.881	826.5
393.26	852.27
393.639	814.75
394.018	828.09
394.397	833.74
394.776	873.51
395.155	896.11
395.534	871.93
395.913	888.42
396.292	900.85
396.671	919.83
397.05	933.85
397.429	932.26
397.808	943.34
398.186	946.5
398.565	970.45
398.944	960.06
399.323	985.14
399.701	968.87
400.08	995.54
400.458	1016.56
400.837	1021.3
401.215	1036.89
401.594	1071.02
401.972	1065.37
402.351	1079.38
402.729	1061.53
403.107	1086.38
403.486	1116.44
403.864	1128.19
404.242	1140.17
404.62	1147.63
404.999	1150.56
405.377	1191.47
405.755	1181.97
406.133	1222.43
406.511	1230.56
406.889	1224.46
407.267	1287.51
407.645	1289.09
408.023	1291.35
408.401	1320.28
408.779	1347.39
409.156	1368.41
409.534	1341.97
409.912	1397.11
410.29	1432.36
410.667	1451.57
411.045	1459.26
411.422	1478.92
411.8	1507.62
412.178	1544.45
412.555	1513.94
412.933	1557.78
413.31	1559.37
413.687	1653.37
414.065	1631.45
414.442	1650.44
414.819	1683.2
415.197	1666.71
415.574	1722.3
415.951	1739.7
416.328	1738.57
416.705	1780.83
417.082	1809.98
417.46	1849.98
417.837	1840.71
418.214	1828.51
418.591	1887.04
418.967	1896.53
419.344	1883.88
419.721	1916.64
420.098	1973.14
420.475	1981.5
420.852	1990.99
421.228	2006.13
421.605	2047.71
421.982	2046.58
422.358	2066.25
422.735	2130.65
423.111	2101.05
423.488	2195.51
423.864	2164.77
424.241	2212.68
424.617	2261.95
424.994	2214.26
425.37	2255.84
425.746	2329.97
426.123	2358.44
426.499	2317.09
426.875	2403.86
427.251	2450.19
427.627	2466.46
428.003	2507.14
428.379	2516.18
428.756	2548.04
429.132	2608.83
429.507	2601.37
429.883	2664.87
430.259	2727.47
430.635	2746.91
431.011	2764.31
431.387	2873.68
431.763	2922.27
432.138	2939.67
432.514	2922.72
432.89	2971.08
433.265	3056.73
433.641	3117.29
434.016	3104.18
434.392	3199.32
434.767	3257.85
435.143	3227.12
435.518	3264.86
435.894	3326.55
436.269	3374.91
436.644	3418.07
437.02	3462.59
437.395	3486.77
437.77	3479.32
438.145	3576.49
438.52	3638.86
438.895	3628.69
439.271	3674.34
439.646	3765.41
440.021	3795.01
440.395	3849.25
440.77	3781.68
441.145	3864.62
441.52	3950.49
441.895	3867.55
442.27	3944.84
442.645	3986.42
443.019	4039.53
443.394	3978.06
443.769	4061.67
444.143	4081.11
444.518	4189.13
444.892	4163.37
445.267	4186.42
445.641	4234.1
446.016	4269.35
446.39	4254.21
446.764	4362
447.139	4333.53
447.513	4377.82
447.887	4425.51
448.262	4452.62
448.636	4475.22
449.01	4563.35
449.384	4592.73
449.758	4656.46
450.132	4692.16
450.506	4755.21
450.88	4795.89
451.254	4771.94
451.628	4876.79
452.002	4911.59
452.376	4973.29
452.75	5002.21
453.123	5080.4
453.497	5132.83
453.871	5199.04
454.244	5274.97
454.618	5278.36
454.992	5394.07
455.365	5435.2
455.739	5554.29
456.112	5627.06
456.486	5674.51
456.859	5728.3
457.232	5877.22
457.606	5790.89
457.979	5969.42
458.352	6079.7
458.725	6142.3
459.099	6155.4
459.472	6317.21
459.845	6365.79
460.218	6422.29
460.591	6477.2
460.964	6505.22
461.337	6668.84
461.71	6738.66
462.083	6847.36
462.456	6905.67
462.829	6915.84
463.201	7082.38
463.574	7086.45
463.947	7217.07
464.32	7346.33
464.692	7399.21
465.065	7493.9
465.438	7606.21
465.81	7787.45
466.183	7861.12
466.555	8005.98
466.928	8069.03
467.3	8123.71
467.672	8219.08
468.045	8516.02
468.417	8499.75
468.789	8532.97
469.161	8686.86
469.534	8844.15
469.906	8981.54
470.278	9081.65
470.65	9221.76
471.022	9376.79
471.394	9562.55
471.766	9631.7
472.138	9755.31
472.51	9958.02
472.882	10124.34
473.253	10209.08
473.625	10365.24
473.997	10574.04
474.369	10629.86
474.74	10763.64
475.112	10999.8
475.484	11216.74
475.855	11463.29
476.227	11586.45
476.598	11848.59
476.97	12048.13
477.341	12282.02
477.713	12451.51
478.084	12524.5
478.455	12996.81
478.827	13017.14
479.198	13396.79
479.569	13445.83
479.94	13783.45
480.311	13997.46
480.682	14287.84
481.053	14599.7
481.424	14859.13
481.795	14915.62
482.166	15142.06
482.537	15411.43
482.908	15705.43
483.279	15848.03
483.65	16184.07
484.021	16477.62
484.391	16641.23
484.762	16842.81
485.133	16959.41
485.503	17245.51
485.874	17617.47
486.244	17787.87
486.615	18176.33
486.985	18433.05
487.356	18755.52
487.726	18966.37
488.097	19319.8
488.467	19441.16
488.837	19857.42
489.207	20147.13
489.578	20477.74
489.948	20527.68
490.318	20860.33
490.688	21012.19
491.058	21298.06
491.428	21637.71
491.798	21803.35
492.168	22249.44
492.538	22281.76
492.908	22487.63
493.278	22820.05
493.648	22758.58
494.017	23194.73
494.387	23429.3
494.757	23519.92
495.126	23885.11
495.496	23852.79
495.866	24181.82
496.235	24383.4
496.605	24674.01
496.974	24846.44
497.344	25032.19
497.713	25318.29
498.082	25396.71
498.452	25703.59
498.821	26000.76
499.19	26007.99
499.559	26322.78
499.928	26557.13
500.298	26715.09
500.667	26933.39
501.036	26910.79
501.405	27262.64
501.774	27299.03
502.143	27522.52
502.512	27755.51
502.88	27917.09
503.249	28007.94
503.618	28111.66
503.987	28276.86
504.356	28538.09
504.724	28776.5
505.093	28710.74
505.462	28962.94
505.83	29264.85
506.199	29563.6
506.567	29827.1
506.936	29865.29
507.304	30170.59
507.672	30363.35
508.041	30576.23
508.409	30777.58
508.777	31193.61
509.145	31328.07
509.514	31358.36
509.882	31695.75
510.25	31750.21
510.618	32067.04
510.986	32236.53
511.354	32674.71
511.722	32911.99
512.09	33235.14
512.458	33207.57
512.826	33528.47
513.193	33730.95
513.561	33847.1
513.929	34109.02
514.297	34309.47
514.664	34685.95
515.032	34780.64
515.4	35116.68
515.767	35200.97
516.135	35334.52
516.502	35331.81
516.869	35884.56
517.237	36107.16
517.604	36094.73
517.972	36510.54
518.339	36784.43
518.706	36809.29
519.073	37025.1
519.44	37350.97
519.808	37816.04
520.175	37806.1
520.542	38362.69
520.909	38675
521.276	38655.57
521.643	39212.84
522.009	39371.25
522.376	39750.23
522.743	39888.98
523.11	40472.92
523.477	40849.41
523.843	40965.34
524.21	41316.51
524.577	41525.09
524.943	41862.49
525.31	42176.15
525.676	42475.13
526.043	42620.66
526.409	42805.29
526.776	43310.81
527.142	43421.32
527.508	43687.07
527.874	43939.27
528.241	44253.61
528.607	44393.04
528.973	44733.82
529.339	44839.13
529.705	45018.79
530.071	45534.25
530.437	45530.41
530.803	45859.44
531.169	46051.3
531.535	46183.5
531.901	46383.05
532.267	46612.64
532.632	46935.57
532.998	47029.13
533.364	47403.81
533.73	47425.96
534.095	47778.26
534.461	47919.05
534.826	48135.99
535.192	48251.47
535.557	48484.46
535.923	48550.22
536.288	48865.24
536.653	48914.73
537.019	48789.99
537.384	48935.75
537.749	49284.21
538.114	49276.76
538.479	49538.22
538.845	49729.17
539.21	49666.35
539.575	49820.92
539.94	50003.29
540.305	50217.75
540.67	50195.6
541.034	50328.7
541.399	50432.21
541.764	50601.01
542.129	50617.96
542.494	50719.43
542.858	50881.23
543.223	50950.38
543.587	51067.89
543.952	51090.27
544.316	51351.28
544.681	51332.75
545.045	51540.88
545.41	51715.56
545.774	51778.16
546.138	51814.09
546.503	51988.55
546.867	51998.72
547.231	52377.69
547.595	52399.61
547.959	52510.79
548.324	52505.6
548.688	52628.53
549.052	52799.37
549.416	52910.33
549.779	53014.06
550.143	53139.7
550.507	53252.47
550.871	53324.11
551.235	53434.16
551.599	53620.14
551.962	53652.46
552.326	53775.62
552.689	53853.36
553.053	53885.45
553.417	53954.15
553.78	54328.6
554.143	54257.19
554.507	54312.55
554.87	54477.07
555.234	54723.84
555.597	54603.85
555.96	54746.44
556.323	54816.5
556.686	54807.23
557.05	55115.92
557.413	55209.93
557.776	55178.07
558.139	55429.81
558.502	55445.18
558.865	55575.8
559.228	55805.62
559.59	55880.65
559.953	55921.78
560.316	56196.12
560.679	56276.8
561.041	56397.7
561.404	56535.32
561.767	56705.49
562.129	56674.3
562.492	56961.07
562.854	56967.17
563.217	56981.19
563.579	57148.86
563.941	57343.44
564.304	57396.32
564.666	57560.38
565.028	57593.6
565.39	57712.47
565.753	57860.71
566.115	57887.38
566.477	58054.15
566.839	58111.78
567.201	58221.38
567.563	58223.64
567.925	58521.03
568.287	58454.37
568.648	58525.1
569.01	58681.71
569.372	58716.28
569.734	58673.8
570.095	58905.88
570.457	58962.38
570.819	59048.25
571.18	59019.78
571.542	59180.9
571.903	59221.13
572.265	59262.71
572.626	59334.57
572.987	59351.29
573.349	59439.43
573.71	59644.17
574.071	59625.86
574.432	59722.13
574.794	60002.57
575.155	59813.43
575.516	59800.77
575.877	59890.04
576.238	59937.49
576.599	60071.95
576.96	60080.76
577.32	60088.45
577.681	60209.35
578.042	60343.13
578.403	60308.56
578.763	60421.09
579.124	60392.4
579.485	60488.44
579.845	60492.05
580.206	60448.66
580.566	60513.97
580.927	60522.11
581.287	60612.5
581.648	60556.91
582.008	60632.16
582.368	60582.9
582.728	60634.65
583.089	60617.02
583.449	60563.69
583.809	60626.51
584.169	60680.07
584.529	60571.83
584.889	60806.4
585.249	60534.76
585.609	60552.39
585.969	60722.1
586.329	60550.13
586.688	60661.99
587.048	60625.61
587.408	60582.22
587.768	60645.95
588.127	60652.5
588.487	60641.2
588.846	60747.41
589.206	60631.71
589.565	60643.69
589.925	60770.92
590.284	60709.45
590.643	60781.09
591.003	60814.76
591.362	60814.76
591.721	60807.75
592.08	60798.94
592.44	60870.12
592.799	60860.63
593.158	60826.51
593.517	60835.77
593.876	60912.83
594.235	60833.06
594.593	60921.87
594.952	60986.5
595.311	60883.23
595.67	60951.7
596.029	61001.87
596.387	61023.56
596.746	61023.11
597.104	60834.87
597.463	60949.44
597.822	60955.09
598.18	60923.45
598.538	60919.39
598.897	61020.18
599.255	60834.87
599.613	61205.03
599.972	60955.54
600.33	61053.39
600.688	60946.05
601.046	61072.6
601.404	61058.59
601.762	61052.94
602.12	61175.88
602.478	61158.7
602.836	61181.07
603.194	61102.43
603.552	61115.54
603.91	61032.83
604.268	61231.47
604.625	61137.23
604.983	61276.67
605.341	61188.76
605.698	61318.25
606.056	61322.54
606.413	61298.36
606.771	61445.93
607.128	61449.54
607.485	61357.79
607.843	61430.56
608.2	61548.3
608.557	61572.03
608.914	61524.57
609.272	61616.09
609.629	61668.52
609.986	61739.03
610.343	61705.58
610.7	61804.11
611.057	61753.49
611.414	61729.08
611.771	61735.64
612.127	61843.43
612.484	61798.91
612.841	61833.49
613.198	61748.52
613.554	61772.92
613.911	61947.83
614.267	61844.79
614.624	61896.76
614.98	61831.91
615.337	62038.23
615.693	61903.32
616.05	61857.44
616.406	62032.13
616.762	61910.1
617.118	61943.09
617.475	61979.02
617.831	61965.01
618.187	61997.78
618.543	62027.61
618.899	62113.03
619.255	62049.75
619.611	62026.93
619.967	62089.53
620.323	62143.54
620.678	62031.45
621.034	62066.93
621.39	62026.93
621.746	61977.44
622.101	62290.2
622.457	62044.33
622.812	62144.44
623.168	62202.07
623.523	62148.96
623.879	62237.09
624.234	62072.58
624.589	62188.51
624.945	62219.01
625.3	62267.37
625.655	62293.59
626.01	62279.35
626.365	62324.32
626.72	62223.08
627.075	62240.48
627.43	62211.33
627.785	62149.64
628.14	62212.23
628.495	62247.26
628.85	62220.14
629.205	62110.32
629.559	62211.33
629.914	62099.47
630.269	62093.82
630.623	62047.72
630.978	61957.1
631.332	62062.63
631.687	62120.71
632.041	61919.81
632.396	61975.4
632.75	61864.9
633.104	61886.59
633.459	61766.6
633.813	61756.2
634.167	61799.36
634.521	61732.47
634.875	61768.18
635.229	61691.34
635.583	61536.55
635.937	61546.04
636.291	61567.28
636.645	61530.44
636.999	61464.23
637.352	61466.94
637.706	61365.93
638.06	61392.82
638.413	61285.93
638.767	61384.46
639.121	61393.5
639.474	61205.26
639.828	61291.58
640.181	61242.09
640.534	61275.99
640.888	61096.78
641.241	61058.59
641.594	61103.56
641.947	61137.69
642.301	61095.88
642.654	61089.55
643.007	61102.88
643.36	61069.67
643.713	61061.98
644.066	61125.26
644.419	61009.55
644.771	60861.54
645.124	60634.2
645.477	60565.5
645.83	60395.11
646.182	60348.33
646.535	60231.5
646.888	60294.09
647.24	60107.88
647.593	60275.56
647.945	60195.34
648.298	60023.37
648.65	59957.15
649.002	59945.85
649.355	60030.14
649.707	59951.95
650.059	60007.55
650.411	60315.56
650.763	60322.34
651.115	60492.28
651.467	60385.62
651.819	60341.1
652.171	60305.17
652.523	60290.48
652.875	60276.92
653.227	60198.73
653.578	60257.71
653.93	60138.62
654.282	60098.62
654.633	60038.28
654.985	60012.29
655.337	60052.74
655.688	60035.12
656.039	60043.48
656.391	59865.63
656.742	59948.11
657.094	59896.14
657.445	59993.99
657.796	59965.06
658.147	59880.54
658.498	59892.75
658.849	59923.93
659.2	59891.62
659.551	59831.73
659.902	59893.43
660.253	59810.49
660.604	59902.92
660.955	59802.35
661.306	59889.13
661.656	59754.22
662.007	59816.37
662.358	59801.9
662.708	59780.66
663.059	59791.51
663.409	59653.43
663.76	59854.56
664.11	59788.12
664.461	59849.36
664.811	59795.8
665.161	59812.98
665.511	59697.5
665.862	59715.12
666.212	59771.85
666.562	59727.55
666.912	59753.09
667.262	59622.25
667.612	59631.06
667.962	59614.34
668.312	59560.55
668.662	59704.28
669.011	59628.12
669.361	59488.92
669.711	59414.79
670.06	59468.13
670.41	59387.9
670.76	59327.11
671.109	59389.26
671.459	59340.45
671.808	59252.31
672.157	59307.45
672.507	59167.57
672.856	59084.86
673.205	59203.73
673.554	59237.4
673.904	59103.84
674.253	59224.74
674.602	59119.21
674.951	58727.35
675.3	58617.3
675.649	58991.3
675.998	59002.38
676.346	58994.01
676.695	59012.77
677.044	58800.8
677.393	58892.55
677.741	58895.94
678.09	58851.42
678.438	58835.37
678.787	58856.84
679.135	58823.62
679.484	58624.98
679.832	58735.04
680.181	58671.99
680.529	58748.37
680.877	58694.59
681.225	58640.35
681.573	58819.56
681.922	58557.64
682.27	58473.58
682.618	58543.86
682.966	58474.25
683.314	58539.79
683.661	58491.2
684.009	58403.07
684.357	58295.95
684.705	58282.62
685.053	58301.38
685.4	58288.27
685.748	58141.15
686.095	58094.83
686.443	58007.6
686.79	58040.14
687.138	57975.96
687.485	57964.21
687.832	57865.68
688.18	57918.34
688.527	57754.5
688.874	57825.68
689.221	57626.59
689.568	57519.7
689.915	57458.69
690.262	57425.24
690.609	57344.57
690.956	57324.68
691.303	57251.01
691.65	57082.43
691.997	56992.94
692.344	56881.75
692.69	56784.35
693.037	56790.68
693.383	56609.9
693.73	56691.7
694.077	56487.41
694.423	56570.35
694.769	56395.66
695.116	56298.94
695.462	56263.69
695.808	56161.77
696.155	56148.44
696.501	55935.34
696.847	56004.49
697.193	55788
697.539	55895.34
697.885	55632.97
698.231	55638.85
698.577	55651.05
698.923	55509.13
699.269	55382.36
699.614	55299.65
699.96	55200.67
700.306	55214.9
700.651	55087.45
700.997	55034.57
701.342	55129.71
701.688	54996.83
702.033	54842.94
702.379	54843.16
702.724	54778.53
703.069	54897.62
703.415	54525.66
703.76	54584.19
704.105	54600.23
704.45	54479.33
704.795	54332.67
705.14	54158.66
705.485	54184.2
705.83	54204.08
706.175	54187.59
706.52	54031.43
706.865	53944.88
707.209	53993.24
707.554	53760.93
707.899	53951.66
708.243	53709.86
708.588	53728.39
708.932	53404.33
709.277	53440.04
709.621	53510.32
709.966	53236.88
710.31	53257.67
710.654	53002.76
710.998	53068.07
711.342	53026.71
711.687	52915.53
712.031	52739.49
712.375	52653.16
712.719	52642.54
713.063	52561.19
713.407	52664.46
713.75	52362.32
714.094	52403.45
714.438	52262.67
714.782	52251.59
715.125	51942.67
715.469	52046.85
715.812	51872.85
716.156	51673.53
716.499	51669.46
716.843	51643.7
717.186	51413.87
717.53	51577.03
717.873	51549.92
718.216	51358.06
718.559	51338.4
718.902	51104.05
719.246	51122.58
719.589	50907.9
719.932	50937.05
720.275	50842.36
720.617	50757.62
720.96	50683.72
721.303	50721.69
721.646	50621.8
721.989	50369.16
722.331	50627.23
722.674	50389.27
723.016	50444.41
723.359	50403.51
723.701	50391.08
724.044	50281.02
724.386	50074.47
724.729	50199.44
725.071	50049.39
725.413	49974.36
725.755	49997.41
726.097	49910.86
726.439	49847.81
726.782	49752.22
727.124	49925.1
727.465	49785.44
727.807	49716.52
728.149	49584.32
728.491	49557.2
728.833	49639.68
729.175	49440.59
729.516	49399.24
729.858	49274.5
730.199	49322.63
730.541	49262.52
730.882	49181.39
731.224	49311.56
731.565	49037.44
731.906	49086.03
732.248	49009.64
732.589	48860.72
732.93	48592.71
733.271	48675.19
733.612	48641.07
733.953	48644.46
734.294	48352.71
734.635	48453.95
734.976	48504.35
735.317	48102.1
735.658	48174.41
735.999	48087.63
736.339	48047.41
736.68	48075.43
737.021	47850.58
737.361	47635.22
737.702	47877.92
738.042	47612.39
738.383	47478.38
738.723	47487.65
739.063	47192.29
739.404	47326.98
739.744	47205.4
740.084	47101.9
740.424	47005.85
740.764	46906.65
741.104	47077.04
741.444	46742.36
741.784	46647.45
742.124	46617.39
742.464	46518.41
742.804	46546.66
743.143	46315.25
743.483	46425.3
743.823	46174.92
744.162	46189.83
744.502	46186.44
744.841	45907.35
745.181	46086.33
745.52	45827.35
745.86	45951.19
746.199	45790.07
746.538	45785.55
746.877	45882.04
747.216	45730.41
747.556	45578.32
747.895	45497.65
748.234	45455.39
748.573	45335.16
748.911	45323.86
749.25	45194.38
749.589	45148.5
749.928	45084.1
750.267	45241.61
750.605	45032.12
750.944	44916.19
751.283	44849.07
751.621	44884.78
751.96	44624
752.298	44670.32
752.636	44735.41
752.975	44549.87
753.313	44438.01
753.651	44572.47
753.989	44246.6
754.327	44198.47
754.666	43931.81
755.004	43991.24
755.342	43920.29
755.679	43793.28
756.017	43624.93
756.355	43696.11
756.693	43402.79
757.031	43588.77
757.368	43157.37
757.706	43289.34
758.044	43088.22
758.381	43164.15
758.719	42983.81
759.056	42951.95
759.394	42623.14
759.731	42372.76
760.068	42356.94
760.405	42169.15
760.743	42101.8
761.08	42135.47
761.417	41958.98
761.754	41849.15
762.091	41783.39
762.428	41471.31
762.765	41168.72
763.102	41406
763.438	41088.27
763.775	40785.68
764.112	40757.21
764.449	40733.25
764.785	40625.68
765.122	40196.77
765.458	40077.68
765.795	40102.76
766.131	40050.33
766.467	39770.34
766.804	39656.67
767.14	39364.7
767.476	39338.26
767.812	39206.29
768.148	39234.76
768.485	38889.68
768.821	38854.43
769.157	38755
769.492	38532.18
769.828	38456.25
770.164	38087.67
770.5	38139.87
770.836	37899.2
771.171	37613.56
771.507	37827.34
771.842	37508.7
772.178	37518.42
772.513	37366.56
772.849	37249.73
773.184	37028.04
773.519	37041.14
773.855	36701.72
774.19	36581.95
774.525	36527.71
774.86	36499.69
775.195	36417.21
775.53	36233.71
775.865	36153.71
776.2	36008.63
776.535	35751.46
776.87	35751.69
777.205	35618.81
777.539	35418.36
777.874	35620.17
778.209	35255.65
778.543	35149.22
778.878	35142.66
779.212	34986.51
779.547	34746.29
779.881	34872.39
780.215	34611.83
780.55	34805.72
780.884	34544.49
781.218	34450.25
781.552	34341.55
781.886	34188.79
782.22	33973.2
782.554	33809.37
782.888	33552.2
783.222	33397.17
783.556	33238.31
783.889	33429.49
784.223	33096.62
784.557	33031.08
784.89	33102.72
785.224	32809.84
785.557	32715.16
785.891	32644.65
786.224	32524.43
786.558	32589.06
786.891	32241.5
787.224	32074.04
787.557	31970.54
787.891	31896.2
788.224	31836.08
788.557	31706.82
788.89	31647.39
789.223	31482.87
789.556	31286.95
789.888	31146.38
790.221	31086.72
790.554	30868.43
790.887	30897.35
791.219	30596.34
791.552	30431.6
791.884	30331.49
792.217	30229.57
792.549	30035
792.882	29862.12
793.214	29818.06
793.546	29726.31
793.879	29701.68
794.211	29343.72
794.543	29455.58
794.875	29237.73
795.207	29340.1
795.539	29121.13
795.871	28936.73
796.203	28736.05
796.535	28776.73
796.867	28640.01
797.198	28545.32
797.53	28317.08
797.862	28345.78
798.193	28240.02
798.525	28111.21
798.856	28066.69
799.188	27788.05
799.519	27702.86
799.85	27541.96
800.182	27640.49
800.513	27660.37
800.844	27327.5
801.175	27524.56
801.506	27447.95
801.837	27157.56
802.168	27187.62
802.499	27178.35
802.83	27013.84
803.161	26843.45
803.491	26965.7
803.822	26852.94
804.153	26687.29
804.483	26615.66
804.814	26547.86
805.145	26376.11
805.475	26596
805.805	26370.01
806.136	26348.77
806.466	26302.44
806.796	26282.33
807.126	26086.86
807.457	26155.78
807.787	26118.49
808.117	26070.36
808.447	25883.7
808.777	26026.29
809.107	25854.09
809.436	25905.84
809.766	25743.14
810.096	25608.22
810.426	25541.56
810.755	25669.47
811.085	25573.88
811.414	25462.92
811.744	25338.18
812.073	25270.15
812.403	25306.54
812.732	25131.63
813.061	25189.48
813.39	24979.77
813.719	25017.73
814.049	25114.23
814.378	24914.23
814.707	24772.31
815.036	24808.02
815.365	24585.65
815.693	24478.31
816.022	24510.85
816.351	24295.49
816.68	24272.67
817.008	24227.24
817.337	24167.81
817.665	24025.89
817.994	24076.97
818.322	23979.34
818.651	23909.29
818.979	23728.5
819.307	23785.9
819.636	23832.45
819.964	23650.76
820.292	23734.6
820.62	23581.16
820.948	23464.1
821.276	23514.04
821.604	23509.75
821.932	23489.41
822.259	23516.75
822.587	23454.16
822.915	23342.3
823.243	23473.37
823.57	23356.53
823.898	23446.93
824.225	23272.24
824.553	23288.96
824.88	23228.17
825.207	23346.82
825.535	23173.03
825.862	23265.69
826.189	23165.35
826.516	23262.07
826.843	23311.79
827.17	23168.97
827.497	23185.92
827.824	23166.71
828.151	23211.45
828.478	23069.53
828.805	23252.13
829.131	23052.81
829.458	23042.87
829.785	22912.25
830.111	23057.56
830.438	23144.11
830.764	23075.86
831.09	23034.06
831.417	22914.06
831.743	23034.06
832.069	23089.87
832.395	23003.55
832.722	23034.06
833.048	22856.21
833.374	22967.62
833.7	22863.44
834.026	22952.48
834.351	22995.41
834.677	22927.39
835.003	22841.29
835.329	22878.35
835.654	22931.46
835.98	22876.09
836.306	22926.26
836.631	22724.23
836.956	22857.11
837.282	22978.46
837.607	22800.16
837.932	22743.67
838.258	22727.85
838.583	22820.5
838.908	22739.83
839.233	22696.89
839.558	22724.23
839.883	22569.21
840.208	22629.32
840.533	22552.26
840.858	22607.85
841.182	22521.3
841.507	22630.9
841.832	22448.76
842.156	22398.82
842.481	22308.88
842.805	22342.77
843.13	22279.95
843.454	22135.77
843.778	22234.08
844.103	22118.6
844.427	22140.97
844.751	22073.4
845.075	22060.75
845.399	21906.85
845.723	21839.74
846.047	21853.07
846.371	21711.6
846.695	21718.16
847.019	21476.58
847.343	21366.75
847.666	21308.45
847.99	21298.06
848.313	21215.12
848.637	21042.47
848.96	20952.53
849.284	20928.12
849.607	20954.11
849.931	20748.47
850.254	20597.28
850.577	20510.05
850.9	20325.43
851.223	20362.71
851.546	20224.64
851.869	20167.24
852.192	20190.51
852.515	20007.92
852.838	19888.6
853.161	19971.99
853.483	19755.27
853.806	19700.58
854.129	19738.55
854.451	19587.14
854.774	19451.32
855.096	19488.61
855.419	19397.99
855.741	19354.6
856.063	19198.22
856.385	19207.49
856.708	19083.42
857.03	19031.9
857.352	19082.75
857.674	18949.19
857.996	18896.54
858.318	18769.99
858.64	18699.71
858.961	18640.27
859.283	18644.34
859.605	18452.93
859.926	18496.32
860.248	18425.36
860.57	18380.84
860.891	18349.66
861.212	18295.65
861.534	18327.06
861.855	18245.03
862.176	18262.43
862.498	18154.18
862.819	18196.89
863.14	17951.25
863.461	18029.44
863.782	17903.12
864.103	17933.85
864.424	17888.2
864.745	17940.63
865.065	17903.79
865.386	17819.05
865.707	17828.09
866.027	17885.49
866.348	17861.08
866.668	17857.92
866.989	17794.42
867.309	17621.77
867.63	17745.61
867.95	17873.97
868.27	17635.1
868.59	17735.44
868.91	17585.16
869.23	17633.97
869.55	17699.51
869.87	17620.41
870.19	17582
870.51	17554.65
870.83	17579.06
871.15	17482.11
871.469	17566.63
871.789	17565.95
872.109	17554.43
872.428	17350.81
872.748	17445.73
873.067	17539.51
873.386	17457.03
873.706	17298.84
874.025	17351.04
874.344	17404.37
874.663	17390.81
874.982	17383.36
875.301	17375.45
875.62	17328.89
875.939	17250.48
876.258	17268.78
876.577	17213.64
876.896	17167.77
877.214	17160.99
877.533	17177.94
877.852	17219.52
878.17	17243.25
878.489	17234.89
878.807	17199.86
879.125	17181.78
879.444	17103.36
879.762	16994.67
880.08	17039.86
880.398	16964.38
880.716	16996.47
881.034	16900.21
881.352	16844.84
881.67	16869.7
881.988	16841.68
882.306	16794.9
882.624	16760.55
882.941	16673.77
883.259	16697.72
883.577	16561.23
883.894	16608.24
884.212	16612.53
884.529	16528.24
884.846	16592.64
885.164	16429.26
885.481	16478.97
885.798	16470.16
886.115	16268.36
886.432	16202.37
886.75	16145.42
887.067	16140.9
887.383	16098.64
887.7	16080.34
888.017	15954.24
888.334	16138.42
888.651	15981.13
888.967	15869.5
889.284	15835.6
889.6	15718.99
889.917	15737.52
890.233	15762.16
890.55	15642.39
890.866	15781.59
891.182	15617.75
891.498	15551.09
891.815	15461.37
892.131	15351.09
892.447	15357.2
892.763	15229.29
893.079	15199.01
893.395	15276.75
893.71	15215.96
894.026	15113.13
894.342	15114.26
894.657	14982.06
894.973	14912.46
895.289	14883.54
895.604	14878.79
895.92	14760.83
896.235	14760.15
896.55	14732.58
896.865	14659.36
897.181	14660.49
897.496	14666.82
897.811	14593.15
898.126	14504.11
898.441	14470.44
898.756	14396.09
899.071	14315.87
899.386	14284.23
899.7	14182.76
900.015	14116.78
900.33	14093.95
900.644	14053.95
900.959	14034.29
901.273	13971.69
901.588	13906.16
901.902	13964.24
902.216	13902.09
902.531	13829.78
902.845	13827.52
903.159	13793.85
903.473	13659.84
903.787	13623.68
904.101	13511.59
904.415	13601.54
904.729	13597.02
905.042	13554.76
905.356	13480.41
905.67	13481.99
905.984	13435.66
906.297	13388.43
906.611	13346.85
906.924	13262.56
907.237	13240.64
907.551	13199.96
907.864	13145.5
908.177	13041.55
908.491	13033.19
908.804	12972.17
909.117	12949.57
909.43	12876.36
909.743	12896.47
910.056	12886.98
910.368	12856.92
910.681	12748.45
910.994	12657.83
911.307	12675.68
911.619	12578.51
911.932	12644.27
912.244	12587.55
912.557	12575.57
912.869	12480.66
913.181	12452.64
913.494	12382.36
913.806	12344.84
914.118	12254.9
914.43	12176.26
914.742	12180.33
915.054	12113.66
915.366	12063.72
915.678	12026.89
915.99	12002.93
916.302	11873.9
916.613	11912.09
916.925	11741.7
917.236	11950.73
917.548	11762.49
917.859	11854.46
918.171	11660.12
918.482	11649.27
918.794	11557.07
919.105	11597.75
919.416	11472.33
919.727	11362.72
920.038	11376.96
920.349	11413.12
920.66	11326.34
920.971	11338.09
921.282	11275.95
921.593	11099.68
921.903	11089.96
922.214	11104.2
922.525	10967.48
922.835	11018.33
923.146	10878.22
923.456	10892.68
923.767	10803.19
924.077	10847.03
924.387	10725.45
924.697	10636.19
925.008	10630.09
925.318	10597.77
925.628	10582.63
925.938	10493.59
926.248	10435.06
926.558	10451.11
926.867	10372.24
927.177	10238.23
927.487	10236.2
927.796	10143.77
928.106	10186.03
928.416	10134.06
928.725	10061.06
929.034	10021.74
929.344	9990.33
929.653	9890.9
929.962	9837.34
930.271	9815.42
930.581	9768.19
930.89	9726.61
931.199	9620.4
931.508	9616.1
931.817	9593.28
932.125	9588.53
932.434	9522.55
932.743	9453.62
933.051	9441.87
933.36	9375.43
933.669	9300.63
933.977	9303.79
934.286	9268.09
934.594	9202.1
934.902	9156
935.21	9100.18
935.519	9071.26
935.827	9034.42
936.135	8942.9
936.443	8901.55
936.751	8917.14
937.059	8885.5
937.367	8809.8
937.674	8828.55
937.982	8773.64
938.29	8690.03
938.597	8736.35
938.905	8624.49
939.213	8595.34
939.52	8605.73
939.827	8582.01
940.135	8528.22
940.442	8446.87
940.749	8478.05
941.056	8465.4
941.363	8340.88
941.67	8352.63
941.977	8342.01
942.284	8280.09
942.591	8232.41
942.898	8206.2
943.205	8212.75
943.511	8278.74
943.818	8145.18
944.125	8085.52
944.431	8113.54
944.738	8055.01
945.044	8007.78
945.35	7978.86
945.657	7873.55
945.963	7937.05
946.269	7855.92
946.575	7842.36
946.881	7820.44
947.187	7830.39
947.493	7788.58
947.799	7749.71
948.105	7714.23
948.41	7683.5
948.716	7666.1
949.022	7625.65
949.327	7568.47
949.633	7533.45
949.938	7565.31
950.244	7473.33
950.549	7480.34
950.854	7404.64
951.16	7424.07
951.465	7361.7
951.77	7311.76
952.075	7288.71
952.38	7299.33
952.685	7274.02
952.99	7178.43
953.294	7207.8
953.599	7158.99
953.904	7131.2
954.209	7101.14
954.513	7072.89
954.818	7027.92
955.122	7038.54
955.426	6959.68
955.731	6973.23
956.035	6915.61
956.339	6907.93
956.643	6906.12
956.948	6857.76
957.252	6793.13
957.556	6819.34
957.86	6721.49
958.163	6727.59
958.467	6668.84
958.771	6700.93
959.075	6671.32
959.378	6627.71
959.682	6572.34
959.985	6553.58
960.289	6521.04
960.592	6458.67
960.896	6424.55
961.199	6389.97
961.502	6422.97
961.805	6337.55
962.108	6333.03
962.411	6329.18
962.714	6221.16
963.017	6259.81
963.32	6316.3
963.623	6156.53
963.926	6159.24
964.228	6129.42
964.531	6130.09
964.833	6067.04
965.136	6004.67
965.438	6015.75
965.741	5949.76
966.043	5982.98
966.345	5954.73
966.648	5907.27
966.95	5908.86
967.252	5845.81
967.554	5852.59
967.856	5860.04
968.158	5728.07
968.46	5757.67
968.761	5738.92
969.063	5621.63
969.365	5628.41
969.666	5652.59
969.968	5578.7
970.269	5558.13
970.571	5564.68
970.872	5576.89
971.174	5474.74
971.475	5442.88
971.776	5433.39
972.077	5403.56
972.378	5349.1
972.679	5386.38
972.98	5317.23
973.281	5324.46
973.582	5297.35
973.883	5272.04
974.183	5242.21
974.484	5184.81
974.785	5216.67
975.085	5142.77
975.386	5201.53
975.686	5117.24
975.986	5084.02
976.287	5099.39
976.587	4966.06
976.887	5016.9
977.187	4986.17
977.487	4962.44
977.787	4977.13
978.087	4921.09
978.387	4899.84
978.687	4910.24
978.987	4859.62
979.286	4857.13
979.586	4807.87
979.885	4823.46
980.185	4753.63
980.484	4773.52
980.784	4706.18
981.083	4664.59
981.382	4716.8
981.682	4683.13
981.981	4615.33
982.28	4639.74
982.579	4595.44
982.878	4605.39
983.177	4533.3
983.475	4528.33
983.774	4512.51
984.073	4529.91
984.372	4494.66
984.67	4412.4
984.969	4465.05
985.267	4400.2
985.566	4376.69
985.864	4376.01
986.162	4349.8
986.461	4344.6
986.759	4279.52
987.057	4302.57
987.355	4296.02
987.653	4313.87
987.951	4260.76
988.249	4273.64
988.547	4199.07
988.844	4209.69
989.142	4216.25
989.44	4157.04
989.737	4144.16
990.035	4137.38
990.332	4102.12
990.63	4080.43
990.927	4098.96
991.224	4072.29
991.521	4021.67
991.819	4021.9
992.116	4016.93
992.413	4027.32
992.71	4018.51
993.006	3953.2
993.303	3965.18
993.6	3921.79
993.897	3882.02
994.193	3865.52
994.49	3863.49
994.787	3829.14
995.083	3828.91
995.379	3810.83
995.676	3755.24
995.972	3766.09
996.268	3760.21
996.565	3765.86
996.861	3730.61
997.157	3739.87
997.453	3689.71
997.749	3626.88
998.044	3630.5
998.34	3659.2
998.636	3628.92
998.932	3597.28
999.227	3562.02
999.523	3577.62
999.818	3496.94
1000.114	3543.27
1000.409	3505.08
1000.704	3454.46
1001	3472.76
1001.295	3446.1
1001.59	3402.71
1001.885	3411.07
1002.18	3396.61
1002.475	3329.49
1002.77	3357.96
1003.065	3339.21
1003.359	3300.79
1003.654	3328.58
1003.949	3263.28
1004.243	3245.65
1004.538	3250.85
1004.832	3232.99
1005.127	3237.97
1005.421	3129.95
1005.715	3146.89
1006.009	3154.35
1006.304	3124.75
1006.598	3093.34
1006.892	3056.73
1007.186	3053.34
1007.48	3073.22
1007.773	3029.61
1008.067	3039.55
1008.361	2972.21
1008.655	2953.68
1008.948	2979.67
1009.242	2945.54
1009.535	2899.22
1009.829	2905.32
1010.122	2855.83
1010.415	2846.34
1010.708	2837.3
1011.001	2811.54
1011.295	2774.02
1011.588	2791.65
1011.881	2777.86
1012.173	2781.48
1012.466	2752.33
1012.759	2752.55
1013.052	2686.57
1013.344	2697.19
1013.637	2679.56
1013.93	2626.91
1014.222	2625.78
1014.514	2597.98
1014.807	2598.43
1015.099	2560.7
1015.391	2580.81
1015.683	2549.4
1015.976	2541.49
1016.268	2511.21
1016.56	2465.1
1016.851	2500.58
1017.143	2478.66
1017.435	2451.77
1017.727	2426.01
1018.018	2436.86
1018.31	2391.89
1018.602	2394.15
1018.893	2355.5
1019.185	2329.29
1019.476	2294.94
1019.767	2303.98
1020.058	2278.89
1020.35	2233.47
1020.641	2258.33
1020.932	2221.5
1021.223	2228.05
1021.514	2201.38
1021.804	2198.22
1022.095	2146.47
1022.386	2176.75
1022.677	2125.9
1022.967	2157.32
1023.258	2152.8
1023.548	2117.32
1023.839	2067.83
1024.129	2073.48
1024.419	2055.62
1024.709	2027.6
1025	2009.52
1025.29	2007.04
1025.58	1980.6
1025.87	1991.9
1026.16	1955.06
1026.449	1944.44
1026.739	1950.09
1027.029	1904.89
1027.319	1919.36
1027.608	1878.68
1027.898	1898.57
1028.187	1870.77
1028.477	1841.84
1028.766	1843.2
1029.055	1801.85
1029.344	1830.77
1029.634	1789.64
1029.923	1772.47
1030.212	1766.59
1030.501	1772.24
1030.79	1744.22
1031.078	1729.98
1031.367	1723.43
1031.656	1720.27
1031.945	1692.47
1032.233	1690.21
1032.522	1678.01
1032.81	1669.87
1033.099	1659.25
1033.387	1652.7
1033.675	1612.7
1033.963	1624.22
1034.251	1607.05
1034.54	1572.92
1034.828	1586.94
1035.116	1569.76
1035.403	1566.6
1035.691	1530.44
1035.979	1540.38
1036.267	1532.93
1036.554	1516.2
1036.842	1487.5
1037.129	1493.38
1037.417	1452.02
1037.704	1472.81
1037.992	1480.05
1038.279	1448.41
1038.566	1468.97
1038.853	1468.97
1039.14	1468.97
