Data from aluminium_surface_pro_back_FLMS001491_00041.txt Node
Date: Wed Feb 08 15:34:06 GMT 2017
User: dcchb
Spectrometer: FLMS00149
Trigger mode: 0
Integration Time (sec): 2.000000E-2
Scans to average: 10
Electric dark correction enabled: true
Nonlinearity correction enabled: false
Boxcar width: 0
XAxis mode: Wavelengths
Number of Pixels in Spectrum: 2048
>>>>>Begin Spectral Data<<<<<
341.393	-29.67
341.776	-29.67
342.16	-29.67
342.543	-45.95
342.927	-53.63
343.31	-72.39
343.693	-76.23
344.077	-63.12
344.46	-69
344.843	-59.96
345.226	-33.97
345.61	-24.7
345.993	-12.95
346.376	-20.86
346.759	15.97
347.142	28.63
347.525	55.07
347.908	65.24
348.291	55.3
348.674	107.72
349.057	105.24
349.44	123.09
349.823	160.15
350.206	169.64
350.588	217.78
350.971	232.69
351.354	242.86
351.737	255.74
352.119	280.6
352.502	293.71
352.884	291.22
353.267	311.79
353.65	298.9
354.032	309.53
354.414	324.44
354.797	356.08
355.179	347.49
355.562	363.31
355.944	356.53
356.326	361.95
356.709	366.93
357.091	366.25
357.473	363.08
357.855	343.42
358.238	366.47
358.62	362.18
359.002	362.18
359.384	373.93
359.766	351.11
360.148	354.72
360.53	394.95
360.912	370.32
361.294	366.7
361.676	355.17
362.057	359.02
362.439	359.92
362.821	365.57
363.203	369.86
363.584	349.75
363.966	350.65
364.348	352.91
364.729	359.24
365.111	356.08
365.493	349.52
365.874	382.07
366.256	380.94
366.637	379.35
367.019	366.02
367.4	374.38
367.781	370.77
368.163	356.3
368.544	356.3
368.925	363.08
369.306	382.07
369.688	377.09
370.069	365.57
370.45	367.38
370.831	369.19
371.212	366.02
371.593	356.53
371.974	375.29
372.355	379.13
372.736	381.16
373.117	383.2
373.498	386.81
373.879	386.13
374.26	384.33
374.641	389.07
375.021	370.09
375.402	389.75
375.783	401.05
376.163	404.89
376.544	396.08
376.925	430.65
377.305	394.04
377.686	388.17
378.066	421.61
378.447	422.74
378.827	418.68
379.208	432.69
379.588	405.34
379.968	414.83
380.349	420.48
380.729	419.81
381.109	445.79
381.489	418.22
381.87	455.96
382.25	442.86
382.63	449.86
383.01	465
383.39	445.34
383.77	453.7
384.15	463.87
384.53	442.86
384.91	474.95
385.29	462.97
385.67	460.03
386.049	492.35
386.429	493.48
386.809	506.36
387.189	490.99
387.568	495.06
387.948	528.96
388.328	511.33
388.707	512.01
389.087	540.48
389.466	538.9
389.846	530.08
390.225	533.7
390.605	561.04
390.984	528.73
391.363	533.25
391.743	583.19
392.122	547.94
392.501	584.55
392.881	557.43
393.26	597.88
393.639	591.1
394.018	607.82
394.397	578.67
394.776	625.22
395.155	602.63
395.534	634.94
395.913	643.75
396.292	633.59
396.671	662.06
397.05	646.92
397.429	640.59
397.808	641.27
398.186	653.02
398.565	682.4
398.944	667.03
399.323	691.89
399.701	693.24
400.08	680.14
400.458	712.45
400.837	712.45
401.215	718.1
401.594	724.2
401.972	721.49
402.351	739.12
402.729	742.28
403.107	774.37
403.486	742.28
403.864	764.88
404.242	791.77
404.62	794.71
404.999	787.25
405.377	793.58
405.755	811.89
406.133	839.23
406.511	836.74
406.889	874.71
407.267	864.99
407.645	878.1
408.023	907.48
408.401	879
408.779	938.44
409.156	922.62
409.534	925.55
409.912	937.76
410.29	946.8
410.667	965.55
411.045	1008.72
411.422	981.15
411.8	1025.44
412.178	1022.28
412.555	1042.39
412.933	1048.49
413.31	1063.63
413.687	1078.77
414.065	1094.59
414.442	1119.45
414.819	1129.62
415.197	1117.64
415.574	1137.53
415.951	1162.16
416.328	1168.94
416.705	1185.43
417.082	1195.15
417.46	1215.49
417.837	1192.21
418.214	1197.41
418.591	1242.16
418.967	1247.13
419.344	1257.3
419.721	1273.57
420.098	1285.09
420.475	1318.76
420.852	1301.36
421.228	1318.31
421.605	1331.65
421.982	1347.01
422.358	1351.31
422.735	1359.67
423.111	1375.49
423.488	1401.93
423.864	1415.94
424.241	1433.11
424.617	1431.53
424.994	1427.24
425.37	1475.14
425.746	1495.48
426.123	1486.44
426.499	1503.17
426.875	1530.74
427.251	1556.72
427.627	1589.72
428.003	1611.41
428.379	1610.73
428.756	1634.69
429.132	1663.39
429.507	1693.22
429.883	1700
430.259	1737.28
430.635	1736.83
431.011	1789.71
431.387	1794.23
431.763	1876.04
432.138	1849.15
432.514	1871.29
432.89	1897.96
433.265	1931.18
433.641	1952.87
434.016	2001.01
434.392	2017.96
434.767	2017.05
435.143	2005.3
435.518	2049.82
435.894	2095.02
436.269	2101.34
436.644	2174.11
437.02	2154.67
437.395	2198.74
437.77	2230.15
438.145	2244.62
438.52	2280.32
438.895	2288.91
439.271	2301.56
439.646	2335.69
440.021	2371.84
440.395	2388.79
440.77	2371.62
441.145	2401.9
441.52	2467.44
441.895	2436.25
442.27	2452.29
442.645	2450.94
443.019	2488
443.394	2466.08
443.769	2522.12
444.143	2557.38
444.518	2565.06
444.892	2567.55
445.267	2589.69
445.641	2651.39
446.016	2668.33
446.39	2658.84
446.764	2695.23
447.139	2704.94
447.513	2758.73
447.887	2751.27
448.262	2750.82
448.636	2784.49
449.01	2796.01
449.384	2846.63
449.758	2869.91
450.132	2881.21
450.506	2937.93
450.88	2932.06
451.254	2941.09
451.628	2989.91
452.002	2992.17
452.376	3015.67
452.75	3072.39
453.123	3122.33
453.497	3158.94
453.871	3187.64
454.244	3226.51
454.618	3250.92
454.992	3300.63
455.365	3315.55
455.739	3381.99
456.112	3441.65
456.486	3448.2
456.859	3518.03
457.232	3574.52
457.606	3510.8
457.979	3591.7
458.352	3692.26
458.725	3750.79
459.099	3743.79
459.472	3791.24
459.845	3845.25
460.218	3923.44
460.591	3927.06
460.964	3964.8
461.337	4035.08
461.71	4100.16
462.083	4218.12
462.456	4190.33
462.829	4230.1
463.201	4275.98
463.574	4305.8
463.947	4384.9
464.32	4474.39
464.692	4496.76
465.065	4531.34
465.438	4611.79
465.81	4662.18
466.183	4699.92
466.555	4817.66
466.928	4828.73
467.3	4852.01
467.672	4918.67
468.045	5101.26
468.417	5119.57
468.789	5100.13
469.161	5190.08
469.534	5286.57
469.906	5384.65
470.278	5416.96
470.65	5490.63
471.022	5636.62
471.394	5704.64
471.766	5767.69
472.138	5858.08
472.51	5941.02
472.882	6039.77
473.253	6104.18
473.625	6258.75
473.997	6345.98
474.369	6352.76
474.74	6459.65
475.112	6578.51
475.484	6685.18
475.855	6785.51
476.227	6837.26
476.598	7047.43
476.97	7085.62
477.341	7266.86
477.713	7336.46
478.084	7428.66
478.455	7675.21
478.827	7650.12
479.198	7957.46
479.569	7950.23
479.94	8135.76
480.311	8238.81
480.682	8435.41
481.053	8647.39
481.424	8806.7
481.795	8853.03
482.166	8974.83
482.537	9126.92
482.908	9249.18
483.279	9406.91
483.65	9550.19
484.021	9793.57
484.391	9908.6
484.762	9950.63
485.133	10113.56
485.503	10285.99
485.874	10455.93
486.244	10554.23
486.615	10726.65
486.985	10875.58
487.356	11129.13
487.726	11184.95
488.097	11423.58
488.467	11443.92
488.837	11744.48
489.207	11859.96
489.578	12063.12
489.948	12111.7
490.318	12304.46
490.688	12421.98
491.058	12612.71
491.428	12754.85
491.798	12902.87
492.168	13230.09
492.538	13130.88
492.908	13388.05
493.278	13591.44
493.648	13479.35
494.017	13825.55
494.387	13924.08
494.757	14054.25
495.126	14181.03
495.496	14171.31
495.866	14323.17
496.235	14541.69
496.605	14692.65
496.974	14821.69
497.344	14943.49
497.713	15059.42
498.082	15088.57
498.452	15281.56
498.821	15356.36
499.19	15475
499.559	15499.41
499.928	15736.01
500.298	15882.45
500.667	15923.13
501.036	15985.72
501.405	16155.21
501.774	16167.64
502.143	16404.92
502.512	16430.68
502.88	16648.98
503.249	16627.51
503.618	16831.13
503.987	16843.78
504.356	16941.86
504.724	17122.87
505.093	17108.18
505.462	17329.64
505.83	17404.9
506.199	17651.22
506.567	17767.15
506.936	17815.96
507.304	18091.66
507.672	18080.81
508.041	18158.55
508.409	18308.37
508.777	18397.41
509.145	18657.29
509.514	18678.08
509.882	18891.64
510.25	18931.18
510.618	19161.69
510.986	19144.74
511.354	19312.19
511.722	19575.01
512.09	19866.98
512.458	19729.35
512.826	19881.21
513.193	19995.79
513.561	20121.89
513.929	20405.72
514.297	20490.01
514.664	20724.81
515.032	20901.3
515.4	21035.99
515.767	21136.55
516.135	21198.92
516.502	21185.59
516.869	21680.49
517.237	21758.23
517.604	21664.9
517.972	21943.08
518.339	22063.98
518.706	22263.3
519.073	22350.08
519.44	22600.92
519.808	22792.32
520.175	22770.4
520.542	23185.31
520.909	23269.6
521.276	23335.36
521.643	23547.56
522.009	23779.87
522.376	23930.83
522.743	24206.3
523.11	24451.94
523.477	24627.08
523.843	24750.47
524.21	24993.85
524.577	25192.49
524.943	25404.69
525.31	25590.44
525.676	25747.73
526.043	25959.02
526.409	26040.6
526.776	26415.51
527.142	26516.52
527.508	26609.4
527.874	26747.02
528.241	27010.74
528.607	27063.17
528.973	27425.65
529.339	27413.9
529.705	27710.61
530.071	28017.27
530.437	28036.48
530.803	28275.12
531.169	28391.95
531.535	28529.57
531.901	28629.69
532.267	28739.51
532.632	28945.61
532.998	29066.96
533.364	29271.02
533.73	29415.43
534.095	29676.66
534.461	29793.5
534.826	29900.39
535.192	30021.96
535.557	30275.97
535.923	30288.62
536.288	30448.17
536.653	30653.59
537.019	30507.83
537.384	30687.94
537.749	30913.69
538.114	30983.07
538.479	31096.29
538.845	31193.23
539.21	31129.05
539.575	31382.61
539.94	31473.68
540.305	31682.26
540.67	31624.18
541.034	31785.08
541.399	31815.14
541.764	32049.93
542.129	32143.72
542.494	32215.58
542.858	32315.46
543.223	32432.97
543.587	32595
543.952	32609.69
544.316	32729.01
544.681	32689.01
545.045	32942.79
545.41	33069.12
545.774	33152.28
546.138	33186.63
546.503	33215.1
546.867	33366.51
547.231	33516.34
547.595	33598.37
547.959	33869.55
548.324	33808.31
548.688	33880.85
549.052	34065.47
549.416	34219.59
549.779	34394.96
550.143	34350.44
550.507	34721.73
550.871	34818.22
551.235	34842.86
551.599	35155.39
551.962	35174.15
552.326	35329.17
552.689	35460.69
553.053	35456.62
553.417	35584.3
553.78	36042.37
554.143	35857.74
554.507	36112.88
554.87	36268.81
555.234	36586.31
555.597	36254.8
555.96	36576.14
556.323	36754.67
556.686	36832.86
557.05	37230.36
557.413	36999.63
557.776	37203.7
558.139	37561.2
558.502	37571.37
558.865	37791.7
559.228	38106.72
559.59	38186.27
559.953	38334.97
560.316	38680.04
560.679	38629.2
561.041	38718.46
561.404	39101.95
561.767	39277.09
562.129	39153.93
562.492	39710.75
562.854	39631.43
563.217	39591.66
563.579	39842.95
563.941	40039.1
564.304	40343.95
564.666	40519.54
565.028	40683.38
565.39	40779.87
565.753	41096.48
566.115	41173.99
566.477	41349.35
566.839	41597.48
567.201	41752.5
567.563	41900.52
567.925	42129.44
568.287	42295.54
568.648	42357.69
569.01	42497.12
569.372	42781.4
569.734	42707.28
570.095	43205.35
570.457	43377.32
570.819	43401.73
571.18	43472.01
571.542	43669.06
571.903	43827.48
572.265	44074.93
572.626	44063.86
572.987	44274.7
573.349	44450.51
573.71	44504.3
574.071	44529.61
574.432	44753.55
574.794	45060.67
575.155	45031.51
575.516	44995.13
575.877	45223.15
576.238	45283.48
576.599	45459.75
576.96	45569.13
577.32	45533.2
577.681	45697.03
578.042	45924.15
578.403	45913.52
578.763	45991.26
579.124	46171.37
579.485	46334.76
579.845	46479.16
580.206	46386.51
580.566	46393.96
580.927	46556.22
581.287	46667.18
581.648	46570.23
582.008	46871.92
582.368	46688.65
582.728	46828.53
583.089	46959.82
583.449	46850
583.809	46869.88
584.169	47007.28
584.529	46961.86
584.889	47178.58
585.249	47055.64
585.609	46904.01
585.969	47177.67
586.329	47105.81
586.688	47057.22
587.048	47266.48
587.408	47031.46
587.768	47091.8
588.127	47040.5
588.487	47021.07
588.846	47403.65
589.206	47174.73
589.565	47252.02
589.925	47422.64
590.284	47359.81
590.643	47231
591.003	47314.17
591.362	47498.79
591.721	47474.16
592.08	47411.56
592.44	47384.22
592.799	47510.54
593.158	47453.14
593.517	47394.39
593.876	47461.28
594.235	47489.3
594.593	47473.48
594.952	47519.36
595.311	47515.29
595.67	47519.81
596.029	47943.98
596.387	47744.21
596.746	47853.59
597.104	47725.23
597.463	47759.13
597.822	47973.36
598.18	47783.31
598.538	47815.85
598.897	48110.75
599.255	47687.94
599.613	48168.15
599.972	48082.96
600.33	48018.33
600.688	47885.45
601.046	48122.51
601.404	48215.84
601.762	48163.63
602.12	48296.51
602.478	48422.61
602.836	48264.2
603.194	48233.92
603.552	48219.45
603.91	48172.45
604.268	48388.04
604.625	48331.54
604.983	48480.91
605.341	48193.92
605.698	48531.08
606.056	48511.87
606.413	48458.09
606.771	48727.69
607.128	48679.78
607.485	48535.83
607.843	48640.23
608.2	48774.24
608.557	48881.58
608.914	48683.17
609.272	48997.06
609.629	48992.31
609.986	49074.35
610.343	48801.13
610.7	49078.19
611.057	49110.73
611.414	49036.61
611.771	49041.35
612.127	49251.97
612.484	49146.66
612.841	49337.16
613.198	49141.91
613.554	49217.39
613.911	49469.14
614.267	49493.09
614.624	49375.81
614.98	49385.52
615.337	49589.13
615.693	49504.39
616.05	49562.92
616.406	49775.34
616.762	49599.98
617.118	49607.66
617.475	49590.94
617.831	49771.05
618.187	49721.33
618.543	49772.63
618.899	50006.98
619.255	49883.36
619.611	49796.36
619.967	49899.86
620.323	50013.3
620.678	49809.47
621.034	49887.66
621.39	49960.88
621.746	49853.08
622.101	50273.86
622.457	49925.62
622.812	50027.99
623.168	50117.71
623.523	50172.4
623.879	50292.17
624.234	49957.94
624.589	50078.84
624.945	50082.68
625.3	50073.19
625.655	50039.97
626.01	50074.32
626.365	50082.23
626.72	49914.55
627.075	49908
627.43	50016.47
627.785	49959.29
628.14	49946.86
628.495	49986.41
628.85	50011.27
629.205	49885.62
629.559	50024.15
629.914	49864.15
630.269	49966.98
630.623	49820.99
630.978	49694.22
631.332	49843.14
631.687	49917.94
632.041	49830.71
632.396	49846.75
632.75	49682.01
633.104	49856.25
633.459	49545.29
633.813	49443.38
634.167	49561.11
634.521	49479.08
634.875	49581.45
635.229	49451.06
635.583	49219.88
635.937	49338.75
636.291	49239.99
636.645	49412.87
636.999	49205.19
637.352	49128.36
637.706	49070.96
638.06	49120.9
638.413	49103.95
638.767	49008.36
639.121	49045.42
639.474	48817.85
639.828	48795.93
640.181	48903.95
640.534	48959.55
640.888	48764.07
641.241	48613.79
641.594	48597.52
641.947	48771.53
642.301	48642.49
642.654	48690.4
643.007	48705.32
643.36	48585.09
643.713	48472.78
644.066	48573.12
644.419	48413.12
644.771	48139
645.124	47757.32
645.477	47700.6
645.83	47389.64
646.182	47356.42
646.535	47231.91
646.888	47246.6
647.24	47053.61
647.593	47247.05
647.945	47060.39
648.298	46858.13
648.65	46823.33
649.002	46753.95
649.355	46783.78
649.707	46679.61
650.059	46908.75
650.411	47365.24
650.763	47362.07
651.115	47718
651.467	47561.84
651.819	47536.98
652.171	47470.55
652.523	47367.95
652.875	47357.33
653.227	47277.56
653.578	47402.07
653.93	47289.53
654.282	47040.05
654.633	46936.32
654.985	46988.52
655.337	47029.43
655.688	46996.66
656.039	47074.62
656.391	46693.16
656.742	46666.72
657.094	46816.55
657.445	46898.13
657.796	46736.55
658.147	46788.08
658.498	46629.66
658.849	46672.37
659.2	46730.45
659.551	46531.59
659.902	46641.64
660.253	46628.31
660.604	46795.31
660.955	46400.07
661.306	46529.55
661.656	46490.91
662.007	46579.72
662.358	46453.17
662.708	46492.72
663.059	46472.15
663.409	46151.26
663.76	46315.77
664.11	46345.38
664.461	46442.1
664.811	46356.68
665.161	46251.59
665.511	46044.59
665.862	46203.91
666.212	46277.13
666.562	46421.76
666.912	46116
667.262	46129.34
667.612	46121.65
667.962	46135.21
668.312	46169.34
668.662	46291.82
669.011	46036.91
669.361	46033.75
669.711	45815
670.06	45981.09
670.41	45803.92
670.76	45869.91
671.109	45988.32
671.459	45884.6
671.808	45736.35
672.157	45774.32
672.507	45573.19
672.856	45683.93
673.205	45550.6
673.554	45622.23
673.904	45591.72
674.253	45803.24
674.602	45610.26
674.951	44949.71
675.3	44998.97
675.649	45491.39
675.998	45460.65
676.346	45553.31
676.695	45582.69
677.044	45159.42
677.393	45265.63
677.741	45389.24
678.09	45318.29
678.438	45141.12
678.787	45319.42
679.135	45236.93
679.484	44903.83
679.832	45219.31
680.181	44888.69
680.529	45118.74
680.877	44964.62
681.225	44837.39
681.573	44991.74
681.922	44650.51
682.27	44577.51
682.618	44632.2
682.966	44455.03
683.314	44608.02
683.661	44504.3
684.009	44401.7
684.357	44154.7
684.705	44097.98
685.053	44250.74
685.4	44183.63
685.748	44102.5
686.095	43926.68
686.443	43684.43
686.79	43638.56
687.138	43834.26
687.485	43862.05
687.832	43500.03
688.18	43425.91
688.527	43279.92
688.874	43326.02
689.221	43164.44
689.568	43216.87
689.915	43012.58
690.262	42862.31
690.609	42734.85
690.956	42804
691.303	42690.78
691.65	42567.85
691.997	42434.97
692.344	42177.35
692.69	42247.41
693.037	42170.57
693.383	41954.98
693.73	41936.91
694.077	41756.8
694.423	41880.64
694.769	41652.39
695.116	41533.75
695.462	41311.61
695.808	41319.29
696.155	41254.89
696.501	41012.64
696.847	40980.77
697.193	40772.42
697.539	40895.35
697.885	40681.12
698.231	40552.31
698.577	40536.94
698.923	40448.36
699.269	40305.54
699.614	40102.15
699.96	40074.36
700.306	40014.24
700.651	39699.68
700.997	39586.69
701.342	39616.06
701.688	39485.67
702.033	39328.39
702.379	39299.91
702.724	39146.24
703.069	39139.24
703.415	38817.44
703.76	38888.4
704.105	38983.54
704.45	38836.87
704.795	38609.31
705.14	38436.66
705.485	38526.37
705.83	38281.41
706.175	38373.16
706.52	38205.03
706.865	38114.63
707.209	37918.48
707.554	37817.92
707.899	37745.15
708.243	37788.99
708.588	37663.12
708.932	37331.38
709.277	37313.07
709.621	37368.66
709.966	37210.48
710.31	37253.19
710.654	36889.58
710.998	36879.19
711.342	36983.14
711.687	36890.48
712.031	36686.42
712.375	36575.92
712.719	36605.52
713.063	36588.35
713.407	36635.58
713.75	36401.91
714.094	36288.24
714.438	36215.93
714.782	36208.24
715.125	36062.94
715.469	36033.11
715.812	35805.32
716.156	35704.53
716.499	35678.31
716.843	35676.28
717.186	35452.33
717.53	35528.71
717.873	35501.14
718.216	35348.15
718.559	35197.65
718.902	34973.7
719.246	35152.45
719.589	35072.68
719.932	34936.41
720.275	34881.05
720.617	34675.18
720.96	34740.26
721.303	34701.16
721.646	34655.74
721.989	34446.26
722.331	34589.98
722.674	34420.04
723.016	34426.82
723.359	34269.08
723.701	34239.03
724.044	34049.2
724.386	33961.75
724.729	33952.93
725.071	33916.78
725.413	33948.64
725.755	33899.38
726.097	33714.07
726.439	33528.99
726.782	33701.64
727.124	33737.12
727.465	33614.64
727.807	33605.15
728.149	33432.5
728.491	33345.49
728.833	33357.7
729.175	33333.74
729.516	33152.73
729.858	33352.27
730.199	33274.76
730.541	33099.17
730.882	33031.38
731.224	33107.99
731.565	32760.42
731.906	32934.2
732.248	32907.54
732.589	32703.25
732.93	32509.36
733.271	32661.44
733.612	32646.53
733.953	32750.03
734.294	32407.89
734.635	32332.19
734.976	32524.5
735.317	32217.61
735.658	32233.66
735.999	32247.9
736.339	32075.7
736.68	32043.61
737.021	32110.05
737.361	31867.57
737.702	32042.7
738.042	31837.51
738.383	31792.09
738.723	31801.58
739.063	31581.25
739.404	31700.34
739.744	31600.68
740.084	31451.98
740.424	31534.92
740.764	31523.85
741.104	31478.65
741.444	31306.45
741.784	31220.35
742.124	31267.13
742.464	31095.16
742.804	31116.4
743.143	30948.72
743.483	31143.52
743.823	30862.85
744.162	30814.26
744.502	30832.11
744.841	30681.38
745.181	30828.5
745.52	30519.35
745.86	30693.81
746.199	30464.44
746.538	30494.04
746.877	30563.19
747.216	30555.74
747.556	30301.51
747.895	30371.11
748.234	30082.3
748.573	30166.82
748.911	30129.53
749.25	30139.02
749.589	30057.9
749.928	30144.45
750.267	30061.51
750.605	29929.31
750.944	29814.74
751.283	29866.26
751.621	29674.4
751.96	29667.4
752.298	29696.1
752.636	29625.14
752.975	29545.37
753.313	29392.38
753.651	29562.77
753.989	29390.8
754.327	29243
754.666	29051.82
755.004	29233.96
755.342	29144.47
755.679	29039.39
756.017	28835.78
756.355	28874.42
756.693	28739.29
757.031	28741.32
757.368	28514.43
757.706	28548.56
758.044	28427.43
758.381	28460.42
758.719	28382.91
759.056	28252.75
759.394	28206.19
759.731	27932.08
760.068	27974.34
760.405	27837.39
760.743	27674.23
761.08	27785.87
761.417	27652.54
761.754	27566.44
762.091	27482.82
762.428	27386.33
762.765	27283.73
763.102	27303.84
763.438	27205.99
763.775	27068.82
764.112	26910.86
764.449	26982.27
764.785	26869.96
765.122	26664.09
765.458	26587.03
765.795	26473.58
766.131	26476.3
766.467	26399.91
766.804	26277.43
767.14	26050.54
767.476	26097.77
767.812	25931
768.148	25955.18
768.485	25738.46
768.821	25728.52
769.157	25676.77
769.492	25523.1
769.828	25451.92
770.164	25413.27
770.5	25237.23
770.836	25217.8
771.171	25051.25
771.507	24978.48
771.842	24786.62
772.178	24834.08
772.513	24736.91
772.849	24750.24
773.184	24584.14
773.519	24617.36
773.855	24543.92
774.19	24353.64
774.525	24111.84
774.86	24214.66
775.195	24116.13
775.53	23919.3
775.865	23781
776.2	23678.85
776.535	23482.7
776.87	23503.72
777.205	23427.56
777.539	23219.66
777.874	23330.16
778.209	23121.13
778.543	23071.41
778.878	22854.7
779.212	22883.4
779.547	22856.5
779.881	22844.3
780.215	22557.75
780.55	22626.68
780.884	22544.2
781.218	22425.33
781.552	22476.63
781.886	22296.52
782.22	22185.33
782.554	22111.66
782.888	21922.52
783.222	21893.37
783.556	21843.2
783.889	21838
784.223	21601.85
784.557	21612.02
784.89	21657.67
785.224	21449.76
785.557	21374.28
785.891	21295.64
786.224	21233.27
786.558	21197.56
786.891	21029.66
787.224	21004.12
787.557	20900.4
787.891	20898.59
788.224	20902.88
788.557	20857.23
788.89	20680.97
789.223	20744.69
789.556	20546.28
789.888	20285.72
790.221	20306.51
790.554	20239.85
790.887	20211.83
791.219	20090.25
791.552	20143.13
791.884	19984.71
792.217	19982.68
792.549	19793.53
792.882	19561.9
793.214	19579.53
793.546	19678.96
793.879	19537.04
794.211	19427.89
794.543	19473.32
794.875	19363.26
795.207	19381.57
795.539	19245.53
795.871	19204.17
796.203	18993.55
796.535	18967.11
796.867	18976.61
797.198	18890.96
797.53	18864.74
797.862	18715.37
798.193	18768.48
798.525	18577.29
798.856	18598.76
799.188	18444.87
799.519	18296.4
799.85	18274.03
800.182	18251.43
800.513	18295.04
800.844	18163.29
801.175	18198.32
801.506	18104.54
801.837	18036.07
802.168	18022.73
802.499	17926.46
802.83	17786.13
803.161	17728.73
803.491	17675.17
803.822	17759.01
804.153	17583.87
804.483	17423.65
804.814	17358.79
805.145	17358.57
805.475	17373.94
805.805	17293.49
806.136	17283.09
806.466	17232.02
806.796	17135.98
807.126	17069.54
807.457	16929.2
807.787	16992.48
808.117	16876.77
808.447	16811.46
808.777	16909.99
809.107	16726.5
809.436	16679.04
809.766	16729.43
810.096	16650.79
810.426	16630.23
810.755	16568.53
811.085	16444.69
811.414	16489.21
811.744	16384.36
812.073	16345.49
812.403	16322.44
812.732	16194.31
813.061	16251.93
813.39	16146.4
813.719	16114.31
814.049	16181.42
814.378	16102.78
814.707	15946.18
815.036	15977.14
815.365	15860.08
815.693	15729.91
816.022	15790.02
816.351	15732.17
816.68	15700.31
817.008	15749.35
817.337	15536.47
817.665	15529.01
817.994	15550.25
818.322	15637.94
818.651	15427.32
818.979	15475.91
819.307	15492.18
819.636	15400.65
819.964	15340.32
820.292	15466.64
820.62	15344.38
820.948	15195.01
821.276	15309.81
821.604	15280.66
821.932	15313.43
822.259	15351.39
822.587	15322.46
822.915	15355.23
823.243	15383.48
823.57	15239.3
823.898	15272.52
824.225	15142.58
824.553	15212.18
824.88	15207.67
825.207	15290.6
825.535	15184.39
825.862	15156.59
826.189	15151.85
826.516	15286.08
826.843	15232.52
827.17	15377.15
827.497	15244.5
827.824	15223.71
828.151	15206.08
828.478	15186.42
828.805	15193.2
829.131	15129.48
829.458	15173.77
829.785	15035.24
830.111	15064.17
830.438	15185.97
830.764	15180.55
831.09	15142.58
831.417	15028.69
831.743	15141.23
832.069	15131.06
832.395	15026.65
832.722	15061.91
833.048	15025.52
833.374	15055.8
833.7	14983.04
834.026	15021.91
834.351	14981.46
834.677	15089.7
835.003	15089.93
835.329	14982.36
835.654	14911.4
835.98	14886.09
836.306	14839.54
836.631	14881.35
836.956	14890.16
837.282	14810.16
837.607	14779.2
837.932	14720.67
838.258	14685.42
838.583	14688.81
838.908	14624.63
839.233	14686.77
839.558	14562.03
839.883	14566.1
840.208	14543.95
840.533	14573.33
840.858	14578.3
841.182	14611.97
841.507	14561.13
841.832	14466.44
842.156	14460.34
842.481	14462.37
842.805	14496.5
843.13	14427.12
843.454	14376.05
843.778	14312.55
844.103	14324.52
844.427	14329.04
844.751	14247.24
845.075	14230.52
845.399	14182.61
845.723	14107.58
846.047	14105.55
846.371	13939.9
846.695	14060.8
847.019	13916.17
847.343	13803.86
847.666	13761.83
847.99	13683.19
848.313	13684.77
848.637	13625.33
848.96	13658.1
849.284	13631.44
849.607	13447.03
849.931	13461.04
850.254	13368.39
850.577	13325.68
850.9	13185.57
851.223	13294.5
851.546	13149.41
851.869	13074.61
852.192	13196.42
852.515	13065.35
852.838	12908.06
853.161	12989.64
853.483	12902.64
853.806	12949.42
854.129	12874.17
854.451	12748.07
854.774	12750.1
855.096	12661.07
855.419	12676.88
855.741	12604.34
856.063	12566.6
856.385	12538.36
856.708	12542.2
857.03	12498.58
857.352	12436.21
857.674	12393.5
857.996	12392.15
858.318	12251.13
858.64	12338.59
858.961	12335.2
859.283	12199.38
859.605	12282.09
859.926	12210
860.248	12233.05
860.57	12153.28
860.891	12115.99
861.212	12046.39
861.534	12099.95
861.855	12082.78
862.176	12048.2
862.498	11998.48
862.819	11979.95
863.14	11988.77
863.461	11985.83
863.782	11932.05
864.103	11923.91
864.424	11952.16
864.745	11932.27
865.065	11807.75
865.386	11795.55
865.707	11773.41
866.027	11792.16
866.348	11704.25
866.668	11731.15
866.989	11762.78
867.309	11593.07
867.63	11656.57
867.95	11759.62
868.27	11564.37
868.59	11697.25
868.91	11567.76
869.23	11455
869.55	11564.6
869.87	11586.29
870.19	11613.86
870.51	11542.68
870.83	11552.62
871.15	11489.12
871.469	11418.16
871.789	11464.71
872.109	11467.65
872.428	11381.55
872.748	11466.52
873.067	11400.99
873.386	11488.89
873.706	11438.5
874.025	11401.66
874.344	11319.41
874.663	11426.52
874.982	11315.79
875.301	11323.7
875.62	11262.01
875.939	11277.6
876.258	11307.2
876.577	11219.75
876.896	11239.41
877.214	11105.85
877.533	11320.54
877.852	11229.24
878.17	11241.22
878.489	11183.59
878.807	11155.57
879.125	11146.08
879.444	11141.78
879.762	11072.63
880.08	11104.04
880.398	11014.56
880.716	11040.54
881.034	10965.29
881.352	10982.24
881.67	10944.05
881.988	10922.58
882.306	10897.5
882.624	10911.28
882.941	10858.17
883.259	10836.03
883.577	10778.63
883.894	10796.26
884.212	10813.88
884.529	10754.45
884.846	10694.56
885.164	10646.66
885.481	10648.69
885.798	10631.06
886.115	10607.33
886.432	10662.02
886.75	10670.16
887.067	10583.15
887.383	10572.08
887.7	10599.88
888.017	10542.03
888.334	10580.22
888.651	10573.44
888.967	10448.24
889.284	10467.68
889.6	10406.21
889.917	10372.31
890.233	10418.19
890.55	10324.86
890.866	10377.06
891.182	10325.08
891.498	10302.71
891.815	10242.82
892.131	10260
892.447	10248.25
892.763	10181.58
893.079	10217.97
893.395	10140
893.71	10153.11
894.026	10179.77
894.342	10151.98
894.657	9974.58
894.973	10055.26
895.289	10075.6
895.604	10031.08
895.92	9912.66
896.235	9915.15
896.55	9886.22
896.865	9901.14
897.181	9778.88
897.496	9878.99
897.811	9816.39
898.126	9771.42
898.441	9701.82
898.756	9640.81
899.071	9644.42
899.386	9641.03
899.7	9561.49
900.015	9539.57
900.33	9464.31
900.644	9455.05
900.959	9520.36
901.273	9442.17
901.588	9312.68
901.902	9321.94
902.216	9321.27
902.531	9253.47
902.845	9276.3
903.159	9283.3
903.473	9185
903.787	9125.34
904.101	9136.19
904.415	9078.56
904.729	8987.94
905.042	8997.88
905.356	8998.11
905.67	8951.78
905.984	8936.64
906.297	8961.73
906.611	8835.18
906.924	8851.67
907.237	8841.73
907.551	8774.61
907.864	8757.44
908.177	8771.68
908.491	8723.77
908.804	8711.11
909.117	8615.52
909.43	8613.04
909.743	8575.52
910.056	8604
910.368	8580.72
910.681	8496.88
910.994	8527.84
911.307	8398.13
911.619	8382.08
911.932	8373.49
912.244	8335.08
912.557	8269.09
912.869	8275.19
913.181	8232.71
913.494	8197.23
913.806	8185.48
914.118	8134.63
914.43	8048.98
914.742	8112.94
915.054	8144.35
915.366	8043.79
915.678	8009.89
915.99	8011.7
916.302	7967.63
916.613	7941.87
916.925	7936.22
917.236	7844.47
917.548	7841.53
917.859	7830.91
918.171	7773.74
918.482	7728.99
918.794	7679.95
919.105	7721.99
919.416	7621.42
919.727	7621.65
920.038	7611.71
920.349	7529.22
920.66	7487.42
920.971	7539.17
921.282	7546.4
921.593	7433.18
921.903	7430.02
922.214	7430.47
922.525	7307.31
922.835	7339.62
923.146	7310.7
923.456	7305.27
923.767	7276.12
924.077	7183.24
924.387	7178.05
924.697	7155
925.008	7151.15
925.318	7155.9
925.628	7067.31
925.938	7029.58
926.248	7016.69
926.558	6948.9
926.867	6918.62
927.177	6982.34
927.487	6834.1
927.796	6790.94
928.106	6799.75
928.416	6814.21
928.725	6734.89
929.034	6740.77
929.344	6730.83
929.653	6710.71
929.962	6665.06
930.271	6652.64
930.581	6610.6
930.89	6575.58
931.199	6564.95
931.508	6518.18
931.817	6519.53
932.125	6471.17
932.434	6478.4
932.743	6423.26
933.051	6378.97
933.36	6356.82
933.669	6316.83
933.977	6335.58
934.286	6264.17
934.594	6247.67
934.902	6240.22
935.21	6181.01
935.519	6203.16
935.827	6137.85
936.135	6166.32
936.443	6200.67
936.751	6131.97
937.059	6042.26
937.367	6049.26
937.674	6010.17
937.982	5992.99
938.29	5977.85
938.597	6006.1
938.905	5899.66
939.213	5911.64
939.52	5879.55
939.827	5891.75
940.135	5830.28
940.442	5852.2
940.749	5808.14
941.056	5819.89
941.363	5808.59
941.67	5662.15
941.977	5684.3
942.284	5693.11
942.591	5686.79
942.898	5590.97
943.205	5631.65
943.511	5600.23
943.818	5591.42
944.125	5607.01
944.431	5483.4
944.738	5466.9
945.044	5517.07
945.35	5423.97
945.657	5379.45
945.963	5427.36
946.269	5384.19
946.575	5410.63
946.881	5329.05
947.187	5297.64
947.493	5312.33
947.799	5276.63
948.105	5284.54
948.41	5223.75
948.716	5202.05
949.022	5180.13
949.327	5171.09
949.633	5152.11
949.938	5119.79
950.244	5124.09
950.549	5049.74
950.854	5050.87
951.16	5080.25
951.465	5012.45
951.77	4962.96
952.075	4949.63
952.38	4949.63
952.685	4924.77
952.99	4851.33
953.294	4927.26
953.599	4894.49
953.904	4822.63
954.209	4815.4
954.513	4815.62
954.818	4853.14
955.122	4752.35
955.426	4730.2
955.731	4760.03
956.035	4710.99
956.339	4701.5
956.643	4656.76
956.948	4662.86
957.252	4663.08
957.556	4654.5
957.86	4604.1
958.163	4578.11
958.467	4590.77
958.771	4577.89
959.075	4537.21
959.378	4503.99
959.682	4507.61
959.985	4495.4
960.289	4431.45
960.592	4474.61
960.896	4401.85
961.199	4423.09
961.502	4383.32
961.805	4364.79
962.108	4352.81
962.411	4362.75
962.714	4305.13
963.017	4296.09
963.32	4304.67
963.623	4232.36
963.926	4238.46
964.228	4238.01
964.531	4196.43
964.833	4217.22
965.136	4143.1
965.438	4174.73
965.741	4141.06
966.043	4174.73
966.345	4147.84
966.648	4127.96
966.95	4118.01
967.252	4080.73
967.554	4033.27
967.856	4023.1
968.158	3978.13
968.46	4000.28
968.761	3989.65
969.063	3976.1
969.365	3983.55
969.666	3881.64
969.968	3884.8
970.269	3841.64
970.571	3880.73
970.872	3858.13
971.174	3834.63
971.475	3803.67
971.776	3792.82
972.077	3805.48
972.378	3790.34
972.679	3743.11
972.98	3732.03
973.281	3734.52
973.582	3722.54
973.883	3718.48
974.183	3677.8
974.484	3668.53
974.785	3654.52
975.085	3663.56
975.386	3640.96
975.686	3604.13
975.986	3625.6
976.287	3610.23
976.587	3598.48
976.887	3572.72
977.187	3540.63
977.487	3505.37
977.787	3534.07
978.087	3514.64
978.387	3475.32
978.687	3463.12
978.987	3439.16
979.286	3389.67
979.586	3410.69
979.885	3433.29
980.185	3375.89
980.484	3336.34
980.784	3382.67
981.083	3338.37
981.382	3343.8
981.682	3298.15
981.981	3292.5
982.28	3325.72
982.579	3273.06
982.878	3249.11
983.177	3225.83
983.475	3246.4
983.774	3229.67
984.073	3174.99
984.372	3201.43
984.67	3174.76
984.969	3139.06
985.267	3142.45
985.566	3137.02
985.864	3071.26
986.162	3086.85
986.461	3041.66
986.759	3083.92
987.057	3045.05
987.355	3051.6
987.653	3019.96
987.951	3008.89
988.249	2998.27
988.547	3032.84
988.844	2986.52
989.142	2956.01
989.44	2962.11
989.737	2922.79
990.035	2939.06
990.332	2909.23
990.63	2931.15
990.927	2900.87
991.224	2899.06
991.521	2861.1
991.819	2843.92
992.116	2827.2
992.413	2873.07
992.71	2809.8
993.006	2832.4
993.303	2802.57
993.6	2795.56
993.897	2773.64
994.193	2745.85
994.49	2760.08
994.787	2751.04
995.083	2726.41
995.379	2716.02
995.676	2697.49
995.972	2687.54
996.268	2638.96
996.565	2645.06
996.861	2631.27
997.157	2617.04
997.453	2638.28
997.749	2609.35
998.044	2597.38
998.34	2581.1
998.636	2553.53
998.932	2542.91
999.227	2524.83
999.523	2504.95
999.818	2517.83
1000.114	2497.72
1000.409	2519.64
1000.704	2468.34
1001	2466.98
1001.295	2427.44
1001.59	2467.66
1001.885	2459.75
1002.18	2400.54
1002.475	2399.41
1002.77	2388.79
1003.065	2340.21
1003.359	2400.09
1003.654	2352.64
1003.949	2348.79
1004.243	2330.49
1004.538	2284.39
1004.832	2276.71
1005.127	2297.04
1005.421	2247.78
1005.715	2263.15
1006.009	2264.05
1006.304	2245.97
1006.598	2190.15
1006.892	2203.04
1007.186	2187.22
1007.48	2194.67
1007.773	2157.61
1008.067	2142.02
1008.361	2130.04
1008.655	2125.3
1008.948	2106.54
1009.242	2114.22
1009.535	2072.42
1009.829	2095.47
1010.122	2041.01
1010.415	2040.1
1010.708	2064.06
1011.001	2059.99
1011.295	2016.83
1011.588	2029.71
1011.881	1998.07
1012.173	1985.87
1012.466	1997.17
1012.759	1963.27
1013.052	1964.4
1013.344	1950.61
1013.637	1963.72
1013.93	1928.47
1014.222	1930.5
1014.514	1886.43
1014.807	1912.2
1015.099	1906.55
1015.391	1858.64
1015.683	1838.98
1015.976	1874.23
1016.268	1845.98
1016.56	1821.8
1016.851	1799.43
1017.143	1792.2
1017.435	1798.3
1017.727	1760.11
1018.018	1763.05
1018.31	1766.66
1018.602	1741.13
1018.893	1735.93
1019.185	1723.73
1019.476	1701.81
1019.767	1688.02
1020.058	1704.29
1020.35	1681.92
1020.641	1664.29
1020.932	1669.49
1021.223	1650.96
1021.514	1607.57
1021.804	1605.99
1022.095	1619.32
1022.386	1591.07
1022.677	1573.67
1022.967	1568.25
1023.258	1557.63
1023.548	1567.35
1023.839	1540.68
1024.129	1537.06
1024.419	1519.21
1024.709	1518.99
1025	1507.23
1025.29	1486.44
1025.58	1471.08
1025.87	1471.08
1026.16	1480.57
1026.449	1471.98
1026.739	1445.77
1027.029	1438.31
1027.319	1429.5
1027.608	1421.13
1027.898	1403.51
1028.187	1437.41
1028.477	1417.29
1028.766	1406.22
1029.055	1380.46
1029.344	1371.19
1029.634	1346.33
1029.923	1347.69
1030.212	1337.3
1030.501	1337.97
1030.79	1336.17
1031.078	1326.45
1031.367	1335.04
1031.656	1297.75
1031.945	1288.94
1032.233	1285.32
1032.522	1271.31
1032.81	1283.51
1033.099	1267.24
1033.387	1250.29
1033.675	1217.52
1033.963	1236.28
1034.251	1257.3
1034.54	1190.63
1034.828	1200.12
1035.116	1205.32
1035.403	1187.69
1035.691	1160.12
1035.979	1162.61
1036.267	1137.75
1036.554	1137.98
1036.842	1125.1
1037.129	1154.48
1037.417	1123.97
1037.704	1129.17
1037.992	1139.33
1038.279	1123.06
1038.566	1073.8
1038.853	1073.8
1039.14	1073.8
