Data from aluminium_macbook_case_FLMS001491_062.txt Node
Date: Tue Feb 07 10:44:01 GMT 2017
User: dcchb
Spectrometer: FLMS00149
Trigger mode: 0
Integration Time (sec): 2.000000E-2
Scans to average: 10
Electric dark correction enabled: true
Nonlinearity correction enabled: false
Boxcar width: 0
XAxis mode: Wavelengths
Number of Pixels in Spectrum: 2048
>>>>>Begin Spectral Data<<<<<
341.393	-11.79
341.776	-11.79
342.16	-11.79
342.543	-51.11
342.927	-53.6
343.31	-66.03
343.693	-75.97
344.077	-64.67
344.46	-66.71
344.843	-37.1
345.226	-35.52
345.61	-33.26
345.993	-43.43
346.376	20.97
346.759	1.09
347.142	17.81
347.525	41.76
347.908	49
348.291	82.44
348.674	101.42
349.057	108.2
349.44	132.61
349.823	143.68
350.206	199.05
350.588	252.38
350.971	260.74
351.354	282.89
351.737	301.87
352.119	307.75
352.502	307.07
352.884	339.16
353.267	343
353.65	352.72
354.032	367.86
354.414	356.56
354.797	370.12
355.179	378.7
355.562	394.75
355.944	402.21
356.326	396.33
356.709	398.14
357.091	409.89
357.473	404.47
357.855	424.35
358.238	420.96
358.62	404.92
359.002	392.72
359.384	418.48
359.766	417.35
360.148	411.02
360.53	413.05
360.912	415.09
361.294	394.3
361.676	413.96
362.057	381.42
362.439	414.18
362.821	427.52
363.203	428.19
363.584	431.58
363.966	424.58
364.348	397.24
364.729	411.25
365.111	442.21
365.493	419.38
365.874	434.75
366.256	439.27
366.637	427.74
367.019	410.79
367.4	419.83
367.781	405.6
368.163	413.28
368.544	425.94
368.925	432.94
369.306	451.47
369.688	440.62
370.069	432.49
370.45	464.35
370.831	438.82
371.212	432.04
371.593	429.1
371.974	455.76
372.355	464.35
372.736	479.72
373.117	463.22
373.498	452.83
373.879	456.89
374.26	456.44
374.641	423.68
375.021	429.1
375.402	474.97
375.783	489.89
376.163	514.29
376.544	517.23
376.925	511.36
377.305	500.51
377.686	503.67
378.066	492.83
378.447	536.89
378.827	518.59
379.208	526.5
379.588	557.68
379.968	524.24
380.349	533.95
380.729	530.34
381.109	540.96
381.489	544.8
381.87	557.91
382.25	561.07
382.63	570.79
383.01	573.73
383.39	598.13
383.77	602.43
384.15	596.33
384.53	592.26
384.91	613.5
385.29	618.02
385.67	638.36
386.049	641.75
386.429	646.27
386.809	647.85
387.189	653.95
387.568	652.82
387.948	651.24
388.328	659.6
388.707	700.28
389.087	696.66
389.466	699.6
389.846	723.55
390.225	730.33
390.605	728.75
390.984	732.82
391.363	748.86
391.743	742.09
392.122	764.68
392.501	781.86
392.881	799.03
393.26	783.44
393.639	804
394.018	788.19
394.397	834.06
394.776	850.78
395.155	821.63
395.534	865.47
395.913	842.2
396.292	849.43
396.671	882.42
397.05	881.29
397.429	910.89
397.808	915.87
398.186	936.2
398.565	917.22
398.944	928.52
399.323	927.62
399.701	940.95
400.08	972.81
400.458	972.81
400.837	992.02
401.215	1003.32
401.594	1012.13
401.972	997.9
402.351	1039.03
402.729	1055.75
403.107	1051.91
403.486	1055.3
403.864	1051.46
404.242	1063.43
404.62	1106.6
404.999	1105.24
405.377	1138.23
405.755	1134.39
406.133	1158.8
406.511	1186.59
406.889	1161.51
407.267	1208.51
407.645	1231.11
408.023	1251.68
408.401	1243.77
408.779	1281.28
409.156	1311.56
409.534	1301.84
409.912	1342.3
410.29	1347.72
410.667	1403.76
411.045	1423.87
411.422	1424.33
411.8	1424.55
412.178	1448.28
412.555	1521.95
412.933	1494.83
413.31	1528.96
413.687	1539.13
414.065	1578
414.442	1579.8
414.819	1601.27
415.197	1611.21
415.574	1627.49
415.951	1660.7
416.328	1643.08
416.705	1720.14
417.082	1695.28
417.46	1720.82
417.837	1755.17
418.214	1746.35
418.591	1745.45
418.967	1804.88
419.344	1822.06
419.721	1843.3
420.098	1856.18
420.475	1874.71
420.852	1940.7
421.228	1904.77
421.605	1943.18
421.982	1978.66
422.358	2025.67
422.735	2062.95
423.111	2057.53
423.488	2062.05
423.864	2081.94
424.241	2120.81
424.617	2146.12
424.994	2144.99
425.37	2189.5
425.746	2197.87
426.123	2217.53
426.499	2236.28
426.875	2266.34
427.251	2282.84
427.627	2379.33
428.003	2376.62
428.379	2420.46
428.756	2452.1
429.132	2491.42
429.507	2530.29
429.883	2567.35
430.259	2639.89
430.635	2622.04
431.011	2646.22
431.387	2710.17
431.763	2809.15
432.138	2801.24
432.514	2872.65
432.89	2867.68
433.265	2923.04
433.641	2987.9
434.016	2961.46
434.392	3068.58
434.767	3113.77
435.143	3098.86
435.518	3120.55
435.894	3189.25
436.269	3227.44
436.644	3285.07
437.02	3319.64
437.395	3297.05
437.77	3378.85
438.145	3459.3
438.52	3464.05
438.895	3507.21
439.271	3513.76
439.646	3626.3
440.021	3583.14
440.395	3655
440.77	3618.62
441.145	3668.79
441.52	3745.17
441.895	3754.44
442.27	3787.2
442.645	3821.78
443.019	3885.28
443.394	3867.43
443.769	3913.08
444.143	3906.3
444.518	4020.87
444.892	3957.37
445.267	4029.91
445.641	4059.06
446.016	4097.25
446.39	4145.39
446.764	4142
447.139	4216.8
447.513	4259.05
447.887	4239.85
448.262	4299.51
448.636	4317.81
449.01	4382.22
449.384	4394.19
449.758	4445.72
450.132	4524.36
450.506	4527.3
450.88	4570.46
451.254	4563.23
451.628	4701.53
452.002	4793.96
452.376	4753.96
452.75	4842.09
453.123	4922.31
453.497	4951.01
453.871	4951.47
454.244	5094.29
454.618	5138.58
454.992	5218.13
455.365	5214.51
455.739	5353.72
456.112	5374.96
456.486	5396.43
456.859	5493.15
457.232	5647.72
457.606	5614.5
457.979	5718.68
458.352	5845
458.725	5943.08
459.099	5939.69
459.472	6107.82
459.845	6069.63
460.218	6186.24
460.591	6207.7
460.964	6211.32
461.337	6440.01
461.71	6505.55
462.083	6631.2
462.456	6623.74
462.829	6660.12
463.201	6803.85
463.574	6858.99
463.947	6952.09
464.32	7079.09
464.692	7150.73
465.065	7207.68
465.438	7355.02
465.81	7499.2
466.183	7517.05
466.555	7695.8
466.928	7770.6
467.3	7806.76
467.672	7885.17
468.045	8062.12
468.417	8136.47
468.789	8185.05
469.161	8326.74
469.534	8405.39
469.906	8638.37
470.278	8659.62
470.65	8815.32
471.022	8995.43
471.394	9182.99
471.766	9288.98
472.138	9420.73
472.51	9627.73
472.882	9769.42
473.253	9853.94
473.625	10000.82
473.997	10213.02
474.369	10307.71
474.74	10396.97
475.112	10715.83
475.484	10854.81
475.855	10995.83
476.227	11125.54
476.598	11478.75
476.97	11579.99
477.341	11751.74
477.713	12003.71
478.084	12032.64
478.455	12332.06
478.827	12450.25
479.198	12816.34
479.569	12909.9
479.94	13249.33
480.311	13396.67
480.682	13693.16
481.053	13940.83
481.424	14221.73
481.795	14427.37
482.166	14612.68
482.537	14769.74
482.908	15083.18
483.279	15301.93
483.65	15563.16
484.021	15853.1
484.391	16067.56
484.762	16303.03
485.133	16426.42
485.503	16684.04
485.874	16983.69
486.244	17265.72
486.615	17691.7
486.985	17737.8
487.356	18058.24
487.726	18201.74
488.097	18605.12
488.467	18629.52
488.837	19085.11
489.207	19193.58
489.578	19544.53
489.948	19817.97
490.318	20184.06
490.688	20144.74
491.058	20410.27
491.428	20750.6
491.798	20898.17
492.168	21303.58
492.538	21447.53
492.908	21758.03
493.278	22061.98
493.648	21951.47
494.017	22332.03
494.387	22592.36
494.757	22753.48
495.126	23072.12
495.496	23204.09
495.866	23238.89
496.235	23654.48
496.605	23789.16
496.974	24105.76
497.344	24209.49
497.713	24454.23
498.082	24637.28
498.452	24836.14
498.821	25093.54
499.19	25142.12
499.559	25309.8
499.928	25518.83
500.298	25709.79
500.667	25941.42
501.036	25914.53
501.405	26276.33
501.774	26290.34
502.143	26552.48
502.512	26597.45
502.88	26994.28
503.249	26869.99
503.618	27196.76
503.987	27295.06
504.356	27550.65
504.724	27829.51
505.093	27906.57
505.462	28053.91
505.83	28266.56
506.199	28509.04
506.567	28916.49
506.936	28922.36
507.304	29328.9
507.672	29342.91
508.041	29539.52
508.409	29861.32
508.777	30027.42
509.145	30292.72
509.514	30380.85
509.882	30545.6
510.25	30782.65
510.618	31100.83
510.986	31006.37
511.354	31424.44
511.722	31686.36
512.09	31891.32
512.458	32063.3
512.826	32234.59
513.193	32332.67
513.561	32529.95
513.929	32862.37
514.297	33084.74
514.664	33339.87
515.032	33541.22
515.4	33785.28
515.767	33968.1
516.135	34161.09
516.502	34003.58
516.869	34777.12
517.237	34865.26
517.604	34957.91
517.972	35310.89
518.339	35654.61
518.706	35797.89
519.073	35987.49
519.44	36235.84
519.808	36612.1
520.175	36611.88
520.542	37054.12
520.909	37375.7
521.276	37476.26
521.643	37870.37
522.009	38224.04
522.376	38450.92
522.743	38633.52
523.11	39040.29
523.477	39314.63
523.843	39492.25
524.21	40006.82
524.577	40212.69
524.943	40262.4
525.31	40676.85
525.676	40884.08
526.043	41274.8
526.409	41379.89
526.776	41787.56
527.142	41923.83
527.508	42252.41
527.874	42558.61
528.241	42722.68
528.607	42960.41
528.973	43156.11
529.339	43292.15
529.705	43781.86
530.071	44055.3
530.437	44353.37
530.803	44623.19
531.169	44782.51
531.535	44696.64
531.901	45128.71
532.267	45339.1
532.632	45672.43
532.998	45841.46
533.364	46058.63
533.73	46269.7
534.095	46599.41
534.461	46529.58
534.826	46795.11
535.192	46993.98
535.557	47256.34
535.923	47199.17
536.288	47453.85
536.653	47618.82
537.019	47481.65
537.384	47777.68
537.749	47967.74
538.114	47966.38
538.479	48068.75
538.845	48230.78
539.21	48243.66
539.575	48486.14
539.94	48558.45
540.305	48859.92
540.67	48713.71
541.034	48979.91
541.399	49182.39
541.764	49282.5
542.129	49440.01
542.494	49607.69
542.858	49682.95
543.223	49866.22
543.587	50040.68
543.952	50094.46
544.316	50214
544.681	50228.69
545.045	50503.94
545.41	50637.5
545.774	50725.4
546.138	50850.82
546.503	50932.4
546.867	51044.04
547.231	51369.68
547.595	51357.93
547.959	51464.37
548.324	51670.24
548.688	51639.5
549.052	51801.31
549.416	51891.7
549.779	51942.32
550.143	52029.32
550.507	52228.19
550.871	52278.81
551.235	52260.28
551.599	52449.65
551.962	52608.52
552.326	52641.06
552.689	52851
553.053	52666.14
553.417	52895.74
553.78	53214.38
554.143	53084.44
554.507	53250.76
554.87	53420.02
555.234	53677.64
555.597	53485.78
555.96	53651.88
556.323	53844.87
556.686	53869.73
557.05	54105.88
557.413	54343.84
557.776	54288.7
558.139	54587.22
558.502	54582.25
558.865	54728.24
559.228	54998.29
559.59	55036.7
559.953	55078.96
560.316	55455.9
560.679	55377.94
561.041	55579.74
561.404	55702.22
561.767	55836.23
562.129	55871.26
562.492	56111.7
562.854	56113.28
563.217	56208.42
563.579	56246.61
563.941	56480.73
564.304	56524.57
564.666	56693.38
565.028	56739.03
565.39	56831.46
565.753	56883.43
566.115	56958.46
566.477	57026.03
566.839	57089.3
567.201	57296.76
567.563	57347.38
567.925	57448.84
568.287	57466.24
568.648	57527.03
569.01	57754.82
569.372	57889.51
569.734	57781.04
570.095	58004.31
570.457	58131.76
570.819	58230.29
571.18	58161.14
571.542	58364.3
571.903	58373.56
572.265	58513
572.626	58562.26
572.987	58634.57
573.349	58729.26
573.71	58835.7
574.071	58917.05
574.432	58978.52
574.794	59124.05
575.155	59115.47
575.516	59082.25
575.877	59244.73
576.238	59296.93
576.599	59383.48
576.96	59376.02
577.32	59429.13
577.681	59484.04
578.042	59621.89
578.403	59598.84
578.763	59574.44
579.124	59700.53
579.485	59670.03
579.845	59730.36
580.206	59603.59
580.566	59623.25
580.927	59639.29
581.287	59713.42
581.648	59580.76
582.008	59754.32
582.368	59669.58
582.728	59786.86
583.089	59733.53
583.449	59656.02
583.809	59801.32
584.169	59827.31
584.529	59684.04
584.889	59951.15
585.249	59811.49
585.609	59744.6
585.969	59921.55
586.329	59787.54
586.688	59842.9
587.048	59805.84
587.408	59837.25
587.768	59768.78
588.127	59844.94
588.487	59758.16
588.846	60063.69
589.206	59874.99
589.565	59911.6
589.925	59988.66
590.284	59923.35
590.643	60011.94
591.003	60049.9
591.362	60124.48
591.721	60019.17
592.08	60109.79
592.44	60198.6
592.799	60192.5
593.158	60128.55
593.517	60152.05
593.876	60199.28
594.235	60073.86
594.593	60168.55
594.952	60181.43
595.311	60099.62
595.67	60128.09
596.029	60196.57
596.387	60195.89
596.746	60248.09
597.104	60140.07
597.463	60082.22
597.822	60175.1
598.18	60045.38
598.538	59987.98
598.897	60188.88
599.255	59997.02
599.613	60320.63
599.972	60211.03
600.33	60265.94
600.688	60107.08
601.046	60215.1
601.404	60327.41
601.762	60245.15
602.12	60340.52
602.478	60404.02
602.836	60415.77
603.194	60309.78
603.552	60361.08
603.91	60271.14
604.268	60404.25
604.625	60342.1
604.983	60434.07
605.341	60385.04
605.698	60540.06
606.056	60618.25
606.413	60521.53
606.771	60663
607.128	60674.97
607.485	60590.91
607.843	60660.96
608.2	60830.45
608.557	60843.78
608.914	60915.42
609.272	60928.07
609.629	60962.65
609.986	61001.52
610.343	60949.54
610.7	61099.14
611.057	61076.77
611.414	61001.29
611.771	61019.82
612.127	61071.35
612.484	61002.65
612.841	61088.29
613.198	60934.17
613.554	60939.37
613.911	61125.81
614.267	61097.56
614.624	61070.89
614.98	61033.61
615.337	61152.02
615.693	61101.4
616.05	61121.51
616.406	61206.26
616.762	61106.15
617.118	61104.79
617.475	61107.96
617.831	61186.82
618.187	61194.51
618.543	61200.16
618.899	61316.54
619.255	61215.75
619.611	61301.62
619.967	61329.87
620.323	61362.41
620.678	61294.39
621.034	61234.73
621.39	61244
621.746	61248.52
622.101	61516.31
622.457	61320.83
622.812	61361.96
623.168	61424.11
623.523	61484.22
623.879	61562.41
624.234	61402.64
624.589	61488.74
624.945	61488.96
625.3	61550.2
625.655	61520.37
626.01	61531.22
626.365	61566.7
626.72	61572.58
627.075	61533.71
627.43	61525.35
627.785	61469.3
628.14	61487.38
628.495	61518.34
628.85	61468.85
629.205	61371.9
629.559	61486.93
629.914	61378.68
630.269	61423.88
630.623	61243.09
630.978	61205.13
631.332	61285.35
631.687	61268.63
632.041	61245.13
632.396	61234.96
632.75	61060.72
633.104	61099.14
633.459	60921.75
633.813	60923.78
634.167	60905.25
634.521	60943.21
634.875	60912.93
635.229	60855.98
635.583	60706.38
635.937	60751.58
636.291	60749.77
636.645	60785.25
636.999	60673.39
637.352	60790.45
637.706	60524.69
638.06	60639.72
638.413	60559.95
638.767	60527.63
639.121	60512.49
639.474	60422.1
639.828	60446.5
640.181	60503.9
640.534	60457.58
640.888	60402.44
641.241	60355.88
641.594	60351.37
641.947	60359.95
642.301	60362.44
642.654	60360.86
643.007	60362.21
643.36	60318.82
643.713	60276.34
644.066	60431.81
644.419	60257.13
644.771	60089.68
645.124	59887.65
645.477	59869.8
645.83	59731.49
646.182	59541.44
646.535	59499.18
646.888	59525.85
647.24	59344.39
647.593	59533.53
647.945	59417.15
648.298	59305.29
648.65	59244.28
649.002	59188.23
649.355	59229.59
649.707	59253.99
650.059	59347.32
650.411	59542.35
650.763	59562.23
651.115	59803.81
651.467	59663.93
651.819	59578.05
652.171	59540.31
652.523	59501.67
652.875	59452.86
653.227	59332.63
653.578	59463.48
653.93	59331.73
654.282	59221.45
654.633	59182.58
654.985	59125.18
655.337	59163.15
655.688	59146.2
656.039	59223.94
656.391	59024.39
656.742	59079.31
657.094	59029.59
657.445	59078.86
657.796	59061.91
658.147	59036.15
658.498	58960.67
658.849	59054.22
659.2	58955.24
659.551	58880.67
659.902	58966.54
660.253	58891.06
660.604	58962.48
660.955	58878.18
661.306	58996.15
661.656	58955.24
662.007	58951.63
662.358	58928.35
662.708	58992.76
663.059	58952.98
663.409	58814
663.76	58991.63
664.11	58967.45
664.461	59001.8
664.811	58944.85
665.161	59002.47
665.511	58948.24
665.862	58909.82
666.212	59039.08
666.562	59018.52
666.912	58978.29
667.262	58879.31
667.612	58890.16
667.962	58916.83
668.312	58801.58
668.662	58915.24
669.011	58803.16
669.361	58755.02
669.711	58679.32
670.06	58669.15
670.41	58635.25
670.76	58537.63
671.109	58637.96
671.459	58558.19
671.808	58487.91
672.157	58560.45
672.507	58291.98
672.856	58315.94
673.205	58302.83
673.554	58295.6
673.904	58209.05
674.253	58323.62
674.602	58209.73
674.951	57847.25
675.3	57709.63
675.649	58147.13
675.998	58025.1
676.346	58090.86
676.695	58143.29
677.044	57968.6
677.393	58001.14
677.741	58033.01
678.09	57900.81
678.438	57809.29
678.787	57945.55
679.135	57957.08
679.484	57695.16
679.832	57834.6
680.181	57742.62
680.529	57664.66
680.877	57695.16
681.225	57624.66
681.573	57785.78
681.922	57626.01
682.27	57602.51
682.618	57666.46
682.966	57619.01
683.314	57630.31
683.661	57528.61
684.009	57457.66
684.357	57408.39
684.705	57513.47
685.053	57464.89
685.4	57358.45
685.748	57253.14
686.095	57242.52
686.443	57134.5
686.79	57173.37
687.138	57196.87
687.485	57120.94
687.832	57060.38
688.18	57027.38
688.527	56841.63
688.874	56865.36
689.221	56849.99
689.568	56711.23
689.915	56677.34
690.262	56655.19
690.609	56535.65
690.956	56440.73
691.303	56370.9
691.65	56294.97
691.997	56165.26
692.344	56091.36
692.69	56052.72
693.037	56025.38
693.383	55667.65
693.73	55792.39
694.077	55631.72
694.423	55624.03
694.769	55444.83
695.116	55420.87
695.462	55352.17
695.808	55236.02
696.155	55257.71
696.501	55003.94
696.847	54999.42
697.193	54755.35
697.539	54883.49
697.885	54608.24
698.231	54584.51
698.577	54493.67
698.923	54484.85
699.269	54228.81
699.614	54128.48
699.96	54119.89
700.306	54219.1
700.651	54052.1
700.997	53794.93
701.342	53818.2
701.688	53692.11
702.033	53732.56
702.379	53699.34
702.724	53563.97
703.069	53731.65
703.415	53345
703.76	53354.49
704.105	53435.16
704.45	53342.51
704.795	53011.22
705.14	53130.99
705.485	53002.63
705.83	52921.96
706.175	53004.44
706.52	52867.72
706.865	52716.31
707.209	52691.45
707.554	52660.95
707.899	52790.21
708.243	52563.1
708.588	52527.39
708.932	52391.8
709.277	52384.79
709.621	52343.89
709.966	52146.84
710.31	52137.57
710.654	51895.99
710.998	52043.33
711.342	52091.92
711.687	51869.33
712.031	51648.09
712.375	51587.53
712.719	51658.26
713.063	51500.07
713.407	51677.92
713.75	51271.83
714.094	51308.67
714.438	51187.76
714.782	51237.71
715.125	51076.81
715.469	51051.04
715.812	50910.71
716.156	50649.7
716.499	50678.17
716.843	50531.28
717.186	50352.08
717.53	50576.71
717.873	50472.3
718.216	50301.91
718.559	50162.25
718.902	49892.43
719.246	49914.58
719.589	49785.09
719.932	49663.28
720.275	49559.33
720.617	49578.54
720.96	49487.47
721.303	49320.69
721.646	49271.2
721.989	48982.4
722.331	49101.27
722.674	49002.96
723.016	49093.58
723.359	48889.29
723.701	48922.97
724.044	48609.75
724.386	48445.01
724.729	48616.76
725.071	48469.42
725.413	48427.84
725.755	48329.99
726.097	48142.87
726.439	48008.19
726.782	48015.42
727.124	48322.53
727.465	48090.44
727.807	48032.14
728.149	47979.71
728.491	47944.01
728.833	47817.46
729.175	47893.84
729.516	47835.76
729.858	47782.43
730.199	47963.22
730.541	47756.44
730.882	47658.37
731.224	47756.89
731.565	47511.7
731.906	47541.76
732.248	47485.94
732.589	47284.82
732.93	47154.88
733.271	47391.93
733.612	47356.23
733.953	47378.37
734.294	47214.08
734.635	47028.55
734.976	47239.39
735.317	47006.63
735.658	46892.96
735.999	46979.51
736.339	46802.79
736.68	46877.37
737.021	46710.37
737.361	46355.12
737.702	46619.52
738.042	46330.26
738.383	46186.99
738.723	46315.35
739.063	46097.05
739.404	46145.64
739.744	46093.89
740.084	45891.63
740.424	46000.1
740.764	45771.86
741.104	45768.25
741.444	45448.03
741.784	45228.82
742.124	45387.24
742.464	45328.71
742.804	45114.25
743.143	45131.88
743.483	44959.68
743.823	44763.07
744.162	44828.38
744.502	44679.69
744.841	44543.65
745.181	44664.32
745.52	44477.88
745.86	44385.23
746.199	44318.34
746.538	44181.85
746.877	44173.49
747.216	44042.64
747.556	43836.77
747.895	43747.06
748.234	43642.43
748.573	43563.56
748.911	43505.93
749.25	43384.81
749.589	43295.54
749.928	43357.01
750.267	43241.08
750.605	43078.15
750.944	42995.21
751.283	42964.25
751.621	43070.24
751.96	42801.77
752.298	42868.66
752.636	42719.29
752.975	42550.48
753.313	42463.25
753.651	42620.98
753.989	42444.04
754.327	42382.8
754.666	42112.3
755.004	42137.83
755.342	42155.46
755.679	42064.16
756.017	41858.52
756.355	42220.99
756.693	41790.5
757.031	41880.89
757.368	41534.46
757.706	41591.63
758.044	41424.86
758.381	41523.61
758.719	41367.23
759.056	41394.35
759.394	41441.58
759.731	41135.83
760.068	41018.77
760.405	40934.47
760.743	40759.56
761.08	40866.45
761.417	40565.9
761.754	40572.45
762.091	40428.5
762.428	40474.15
762.765	40085.23
763.102	40033.03
763.438	39795.97
763.775	39614.28
764.112	39620.38
764.449	39670.1
764.785	39440.73
765.122	39012.27
765.458	39081.87
765.795	38916.9
766.131	39017.91
766.467	38750.8
766.804	38451.15
767.14	38219.97
767.476	38338.84
767.812	38108.33
768.148	38211.61
768.485	37702.47
768.821	37615.47
769.157	37619.76
769.492	37421.8
769.828	37203.05
770.164	36978.42
770.5	36849.61
770.836	36879.67
771.171	36497.53
771.507	36384.09
771.842	36147.93
772.178	36291.43
772.513	36002.4
772.849	35713.59
773.184	35656.42
773.519	35586.14
773.855	35371
774.19	35391.34
774.525	35209.65
774.86	35090.79
775.195	35041.52
775.53	34737.8
775.865	34710.91
776.2	34336.46
776.535	34166.97
776.87	34243.58
777.205	33995.22
777.539	33926.3
777.874	33892.85
778.209	33519.3
778.543	33469.81
778.878	33361.79
779.212	33366.76
779.547	33204.51
779.881	33135.13
780.215	32962.25
780.55	33099.2
780.884	32773.33
781.218	32869.15
781.552	32822.82
781.886	32706.44
782.22	32421.7
782.554	32452.44
782.888	32191.65
783.222	31990.3
783.556	31823.3
783.889	31735.62
784.223	31723.87
784.557	31591.44
784.89	31683.42
785.224	31459.92
785.557	31299.93
785.891	31214.05
786.224	31274.16
786.558	31184.45
786.891	30914.4
787.224	30812.48
787.557	30813.16
787.891	30906.26
788.224	30899.71
788.557	30706.95
788.89	30529.55
789.223	30618.36
789.556	30307.41
789.888	30264.25
790.221	30054.31
790.554	29970.92
790.887	29865.84
791.219	29768.67
791.552	29725.5
791.884	29374.55
792.217	29453.42
792.549	29214.56
792.882	29111.06
793.214	29052.08
793.546	28982.7
793.879	28823.83
794.211	28483.28
794.543	28756.49
794.875	28572.54
795.207	28730.95
795.539	28422.26
795.871	28217.52
796.203	28044.19
796.535	27884.2
796.867	27787.7
797.198	27781.37
797.53	27770.07
797.862	27601.27
798.193	27543.41
798.525	27286.02
798.856	27251.22
799.188	27111.56
799.519	26950.44
799.85	26865.92
800.182	26905.01
800.513	26776.65
800.844	26525.81
801.175	26617.34
801.506	26569.43
801.837	26448.75
802.168	26274.07
802.499	26165.15
802.83	25999.5
803.161	25922.67
803.491	25863.01
803.822	25826.85
804.153	25766.51
804.483	25398.39
804.814	25388.89
805.145	25342.79
805.475	25238.39
805.805	25158.17
806.136	25197.71
806.466	25116.81
806.796	25062.58
807.126	24875.01
807.457	24827.33
807.787	24805.41
808.117	24646.77
808.447	24646.32
808.777	24732.64
809.107	24616.03
809.436	24479.09
809.766	24467.34
810.096	24381.24
810.426	24295.14
810.755	24320.9
811.085	24300.34
811.414	24246.78
811.744	24002.49
812.073	24120
812.403	23990.51
812.732	23974.92
813.061	23958.42
813.39	23746.68
813.719	23815.38
814.049	23935.37
814.378	23772.44
814.707	23666
815.036	23613.8
815.365	23631.43
815.693	23394.82
816.022	23429.4
816.351	23553.69
816.68	23319.12
817.008	23326.8
817.337	23258.78
817.665	23194.38
817.994	23308.72
818.322	23325.9
818.651	23136.52
818.979	23084.77
819.307	23123.87
819.636	22975.62
819.964	22854.95
820.292	22942.41
820.62	22902.63
820.948	22801.17
821.276	22912.8
821.604	22803.88
821.932	22890.43
822.259	22823.99
822.587	22732.02
822.915	22825.12
823.243	22789.87
823.57	22757.33
823.898	22932.91
824.225	22628.06
824.553	22720.49
824.88	22709.87
825.207	22742.86
825.535	22629.65
825.862	22671
826.189	22569.53
826.516	22696.76
826.843	22751.9
827.17	22727.27
827.497	22765.69
827.824	22692.02
828.151	22573.38
828.478	22551.91
828.805	22642.3
829.131	22449.76
829.458	22402.76
829.785	22340.61
830.111	22396.88
830.438	22569.08
830.764	22449.99
831.09	22445.24
831.417	22327.51
831.743	22364.79
832.069	22348.97
832.395	22242.08
832.722	22313.95
833.048	22241.18
833.374	22155.08
833.7	22057
834.026	22125.93
834.351	22037.34
834.677	22121.64
835.003	22094.07
835.329	22002.32
835.654	21931.13
835.98	21765.71
836.306	21834.64
836.631	21794.64
836.956	21933.62
837.282	21835.77
837.607	21718.26
837.932	21682.1
838.258	21634.19
838.583	21569.79
838.908	21473.52
839.233	21610.24
839.558	21421.77
839.883	21471.26
840.208	21355.1
840.533	21342
840.858	21423.35
841.182	21289.34
841.507	21313.97
841.832	21205.28
842.156	21111.04
842.481	21139.97
842.805	21103.36
843.13	21074.88
843.454	21041.21
843.778	21043.47
844.103	20969.12
844.427	20832.63
844.751	21005.06
845.075	20890.93
845.399	20842.35
845.723	20781.56
846.047	20817.72
846.371	20582.02
846.695	20764.84
847.019	20610.94
847.343	20563.26
847.666	20303.83
847.99	20237.62
848.313	20312.42
848.637	20112.88
848.96	20172.31
849.284	20093.67
849.607	20027
849.931	19974.35
850.254	19847.12
850.577	19884.86
850.9	19720.34
851.223	19810.96
851.546	19663.4
851.869	19567.8
852.192	19654.13
852.515	19384.98
852.838	19342.05
853.161	19374.36
853.483	19213.46
853.806	19243.29
854.129	19233.58
854.451	19149.96
854.774	19111.77
855.096	18850.08
855.419	18884.88
855.741	18949.74
856.063	18815.96
856.385	18777.32
856.708	18642.63
857.03	18563.99
857.352	18707.04
857.674	18475.18
857.996	18406.25
858.318	18347.95
858.64	18359.7
858.961	18295.75
859.283	18219.14
859.605	18187.5
859.926	18199.48
860.248	18049.65
860.57	17919.71
860.891	18065.25
861.212	17813.05
861.534	17856.44
861.855	17699.38
862.176	17822.09
862.498	17832.94
862.819	17746.61
863.14	17670.23
863.461	17634.75
863.782	17469.1
864.103	17614.64
864.424	17467.29
864.745	17515.66
865.065	17282.67
865.386	17333.97
865.707	17353.85
866.027	17353.85
866.348	17308.88
866.668	17304.36
866.989	17075.21
867.309	17006.06
867.63	17070.02
867.95	16996.57
868.27	16962
868.59	16924.26
868.91	16912.73
869.23	16823.02
869.55	16868.67
869.87	16900.08
870.19	16808.1
870.51	16759.52
870.83	16749.8
871.15	16668.45
871.469	16597.71
871.789	16684.26
872.109	16592.74
872.428	16509.35
872.748	16674.77
873.067	16590.93
873.386	16673.19
873.706	16492.86
874.025	16407.44
874.344	16386.87
874.663	16475.23
874.982	16415.35
875.301	16455.8
875.62	16371.73
875.939	16298.06
876.258	16365.4
876.577	16308.68
876.896	16331.28
877.214	16229.59
877.533	16284.05
877.852	16299.42
878.17	16269.36
878.489	16302.81
878.807	16268.46
879.125	16277.27
879.444	16285.41
879.762	16206.09
880.08	16205.63
880.398	16093.32
880.716	16113.21
881.034	16105.3
881.352	16119.99
881.67	16078.63
881.988	16072.98
882.306	16119.99
882.624	16100.33
882.941	16005.19
883.259	15981.01
883.577	15990.27
883.894	15946.88
884.212	15878.64
884.529	15909.37
884.846	15837.96
885.164	15824.63
885.481	15811.29
885.798	15821.69
886.115	15767
886.432	15735.82
886.75	15554.35
887.067	15637.29
887.383	15678.19
887.7	15607.46
888.017	15560.68
888.334	15585.08
888.651	15604.75
888.967	15598.42
889.284	15459.44
889.6	15429.61
889.917	15405.65
890.233	15429.83
890.55	15284.75
890.866	15258.31
891.182	15216.51
891.498	15209.95
891.815	15150.75
892.131	15138.32
892.447	15115.04
892.763	15032.33
893.079	14983.74
893.395	14908.49
893.71	14918.66
894.026	14906.23
894.342	14764.54
894.657	14720.7
894.973	14732
895.289	14704.66
895.604	14666.69
895.92	14568.84
896.235	14503.08
896.55	14503.31
896.865	14368.62
897.181	14450.43
897.496	14365
897.811	14152.81
898.126	14137.89
898.441	14162.52
898.756	14091.34
899.071	14076.88
899.386	14041.17
899.7	13872.14
900.015	13895.64
900.33	13765.02
900.644	13744.91
900.959	13725.92
901.273	13635.53
901.588	13678.24
901.902	13510.34
902.216	13459.26
902.531	13528.42
902.845	13318.93
903.159	13247.07
903.473	13175.43
903.787	13219.05
904.101	13139.27
904.415	13112.83
904.729	13041.2
905.042	13010.91
905.356	13012.5
905.67	12969.11
905.984	12903.57
906.297	12815.67
906.611	12744.48
906.924	12735.89
907.237	12679.4
907.551	12619.96
907.864	12660.64
908.177	12553.07
908.491	12515.56
908.804	12423.59
909.117	12402.8
909.43	12293.65
909.743	12170.26
910.056	12136.36
910.368	12112.63
910.681	12118.96
910.994	12000.77
911.307	11988.57
911.619	11953.77
911.932	12039.42
912.244	11867.67
912.557	11783.38
912.869	11767.11
913.181	11761.23
913.494	11713.1
913.806	11671.97
914.118	11575.92
914.43	11564.17
914.742	11537.06
915.054	11563.72
915.366	11434.69
915.678	11469.26
915.99	11395.59
916.302	11304.52
916.613	11316.04
916.925	11331.41
917.236	11271.3
917.548	11202.6
917.859	11229.49
918.171	11123.96
918.482	11069.27
918.794	11031.76
919.105	10977.07
919.416	10940.23
919.727	10991.98
920.038	10966.22
920.349	10828.37
920.66	10822.95
920.971	10791.99
921.282	10810.75
921.593	10643.52
921.903	10628.38
922.214	10603.29
922.525	10610.3
922.835	10537.08
923.146	10504.09
923.456	10504.99
923.767	10409.18
924.077	10479.46
924.387	10451.21
924.697	10341.15
925.008	10332.34
925.318	10251.89
925.628	10234.04
925.938	10271.78
926.248	10136.87
926.558	10175.51
926.867	10100.93
927.177	10041.95
927.487	10019.58
927.796	9889.19
928.106	9930.54
928.416	9839.7
928.725	9882.18
929.034	9752.02
929.344	9751.34
929.653	9762.86
929.962	9618.01
930.271	9569.42
930.581	9598.35
930.89	9575.98
931.199	9526.49
931.508	9477
931.817	9513.15
932.125	9384.57
932.434	9324.01
932.743	9254.4
933.051	9247.85
933.36	9169.66
933.669	9111.13
933.977	9103.45
934.286	9093.05
934.594	9090.11
934.902	8970.8
935.21	8976.9
935.519	8914.3
935.827	8872.04
936.135	8813.06
936.443	8690.35
936.751	8729.9
937.059	8724.47
937.367	8683.57
937.674	8619.39
937.982	8594.53
938.29	8548.66
938.597	8506.4
938.905	8467.08
939.213	8396.8
939.52	8378.27
939.827	8450.58
940.135	8293.75
940.442	8273.19
940.749	8278.38
941.056	8281.55
941.363	8164.94
941.67	8112.51
941.977	8047.2
942.284	7966.75
942.591	8015.34
942.898	7973.76
943.205	7953.87
943.511	7903.25
943.818	7860.54
944.125	7813.99
944.431	7742.8
944.738	7761.34
945.044	7707.55
945.35	7649.02
945.657	7552.3
945.963	7566.76
946.269	7529.48
946.575	7562.92
946.881	7445.64
947.187	7489.25
947.493	7428.46
947.799	7347.56
948.105	7329.26
948.41	7257.17
948.716	7323.38
949.022	7256.49
949.327	7362.02
949.633	7122.71
949.938	7192.31
950.244	7166.77
950.549	7061.69
950.854	6975.37
951.16	7004.07
951.465	6966.78
951.77	6919.32
952.075	6919.78
952.38	6954.58
952.685	6880.45
952.99	6823.96
953.294	6766.56
953.599	6790.74
953.904	6768.59
954.209	6716.84
954.513	6761.36
954.818	6695.83
955.122	6687.69
955.426	6612.44
955.731	6539.45
956.035	6568.37
956.339	6496.51
956.643	6509.62
956.948	6468.94
957.252	6465.78
957.556	6419.22
957.86	6398.43
958.163	6360.02
958.467	6386.23
958.771	6345.78
959.075	6337.87
959.378	6317.08
959.682	6266.01
959.985	6260.58
960.289	6194.37
960.592	6215.16
960.896	6188.72
961.199	6176.97
961.502	6143.07
961.805	6090.87
962.108	6037.09
962.411	6101.04
962.714	6017.43
963.017	6065.11
963.32	6028.73
963.623	5988.05
963.926	5993.92
964.228	5903.98
964.531	5901.27
964.833	5918.45
965.136	5824.44
965.438	5822.86
965.741	5758.9
966.043	5769.3
966.345	5760.94
966.648	5753.03
966.95	5720.26
967.252	5744.67
967.554	5730.88
967.856	5652.46
968.158	5567.95
968.46	5595.06
968.761	5573.82
969.063	5521.62
969.365	5564.33
969.666	5487.27
969.968	5437.1
970.269	5477.33
970.571	5424.22
970.872	5405.47
971.174	5407.73
971.475	5386.48
971.776	5354.85
972.077	5312.59
972.378	5284.79
972.679	5306.94
972.98	5222.87
973.281	5250.89
973.582	5205.02
973.883	5183.1
974.183	5171.8
974.484	5081.86
974.785	5083.67
975.085	5106.04
975.386	5073.27
975.686	5061.29
975.986	4995.53
976.287	4991.69
976.587	4921.86
976.887	4915.31
977.187	4927.96
977.487	4897.91
977.787	4897.91
978.087	4893.61
978.387	4826.5
978.687	4830.79
978.987	4760.06
979.286	4698.59
979.586	4703.34
979.885	4687.29
980.185	4658.14
980.484	4664.24
980.784	4635.77
981.083	4586.28
981.382	4591.93
981.682	4595.32
981.981	4511.48
982.28	4503.12
982.579	4479.61
982.878	4459.73
983.177	4470.12
983.475	4480.07
983.774	4407.98
984.073	4397.13
984.372	4373.4
984.67	4346.06
984.969	4310.8
985.267	4338.6
985.566	4303.8
985.864	4261.09
986.162	4257.02
986.461	4233.07
986.759	4179.96
987.057	4206.63
987.355	4120.53
987.653	4157.59
987.951	4139.51
988.249	4092.73
988.547	4108.1
988.844	4007.31
989.142	4069
989.44	4006.41
989.737	4005.73
990.035	3962.34
990.332	3951.72
990.63	3912.85
990.927	3911.27
991.224	3865.17
991.521	3841.21
991.819	3856.13
992.116	3808.9
992.413	3808.67
992.71	3796.69
993.006	3793.08
993.303	3784.04
993.6	3726.19
993.897	3739.07
994.193	3724.38
994.49	3691.84
994.787	3651.61
995.083	3628.11
995.379	3596.93
995.676	3620.88
995.972	3616.13
996.268	3574.78
996.565	3524.38
996.861	3537.49
997.157	3524.61
997.453	3466.08
997.749	3490.26
998.044	3438.74
998.34	3432.18
998.636	3425.18
998.932	3447.55
999.227	3368.23
999.523	3388.34
999.818	3352.41
1000.114	3330.04
1000.409	3300.44
1000.704	3315.58
1001	3290.27
1001.295	3281.45
1001.59	3264.05
1001.885	3240.1
1002.18	3235.13
1002.475	3182.02
1002.77	3178.63
1003.065	3159.42
1003.359	3158.29
1003.654	3175.47
1003.949	3121.23
1004.243	3069.93
1004.538	3070.16
1004.832	3037.62
1005.127	3052.98
1005.421	3035.13
1005.715	3025.19
1006.009	3020.67
1006.304	2980.9
1006.598	2990.84
1006.892	2996.71
1007.186	2923.95
1007.48	2920.56
1007.773	2866.32
1008.067	2897.51
1008.361	2905.64
1008.655	2865.19
1008.948	2877.85
1009.242	2824.29
1009.535	2771.18
1009.829	2797.85
1010.122	2760.11
1010.415	2747.23
1010.708	2755.37
1011.001	2742.03
1011.295	2726.21
1011.588	2673.11
1011.881	2652.32
1012.173	2644.63
1012.466	2672.66
1012.759	2644.41
1013.052	2590.62
1013.344	2626.78
1013.637	2599.66
1013.93	2560.57
1014.222	2582.71
1014.514	2561.92
1014.807	2493.45
1015.099	2485.09
1015.391	2495.94
1015.683	2483.06
1015.976	2465.88
1016.268	2446.9
1016.56	2411.19
1016.851	2407.58
1017.143	2403.06
1017.435	2397.63
1017.727	2357.64
1018.018	2397.18
1018.31	2312.44
1018.602	2294.81
1018.893	2294.13
1019.185	2297.07
1019.476	2287.13
1019.767	2256.4
1020.058	2254.36
1020.35	2203.52
1020.641	2235.61
1020.932	2211.2
1021.223	2183.18
1021.514	2172.1
1021.804	2177.08
1022.095	2131.88
1022.386	2112.22
1022.677	2116.29
1022.967	2059.56
1023.258	2030.64
1023.548	2059.56
1023.839	2053.24
1024.129	2023.63
1024.419	2014.82
1024.709	1981.6
1025	1983.18
1025.29	1964.65
1025.58	1957.87
1025.87	1935.27
1026.16	1893.02
1026.449	1921.49
1026.739	1886.01
1027.029	1863.41
1027.319	1851.43
1027.608	1846.69
1027.898	1849.63
1028.187	1818.44
1028.477	1799.01
1028.766	1789.06
1029.055	1775.05
1029.344	1745
1029.634	1756.07
1029.923	1751.1
1030.212	1735.05
1030.501	1691.89
1030.79	1664.55
1031.078	1662.96
1031.367	1654.83
1031.656	1651.89
1031.945	1655.73
1032.233	1642.85
1032.522	1620.48
1032.81	1606.02
1033.099	1602.63
1033.387	1593.36
1033.675	1560.59
1033.963	1572.35
1034.251	1543.19
1034.54	1536.19
1034.828	1540.03
1035.116	1528.05
1035.403	1500.03
1035.691	1488.05
1035.979	1483.76
1036.267	1472.01
1036.554	1454.83
1036.842	1418.23
1037.129	1433.82
1037.417	1433.82
1037.704	1397.89
1037.992	1407.83
1038.279	1399.69
1038.566	1399.92
1038.853	1399.92
1039.14	1399.92
