Data from aluminium_surface_pro_back_FLMS001491_00042.txt Node
Date: Wed Feb 08 15:34:06 GMT 2017
User: dcchb
Spectrometer: FLMS00149
Trigger mode: 0
Integration Time (sec): 2.000000E-2
Scans to average: 10
Electric dark correction enabled: true
Nonlinearity correction enabled: false
Boxcar width: 0
XAxis mode: Wavelengths
Number of Pixels in Spectrum: 2048
>>>>>Begin Spectral Data<<<<<
341.393	-15.1
341.776	-15.1
342.16	-15.1
342.543	-64.59
342.927	-75.21
343.31	-72.5
343.693	-65.04
344.077	-76.11
344.46	-54.65
344.843	-58.49
345.226	-50.58
345.61	-22.33
345.993	-18.94
346.376	-9.67
346.759	-3.57
347.142	20.38
347.525	51.34
347.908	55.18
348.291	76.42
348.674	111.9
349.057	116.65
349.44	111
349.823	139.7
350.206	147.84
350.588	225.35
350.971	224.44
351.354	231.22
351.737	266.93
352.119	280.26
352.502	273.48
352.884	281.84
353.267	300.37
353.65	318.45
354.032	301.73
354.414	322.97
354.797	336.98
355.179	333.82
355.562	325.91
355.944	352.12
356.326	348.06
356.709	341.73
357.091	342.63
357.473	346.7
357.855	362.74
358.238	366.36
358.62	376.98
359.002	358.45
359.384	364.55
359.766	352.35
360.148	376.53
360.53	368.62
360.912	365.46
361.294	356.19
361.676	361.84
362.057	378.56
362.439	344.89
362.821	354.38
363.203	363.87
363.584	353.48
363.966	325.23
364.348	371.33
364.729	349.64
365.111	380.15
365.493	367.94
365.874	348.06
366.256	362.29
366.637	344.21
367.019	331.79
367.4	365.46
367.781	342.18
368.163	364.55
368.544	349.41
368.925	362.97
369.306	358
369.688	365.23
370.069	367.04
370.45	373.37
370.831	380.6
371.212	376.76
371.593	358.68
371.974	361.16
372.355	370.43
372.736	365.46
373.117	398.45
373.498	385.79
373.879	353.71
374.26	372.24
374.641	377.21
375.021	378.11
375.402	390.54
375.783	383.31
376.163	415.62
376.544	404.33
376.925	409.3
377.305	390.99
377.686	404.78
378.066	417.21
378.447	428.05
378.827	415.85
379.208	421.27
379.588	418.34
379.968	416.08
380.349	429.86
380.729	453.36
381.109	436.19
381.489	437.77
381.87	429.86
382.25	434.38
382.63	451.1
383.01	439.35
383.39	458.79
383.77	441.39
384.15	454.04
384.53	477.77
384.91	459.92
385.29	464.89
385.67	480.71
386.049	494.94
386.429	481.61
386.809	480.03
387.189	478.45
387.568	486.81
387.948	494.72
388.328	493.81
388.707	528.39
389.087	506.47
389.466	527.71
389.846	519.58
390.225	540.14
390.605	531.55
390.984	539.01
391.363	541.95
391.743	574.49
392.122	574.26
392.501	581.5
392.881	582.63
393.26	578.11
393.639	576.3
394.018	589.63
394.397	598.67
394.776	603.87
395.155	599.57
395.534	593.25
395.913	623.53
396.292	652
396.671	626.92
397.05	637.77
397.429	643.64
397.808	666.24
398.186	669.63
398.565	672.34
398.944	671.89
399.323	697.88
399.701	689.29
400.08	698.33
400.458	697.88
400.837	736.07
401.215	734.49
401.594	747.37
401.972	746.46
402.351	724.77
402.729	759.12
403.107	760.25
403.486	760.25
403.864	777.88
404.242	773.58
404.62	799.12
404.999	799.34
405.377	805.22
405.755	829.17
406.133	816.29
406.511	829.63
406.889	865.33
407.267	844.09
407.645	833.24
408.023	897.42
408.401	912.33
408.779	911.2
409.156	913.24
409.534	917.08
409.912	931.32
410.29	935.61
410.667	955.72
411.045	966.8
411.422	1020.81
411.8	988.26
412.178	1002.28
412.555	1030.3
412.933	1029.62
413.31	1037.08
413.687	1080.69
414.065	1069.17
414.442	1084.99
414.819	1085.66
415.197	1126.79
415.574	1129.28
415.951	1134.93
416.328	1125.89
416.705	1158.43
417.082	1155.49
417.46	1183.74
417.837	1215.15
418.214	1232.78
418.591	1229.16
418.967	1282.95
419.344	1263.06
419.721	1279.33
420.098	1281.36
420.475	1288.82
420.852	1318.43
421.228	1307.8
421.605	1309.84
421.982	1364.3
422.358	1345.77
422.735	1376.28
423.111	1366.33
423.488	1388.25
423.864	1411.08
424.241	1463.05
424.617	1421.02
424.994	1456.5
425.37	1470.06
425.746	1484.75
426.123	1497.63
426.499	1513.22
426.875	1542.37
427.251	1571.07
427.627	1581.02
428.003	1610.85
428.379	1621.47
428.756	1631.19
429.132	1667.57
429.507	1667.57
429.883	1695.59
430.259	1752.99
430.635	1766.32
431.011	1742.82
431.387	1808.13
431.763	1849.03
432.138	1854
432.514	1857.17
432.89	1858.3
433.265	1934.68
433.641	1937.39
434.016	1941.23
434.392	1974.68
434.767	2071.63
435.143	2016.94
435.518	2061.23
435.894	2079.54
436.269	2113.21
436.644	2135.35
437.02	2169.02
437.395	2191.85
437.77	2196.14
438.145	2264.62
438.52	2256.71
438.895	2293.99
439.271	2293.54
439.646	2335.35
440.021	2329.47
440.395	2339.42
440.77	2332.86
441.145	2408.34
441.52	2434.1
441.895	2444.5
442.27	2440.43
442.645	2443.14
443.019	2484.04
443.394	2487.89
443.769	2520.88
444.143	2499.19
444.518	2568.56
444.892	2580.31
445.267	2646.75
445.641	2609.69
446.016	2678.62
446.39	2655.11
446.764	2686.3
447.139	2672.74
447.513	2729.01
447.887	2749.35
448.262	2736.02
448.636	2764.94
449.01	2811.95
449.384	2849.91
449.758	2848.1
450.132	2905.28
450.506	2909.8
450.88	2933.3
451.254	2917.25
451.628	2985.27
452.002	3007.42
452.376	3019.85
452.75	3099.4
453.123	3098.94
453.497	3139.17
453.871	3179.62
454.244	3248.09
454.618	3279.28
454.992	3306.4
455.365	3317.92
455.739	3400.4
456.112	3413.51
456.486	3479.72
456.859	3497.58
457.232	3569.89
457.606	3563.79
457.979	3600.85
458.352	3718.14
458.725	3717.23
459.099	3747.97
459.472	3847.85
459.845	3862.99
460.218	3910
460.591	3903.67
460.964	4006.49
461.337	4046.72
461.71	4151.8
462.083	4204
462.456	4170.78
462.829	4186.6
463.201	4307.5
463.574	4308.4
463.947	4344.33
464.32	4450.09
464.692	4448.74
465.065	4492.58
465.438	4588.85
465.81	4644.44
466.183	4713.82
466.555	4800.82
466.928	4823.64
467.3	4845.79
467.672	4952.68
468.045	5058.67
468.417	5017.54
468.789	5116.97
469.161	5165.78
469.534	5262.5
469.906	5359.45
470.278	5417.75
470.65	5511.99
471.022	5606.22
471.394	5668.59
471.766	5766.44
472.138	5872.88
472.51	5963.05
472.882	6074.23
473.253	6092.09
473.625	6182.03
473.997	6313.55
474.369	6358.97
474.74	6458.63
475.112	6593.99
475.484	6693.2
475.855	6774.1
476.227	6856.36
476.598	7045.73
476.97	7100.65
477.341	7204.37
477.713	7326.4
478.084	7389.45
478.455	7678.71
478.827	7685.72
479.198	7883.68
479.569	7981.3
479.94	8186.95
480.311	8246.15
480.682	8492.7
481.053	8626.26
481.424	8729.76
481.795	8840.71
482.166	8957.77
482.537	9144.43
482.908	9330.42
483.279	9413.35
483.65	9582.39
484.021	9800.01
484.391	9893.79
484.762	9990.74
485.133	10044.75
485.503	10195.93
485.874	10457.17
486.244	10468.47
486.615	10753.43
486.985	10895.12
487.356	11024.16
487.726	11170.14
488.097	11468.22
488.467	11444.26
488.837	11719.28
489.207	11808.09
489.578	11965.38
489.948	12116.33
490.318	12324.46
490.688	12412.15
491.058	12626.83
491.428	12755.87
491.798	12924.45
492.168	13091.22
492.538	13181.62
492.908	13334.61
493.278	13488.73
493.648	13558.78
494.017	13761.49
494.387	13821.37
494.757	14002.61
495.126	14231.08
495.496	14140.01
495.866	14241.48
496.235	14461.58
496.605	14636.27
496.974	14754.91
497.344	14833.55
497.713	14986.77
498.082	15033.09
498.452	15323.71
498.821	15342.69
499.19	15441.22
499.559	15623.81
499.928	15675.79
500.298	15796.92
500.667	15878.95
501.036	15928.89
501.405	15993.52
501.774	16162.56
502.143	16355.54
502.512	16328.65
502.88	16540.17
503.249	16673.5
503.618	16809.09
503.987	16899.71
504.356	17048.18
504.724	17065.36
505.093	17236.65
505.462	17260.61
505.83	17346.25
506.199	17536.08
506.567	17750.76
506.936	17834.83
507.304	18016.74
507.672	18062.39
508.041	18159.56
508.409	18243.63
508.777	18491.99
509.145	18647.69
509.514	18636.39
509.882	18814.69
510.25	18972.2
510.618	19044.29
510.986	19192.53
511.354	19383.71
511.722	19468.01
512.09	19724.04
512.458	19783.93
512.826	19933.53
513.193	20049.91
513.561	20137.82
513.929	20285.84
514.297	20477.02
514.664	20664.13
515.032	20811.7
515.4	21006.72
515.767	21023.9
516.135	21150.45
516.502	21144.35
516.869	21637.21
517.237	21673.14
517.604	21685.8
517.972	21861.16
518.339	22067.71
518.706	22242.85
519.073	22365.56
519.44	22482.84
519.808	22878.76
520.175	22802.61
520.542	23021.58
520.909	23265.87
521.276	23330.05
521.643	23546.09
522.009	23742.92
522.376	23885.06
522.743	24043.48
523.11	24262.23
523.477	24576.57
523.843	24698.15
524.21	24950.12
524.577	25170.68
524.943	25365.25
525.31	25458.13
525.676	25743.55
526.043	25926.82
526.409	26049.53
526.776	26269.41
527.142	26509.18
527.508	26610.19
527.874	26773.58
528.241	26927.24
528.607	27120.69
528.973	27324.75
529.339	27391.86
529.705	27611.29
530.071	27858.52
530.437	27997.5
530.803	28268.9
531.169	28435
531.535	28547.09
531.901	28590.7
532.267	28859.4
532.632	28930.13
532.998	29134.64
533.364	29220.97
533.73	29380.74
534.095	29640.62
534.461	29696.21
534.826	29932.59
535.192	30120.61
535.557	30330.77
535.923	30273.37
536.288	30351.33
536.653	30561.27
537.019	30525.57
537.384	30720.59
537.749	30911.09
538.114	30963.3
538.479	30904.54
538.845	31230.41
539.21	31150.64
539.575	31286.45
539.94	31320.35
540.305	31519.67
540.67	31604.86
541.034	31812.77
541.399	31869.03
541.764	31991.07
542.129	32066.77
542.494	32113.32
542.858	32133.89
543.223	32358.51
543.587	32516.7
543.952	32458.4
544.316	32735.23
544.681	32699.3
545.045	32799.18
545.41	32986.29
545.774	33047.76
546.138	33011.38
546.503	33221.32
546.867	33330.47
547.231	33711.47
547.595	33738.82
547.959	33654.75
548.324	33866.04
548.688	33895.42
549.052	34046.38
549.416	34205.7
549.779	34283.21
550.143	34527.5
550.507	34669.19
550.871	34701.5
551.235	34758.22
551.599	35025.34
551.962	35137.2
552.326	35251.77
552.689	35482.95
553.053	35454.48
553.417	35535.61
553.78	35971.53
554.143	35737.63
554.507	36065.99
554.87	36138.53
555.234	36544.17
555.597	36341.23
555.96	36561.57
556.323	36757.49
556.686	36764.5
557.05	36973.76
557.413	37214.66
557.776	37361.32
558.139	37416.69
558.502	37482.22
558.865	37655.78
559.228	38075.2
559.59	38086.27
559.953	38163.56
560.316	38623.21
560.679	38618.01
561.041	38979.81
561.404	38990.2
561.767	39298.9
562.129	39174.83
562.492	39483.98
562.854	39526.01
563.217	39499.34
563.579	39920.35
563.941	40045.54
564.304	40256.16
564.666	40441.69
565.028	40694.11
565.39	40752.19
565.753	41041.9
566.115	41145.18
566.477	41343.59
566.839	41574.77
567.201	41920.75
567.563	41912.84
567.925	42196.22
568.287	42211.14
568.648	42378.36
569.01	42653.84
569.372	42792.14
569.734	42798.24
570.095	43027.84
570.457	43266.93
570.819	43294.5
571.18	43392.8
571.542	43695.84
571.903	43745.56
572.265	44041.14
572.626	44141.03
572.987	44163.85
573.349	44317.75
573.71	44501.47
574.071	44560.23
574.432	44836.6
574.794	44847.22
575.155	44925.87
575.516	44961.8
575.877	45029.82
576.238	45339.19
576.599	45488.56
576.96	45461.67
577.32	45590.03
577.681	45692.85
578.042	45933.07
578.403	45904.6
578.763	45975.33
579.124	46104.82
579.485	46283.57
579.845	46484.24
580.206	46267.53
580.566	46436.34
580.927	46580.29
581.287	46627.06
581.648	46512.04
582.008	46777.57
582.368	46663.67
582.728	46807.85
583.089	46630.23
583.449	46876.1
583.809	46928.07
584.169	46982.08
584.529	46747.51
584.889	47057.11
585.249	46936.21
585.609	46963.78
585.969	47138.24
586.329	46981.41
586.688	47192.02
587.048	47075.87
587.408	46982.54
587.768	47002.2
588.127	47052.82
588.487	46994.51
588.846	47376.65
589.206	47137.11
589.565	47103.66
589.925	47354.5
590.284	47213.26
590.643	47279.03
591.003	47409.42
591.362	47434.73
591.721	47314.5
592.08	47275.86
592.44	47448.96
592.799	47444.44
593.158	47448.96
593.517	47316.54
593.876	47496.42
594.235	47399.93
594.593	47559.47
594.952	47544.55
595.311	47449.42
595.67	47524.22
596.029	47799.92
596.387	47720.6
596.746	47866.13
597.104	47600.37
597.463	47686.7
597.822	47902.51
598.18	47856.64
598.538	47720.37
598.897	48023.86
599.255	47718.11
599.613	48205.1
599.972	47992.68
600.33	48073.13
600.688	47890.53
601.046	47987.93
601.404	48257.3
601.762	48123.97
602.12	48291.43
602.478	48221.37
602.836	48346.12
603.194	47960.14
603.552	48237.42
603.91	48174.14
604.268	48296.63
604.625	48095.27
604.983	48359.22
605.341	48189.51
605.698	48461.37
606.056	48593.57
606.413	48475.83
606.771	48587.47
607.128	48592.44
607.485	48535.04
607.843	48645.99
608.2	48737.52
608.557	48851.64
608.914	48601.02
609.272	48961.69
609.629	49019.54
609.986	48969.83
610.343	48872.66
610.7	49067.45
611.057	49100.67
611.414	48982.03
611.771	49055.7
612.127	49172.31
612.484	49174.12
612.841	49307.9
613.198	49087.57
613.554	49105.19
613.911	49462.02
614.267	49335.02
614.624	49253.44
614.98	49439.42
615.337	49624.95
615.693	49601.68
616.05	49514.22
616.406	49675.8
616.762	49558.29
617.118	49580.66
617.475	49580.89
617.831	49806.19
618.187	49804.38
618.543	49768.68
618.899	49888.67
619.255	49850.03
619.611	49752.86
619.967	49799.64
620.323	50012.29
620.678	49944.49
621.034	49744.95
621.39	49937.49
621.746	49796.7
622.101	50183.36
622.457	49903.36
622.812	50065.17
623.168	50080.76
623.523	50001.67
623.879	50195.11
624.234	49979.07
624.589	50080.08
624.945	50076.01
625.3	50002.34
625.655	50113.3
626.01	50092.74
626.365	50066.3
626.72	49972.74
627.075	49913.76
627.43	49861.78
627.785	49846.87
628.14	50116.69
628.495	49931.38
628.85	49920.54
629.205	49786.98
629.559	49991.04
629.914	49846.42
630.269	49826.75
630.623	49678.28
630.978	49713.09
631.332	49894.1
631.687	49884.15
632.041	49751.95
632.396	49785.63
632.75	49625.63
633.104	49799.18
633.459	49488.23
633.813	49598.29
634.167	49537.5
634.521	49502.02
634.875	49510.15
635.229	49448.01
635.583	49195.81
635.937	49215.02
636.291	49108.81
636.645	49232.65
636.999	49194.91
637.352	49219.54
637.706	48927.57
638.06	49149.03
638.413	49008.02
638.767	48903.16
639.121	48939.77
639.474	48748.82
639.828	48714.69
640.181	48782.04
640.534	48737.29
640.888	48740.68
641.241	48504.08
641.594	48562.16
641.947	48749.04
642.301	48624.53
642.654	48593.11
643.007	48735.94
643.36	48491.65
643.713	48475.15
644.066	48618.65
644.419	48399.45
644.771	48018.89
645.124	47766.92
645.477	47752.01
645.83	47410.55
646.182	47212.81
646.535	47091.69
646.888	47021.18
647.24	47029.54
647.593	47112.48
647.945	46994.51
648.298	46943.67
648.65	46858.25
649.002	46678.14
649.355	46823.9
649.707	46734.86
650.059	46921.52
650.411	47303.43
650.763	47320.83
651.115	47728.5
651.467	47470.43
651.819	47602.63
652.171	47396.31
652.523	47425.91
652.875	47293.49
653.227	47243.32
653.578	47399.47
653.93	47154.06
654.282	46944.8
654.633	46851.47
654.985	47153.38
655.337	46937.57
655.688	46960.62
656.039	46947.96
656.391	46533.28
656.742	46690.34
657.094	46698.93
657.445	46870.67
657.796	46846.49
658.147	46735.99
658.498	46625.48
658.849	46671.58
659.2	46586.16
659.551	46521.08
659.902	46587.29
660.253	46690.57
660.604	46613.96
660.955	46291.03
661.306	46546.39
661.656	46511.59
662.007	46396.34
662.358	46426.62
662.708	46394.53
663.059	46402.89
663.409	46161.77
663.76	46405.83
664.11	46376.9
664.461	46458.48
664.811	46335.55
665.161	46276.11
665.511	46169.45
665.862	46274.98
666.212	46243.12
666.562	46280.86
666.912	46133.29
667.262	46132.61
667.612	46069.11
667.962	46086.97
668.312	45927.65
668.662	46153.18
669.011	46106.4
669.361	45973.3
669.711	45867.76
670.06	45786.41
670.41	45686.52
670.76	45788.44
671.109	45771.04
671.459	45794.54
671.808	45783.47
672.157	45864.37
672.507	45525.4
672.856	45663.93
673.205	45600.43
673.554	45728.11
673.904	45509.81
674.253	45766.75
674.602	45612.18
674.951	44975.36
675.3	44881.35
675.649	45400.2
675.998	45394.33
676.346	45316.82
676.695	45512.97
677.044	44977.39
677.393	45402.92
677.741	45314.56
678.09	45323.37
678.438	45163.37
678.787	45157.27
679.135	45283.37
679.484	45019.88
679.832	45131.74
680.181	44804.06
680.529	45016.94
680.877	44851.29
681.225	44831.18
681.573	45001.8
681.922	44731.07
682.27	44461.47
682.618	44558.64
682.966	44447.24
683.314	44583.28
683.661	44407.01
684.009	44221.48
684.357	44165.89
684.705	44036.17
685.053	44173.12
685.4	44169.73
685.748	43899.68
686.095	43875.5
686.443	43780.13
686.79	43707.14
687.138	43777.2
687.485	43723.41
687.832	43534.94
688.18	43608.61
688.527	43299.92
688.874	43287.04
689.221	43130.89
689.568	43101.28
689.915	42894.73
690.262	42705.13
690.609	42820.16
690.956	42597.57
691.303	42653.61
691.65	42434.41
691.997	42431.24
692.344	42133.85
692.69	42004.36
693.037	42143.79
693.383	41960.07
693.73	41865.83
694.077	41664.94
694.423	41775.67
694.769	41449.57
695.116	41413.87
695.462	41381.1
695.808	41183.14
696.155	41381.1
696.501	41072.18
696.847	40959.42
697.193	40604.4
697.539	40996.93
697.885	40587
698.231	40621.8
698.577	40476.49
698.923	40327.57
699.269	40357.63
699.614	39914.02
699.96	40017.52
700.306	39988.82
700.651	39834.48
700.997	39609.62
701.342	39657.98
701.688	39565.78
702.033	39229.29
702.379	39260.93
702.724	39044.67
703.069	39073.82
703.415	38854.84
703.76	38847.16
704.105	38848.96
704.45	38737.1
704.795	38585.02
705.14	38394.74
705.485	38408.07
705.83	38171.02
706.175	38269.54
706.52	38059.15
706.865	37970.34
707.209	37907.07
707.554	37779.84
707.899	37778.94
708.243	37699.84
708.588	37711.82
708.932	37333.75
709.277	37375.1
709.621	37423.47
709.966	37032.51
710.31	37134.89
710.654	36814.44
710.998	36854.44
711.342	36882.24
711.687	36769.02
712.031	36643.82
712.375	36446.99
712.719	36596.59
713.063	36400.89
713.407	36650.38
713.75	36341.23
714.094	36249.94
714.438	36114.35
714.782	36058.76
715.125	35825.54
715.469	35989.38
715.812	35707.35
716.156	35516.62
716.499	35670.97
716.843	35642.72
717.186	35410.18
717.53	35588.94
717.873	35487.7
718.216	35307.81
718.559	35242.96
718.902	35110.53
719.246	35036.64
719.589	34925.68
719.932	34801.39
720.275	35001.83
720.617	34787.15
720.96	34782.4
721.303	34727.26
721.646	34616.99
721.989	34364.34
722.331	34463.77
722.674	34314.17
723.016	34359.14
723.359	34245.7
723.701	34188.75
724.044	34075.76
724.386	33957.12
724.729	34047.73
725.071	33817.23
725.413	33914.18
725.755	33948.3
726.097	33696.11
726.439	33616.56
726.782	33503.34
727.124	33641.19
727.465	33605.94
727.807	33549.89
728.149	33556.9
728.491	33374.98
728.833	33445.72
729.175	33342.22
729.516	33232.16
729.858	33300.86
730.199	33250.69
730.541	33080.98
730.882	32959.4
731.224	33079.17
731.565	32842.12
731.906	32869.91
732.248	32885.96
732.589	32647.77
732.93	32639.64
733.271	32530.26
733.612	32613.87
733.953	32522.8
734.294	32485.74
734.635	32318.51
734.976	32321.23
735.317	32384.28
735.658	32161.23
735.999	32198.97
736.339	32064.06
736.68	32101.35
737.021	32015.47
737.361	31824.06
737.702	31926.66
738.042	31768.92
738.383	31841.24
738.723	31717.4
739.063	31664.07
739.404	31761.92
739.744	31543.39
740.084	31585.2
740.424	31485.54
740.764	31285.55
741.104	31410.29
741.444	31117.19
741.784	31215.27
742.124	31148.83
742.464	31063.63
742.804	31028.15
743.143	30971.88
743.483	31018.21
743.823	30796.29
744.162	30799.91
744.502	30833.58
744.841	30685.34
745.181	30762.85
745.52	30544.55
745.86	30629.75
746.199	30552.91
746.538	30529.86
746.877	30424.78
747.216	30439.47
747.556	30183.88
747.895	30337.1
748.234	30166.71
748.573	30118.12
748.911	30121.28
749.25	30091.23
749.589	29937.56
749.928	29948.86
750.267	30030.89
750.605	29972.36
750.944	29833.16
751.283	29696.89
751.621	29623.44
751.96	29541.19
752.298	29611.24
752.636	29596.55
752.975	29502.77
753.313	29346.62
753.651	29443.11
753.989	29209.44
754.327	29252.38
754.666	28997.7
755.004	29132.61
755.342	29239.95
755.679	28994.31
756.017	28937.36
756.355	28955.44
756.693	28770.36
757.031	28586.18
757.368	28477.71
757.706	28494.43
758.044	28359.52
758.381	28426.87
758.719	28260.54
759.056	28330.14
759.394	28218.96
759.731	28004.05
760.068	27889.25
760.405	27773.32
760.743	27676.83
761.08	27852.19
761.417	27613.78
761.754	27605.42
762.091	27534.46
762.428	27340.34
762.765	27168.82
763.102	27281.81
763.438	27195.26
763.775	27062.61
764.112	26993
764.449	26949.84
764.785	26888.83
765.122	26621.94
765.458	26657.65
765.795	26553.69
766.131	26489.52
766.467	26362.29
766.804	26283.65
767.14	25968.4
767.476	26058.79
767.812	25984.9
768.148	25952.35
768.485	25840.72
768.821	25715.98
769.157	25621.06
769.492	25537.45
769.828	25477.34
770.164	25328.19
770.5	25166.84
770.836	25182.66
771.171	24995.09
771.507	25048.88
771.842	24806.17
772.178	24836.23
772.513	24760.97
772.849	24581.32
773.184	24593.07
773.519	24544.48
773.855	24431.72
774.19	24335.9
774.525	24285.05
774.86	24112.18
775.195	24067.66
775.53	23931.39
775.865	23794.9
776.2	23670.83
776.535	23608.91
776.87	23480.1
777.205	23442.14
777.539	23257.74
777.874	23395.13
778.209	23118.08
778.543	23071.98
778.878	22826.11
779.212	22943.62
779.547	22732.33
779.881	22840.57
780.215	22655.94
780.55	22578.43
780.884	22409.85
781.218	22460.47
781.552	22441.49
781.886	22194.26
782.22	22077.2
782.554	22085.11
782.888	21981.16
783.222	21790.66
783.556	21820.03
783.889	21662.98
784.223	21635.41
784.557	21487.84
784.89	21576.42
785.224	21450.33
785.557	21298.01
785.891	21365.81
786.224	21309.76
786.558	21224.8
786.891	21116.55
787.224	20976.21
787.557	20913.16
787.891	20849.89
788.224	20807.18
788.557	20759.95
788.89	20687.86
789.223	20685.6
789.556	20447.87
789.888	20371.26
790.221	20368.55
790.554	20169.91
790.887	20164.26
791.219	20159.06
791.552	20061.21
791.884	19907.77
792.217	19845.17
792.549	19839.75
792.882	19643.82
793.214	19601.33
793.546	19632.52
793.879	19494.22
794.211	19368.8
794.543	19435.92
794.875	19305.98
795.207	19477.04
795.539	19175.58
795.871	19172.42
796.203	18993.67
796.535	18875.93
796.867	18857.17
797.198	18877.06
797.53	18875.7
797.862	18676.16
798.193	18597.52
798.525	18549.84
798.856	18600.91
799.188	18346.9
799.519	18373.12
799.85	18272.56
800.182	18182.16
800.513	18215.83
800.844	18111.88
801.175	18213.8
801.506	18039.57
801.837	17955.28
802.168	17890.87
802.499	17942.85
802.83	17764.1
803.161	17791.44
803.491	17683.42
803.822	17724.32
804.153	17551.45
804.483	17383.09
804.814	17366.59
805.145	17381.05
805.475	17392.35
805.805	17217.22
806.136	17203.43
806.466	17296.99
806.796	17150.33
807.126	16989.65
807.457	16919.6
807.787	16906.26
808.117	16849.54
808.447	16795.98
808.777	16882.76
809.107	16819.26
809.436	16727.51
809.766	16664.01
810.096	16707.4
810.426	16546.5
810.755	16516.67
811.085	16496.78
811.414	16413.17
811.744	16238.03
812.073	16313.51
812.403	16280.74
812.732	16274.64
813.061	16256.56
813.39	16085.04
813.719	16076
814.049	16149.67
814.378	16080.98
814.707	15852.28
815.036	15982
815.365	15864.48
815.693	15705.17
816.022	15713.98
816.351	15628.11
816.68	15632.85
817.008	15698.61
817.337	15587.2
817.665	15607.54
817.994	15551.27
818.322	15520.09
818.651	15489.8
818.979	15452.97
819.307	15435.79
819.636	15465.85
819.964	15336.14
820.292	15342.01
820.62	15260.21
820.948	15217.5
821.276	15373.42
821.604	15315.35
821.932	15329.36
822.259	15343.37
822.587	15316.25
822.915	15295.69
823.243	15313.99
823.57	15224.5
823.898	15295.91
824.225	15169.36
824.553	15230.15
824.88	15235.35
825.207	15245.74
825.535	15231.05
825.862	15189.02
826.189	15112.19
826.516	15232.86
826.843	15224.95
827.17	15238.29
827.497	15271.73
827.824	15183.82
828.151	15228.34
828.478	15156.93
828.805	15177.04
829.131	15056.14
829.458	14973.89
829.785	15012.53
830.111	15084.62
830.438	15073.54
830.764	15102.47
831.09	15110.38
831.417	15091.17
831.743	15122.13
832.069	15156.25
832.395	15057.73
832.722	15091.62
833.048	14943.15
833.374	14968.46
833.7	14963.26
834.026	14998.29
834.351	15012.53
834.677	14985.41
835.003	14998.07
835.329	14925.75
835.654	14955.13
835.98	14876.94
836.306	14848.92
836.631	14802.82
836.956	14888.69
837.282	14913.55
837.607	14704.51
837.932	14672.65
838.258	14717.85
838.583	14705.64
838.908	14625.42
839.233	14674.68
839.558	14571.41
839.883	14667
840.208	14543.61
840.533	14544.52
840.858	14552.88
841.182	14547.46
841.507	14562.15
841.832	14468.36
842.156	14389.04
842.481	14396.05
842.805	14468.36
843.13	14506.78
843.454	14439.89
843.778	14200.35
844.103	14317.86
844.427	14268.14
844.751	14276.05
845.075	14191.76
845.399	14147.47
845.723	14047.36
846.047	14133.68
846.371	14003.97
846.695	13955.83
847.019	13872.67
847.343	13823.41
847.666	13730.53
847.99	13674.03
848.313	13714.26
848.637	13625.9
848.96	13647.14
849.284	13610.76
849.607	13519.01
849.931	13471.33
850.254	13370.76
850.577	13283.31
850.9	13186.59
851.223	13248.51
851.546	13194.27
851.869	13088.29
852.192	13228.17
852.515	13018.91
852.838	12989.53
853.161	12989.31
853.483	12922.41
853.806	12808.52
854.129	12839.25
854.451	12718.58
854.774	12655.3
855.096	12727.17
855.419	12655.75
855.741	12608.3
856.063	12491.69
856.385	12544.35
856.708	12489.88
857.03	12475.19
857.352	12436.33
857.674	12379.15
857.996	12431.35
858.318	12246.73
858.64	12325.59
858.961	12313.16
859.283	12180.51
859.605	12196.33
859.926	12235.43
860.248	12186.61
860.57	12152.72
860.891	12116.56
861.212	12013.29
861.534	12119.5
861.855	12035.43
862.176	12007.41
862.498	12002.89
862.819	11954.98
863.14	11928.32
863.461	11960.18
863.782	11986.62
864.103	11876.57
864.424	11843.35
864.745	11875.89
865.065	11804.93
865.386	11745.04
865.707	11714.76
866.027	11701.66
866.348	11691.71
866.668	11761.99
866.989	11665.72
867.309	11685.84
867.63	11689.45
867.95	11688.32
868.27	11544.82
868.59	11575.56
868.91	11522.23
869.23	11537.82
869.55	11527.42
869.87	11570.36
870.19	11500.76
870.51	11577.37
870.83	11489.01
871.15	11470.7
871.469	11454.43
871.789	11484.03
872.109	11488.78
872.428	11433.64
872.748	11394.32
873.067	11397.93
873.386	11373.75
873.706	11469.35
874.025	11402
874.344	11409.46
874.663	11314.32
874.982	11356.13
875.301	11329.46
875.62	11281.1
875.939	11286.75
876.258	11337.37
876.577	11210.37
876.896	11161.56
877.214	11168.56
877.533	11163.82
877.852	11162.23
878.17	11159.75
878.489	11206.08
878.807	11213.31
879.125	11073.2
879.444	11057.38
879.762	11056.7
880.08	11094.89
880.398	11019.64
880.716	11064.61
881.034	11000.88
881.352	10981.45
881.67	10951.62
881.988	10926.53
882.306	10897.38
882.624	10804.96
882.941	10723.6
883.259	10803.6
883.577	10785.07
883.894	10737.39
884.212	10704.17
884.529	10711.63
884.846	10686.99
885.164	10686.99
885.481	10743.94
885.798	10730.16
886.115	10581.23
886.432	10638.86
886.75	10607.9
887.067	10672.76
887.383	10597.05
887.7	10571.29
888.017	10528.13
888.334	10586.2
888.651	10513.21
888.967	10384.63
889.284	10421.01
889.6	10400.45
889.917	10377.62
890.233	10405.87
890.55	10330.62
890.866	10361.13
891.182	10346.44
891.498	10295.59
891.815	10190.28
892.131	10250.17
892.447	10176.72
892.763	10183.96
893.079	10152.09
893.395	10110.29
893.71	10162.26
894.026	10051.53
894.342	10095.37
894.657	10000.68
894.973	9943.28
895.289	10073.9
895.604	10023.06
895.92	9873
896.235	9872.55
896.55	9850.4
896.865	9882.95
897.181	9838.2
897.496	9807.02
897.811	9746.9
898.126	9729.73
898.441	9705.78
898.756	9726.34
899.071	9623.29
899.386	9642.27
899.7	9495.84
900.015	9542.84
900.33	9441.6
900.644	9530.64
900.959	9414.26
901.273	9469.17
901.588	9354.6
901.902	9327.93
902.216	9261.95
902.531	9252.45
902.845	9207.26
903.159	9201.38
903.473	9165
903.787	9168.16
904.101	9128.39
904.415	9031.22
904.729	9056.98
905.042	8976.98
905.356	8952.12
905.67	8966.81
905.984	8949.19
906.297	8948.28
906.611	8894.72
906.924	8819.25
907.237	8789.87
907.551	8784.44
907.864	8718.23
908.177	8705.35
908.491	8743.54
908.804	8634.84
909.117	8643.2
909.43	8620.38
909.743	8545.35
910.056	8560.72
910.368	8540.61
910.681	8509.88
910.994	8412.25
911.307	8469.42
911.619	8367.73
911.932	8444.11
912.244	8376.77
912.557	8308.3
912.869	8318.69
913.181	8226.49
913.494	8222.43
913.806	8172.71
914.118	8131.58
914.43	8115.54
914.742	8142.43
915.054	8084.35
915.366	8034.41
915.678	8024.01
915.99	8004.58
916.302	7966.61
916.613	7931.13
916.925	7914.18
917.236	7856.33
917.548	7898.37
917.859	7831.47
918.171	7717.13
918.482	7713.51
918.794	7688.65
919.105	7694.3
919.416	7657.92
919.727	7576.57
920.038	7568.88
920.349	7542.89
920.66	7547.41
920.971	7548.32
921.282	7488.43
921.593	7413.18
921.903	7421.09
922.214	7393.52
922.525	7360.3
922.835	7364.59
923.146	7259.96
923.456	7247.99
923.767	7216.12
924.077	7219.74
924.387	7153.07
924.697	7157.37
925.008	7123.47
925.318	7037.15
925.628	7090.48
925.938	7008.9
926.248	7016.36
926.558	6927.77
926.867	6908.11
927.177	6853.42
927.487	6873.31
927.796	6839.86
928.106	6810.94
928.416	6810.26
928.725	6710.15
929.034	6671.05
929.344	6702.69
929.653	6682.35
929.962	6635.12
930.271	6606.2
930.581	6612.07
930.89	6546.31
931.199	6534.56
931.508	6511.06
931.817	6542.7
932.125	6465.64
932.434	6476.71
932.743	6427.22
933.051	6389.03
933.36	6349.25
933.669	6362.36
933.977	6364.39
934.286	6301.12
934.594	6290.5
934.902	6242.59
935.21	6200.33
935.519	6238.07
935.827	6202.14
936.135	6158.52
936.443	6091.41
936.751	6070.17
937.059	6048.02
937.367	5993.78
937.674	6059.77
937.982	6006.89
938.29	5988.81
938.597	5965.54
938.905	5853.67
939.213	5867.91
939.52	5853.22
939.827	5842.83
940.135	5801.02
940.442	5824.3
940.749	5822.04
941.056	5837.4
941.363	5749.5
941.67	5774.58
941.977	5671.76
942.284	5615.26
942.591	5659.33
942.898	5635.37
943.205	5606
943.511	5583.62
943.818	5557.64
944.125	5514.02
944.431	5590.4
944.738	5502.27
945.044	5490.97
945.35	5467.7
945.657	5374.82
945.963	5425.66
946.269	5445.55
946.575	5349.05
946.881	5357.64
947.187	5342.73
947.493	5298.89
947.799	5266.12
948.105	5247.14
948.41	5217.08
948.716	5186.57
949.022	5129.85
949.327	5136.18
949.633	5142.28
949.938	5125.11
950.244	5052.34
950.549	5052.11
950.854	5006.24
951.16	5035.39
951.465	5017.09
951.77	4935.96
952.075	4979.57
952.38	4978.89
952.685	4911.33
952.99	4888.05
953.294	4911.55
953.599	4837.2
953.904	4837.2
954.209	4816.64
954.513	4789.75
954.818	4825.9
955.122	4749.3
955.426	4718.11
955.731	4738.22
956.035	4755.17
956.339	4667.49
956.643	4684.44
956.948	4614.38
957.252	4640.15
957.556	4637.21
957.86	4624.78
958.163	4606.7
958.467	4571.9
958.771	4545.69
959.075	4561.96
959.378	4485.12
959.682	4525.8
959.985	4490.77
960.289	4429.76
960.592	4419.59
960.896	4373.26
961.199	4393.15
961.502	4385.92
961.805	4356.09
962.108	4357.67
962.411	4305.01
962.714	4307.27
963.017	4292.36
963.32	4255.75
963.623	4208.52
963.926	4218.46
964.228	4244.22
964.531	4211.01
964.833	4262.08
965.136	4183.21
965.438	4128.3
965.741	4137.33
966.043	4130.56
966.345	4094.4
966.648	4124.45
966.95	4122.19
967.252	4094.85
967.554	4043.78
967.856	4016.21
968.158	4032.7
968.46	3980.95
968.761	3996.55
969.063	3967.4
969.365	3933.5
969.666	3947.28
969.968	3862.99
970.269	3907.06
970.571	3834.29
970.872	3853.73
971.174	3818.93
971.475	3865.03
971.776	3785.25
972.077	3814.18
972.378	3801.98
972.679	3788.64
972.98	3758.14
973.281	3714.52
973.582	3713.17
973.883	3705.26
974.183	3634.98
974.484	3696.89
974.785	3634.07
975.085	3663.22
975.386	3671.13
975.686	3579.84
975.986	3640.17
976.287	3564.24
976.587	3552.49
976.887	3548.2
977.187	3532.6
977.487	3536.45
977.787	3500.52
978.087	3467.97
978.387	3476.34
978.687	3467.75
978.987	3434.75
979.286	3399.5
979.586	3384.36
979.885	3385.49
980.185	3359.95
980.484	3326.06
980.784	3347.3
981.083	3338.26
981.382	3304.14
981.682	3299.16
981.981	3260.07
982.28	3265.04
982.579	3247.41
982.878	3260.75
983.177	3228.21
983.475	3212.39
983.774	3185.5
984.073	3176.23
984.372	3168.55
984.67	3141.65
984.969	3186.4
985.267	3149.56
985.566	3155.89
985.864	3098.72
986.162	3083.13
986.461	3101.43
986.759	3080.87
987.057	3043.13
987.355	3025.27
987.653	3051.71
987.951	3030.7
988.249	3023.47
988.547	3021.88
988.844	2969.68
989.142	3000.42
989.44	2948.44
989.737	2923.58
990.035	2930.36
990.332	2905.05
990.63	2889.46
990.927	2884.03
991.224	2923.81
991.521	2834.54
991.819	2870.02
992.116	2908.67
992.413	2809.01
992.71	2820.31
993.006	2835.9
993.303	2795.22
993.6	2756.35
993.897	2781.21
994.193	2765.39
994.49	2748.22
994.787	2733.08
995.083	2686.07
995.379	2718.16
995.676	2707.77
995.972	2639.75
996.268	2641.33
996.565	2648.11
996.861	2658.05
997.157	2642.91
997.453	2624.38
997.749	2595.45
998.044	2572.4
998.34	2577.6
998.636	2539.41
998.932	2535.79
999.227	2517.04
999.523	2534.21
999.818	2519.52
1000.114	2485.17
1000.409	2469.58
1000.704	2476.81
1001	2500.77
1001.295	2427.32
1001.59	2424.16
1001.885	2435.46
1002.18	2406.31
1002.475	2376.25
1002.77	2356.59
1003.065	2365.18
1003.359	2364.95
1003.654	2342.35
1003.949	2329.25
1004.243	2333.31
1004.538	2286.54
1004.832	2281.34
1005.127	2263.03
1005.421	2259.87
1005.715	2259.87
1006.009	2252.86
1006.304	2232.75
1006.598	2214.45
1006.892	2188.46
1007.186	2159.31
1007.48	2195.92
1007.773	2172.41
1008.067	2136.71
1008.361	2120.89
1008.655	2169.25
1008.948	2112.53
1009.242	2118.63
1009.535	2115.24
1009.829	2076.82
1010.122	2047.22
1010.415	2068.91
1010.708	2035.7
1011.001	2050.84
1011.295	2006.77
1011.588	1998.41
1011.881	1970.61
1012.173	1983.95
1012.466	1987.56
1012.759	1968.35
1013.052	1942.36
1013.344	1964.51
1013.637	1961.8
1013.93	1903.27
1014.222	1896.72
1014.514	1894.23
1014.807	1901.91
1015.099	1858.98
1015.391	1870.05
1015.683	1884.74
1015.976	1863.27
1016.268	1843.16
1016.56	1826.44
1016.851	1779.2
1017.143	1810.62
1017.435	1778.98
1017.727	1752.09
1018.018	1740.79
1018.31	1760.22
1018.602	1754.35
1018.893	1719.77
1019.185	1707.57
1019.476	1690.39
1019.767	1723.39
1020.058	1706.89
1020.35	1653.56
1020.641	1668.7
1020.932	1629.15
1021.223	1664.18
1021.514	1603.39
1021.804	1597.51
1022.095	1605.42
1022.386	1593.9
1022.677	1578.53
1022.967	1572.43
1023.258	1548.48
1023.548	1521.36
1023.839	1544.86
1024.129	1536.73
1024.419	1525.2
1024.709	1508.93
1025	1482.04
1025.29	1493.11
1025.58	1523.39
1025.87	1489.95
1026.16	1483.85
1026.449	1451.08
1026.739	1442.49
1027.029	1453.56
1027.319	1402.94
1027.608	1414.92
1027.898	1378.31
1028.187	1423.28
1028.477	1404.75
1028.766	1388.03
1029.055	1367.24
1029.344	1380.35
1029.634	1383.28
1029.923	1348.48
1030.212	1331.98
1030.501	1357.75
1030.79	1322.27
1031.078	1338.54
1031.367	1289.5
1031.656	1299.44
1031.945	1292.66
1032.233	1269.84
1032.522	1289.73
1032.81	1263.74
1033.099	1242.5
1033.387	1246.11
1033.675	1235.49
1033.963	1196.85
1034.251	1229.61
1034.54	1209.5
1034.828	1184.42
1035.116	1205.21
1035.403	1193.68
1035.691	1135.83
1035.979	1159.56
1036.267	1178.54
1036.554	1130.41
1036.842	1145.1
1037.129	1143.97
1037.417	1108.94
1037.704	1134.48
1037.992	1128.37
1038.279	1089.51
1038.566	1098.09
1038.853	1098.09
1039.14	1098.09
