Data from aluminium_surface_pro_back_FLMS001491_00045.txt Node
Date: Wed Feb 08 15:34:07 GMT 2017
User: dcchb
Spectrometer: FLMS00149
Trigger mode: 0
Integration Time (sec): 2.000000E-2
Scans to average: 10
Electric dark correction enabled: true
Nonlinearity correction enabled: false
Boxcar width: 0
XAxis mode: Wavelengths
Number of Pixels in Spectrum: 2048
>>>>>Begin Spectral Data<<<<<
341.393	-11.95
341.776	-11.95
342.16	-11.95
342.543	-82.68
342.927	-66.41
343.31	-74.32
343.693	-61.67
344.077	-67.31
344.46	-67.54
344.843	-50.37
345.226	-42.23
345.61	-21.89
345.993	-26.41
346.376	-6.75
346.759	7.94
347.142	28.95
347.525	44.32
347.908	61.5
348.291	86.81
348.674	80.48
349.057	108.5
349.44	122.28
349.823	133.81
350.206	167.71
350.588	207.93
350.971	231.89
351.354	249.51
351.737	243.41
352.119	278.44
352.502	270.53
352.884	302.62
353.267	303.07
353.65	324.54
354.032	321.6
354.414	332
354.797	336.29
355.179	339.23
355.562	339.45
355.944	375.39
356.326	374.26
356.709	367.25
357.091	350.53
357.473	360.92
357.855	373.35
358.238	393.46
358.62	381.71
359.002	369.74
359.384	389.85
359.766	377.19
360.148	362.05
360.53	390.75
360.912	374.26
361.294	364.54
361.676	393.69
362.057	373.35
362.439	383.52
362.821	355.95
363.203	361.83
363.584	360.92
363.966	348.49
364.348	341.26
364.729	359.79
365.111	378.78
365.493	364.54
365.874	361.15
366.256	375.61
366.637	345.56
367.019	362.73
367.4	352.79
367.781	365.44
368.163	362.28
368.544	370.87
368.925	366.35
369.306	374.71
369.688	375.61
370.069	377.87
370.45	352.79
370.831	369.96
371.212	367.93
371.593	367.48
371.974	364.54
372.355	390.07
372.736	386.46
373.117	350.3
373.498	384.88
373.879	349.4
374.26	391.66
374.641	374.03
375.021	387.59
375.402	395.95
375.783	401.37
376.163	420.13
376.544	412.45
376.925	407.48
377.305	410.64
377.686	406.8
378.066	423.97
378.447	409.96
378.827	415.38
379.208	416.29
379.588	416.97
379.968	419.45
380.349	411.09
380.729	438.21
381.109	430.98
381.489	451.54
381.87	460.58
382.25	464.42
382.63	465.1
383.01	434.59
383.39	454.71
383.77	451.99
384.15	443.41
384.53	467.13
384.91	475.95
385.29	442.5
385.67	471.2
386.049	479.56
386.429	489.51
386.809	508.94
387.189	492.9
387.568	494.7
387.948	501.26
388.328	515.04
388.707	527.02
389.087	527.25
389.466	514.82
389.846	528.83
390.225	521.14
390.605	557.08
390.984	552.1
391.363	560.47
391.743	549.62
392.122	552.56
392.501	594.36
392.881	578.09
393.26	587.36
393.639	578.77
394.018	602.72
394.397	602.27
394.776	605.89
395.155	623.29
395.534	626.9
395.913	626
396.292	629.84
396.671	654.25
397.05	635.04
397.429	636.4
397.808	645.89
398.186	660.58
398.565	648.15
398.944	682.95
399.323	673.46
399.701	701.7
400.08	667.58
400.458	736.05
400.837	735.6
401.215	738.31
401.594	731.99
401.972	728.14
402.351	735.83
402.729	751.87
403.107	774.47
403.486	753.45
403.864	777.41
404.242	798.65
404.62	773.34
404.999	792.78
405.377	796.17
405.755	810.4
406.133	817.18
406.511	816.28
406.889	846.79
407.267	850.85
407.645	893.56
408.023	887.24
408.401	900.57
408.779	906.22
409.156	926.78
409.534	938.31
409.912	935.37
410.29	970.85
410.667	962.71
411.045	983.28
411.422	982.15
411.8	1021.24
412.178	985.77
412.555	1035.48
412.933	1033.45
413.31	1052.43
413.687	1053.56
414.065	1098.53
414.442	1102.15
414.819	1113.67
415.197	1122.71
415.574	1123.16
415.951	1183.5
416.328	1154.35
416.705	1195.7
417.082	1162.26
417.46	1199.54
417.837	1223.05
418.214	1214.01
418.591	1231.18
418.967	1223.72
419.344	1271.63
419.721	1255.36
420.098	1258.3
420.475	1268.7
420.852	1292.42
421.228	1342.59
421.605	1342.37
421.982	1357.51
422.358	1391.4
422.735	1387.79
423.111	1369.71
423.488	1391.63
423.864	1428.24
424.241	1419.65
424.617	1462.81
424.994	1429.6
425.37	1459.2
425.746	1511.17
426.123	1511.85
426.499	1506.43
426.875	1560.44
427.251	1560.21
427.627	1600.89
428.003	1585.98
428.379	1618.52
428.756	1620.32
429.132	1666.65
429.507	1702.58
429.883	1696.48
430.259	1729.93
430.635	1754.78
431.011	1752.3
431.387	1842.47
431.763	1829.58
432.138	1853.99
432.514	1851.73
432.89	1900.09
433.265	1945.97
433.641	1951.16
434.016	1962.24
434.392	1988.9
434.767	2064.15
435.143	2024.16
435.518	2040.88
435.894	2080.65
436.269	2120.65
436.644	2158.84
437.02	2169.24
437.395	2123.36
437.77	2203.59
438.145	2211.95
438.52	2236.13
438.895	2298.27
439.271	2274.32
439.646	2351.83
440.021	2328.1
440.395	2324.26
440.77	2333.98
441.145	2402
441.52	2459.62
441.895	2454.43
442.27	2490.81
442.645	2476.57
443.019	2486.97
443.394	2522.22
443.769	2554.31
444.143	2531.04
444.518	2592.05
444.892	2572.84
445.267	2623.91
445.641	2603.58
446.016	2641.99
446.39	2659.39
446.764	2671.6
447.139	2688.32
447.513	2718.83
447.887	2729.22
448.262	2756.34
448.636	2748.88
449.01	2778.26
449.384	2801.76
449.758	2863.23
450.132	2913.4
450.506	2897.13
450.88	2952.27
451.254	2923.57
451.628	2984.81
452.002	3003.57
452.376	3015.54
452.75	3107.74
453.123	3102.09
453.497	3112.71
453.871	3157.91
454.244	3246.27
454.618	3252.37
454.992	3288.53
455.365	3315.65
455.739	3414.18
456.112	3452.59
456.486	3440.84
456.859	3453.04
457.232	3572.36
457.606	3552.03
457.979	3611.91
458.352	3648.07
458.725	3745.69
459.099	3727.61
459.472	3820.94
459.845	3893.94
460.218	3930.32
460.591	3941.62
460.964	3951.34
461.337	4051.22
461.71	4115.85
462.083	4161.05
462.456	4197.66
462.829	4222.52
463.201	4259.58
463.574	4233.14
463.947	4357.65
464.32	4522.62
464.692	4487.37
465.065	4510.42
465.438	4623.86
465.81	4662.28
466.183	4736.17
466.555	4803.52
466.928	4818.88
467.3	4853.46
467.672	4908.37
468.045	5093
468.417	5081.02
468.789	5130.51
469.161	5181.13
469.534	5239.21
469.906	5335.48
470.278	5410.28
470.65	5507
471.022	5605.53
471.394	5687.79
471.766	5739.54
472.138	5799.42
472.51	5950.38
472.882	6040.55
473.253	6104.95
473.625	6170.49
473.997	6311.5
474.369	6388.11
474.74	6453.64
475.112	6547.2
475.484	6696.8
475.855	6742.68
476.227	6883.01
476.598	7059.73
476.97	7072.84
477.341	7234.41
477.713	7340.17
478.084	7427.63
478.455	7652.03
478.827	7718.24
479.198	7923.44
479.569	7962.08
479.94	8215.41
480.311	8187.61
480.682	8485.45
481.053	8619.24
481.424	8745.79
481.795	8884.54
482.166	8994.14
482.537	9088.15
482.908	9280.24
483.279	9375.15
483.65	9614.46
484.021	9757.51
484.391	9877.96
484.762	10015.81
485.133	10069.37
485.503	10304.39
485.874	10464.84
486.244	10549.13
486.615	10808.11
486.985	10786.19
487.356	11085.16
487.726	11259.17
488.097	11469.33
488.467	11476.34
488.837	11672.26
489.207	11855.08
489.578	11969.21
489.948	12121.07
490.318	12303.43
490.688	12368.97
491.058	12598.12
491.428	12771.44
491.798	12834.04
492.168	13075.16
492.538	13164.88
492.908	13362.16
493.278	13446.68
493.648	13507.92
494.017	13777.29
494.387	13857.74
494.757	14043.05
495.126	14180.22
495.496	14248.02
495.866	14297.28
496.235	14443.04
496.605	14620.66
496.974	14799.87
497.344	14898.62
497.713	14956.47
498.082	15169.57
498.452	15296.58
498.821	15278.27
499.19	15403.92
499.559	15562.56
499.928	15684.36
500.298	15688.2
500.667	15985.14
501.036	15925.03
501.405	16160.73
501.774	16112.82
502.143	16338.13
502.512	16348.07
502.88	16552.14
503.249	16604.34
503.618	16726.82
503.987	16903.99
504.356	16898.12
504.724	17113.7
505.093	17166.81
505.462	17238.22
505.83	17408.61
506.199	17578.1
506.567	17677.3
506.936	17720.01
507.304	18009.95
507.672	18072.32
508.041	18117.52
508.409	18263.28
508.777	18543.04
509.145	18571.29
509.514	18710.95
509.882	18832.08
510.25	18824.62
510.618	19129.47
510.986	19101.22
511.354	19286.98
511.722	19418.5
512.09	19672.73
512.458	19651.26
512.826	19812.16
513.193	19983.68
513.561	20059.61
513.929	20455.99
514.297	20465.7
514.664	20658.47
515.032	20736.88
515.4	20924.68
515.767	20959.25
516.135	21252.8
516.502	21155.18
516.869	21518.11
517.237	21681.04
517.604	21650.08
517.972	21853.46
518.339	22021.14
518.706	22119.9
519.073	22327.58
519.44	22536.16
519.808	22827.9
520.175	22730.73
520.542	23137.72
520.909	23252.98
521.276	23301.34
521.643	23560.54
522.009	23739.52
522.376	23895.45
522.743	24132.95
523.11	24284.14
523.477	24541.3
523.843	24747.85
524.21	25057.45
524.577	25190.1
524.943	25412.24
525.31	25564.55
525.676	25879.35
526.043	25863.53
526.409	26030.53
526.776	26339.22
527.142	26458.32
527.508	26613.57
527.874	26807.91
528.241	26992.09
528.607	27136.72
528.973	27268.46
529.339	27310.5
529.705	27651.28
530.071	27924.72
530.437	27985.73
530.803	28170.59
531.169	28406.29
531.535	28437.02
531.901	28593.63
532.267	28766.5
532.632	28815.09
532.998	29009.21
533.364	29252.37
533.73	29377.11
534.095	29626.82
534.461	29618.01
534.826	29892.12
535.192	29925.34
535.557	30264.77
535.923	30239.01
536.288	30386.35
536.653	30637.41
537.019	30525.55
537.384	30660.92
537.749	30793.34
538.114	30984.75
538.479	30918.76
538.845	31173.22
539.21	31102.04
539.575	31444.17
539.94	31392.42
540.305	31657.73
540.67	31569.82
541.034	31671.51
541.399	31816.37
541.764	31952.18
542.129	32085.96
542.494	32026.98
542.858	32319.18
543.223	32146.98
543.587	32509.23
543.952	32480.98
544.316	32573.41
544.681	32682.56
545.045	32868.99
545.41	33057.24
545.774	32980.18
546.138	33173.62
546.503	33254.3
546.867	33313.5
547.231	33611.8
547.595	33653.83
547.959	33801.85
548.324	33864.9
548.688	33948.29
549.052	34051.56
549.416	34160.71
549.779	34296.3
550.143	34314.38
550.507	34581.94
550.871	34841.82
551.235	34795.72
551.599	35089.95
551.962	35241.81
552.326	35251.53
552.689	35415.59
553.053	35350.96
553.417	35506.89
553.78	35962.02
554.143	35635.93
554.507	36058.06
554.87	36104.39
555.234	36550.93
555.597	36388.45
555.96	36498.5
556.323	36699.4
556.686	36834.77
557.05	36949.11
557.413	37196.79
557.776	37351.14
558.139	37453.96
558.502	37678.81
558.865	37752.03
559.228	37913.38
559.59	38096.43
559.953	38208.52
560.316	38564.89
560.679	38715.39
561.041	38925.56
561.404	39109.73
561.767	39238.09
562.129	39133.46
562.492	39522.6
562.854	39533.23
563.217	39673.11
563.579	39767.8
563.941	40047.56
564.304	40341.11
564.666	40431.06
565.028	40695.68
565.39	40723.48
565.753	41046.63
566.115	41156.69
566.477	41358.04
566.839	41573.4
567.201	41774.75
567.563	41757.35
567.925	42111.24
568.287	42157.56
568.648	42405.24
569.01	42553.49
569.372	42959.8
569.734	42580.15
570.095	43172.9
570.457	43246.35
570.819	43388.49
571.18	43355.95
571.542	43585.32
571.903	43783.06
572.265	43894.24
572.626	44166.1
572.987	44147.79
573.349	44346.21
573.71	44365.19
574.071	44576.26
574.432	44612.41
574.794	45080.42
575.155	44994.1
575.516	44825.06
575.877	45204.49
576.238	45252.4
576.599	45355.22
576.96	45312.28
577.32	45463.01
577.681	45668.21
578.042	45835.66
578.403	45857.13
578.763	46033.62
579.124	46104.35
579.485	46240.39
579.845	46358.36
580.206	46361.97
580.566	46377.34
580.927	46575.75
581.287	46628.63
581.648	46567.84
582.008	46753.83
582.368	46705.47
582.728	46735.52
583.089	46723.32
583.449	46753.15
583.809	46878.34
584.169	46960.15
584.529	46895.74
584.889	47214.15
585.249	47017.78
585.609	46951.56
585.969	47118.56
586.329	46963.99
586.688	47111.56
587.048	47044.67
587.408	46969.41
587.768	47050.54
588.127	46984.33
588.487	47058.45
588.846	47358.56
589.206	47120.82
589.565	47088.51
589.925	47301.16
590.284	47141.16
590.643	47260.93
591.003	47328.05
591.362	47429.29
591.721	47395.17
592.08	47369.4
592.44	47407.6
592.799	47398.33
593.158	47422.51
593.517	47422.06
593.876	47476.75
594.235	47313.81
594.593	47280.37
594.952	47488.05
595.311	47504.09
595.67	47606.69
596.029	47707.25
596.387	47725.1
596.746	47799
597.104	47673.13
597.463	47570.75
597.822	47835.83
598.18	47784.31
598.538	47824.76
598.897	47987.92
599.255	47556.74
599.613	48141.81
599.972	47939.11
600.33	48016.62
600.688	47914.47
601.046	48072.44
601.404	48151.3
601.762	48104.98
602.12	48196.73
602.478	48284.41
602.836	48259.32
603.194	48094.81
603.552	48177.07
603.91	48077.63
604.268	48280.11
604.625	48199.44
604.983	48319.21
605.341	48155.6
605.698	48437.62
606.056	48516.94
606.413	48509.71
606.771	48621.57
607.128	48641.46
607.485	48640.11
607.843	48506.55
608.2	48716.94
608.557	48725.3
608.914	48609.6
609.272	48870.38
609.629	48854.34
609.986	49028.12
610.343	48867.44
610.7	49075.35
611.057	48936.14
611.414	49005.75
611.771	48976.59
612.127	49165.97
612.484	49245.74
612.841	49211.84
613.198	49020.66
613.554	49226.08
613.911	49325.74
614.267	49324.38
614.624	49170.94
614.98	49468.11
615.337	49409.8
615.693	49534.55
616.05	49490.93
616.406	49796.23
616.762	49531.16
617.118	49596.01
617.475	49637.14
617.831	49705.61
618.187	49756.91
618.543	49762.11
618.899	49904.25
619.255	49738.61
619.611	49792.17
619.967	49862.22
620.323	50024.25
620.678	49873.97
621.034	49858.6
621.39	49789.91
621.746	49800.07
622.101	50163.91
622.457	49913.52
622.812	49915.78
623.168	50035.1
623.523	49974.31
623.879	50151.93
624.234	49865.61
624.589	50004.59
624.945	50036.68
625.3	50064.02
625.655	50118.71
626.01	50122.78
626.365	50016.79
626.72	49982.89
627.075	50002.78
627.43	49942.22
627.785	49842.56
628.14	49887.76
628.495	49953.29
628.85	49868.32
629.205	49760.53
629.559	50070.12
629.914	49788.1
630.269	49921.43
630.623	49753.07
630.978	49786.06
631.332	49851.82
631.687	49946.29
632.041	49871.94
632.396	49740.42
632.75	49745.84
633.104	49734.09
633.459	49490.7
633.813	49569.35
634.167	49457.71
634.521	49413.87
634.875	49505.17
635.229	49382.91
635.583	49217.72
635.937	49215.91
636.291	49293.65
636.645	49276.25
636.999	49081.22
637.352	49277.38
637.706	49054.56
638.06	49137.49
638.413	49016.59
638.767	48945.18
639.121	48902.92
639.474	48723.72
639.828	48859.99
640.181	48860.21
640.534	48891.85
640.888	48739.76
641.241	48597.62
641.594	48546.1
641.947	48721.01
642.301	48563.5
642.654	48725.75
643.007	48624.74
643.36	48600.56
643.713	48432.43
644.066	48670.39
644.419	48377.97
644.771	48095.71
645.124	47667.7
645.477	47700.02
645.83	47347.48
646.182	47263.19
646.535	47062.52
646.888	47158.79
647.24	47046.25
647.593	47065.46
647.945	47006.25
648.298	46822.53
648.65	46706.37
649.002	46685.13
649.355	46823.88
649.707	46706.14
650.059	46942.07
650.411	47319.46
650.763	47210.76
651.115	47583.64
651.467	47413.24
651.819	47441.72
652.171	47254.38
652.523	47291.21
652.875	47312.68
653.227	47142.97
653.578	47369.63
653.93	47306.13
654.282	47077.21
654.633	46971.9
654.985	47077.43
655.337	47056.87
655.688	46937.55
656.039	47058
656.391	46655.98
656.742	46812.81
657.094	46813.94
657.445	46821.4
657.796	46721.06
658.147	46543.44
658.498	46589.99
658.849	46764.45
659.2	46707.05
659.551	46486.26
659.902	46609.42
660.253	46615.07
660.604	46623.44
660.955	46425.02
661.306	46509.09
661.656	46485.59
662.007	46388.41
662.358	46391.35
662.708	46469.54
663.059	46433.84
663.409	46124.24
663.76	46340.28
664.11	46314.52
664.461	46257.12
664.811	46352.03
665.161	46272.94
665.511	46160.85
665.862	46049.44
666.212	46247.63
666.562	46280.17
666.912	46214.63
667.262	46117.23
667.612	46070.46
667.962	46054.86
668.312	45969.89
668.662	46105.71
669.011	46037.69
669.361	46007.18
669.711	45890.12
670.06	45813.96
670.41	45863.68
670.76	45752.05
671.109	45838.15
671.459	45861.2
671.808	45608.09
672.157	45786.17
672.507	45536.23
672.856	45574.2
673.205	45614.42
673.554	45686.51
673.904	45511.37
674.253	45735.1
674.602	45554.08
674.951	45149.58
675.3	44786.87
675.649	45503.92
675.998	45404.71
676.346	45297.59
676.695	45406.07
677.044	45100.76
677.393	45274.54
677.741	45320.64
678.09	45193.42
678.438	45160.87
678.787	45251.27
679.135	45167.2
679.484	44980.54
679.832	45057.6
680.181	44901.22
680.529	44979.86
680.877	44804.95
681.225	44814.22
681.573	44888.57
681.922	44645.86
682.27	44454.68
682.618	44541.68
682.966	44538.29
683.314	44609.25
683.661	44340.11
684.009	44159.55
684.357	44259.2
684.705	44119.55
685.053	44175.82
685.4	44043.39
685.748	43861.7
686.095	43865.99
686.443	43678.43
686.79	43616.28
687.138	43752.78
687.485	43753.45
687.832	43439.79
688.18	43535.15
688.527	43243.41
688.874	43231.43
689.221	43302.62
689.568	43041.83
689.915	42951.22
690.262	42825.12
690.609	42759.81
690.956	42687.04
691.303	42594.39
691.65	42564.11
691.997	42529.08
692.344	42167.73
692.69	42137.9
693.037	42203.66
693.383	41767.52
693.73	41963.22
694.077	41621.53
694.423	41666.05
694.769	41475.55
695.116	41359.62
695.462	41361.65
695.808	41377.92
696.155	41206.63
696.501	40953.3
696.847	40992.4
697.193	40661.33
697.539	40871.95
697.885	40619.98
698.231	40465.18
698.577	40650.26
698.923	40290.04
699.269	40210.27
699.614	39995.81
699.96	39927.34
700.306	39900.22
700.651	39668.36
700.997	39466.11
701.342	39482.83
701.688	39435.6
702.033	39358.99
702.379	39116.06
702.724	39120.81
703.069	39180.02
703.415	38851.21
703.76	38897.99
704.105	38862.74
704.45	38711.55
704.795	38574.38
705.14	38526.7
705.485	38305.69
705.83	38213.49
706.175	38228.18
706.52	38114.05
706.865	37923.32
707.209	37917.45
707.554	37800.16
707.899	37830.22
708.243	37733.27
708.588	37555.2
708.932	37284.47
709.277	37313.62
709.621	37285.15
709.966	37124.02
710.31	37135.32
710.654	36834.99
710.998	36892.39
711.342	36894.2
711.687	36875.67
712.031	36592.74
712.375	36495.11
712.719	36509.35
713.063	36600.42
713.407	36509.35
713.75	36391.39
714.094	36377.15
714.438	36006.99
714.782	36113.88
715.125	35971.96
715.469	35922.02
715.812	35854.9
716.156	35599.32
716.499	35603.61
716.843	35616.27
717.186	35464.41
717.53	35562.26
717.873	35574.69
718.216	35415.37
718.559	35178.76
718.902	34965.89
719.246	35013.57
719.589	34907.81
719.932	34858.55
720.275	34679.79
720.617	34797.53
720.96	34572.23
721.303	34563.87
721.646	34670.98
721.989	34466.01
722.331	34572.45
722.674	34416.75
723.016	34346.47
723.359	34286.81
723.701	34247.26
724.044	34050.66
724.386	33894.96
724.729	34073.71
725.071	33914.16
725.413	33889.53
725.755	33863.54
726.097	33628.97
726.439	33579.48
726.782	33615.19
727.124	33863.09
727.465	33661.52
727.807	33565.25
728.149	33432.6
728.491	33292.26
728.833	33544.46
729.175	33153.73
729.516	33221.98
729.858	33214.3
730.199	33305.37
730.541	33068.09
730.882	32938.6
731.224	33051.14
731.565	32885.04
731.906	32876.68
732.248	32872.61
732.589	32646.18
732.93	32534.09
733.271	32634.88
733.612	32472.17
733.953	32540.42
734.294	32454.77
734.635	32341.55
734.976	32434.43
735.317	32252.29
735.658	32176.81
735.999	32136.81
736.339	31957.83
736.68	32068.11
737.021	32019.53
737.361	31803.03
737.702	31927.78
738.042	31789.47
738.383	31674.9
738.723	31730.72
739.063	31594.9
739.404	31719.19
739.744	31476.94
740.084	31424.29
740.424	31429.48
740.764	31393.78
741.104	31470.61
741.444	31300.22
741.784	31234.01
742.124	31267.23
742.464	31076.27
742.804	31046.67
743.143	30966.45
743.483	31012.55
743.823	30800.12
744.162	30767.58
744.502	30791.99
744.841	30725.55
745.181	30728.26
745.52	30536.4
745.86	30619.34
746.199	30470.87
746.538	30557.42
746.877	30518.77
747.216	30474.26
747.556	30291.66
747.895	30313.58
748.234	30167.6
748.573	30088.73
748.911	30165.79
749.25	30075.17
749.589	29979.58
749.928	30010.09
750.267	29985.68
750.605	29940.48
750.944	29925.8
751.283	29836.98
751.621	29908.17
751.96	29438.12
752.298	29538.46
752.636	29562.87
752.975	29480.38
753.313	29421.4
753.651	29417.11
753.989	29121.52
754.327	29264.34
754.666	29065.48
755.004	29122.2
755.342	29144.8
755.679	29102.09
756.017	28780.06
756.355	28854.18
756.693	28605.83
757.031	28741.87
757.368	28589.11
757.706	28578.49
758.044	28420.98
758.381	28378.04
758.719	28423.91
759.056	28319.28
759.394	28162.23
759.731	27977.6
760.068	27886.07
760.405	27867.77
760.743	27764.95
761.08	27774.21
761.417	27457.61
761.754	27697.38
762.091	27407.9
762.428	27402.25
762.765	27243.15
763.102	27344.17
763.438	27125.87
763.775	26945.53
764.112	26942.82
764.449	26945.76
764.785	26795.26
765.122	26678.2
765.458	26602.49
765.795	26597.97
766.131	26463.29
766.467	26339.45
766.804	26190.98
767.14	26081.15
767.476	26036.86
767.812	25908.05
768.148	25964.54
768.485	25787.37
768.821	25663.99
769.157	25692.01
769.492	25471.9
769.828	25572.69
770.164	25178.8
770.5	25244.79
770.836	25224.68
771.171	24992.37
771.507	24936.1
771.842	24854.06
772.178	24811.13
772.513	24677.35
772.849	24714.86
773.184	24536.78
773.519	24541.76
773.855	24397.8
774.19	24336.56
774.525	24186.51
774.86	24193.74
775.195	24063.35
775.53	24066.97
775.865	23860.42
776.2	23649.8
776.535	23424.72
776.87	23541.78
777.205	23421.11
777.539	23295.23
777.874	23342.69
778.209	23006.65
778.543	23042.59
778.878	22796.94
779.212	22876.49
779.547	22694.8
779.881	22860.9
780.215	22607.12
780.55	22664.97
780.884	22487.35
781.218	22470.4
781.552	22431.75
781.886	22264.08
782.22	22193.34
782.554	22044.65
782.888	21883.75
783.222	21782.05
783.556	21757.42
783.889	21778.66
784.223	21584.32
784.557	21502.06
784.89	21618.44
785.224	21494.15
785.557	21375.06
785.891	21290.09
786.224	21220.26
786.558	21205.12
786.891	21094.61
787.224	20999.7
787.557	20811.91
787.891	20877.45
788.224	20866.82
788.557	20792.25
788.89	20682.2
789.223	20702.53
789.556	20491.92
789.888	20422.99
790.221	20305.03
790.554	20151.14
790.887	20197.92
791.219	20034.3
791.552	20079.05
791.884	19935.1
792.217	19821.43
792.549	19831.37
792.882	19569.46
793.214	19579.63
793.546	19564.94
793.879	19433.42
794.211	19376.24
794.543	19424.38
794.875	19324.94
795.207	19392.06
795.539	19229.58
795.871	19132.18
796.203	19013.09
796.535	18911.62
796.867	18925.18
797.198	18802.7
797.53	18846.99
797.862	18660.55
798.193	18689.48
798.525	18592.76
798.856	18557.28
799.188	18381.92
799.519	18294.91
799.85	18191.87
800.182	18222.6
800.513	18212.66
800.844	18083.62
801.175	18161.13
801.506	18138.53
801.837	17939.22
802.168	17958.65
802.499	17908.03
802.83	17771.99
803.161	17803.85
803.491	17641.6
803.822	17581.94
804.153	17552.79
804.483	17410.64
804.814	17431.21
805.145	17308.95
805.475	17375.39
805.805	17290.42
806.136	17333.36
806.466	17280.48
806.796	17153.7
807.126	16983.54
807.457	16942.41
807.787	16964.33
808.117	16838.46
808.447	16799.81
808.777	16799.81
809.107	16726.82
809.436	16703.09
809.766	16729.76
810.096	16670.55
810.426	16572.25
810.755	16473.72
811.085	16469.65
811.414	16422.65
811.744	16195.08
812.073	16348.07
812.403	16288.87
812.732	16104.24
813.061	16126.61
813.39	16107.85
813.719	16020.17
814.049	16122.54
814.378	16114.18
814.707	16045.93
815.036	15943.34
815.365	15848.43
815.693	15625.83
816.022	15760.74
816.351	15734.08
816.68	15580.86
817.008	15725.94
817.337	15570.69
817.665	15549.45
817.994	15595.1
818.322	15604.14
818.651	15398.72
818.979	15445.05
819.307	15497.7
819.636	15450.24
819.964	15334.99
820.292	15331.83
820.62	15294.54
820.948	15334.09
821.276	15285.73
821.604	15257.25
821.932	15323.69
822.259	15304.03
822.587	15243.7
822.915	15233.07
823.243	15322.34
823.57	15203.47
823.898	15246.18
824.225	15221.55
824.553	15221.77
824.88	15253.41
825.207	15226.29
825.535	15187.2
825.862	15332.05
826.189	15252.73
826.516	15308.1
826.843	15253.19
827.17	15245.73
827.497	15220.19
827.824	15205.05
828.151	15190.36
828.478	15105.85
828.805	15143.58
829.131	15138.39
829.458	15120.53
829.785	14995.11
830.111	15127.77
830.438	15165.28
830.764	15130.7
831.09	15161.44
831.417	15081.89
831.743	15143.58
832.069	15009.58
832.395	15014.32
832.722	15024.72
833.048	14893.87
833.374	15035.11
833.7	14931.61
834.026	15022.91
834.351	14948.79
834.677	14916.7
835.003	15055.9
835.329	14958.28
835.654	14939.52
835.98	14866.3
836.306	14881.67
836.631	14695.24
836.956	14880.54
837.282	14782.01
837.607	14718.06
837.932	14743.82
838.258	14695.69
838.583	14684.39
838.908	14588.57
839.233	14632.64
839.558	14586.76
839.883	14652.07
840.208	14545.41
840.533	14512.42
840.858	14549.02
841.182	14577.72
841.507	14497.95
841.832	14406.2
842.156	14422.47
842.481	14424.73
842.805	14351.74
843.13	14388.8
843.454	14329.14
843.778	14334.11
844.103	14329.14
844.427	14282.14
844.751	14238.3
845.075	14212.99
845.399	14086.66
845.723	14076.04
846.047	14082.37
846.371	14004.63
846.695	13903.62
847.019	13757.41
847.343	13887.8
847.666	13684.64
847.99	13686.22
848.313	13703.62
848.637	13605.77
848.96	13584.53
849.284	13478.54
849.607	13417.3
849.931	13464.53
850.254	13359.23
850.577	13285.55
850.9	13194.48
851.223	13210.75
851.546	13089.18
851.869	13077.42
852.192	13112.68
852.515	12998.1
852.838	13045.33
853.161	12990.65
853.483	12881.05
853.806	12819.58
854.129	12806.25
854.451	12722.41
854.774	12768.51
855.096	12751.78
855.419	12648.74
855.741	12617.55
856.063	12571.22
856.385	12583.88
856.708	12564.44
857.03	12406.48
857.352	12496.65
857.674	12446.25
857.996	12359.03
858.318	12213.04
858.64	12323.32
858.961	12244
859.283	12251.23
859.605	12105.92
859.926	12208.75
860.248	12206.94
860.57	12122.42
860.891	12146.6
861.212	12090.33
861.534	12097.11
861.855	12088.52
862.176	12011.46
862.498	11948.41
862.819	11963.33
863.14	12069.77
863.461	11916.55
863.782	11875.42
864.103	11891.69
864.424	11885.14
864.745	11928.75
865.065	11763.56
865.386	11748.87
865.707	11733.28
866.027	11731.7
866.348	11699.61
866.668	11684.47
866.989	11681.75
867.309	11629.33
867.63	11652.6
867.95	11607.86
868.27	11597.24
868.59	11591.36
868.91	11570.35
869.23	11535.54
869.55	11464.81
869.87	11578.71
870.19	11574.19
870.51	11535.09
870.83	11519.27
871.15	11455.32
871.469	11394.98
871.789	11432.27
872.109	11471.82
872.428	11344.81
872.748	11458.71
873.067	11444.7
873.386	11432.27
873.706	11459.39
874.025	11369.67
874.344	11336.23
874.663	11335.32
874.982	11345.72
875.301	11349.56
875.62	11299.17
875.939	11187.3
876.258	11260.75
876.577	11226.63
876.896	11176.23
877.214	11138.72
877.533	11136.46
877.852	11138.72
878.17	11150.24
878.489	11200.86
878.807	11140.07
879.125	11169
879.444	11069.34
879.762	11067.76
880.08	11087.42
880.398	10973.75
880.716	11066.4
881.034	10992.06
881.352	10955.22
881.67	10913.64
881.988	10903.92
882.306	10835
882.624	10860.08
882.941	10844.04
883.259	10708.45
883.577	10843.58
883.894	10744.15
884.212	10762.46
884.529	10736.47
884.846	10726.75
885.164	10724.72
885.481	10680.88
885.798	10731.27
886.115	10538.51
886.432	10671.16
886.75	10645.4
887.067	10576.47
887.383	10627.55
887.7	10601.11
888.017	10472.75
888.334	10583.48
888.651	10528.79
888.967	10497.15
889.284	10398.62
889.6	10441.79
889.917	10396.59
890.233	10343.03
890.55	10277.27
890.866	10331.28
891.182	10283.6
891.498	10239.53
891.815	10266.88
892.131	10211.74
892.447	10272.98
892.763	10180.78
893.079	10172.19
893.395	10138.97
893.71	10086.77
894.026	10115.69
894.342	9999.77
894.657	10027.56
894.973	9982.14
895.289	9965.87
895.604	9998.64
895.92	9915.93
896.235	9889.26
896.55	9851.97
896.865	9773.33
897.181	9818.75
897.496	9776.72
897.811	9759.32
898.126	9718.64
898.441	9674.8
898.756	9646.78
899.071	9637.06
899.386	9689.94
899.7	9583.96
900.015	9572.66
900.33	9438.42
900.644	9439.55
900.959	9441.81
901.273	9439.55
901.588	9438.65
901.902	9331.76
902.216	9295.83
902.531	9259.22
902.845	9217.86
903.159	9161.37
903.473	9150.52
903.787	9139.22
904.101	9075.72
904.415	9096.29
904.729	9054.48
905.042	9089.05
905.356	8993.24
905.67	8973.58
905.984	8931.32
906.297	8947.14
906.611	8862.85
906.924	8834.15
907.237	8892.9
907.551	8827.37
907.864	8783.98
908.177	8733.36
908.491	8701.49
908.804	8675.96
909.117	8692.91
909.43	8585.34
909.743	8553.7
910.056	8641.16
910.368	8493.36
910.681	8467.38
910.994	8502.86
911.307	8455.17
911.619	8400.71
911.932	8334.72
912.244	8291.11
912.557	8344.44
912.869	8263.54
913.181	8250.43
913.494	8257.21
913.806	8183.54
914.118	8121.62
914.43	8140.38
914.742	8163.2
915.054	8120.72
915.366	8052.7
915.678	8029.87
915.99	7934.28
916.302	7932.7
916.613	7951.91
916.925	7887.28
917.236	7889.54
917.548	7834.62
917.859	7793.5
918.171	7763.89
918.482	7717.34
918.794	7670.56
919.105	7665.59
919.416	7581.75
919.727	7650
920.038	7596.44
920.349	7584.24
920.66	7509.66
920.971	7505.59
921.282	7513.05
921.593	7410.68
921.903	7426.05
922.214	7367.29
922.525	7289.55
922.835	7310.57
923.146	7279.38
923.456	7254.98
923.767	7212.72
924.077	7257.24
924.387	7197.13
924.697	7143.34
925.008	7127.3
925.318	7129.33
925.628	7066.28
925.938	7027.64
926.248	6978.6
926.558	6947.64
926.867	6944.7
927.177	6953.52
927.487	6862.22
927.796	6837.59
928.106	6816.12
928.416	6802.34
928.725	6781.54
929.034	6697.71
929.344	6688.89
929.653	6670.14
929.962	6654.77
930.271	6641.66
930.581	6598.72
930.89	6599.4
931.199	6579.52
931.508	6534.55
931.817	6515.56
932.125	6519.86
932.434	6481.21
932.743	6369.58
933.051	6295.46
933.36	6338.84
933.669	6339.3
933.977	6271.05
934.286	6311.5
934.594	6284.38
934.902	6214.33
935.21	6200.09
935.519	6179.53
935.827	6160.09
936.135	6165.06
936.443	6099.3
936.751	6053.43
937.059	6007.1
937.367	6018.63
937.674	5974.11
937.982	6022.47
938.29	5999.64
938.597	5952.87
938.905	5929.59
939.213	5882.59
939.52	5858.63
939.827	5903.15
940.135	5853.21
940.442	5781.8
940.749	5772.76
941.056	5831.74
941.363	5740.44
941.67	5724.62
941.977	5725.08
942.284	5662.48
942.591	5659.77
942.898	5634.68
943.205	5606.21
943.511	5544.06
943.818	5544.29
944.125	5568.7
944.431	5559.2
944.738	5496.15
945.044	5489.83
945.35	5514.23
945.657	5438.53
945.963	5391.3
946.269	5382.03
946.575	5394.24
946.881	5335.71
947.187	5291.41
947.493	5287.57
947.799	5292.54
948.105	5268.14
948.41	5228.37
948.716	5224.98
949.022	5190.85
949.327	5151.53
949.633	5096.17
949.938	5105.88
950.244	5104.75
950.549	5053.23
950.854	5042.38
951.16	5026.34
951.465	5011.87
951.77	4982.04
952.075	4977.07
952.38	4975.26
952.685	4962.38
952.99	4869.5
953.294	4850.3
953.599	4836.29
953.904	4804.87
954.209	4839.45
954.513	4799
954.818	4805.33
955.122	4796.06
955.426	4757.87
955.731	4767.59
956.035	4701.6
956.339	4672.22
956.643	4632.9
956.948	4652.56
957.252	4646.01
957.556	4643.52
957.86	4554.94
958.163	4594.71
958.467	4587.48
958.771	4581.38
959.075	4493.7
959.378	4535.05
959.682	4539.34
959.985	4535.05
960.289	4447.14
960.592	4501.38
960.896	4407.37
961.199	4394.49
961.502	4363.08
961.805	4379.35
962.108	4351.78
962.411	4350.2
962.714	4260.48
963.017	4280.14
963.32	4292.12
963.623	4212.35
963.926	4257.32
964.228	4220.93
964.531	4191.33
964.833	4200.6
965.136	4128.51
965.438	4177.55
965.741	4137.32
966.043	4110.88
966.345	4129.41
966.648	4078.57
966.95	4067.72
967.252	4033.59
967.554	4039.24
967.856	4041.5
968.158	3973.94
968.46	3998.79
968.761	3953.37
969.063	3945.24
969.365	3956.31
969.666	3940.26
969.968	3910.89
970.269	3881.96
970.571	3911.34
970.872	3859.81
971.174	3832.24
971.475	3849.42
971.776	3841.74
972.077	3772.58
972.378	3764.22
972.679	3784.56
972.98	3749.08
973.281	3736.65
973.582	3736.43
973.883	3690.1
974.183	3658.01
974.484	3658.92
974.785	3618.24
975.085	3671.34
975.386	3637.22
975.686	3617.11
975.986	3558.13
976.287	3607.84
976.587	3558.58
976.887	3541.63
977.187	3539.14
977.487	3506.6
977.787	3490.78
978.087	3488.07
978.387	3483.55
978.687	3451.46
978.987	3427.28
979.286	3428.64
979.586	3414.85
979.885	3427.96
980.185	3382.09
980.484	3364.91
980.784	3338.92
981.083	3335.08
981.382	3324.01
981.682	3293.95
981.981	3286.04
982.28	3261.41
982.579	3266.38
982.878	3211.02
983.177	3221.19
983.475	3250.56
983.774	3159.04
984.073	3185.71
984.372	3165.59
984.67	3186.61
984.969	3154.07
985.267	3112.94
985.566	3132.6
985.864	3098.25
986.162	3101.19
986.461	3064.35
986.759	3067.74
987.057	3063.9
987.355	3026.62
987.653	3022.1
987.951	3023.68
988.249	3006.05
988.547	2973.06
988.844	2972.15
989.142	2999.05
989.44	2961.98
989.737	2928.99
990.035	2921.31
990.332	2922.21
990.63	2916.56
990.927	2903.23
991.224	2881.53
991.521	2869.33
991.819	2870.91
992.116	2839.73
992.413	2818.94
992.71	2808.77
993.006	2793.4
993.303	2768.32
993.6	2733.06
993.897	2799.05
994.193	2764.02
994.49	2747.3
994.787	2736.23
995.083	2707.3
995.379	2695.32
995.676	2699.62
995.972	2681.54
996.268	2670.69
996.565	2613.97
996.861	2641.99
997.157	2623.69
997.453	2608.1
997.749	2588.21
998.044	2608.32
998.34	2588.89
998.636	2547.31
998.932	2522.9
999.227	2524.71
999.523	2508.44
999.818	2527.19
1000.114	2508.44
1000.409	2517.02
1000.704	2449.23
1001	2460.08
1001.295	2437.25
1001.59	2452.85
1001.885	2417.37
1002.18	2429.57
1002.475	2389.34
1002.77	2388.67
1003.065	2378.72
1003.359	2376.46
1003.654	2353.64
1003.949	2348.22
1004.243	2340.53
1004.538	2317.93
1004.832	2297.82
1005.127	2297.82
1005.421	2268.67
1005.715	2227.54
1006.009	2218.5
1006.304	2248.1
1006.598	2251.49
1006.892	2216.69
1007.186	2202
1007.48	2203.59
1007.773	2181.67
1008.067	2160.65
1008.361	2108.9
1008.655	2098.28
1008.948	2117.03
1009.242	2106.64
1009.535	2056.02
1009.829	2066.41
1010.122	2072.74
1010.415	2043.36
1010.708	2040.2
1011.001	2031.84
1011.295	2003.59
1011.588	1998.17
1011.881	2005.63
1012.173	2007.66
1012.466	1979.64
1012.759	1970.6
1013.052	1943.71
1013.344	1967.21
1013.637	1945.06
1013.93	1896.7
1014.222	1915.01
1014.514	1927.66
1014.807	1886.53
1015.099	1884.72
1015.391	1849.02
1015.683	1858.74
1015.976	1855.8
1016.268	1824.39
1016.56	1776.93
1016.851	1806.76
1017.143	1812.64
1017.435	1783.94
1017.727	1755.69
1018.018	1765.18
1018.31	1762.02
1018.602	1741.23
1018.893	1711.4
1019.185	1730.15
1019.476	1701.23
1019.767	1705.75
1020.058	1678.18
1020.35	1686.99
1020.641	1661
1020.932	1643.37
1021.223	1641.57
1021.514	1650.83
1021.804	1618.74
1022.095	1602.25
1022.386	1611.06
1022.677	1581.46
1022.967	1576.26
1023.258	1565.18
1023.548	1561.34
1023.839	1541.23
1024.129	1545.07
1024.419	1544.62
1024.709	1504.62
1025	1506.66
1025.29	1498.07
1025.58	1455.81
1025.87	1493.77
1026.16	1472.08
1026.449	1475.92
1026.739	1431.86
1027.029	1452.42
1027.319	1418.07
1027.608	1409.26
1027.898	1433.21
1028.187	1387.56
1028.477	1383.27
1028.766	1419.88
1029.055	1369.03
1029.344	1369.03
1029.634	1351.86
1029.923	1364.06
1030.212	1326.55
1030.501	1359.99
1030.79	1307.34
1031.078	1317.28
1031.367	1321.8
1031.656	1289.71
1031.945	1293.78
1032.233	1289.49
1032.522	1242.03
1032.81	1248.36
1033.099	1234.57
1033.387	1245.65
1033.675	1233.22
1033.963	1227.34
1034.251	1246.55
1034.54	1224.4
1034.828	1218.08
1035.116	1195.48
1035.403	1169.04
1035.691	1177.85
1035.979	1148.92
1036.267	1157.74
1036.554	1166.78
1036.842	1140.56
1037.129	1133.11
1037.417	1114.58
1037.704	1124.52
1037.992	1115.25
1038.279	1119.32
1038.566	1119.55
1038.853	1119.55
1039.14	1119.55
