Data from aluminium_macbook_case_FLMS001491_019.txt Node
Date: Tue Feb 07 10:43:17 GMT 2017
User: dcchb
Spectrometer: FLMS00149
Trigger mode: 0
Integration Time (sec): 2.000000E-2
Scans to average: 10
Electric dark correction enabled: true
Nonlinearity correction enabled: false
Boxcar width: 0
XAxis mode: Wavelengths
Number of Pixels in Spectrum: 2048
>>>>>Begin Spectral Data<<<<<
341.393	-19.19
341.776	-19.19
342.16	-19.19
342.543	-65.75
342.927	-55.58
343.31	-74.79
343.693	-58.52
344.077	-62.36
344.46	-39.31
344.843	-52.19
345.226	-51.74
345.61	-39.53
345.993	-23.04
346.376	-16.48
346.759	18.09
347.142	28.94
347.525	35.04
347.908	63.52
348.291	78.2
348.674	93.8
349.057	100.35
349.44	120.24
349.823	146.68
350.206	173.79
350.588	268.03
350.971	276.84
351.354	270.74
351.737	277.29
352.119	304.41
352.502	298.09
352.884	346.22
353.267	336.5
353.65	357.52
354.032	357.52
354.414	367.46
354.797	351.42
355.179	378.76
355.562	371.3
355.944	372.66
356.326	385.99
356.709	402.04
357.091	397.07
357.473	406.78
357.855	396.61
358.238	415.6
358.62	418.99
359.002	404.75
359.384	416.05
359.766	413.56
360.148	422.15
360.53	429.16
360.912	417.63
361.294	437.06
361.676	419.21
362.057	391.87
362.439	409.72
362.821	399.1
363.203	434.35
363.584	420.57
363.966	411.75
364.348	407.46
364.729	435.93
365.111	412.43
365.493	416.05
365.874	423.73
366.256	443.17
366.637	422.83
367.019	427.35
367.4	414.69
367.781	418.76
368.163	431.87
368.544	446.56
368.925	438.19
369.306	428.7
369.688	439.55
370.069	437.74
370.45	431.42
370.831	440.68
371.212	452.88
371.593	438.65
371.974	469.83
372.355	450.4
372.736	456.05
373.117	445.88
373.498	459.21
373.879	476.16
374.26	462.15
374.641	462.15
375.021	475.26
375.402	486.1
375.783	512.77
376.163	525.42
376.544	510.51
376.925	501.7
377.305	517.74
377.686	520.9
378.066	503.5
378.447	521.81
378.827	499.66
379.208	534.24
379.588	518.87
379.968	539.43
380.349	549.15
380.729	539.21
381.109	531.98
381.489	542.6
381.87	569.49
382.25	577.17
382.63	566.55
383.01	568.59
383.39	588.7
383.77	584.18
384.15	582.37
384.53	601.35
384.91	596.38
385.29	631.86
385.67	628.47
386.049	648.81
386.429	663.73
386.809	665.53
387.189	652.88
387.568	683.61
387.948	675.7
388.328	684.97
388.707	699.88
389.087	681.35
389.466	717.74
389.846	714.57
390.225	723.84
390.605	716.61
390.984	744.18
391.363	753.67
391.743	756.15
392.122	762.25
392.501	798.19
392.881	798.86
393.26	804.74
393.639	784.63
394.018	811.52
394.397	817.85
394.776	845.64
395.155	844.06
395.534	828.24
395.913	838.64
396.292	882.25
396.671	893.32
397.05	884.28
397.429	897.62
397.808	931.97
398.186	923.38
398.565	910.05
398.944	928.8
399.323	945.07
399.701	956.15
400.08	957.28
400.458	981.01
400.837	1001.57
401.215	986.65
401.594	991.85
401.972	1055.13
402.351	1014.45
402.729	1026.65
403.107	1049.7
403.486	1051.96
403.864	1065.97
404.242	1106.43
404.62	1079.76
404.999	1112.53
405.377	1115.69
405.755	1142.36
406.133	1170.6
406.511	1171.06
406.889	1200.43
407.267	1201.11
407.645	1222.81
408.023	1265.74
408.401	1276.59
408.779	1279.53
409.156	1281.34
409.534	1314.1
409.912	1333.09
410.29	1373.54
410.667	1387.1
411.045	1421.22
411.422	1383.25
411.8	1419.41
412.178	1440.65
412.555	1493.76
412.933	1477.49
413.31	1519.3
413.687	1527.21
414.065	1538.96
414.442	1586.41
414.819	1613.98
415.197	1592.29
415.574	1654.21
415.951	1643.36
416.328	1669.12
416.705	1690.59
417.082	1714.32
417.46	1736.01
417.837	1738.95
418.214	1760.42
418.591	1779.63
418.967	1793.87
419.344	1819.85
419.721	1860.76
420.098	1838.16
420.475	1886.29
420.852	1907.31
421.228	1952.96
421.605	1967.65
421.982	1969.45
422.358	1994.76
422.735	2003.58
423.111	2025.95
423.488	2050.81
423.864	2081.09
424.241	2128.55
424.617	2139.39
424.994	2163.12
425.37	2192.72
425.746	2170.58
426.123	2201.31
426.499	2246.96
426.875	2277.47
427.251	2341.2
427.627	2367.86
428.003	2387.75
428.379	2426.39
428.756	2465.26
429.132	2497.8
429.507	2543.9
429.883	2588.19
430.259	2627.29
430.635	2682.43
431.011	2650.34
431.387	2723.33
431.763	2764.91
432.138	2787.29
432.514	2824.57
432.89	2853.05
433.265	2922.88
433.641	2961.07
434.016	2937.11
434.392	3052.14
434.767	3098.92
435.143	3124
435.518	3152.02
435.894	3180.95
436.269	3223.66
436.644	3282.64
437.02	3332.81
437.395	3347.27
437.77	3381.85
438.145	3455.06
438.52	3478.79
438.895	3518.57
439.271	3537.1
439.646	3608.51
440.021	3601.73
440.395	3603.31
440.77	3627.72
441.145	3694.61
441.52	3789.07
441.895	3726.7
442.27	3793.13
442.645	3823.87
443.019	3863.19
443.394	3841.72
443.769	3944.54
444.143	3898.22
444.518	3992.68
444.892	3997.88
445.267	4010.53
445.641	4064.09
446.016	4106.12
446.39	4126.91
446.764	4174.59
447.139	4163.07
447.513	4236.74
447.887	4246
448.262	4304.31
448.636	4309.05
449.01	4360.13
449.384	4395.38
449.758	4479.22
450.132	4540.23
450.506	4581.36
450.88	4567.35
451.254	4589.95
451.628	4668.37
452.002	4744.52
452.376	4770.06
452.75	4805.54
453.123	4864.74
453.497	4953.1
453.871	4978.19
454.244	5088.24
454.618	5127.11
454.992	5186.32
455.365	5180.67
455.739	5351.51
456.112	5448.68
456.486	5468.34
456.859	5534.11
457.232	5543.82
457.606	5612.52
457.979	5696.59
458.352	5807.77
458.725	5861.1
459.099	5891.61
459.472	6085.05
459.845	6081.66
460.218	6199.85
460.591	6259.74
460.964	6270.13
461.337	6469.22
461.71	6552.84
462.083	6632.38
462.456	6671.48
462.829	6701.08
463.201	6837.8
463.574	6822.43
463.947	6962.99
464.32	7072.37
464.692	7178.58
465.065	7200.5
465.438	7336.32
465.81	7443.21
466.183	7508.52
466.555	7744.67
466.928	7724.33
467.3	7762.52
467.672	7887.72
468.045	8122.06
468.417	8133.36
468.789	8159.8
469.161	8320.02
469.534	8509.85
469.906	8678.66
470.278	8715.27
470.65	8866.67
471.022	9011.53
471.394	9199.77
471.766	9285.42
472.138	9410.39
472.51	9621.23
472.882	9792.07
473.253	9846.08
473.625	10067.32
473.997	10263.25
474.369	10301.21
474.74	10453.52
475.112	10615.1
475.484	10794.53
475.855	10973.74
476.227	11107.74
476.598	11322.65
476.97	11490.11
477.341	11767.61
477.713	11942.07
478.084	11991.79
478.455	12389.74
478.827	12532.57
479.198	12891.88
479.569	12904.31
479.94	13293.68
480.311	13479.89
480.682	13747.9
481.053	14022.92
481.424	14279.19
481.795	14495.23
482.166	14724.6
482.537	14774.99
482.908	15147.64
483.279	15323.9
483.65	15688.64
484.021	15907.62
484.391	16112.36
484.762	16224.22
485.133	16454.72
485.503	16555.74
485.874	17019.68
486.244	17169.05
486.615	17575.15
486.985	17778.98
487.356	17990.95
487.726	18192.53
488.097	18521.34
488.467	18646.98
488.837	19132.17
489.207	19336
489.578	19612.61
489.948	19884.24
490.318	20132.37
490.688	20237
491.058	20610.09
491.428	20893.7
491.798	21086.47
492.168	21326.01
492.538	21591.76
492.908	21792.66
493.278	22089.38
493.648	22021.81
494.017	22470.61
494.387	22545.41
494.757	22843.71
495.126	23006.64
495.496	23155.56
495.866	23399.4
496.235	23660.86
496.605	23811.82
496.974	23919.61
497.344	24186.95
497.713	24369.09
498.082	24524.34
498.452	24769.31
498.821	24949.87
499.19	25031.45
499.559	25241.38
499.928	25566.8
500.298	25561.6
500.667	25994.81
501.036	26072.55
501.405	26367.46
501.774	26440.9
502.143	26682.02
502.512	26899.42
502.88	27176.25
503.249	27174.21
503.618	27407.88
503.987	27489.01
504.356	27542.34
504.724	27887.87
505.093	27902.78
505.462	28055.55
505.83	28309.55
506.199	28620.05
506.567	28752.7
506.936	28830.67
507.304	29184.11
507.672	29326.7
508.041	29578.22
508.409	29774.82
508.777	30105.66
509.145	30267.92
509.514	30172.1
509.882	30558.53
510.25	30644.63
510.618	31018.63
510.986	31128.91
511.354	31297.5
511.722	31754.43
512.09	32053.63
512.458	32078.27
512.826	32534.98
513.193	32659.95
513.561	32881.86
513.929	32922.31
514.297	33353.49
514.664	33632.58
515.032	33638.23
515.4	34058.55
515.767	34249.74
516.135	34416.06
516.502	34215.84
516.869	34919.77
517.237	35059.66
517.604	34988.25
517.972	35414.9
518.339	35633.43
518.706	35862.35
519.073	35984.38
519.44	36157.71
519.808	36547.08
520.175	36605.83
520.542	37139.83
520.909	37428.41
521.276	37523.1
521.643	37814.84
522.009	38198.56
522.376	38398.55
522.743	38872.89
523.11	39100.68
523.477	39611.4
523.843	39584.51
524.21	40103.14
524.577	40437.59
524.943	40725.72
525.31	41062.66
525.676	41312.15
526.043	41502.65
526.409	41666.72
526.776	42276.19
527.142	42220.6
527.508	42494.94
527.874	42846.57
528.241	43028.26
528.607	43281.36
528.973	43559.77
529.339	43398.2
529.705	43847.45
530.071	44218.29
530.437	44447.88
530.803	44784.6
531.169	44770.59
531.535	44753.19
531.901	45120.64
532.267	45309.33
532.632	45587.74
532.998	45704.8
533.364	45900.95
533.73	46024.79
534.095	46545.91
534.461	46741.38
534.826	46807.14
535.192	47040.13
535.557	47352.44
535.923	47511.76
536.288	47551.98
536.653	47785.2
537.019	47842.6
537.384	48139.31
537.749	48237.84
538.114	48342.47
538.479	48570.49
538.845	48671.73
539.21	48575.23
539.575	48780.2
539.94	48936.13
540.305	49235.56
540.67	49144.03
541.034	49286.4
541.399	49354.87
541.764	49433.97
542.129	49636
542.494	49733.4
542.858	49874.18
543.223	49904.69
543.587	50142.2
543.952	50101.52
544.316	50321.85
544.681	50310.1
545.045	50485.69
545.41	50777.44
545.774	50817.21
546.138	50826.93
546.503	50985.11
546.867	50988.73
547.231	51434.82
547.595	51539.22
547.959	51624.19
548.324	51607.47
548.688	51839.78
549.052	51953.68
549.416	51990.74
549.779	52204.29
550.143	52247.23
550.507	52442.93
550.871	52674.56
551.235	52512.53
551.599	52891.73
551.962	52909.58
552.326	52973.76
552.689	53190.93
553.053	53029.35
553.417	53170.37
553.78	53643.58
554.143	53350.25
554.507	53613.07
554.87	53638.38
555.234	53913.4
555.597	53652.16
555.96	53822.55
556.323	54046.73
556.686	54084.69
557.05	54334.63
557.413	54420.5
557.776	54486.27
558.139	54591.57
558.502	54643.55
558.865	54764.22
559.228	54942.52
559.59	55146.81
559.953	55167.15
560.316	55444.88
560.679	55481.27
561.041	55624.99
561.404	55702.28
561.767	55948.37
562.129	55894.36
562.492	56224.07
562.854	56172.1
563.217	56341.36
563.579	56466.33
563.941	56645.3
564.304	56701.12
564.666	56934.34
565.028	56923.49
565.39	57079.87
565.753	57222.92
566.115	57260.43
566.477	57409.13
566.839	57393.08
567.201	57617.48
567.563	57650.48
567.925	57720.08
568.287	57762.11
568.648	57839.17
569.01	57919.17
569.372	58088.88
569.734	58004.36
570.095	58205.26
570.457	58285.04
570.819	58301.08
571.18	58242.78
571.542	58463.34
571.903	58518.93
572.265	58624.69
572.626	58686.38
572.987	58714.4
573.349	58815.87
573.71	58869.88
574.071	58841.4
574.432	59038.46
574.794	59169.98
575.155	59128.63
575.516	59074.85
575.877	59255.86
576.238	59335.63
576.599	59401.39
576.96	59444.78
577.32	59561.16
577.681	59584.44
578.042	59623.53
578.403	59682.29
578.763	59697.43
579.124	59720.25
579.485	59912.56
579.845	59884.32
580.206	59919.12
580.566	59950.98
580.927	59971.32
581.287	60015.84
581.648	59925.44
582.008	60039.34
582.368	59999.34
582.728	60042.05
583.089	60005.22
583.449	60005.67
583.809	60023.97
584.169	60006.35
584.529	59914.37
584.889	60120.24
585.249	59953.01
585.609	59871.66
585.969	60033.69
586.329	59981.49
586.688	60051.09
587.048	60032.56
587.408	59969.96
587.768	59960.92
588.127	59970.19
588.487	59906.91
588.846	60118.66
589.206	59948.04
589.565	59981.26
589.925	60074.37
590.284	59992.11
590.643	60038.44
591.003	60134.48
591.362	60198.88
591.721	60128.38
592.08	60096.51
592.44	60211.54
592.799	60260.35
593.158	60197.53
593.517	60259.22
593.876	60275.94
594.235	60255.38
594.593	60349.84
594.952	60275.49
595.311	60280.01
595.67	60303.51
596.029	60454.24
596.387	60412.89
596.746	60475.94
597.104	60371.53
597.463	60381.25
597.822	60465.54
598.18	60363.62
598.538	60348.26
598.897	60506.67
599.255	60270.07
599.613	60523.39
599.972	60361.59
600.33	60480.91
600.688	60373.34
601.046	60454.92
601.404	60592.77
601.762	60483.85
602.12	60645.43
602.478	60600
602.836	60619.66
603.194	60439.55
603.552	60531.76
603.91	60447.69
604.268	60589.83
604.625	60491.53
604.983	60638.19
605.341	60453.34
605.698	60679.32
606.056	60607.23
606.413	60637.74
606.771	60671.19
607.128	60775.14
607.485	60609.49
607.843	60673.9
608.2	60888.81
608.557	60944.17
608.914	60872.99
609.272	60965.19
609.629	61004.06
609.986	61132.42
610.343	60973.1
610.7	61237.73
611.057	61146.43
611.414	61138.07
611.771	61192.08
612.127	61266.2
612.484	61245.64
612.841	61329.47
613.198	61242.02
613.554	61279.76
613.911	61404.05
614.267	61347.78
614.624	61360.89
614.98	61399.08
615.337	61378.74
615.693	61410.15
616.05	61344.84
616.406	61489.47
616.762	61371.06
617.118	61380.32
617.475	61416.7
617.831	61450.83
618.187	61471.84
618.543	61546.19
618.899	61614.44
619.255	61546.64
619.611	61458.06
619.967	61603.59
620.323	61616.7
620.678	61476.14
621.034	61453.31
621.39	61466.87
621.746	61426.42
622.101	61722.91
622.457	61478.62
622.812	61543.93
623.168	61580.77
623.523	61577.38
623.879	61717.49
624.234	61505.97
624.589	61600.2
624.945	61605.63
625.3	61595
625.655	61536.93
626.01	61592.52
626.365	61569.92
626.72	61536.25
627.075	61561.79
627.43	61571.5
627.785	61525.4
628.14	61573.76
628.495	61638.39
628.85	61577.6
629.205	61506.65
629.559	61696.7
629.914	61529.7
630.269	61549.36
630.623	61475.23
630.978	61487.66
631.332	61493.54
631.687	61601.78
632.041	61498.51
632.396	61418.96
632.75	61338.06
633.104	61336.48
633.459	61271.85
633.813	61227.1
634.167	61266.65
634.521	61216.03
634.875	61238.86
635.229	61149.59
635.583	61011.52
635.937	61045.19
636.291	60997.05
636.645	61008.13
636.999	60887
637.352	60932.42
637.706	60793.67
638.06	60940.78
638.413	60841.13
638.767	60708.25
639.121	60778.08
639.474	60703.73
639.828	60719.1
640.181	60702.37
640.534	60590.96
640.888	60567.91
641.241	60492.43
641.594	60491.53
641.947	60520
642.301	60475.71
642.654	60446.11
643.007	60406.34
643.36	60334.25
643.713	60277.3
644.066	60381.7
644.419	60238.43
644.771	60117.08
645.124	60006.35
645.477	59857.42
645.83	59683.64
646.182	59604.55
646.535	59556.64
646.888	59699.01
647.24	59517.32
647.593	59613.14
647.945	59582.18
648.298	59462.41
648.65	59376.53
649.002	59293.82
649.355	59402.97
649.707	59400.71
650.059	59559.8
650.411	59801.83
650.763	59834.37
651.115	60053.35
651.467	59915.27
651.819	59875.5
652.171	59790.31
652.523	59800.02
652.875	59754.38
653.227	59645.23
653.578	59809.74
653.93	59709.86
654.282	59588.05
654.633	59556.19
654.985	59638.45
655.337	59586.92
655.688	59581.27
656.039	59612.46
656.391	59426.7
656.742	59433.71
657.094	59458.79
657.445	59501.27
657.796	59385.57
658.147	59288.4
658.498	59196.2
658.849	59283.2
659.2	59231.68
659.551	59216.31
659.902	59289.08
660.253	59237.1
660.604	59233.48
660.955	59047.28
661.306	59158.68
661.656	59168.18
662.007	59119.82
662.358	59064.9
662.708	59027.39
663.059	59043.43
663.409	58901.06
663.76	59051.12
664.11	59042.08
664.461	59012.7
664.811	59053.6
665.161	58988.52
665.511	58983.77
665.862	58969.99
666.212	59084.34
666.562	59099.48
666.912	59070.55
667.262	59032.13
667.612	59043.21
667.962	58993.04
668.312	59016.99
668.662	59106.03
669.011	59058.8
669.361	58988.29
669.711	58940.39
670.06	58947.16
670.41	58853.16
670.76	58791.01
671.109	58900.61
671.459	58947.62
671.808	58743.1
672.157	58854.74
672.507	58647.06
672.856	58704.01
673.205	58769.77
673.554	58735.87
673.904	58628.3
674.253	58780.62
674.602	58667.85
674.951	58320.74
675.3	58177.02
675.649	58574.75
675.998	58600.51
676.346	58526.61
676.695	58596.44
677.044	58362.77
677.393	58340.18
677.741	58350.8
678.09	58356.67
678.438	58223.57
678.787	58255.88
679.135	58220.63
679.484	58056.57
679.832	58143.57
680.181	58065.61
680.529	58128.2
680.877	57988.77
681.225	58017.92
681.573	58026.96
681.922	57889.79
682.27	57738.16
682.618	57810.92
682.966	57701.55
683.314	57664.26
683.661	57590.14
684.009	57420.43
684.357	57408
684.705	57426.53
685.053	57435.34
685.4	57435.34
685.748	57332.74
686.095	57377.71
686.443	57186.08
686.79	57167.55
687.138	57264.5
687.485	57240.54
687.832	57154.9
688.18	57213.88
688.527	57003.26
688.874	57018.18
689.221	56978.63
689.568	56976.37
689.915	56847.11
690.262	56878.74
690.609	56864.06
690.956	56667.45
691.303	56719.88
691.65	56581.8
691.997	56590.39
692.344	56334.58
692.69	56337.29
693.037	56421.58
693.383	56103.85
693.73	56262.49
694.077	56055.04
694.423	56052.33
694.769	55872.44
695.116	55883.74
695.462	55829.73
695.808	55653.01
696.155	55752.45
696.501	55536.18
696.847	55500.93
697.193	55286.7
697.539	55379.35
697.885	55179.35
698.231	55067.94
698.577	55030.43
698.923	54933.26
699.269	54813.94
699.614	54648.52
699.96	54576.21
700.306	54639.71
700.651	54487.17
700.997	54420.73
701.342	54290.11
701.688	54229.77
702.033	54081.98
702.379	53991.59
702.724	54054.41
703.069	54095.31
703.415	53680.86
703.76	53594.09
704.105	53652.84
704.45	53655.1
704.795	53277.26
705.14	53221.44
705.485	53296.69
705.83	53147.32
706.175	53141.89
706.52	53005.63
706.865	52879.3
707.209	52849.47
707.554	52683.6
707.899	52820.77
708.243	52712.98
708.588	52597.73
708.932	52403.16
709.277	52432.99
709.621	52453.32
709.966	52357.96
710.31	52403.83
710.654	52129.26
710.998	52222.82
711.342	52296.04
711.687	52101.02
712.031	52014.24
712.375	51880.46
712.719	52052.43
713.063	51834.81
713.407	52034.35
713.75	51676.62
714.094	51790.97
714.438	51701.93
714.782	51658.09
715.125	51412
715.469	51477.53
715.812	51339
716.156	51193.02
716.499	51136.07
716.843	51142.17
717.186	50963.65
717.53	51086.35
717.873	50964.55
718.216	50872.57
718.559	50776.76
718.902	50506.71
719.246	50509.42
719.589	50413.6
719.932	50305.58
720.275	50257.22
720.617	50125.48
720.96	50015.42
721.303	50102.65
721.646	50161.63
721.989	49832.83
722.331	49988.53
722.674	49766.39
723.016	49840.06
723.359	49653.17
723.701	49723.45
724.044	49248.44
724.386	49124.6
724.729	49332.05
725.071	49203.47
725.413	49058.39
725.755	49070.81
726.097	48739.3
726.439	48618.62
726.782	48779.75
727.124	48737.72
727.465	48478.97
727.807	48322.59
728.149	48388.35
728.491	48207.79
728.833	48348.35
729.175	48068.13
729.516	47996.27
729.858	47987.9
730.199	47926.44
730.541	47789.72
730.882	47763.96
731.224	47874.69
731.565	47682.15
731.906	47754.69
732.248	47723.28
732.589	47707.69
732.93	47541.81
733.271	47536.62
733.612	47507.69
733.953	47513.57
734.294	47395.6
734.635	47223.63
734.976	47484.19
735.317	47204.2
735.658	47191.77
735.999	47151.54
736.339	47161.94
736.68	47148.15
737.021	47043.52
737.361	46988.16
737.702	47147.25
738.042	46917.88
738.383	46889.63
738.723	46902.28
739.063	46751.1
739.404	46795.62
739.744	46680.59
740.084	46562.41
740.424	46454.16
740.764	46423.43
741.104	46608.96
741.444	46215.75
741.784	46136.88
742.124	46186.82
742.464	46144.11
742.804	45981.18
743.143	45955.87
743.483	45851.24
743.823	45612.37
744.162	45642.2
744.502	45589.1
744.841	45405.83
745.181	45535.77
745.52	45232.95
745.86	45227.07
746.199	45255.55
746.538	45073.41
746.877	45086.06
747.216	45022.11
747.556	44806.07
747.895	44891.49
748.234	44482.23
748.573	44442.01
748.911	44407.43
749.25	44318.62
749.589	44307.78
749.928	44080.66
750.267	44118.63
750.605	43784.4
750.944	43835.02
751.283	43647
751.621	43863.04
751.96	43297.18
752.298	43394.81
752.636	43401.81
752.975	43156.17
753.313	42996.85
753.651	43124.98
753.989	42853.35
754.327	42808.61
754.666	42499.69
755.004	42428.28
755.342	42426.47
755.679	42303.99
756.017	42060.83
756.355	42331.33
756.693	42065.57
757.031	42163.65
757.368	42003.66
757.706	41873.72
758.044	41668.3
758.381	41768.41
758.719	41554.63
759.056	41574.29
759.394	41571.12
759.731	41264.69
760.068	41253.62
760.405	41006.62
760.743	40939.5
761.08	41214.75
761.417	40843.46
761.754	40913.74
762.091	40656.12
762.428	40531.38
762.765	40254.77
763.102	40527.08
763.438	40193.99
763.775	40163.93
764.112	40052.29
764.449	40111.5
764.785	39729.36
765.122	39555.13
765.458	39370.5
765.795	39439.88
766.131	39360.56
766.467	39355.14
766.804	39112.66
767.14	38984.3
767.476	38933.68
767.812	38641.94
768.148	38734.36
768.485	38558.77
768.821	38374.37
769.157	38194.49
769.492	38073.82
769.828	38003.08
770.164	37725.35
770.5	37581.4
770.836	37681.74
771.171	37347.51
771.507	37342.31
771.842	37021.41
772.178	36845.15
772.513	36978.25
772.849	36735.32
773.184	36528.32
773.519	36498.94
773.855	36258.72
774.19	36090.59
774.525	35922.69
774.86	35922.69
775.195	35799.75
775.53	35515.69
775.865	35377.16
776.2	35127
776.535	34911.64
776.87	35056.04
777.205	34776.95
777.539	34580.57
777.874	34626.45
778.209	34245.22
778.543	34190.53
778.878	33954.6
779.212	33950.53
779.547	33732.46
779.881	33811.1
780.215	33411.79
780.55	33483.65
780.884	33295.86
781.218	33095.19
781.552	33066.26
781.886	32879.38
782.22	32775.2
782.554	32553.28
782.888	32257.25
783.222	32294.53
783.556	32179.06
783.889	32065.16
784.223	31940.42
784.557	31714.89
784.89	31911.49
785.224	31787.2
785.557	31581.56
785.891	31502.69
786.224	31362.35
786.558	31377.95
786.891	31015.24
787.224	31016.15
787.557	30948.13
787.891	30961.01
788.224	31062.47
788.557	30890.5
788.89	30796.04
789.223	30737.29
789.556	30642.6
789.888	30465.43
790.221	30290.74
790.554	30095.04
790.887	30154.93
791.219	29921.71
791.552	30061.6
791.884	29696.18
792.217	29792
792.549	29562.85
792.882	29476.53
793.214	29244.44
793.546	29293.03
793.879	29153.6
794.211	28988.63
794.543	29226.14
794.875	29089.64
795.207	28971.68
795.539	28868.41
795.871	28897.33
796.203	28689.2
796.535	28530.79
796.867	28419.15
797.198	28434.07
797.53	28354.75
797.862	28160.63
798.193	28152.72
798.525	27801.77
798.856	27956.12
799.188	27580.53
799.519	27469.8
799.85	27446.07
800.182	27477.94
800.513	27459.18
800.844	27136.7
801.175	27293.76
801.506	27218.96
801.837	27035.46
802.168	27025.29
802.499	26854.45
802.83	26617.62
803.161	26544.4
803.491	26473.67
803.822	26414.91
804.153	26221.47
804.483	25960.91
804.814	25939.67
805.145	25786.68
805.475	25923.85
805.805	25720.92
806.136	25651.32
806.466	25735.16
806.796	25678.43
807.126	25378.78
807.457	25253.81
807.787	25357.54
808.117	25153.7
808.447	24991
808.777	25149.18
809.107	24928.85
809.436	24953.71
809.766	24832.81
810.096	24698.12
810.426	24662.64
810.755	24641.63
811.085	24419.26
811.414	24392.59
811.744	24235.31
812.073	24285.03
812.403	24218.36
812.732	24094.07
813.061	24193.5
813.39	24037.35
813.719	23848.88
814.049	24030.79
814.378	23920.52
814.707	23850.91
815.036	23781.76
815.365	23627.64
815.693	23577.25
816.022	23594.65
816.351	23500.87
816.68	23380.64
817.008	23588.77
817.337	23268.1
817.665	23439.62
817.994	23298.61
818.322	23347.42
818.651	23273.53
818.979	23152.63
819.307	23393.07
819.636	23181.78
819.964	22949.47
820.292	23199.86
820.62	23171.38
820.948	23038.5
821.276	23203.25
821.604	23159.63
821.932	23178.16
822.259	23155.79
822.587	23184.26
822.915	23057.03
823.243	23181.1
823.57	23032.63
823.898	23056.36
824.225	22979.97
824.553	22929.35
824.88	22978.39
825.207	23136.35
825.535	23063.36
825.862	23095.9
826.189	23001.67
826.516	23101.55
826.843	23074.44
827.17	23051.61
827.497	23127.54
827.824	22996.7
828.151	23123.7
828.478	22994.21
828.805	23083.02
829.131	22904.04
829.458	22945.17
829.785	22801.22
830.111	22806.42
830.438	22858.85
830.764	22950.37
831.09	22963.48
831.417	22772.52
831.743	22828.34
832.069	22769.58
832.395	22736.37
832.722	22780.43
833.048	22668.12
833.374	22663.6
833.7	22554.9
834.026	22594.67
834.351	22634.9
834.677	22528.69
835.003	22580.89
835.329	22583.83
835.654	22373.89
835.98	22327.34
836.306	22384.74
836.631	22246.66
836.956	22238.98
837.282	22174.57
837.607	22090.51
837.932	22009.15
838.258	22069.04
838.583	21986.55
838.908	21887.12
839.233	21849.61
839.558	21898.87
839.883	21773.23
840.208	21717.86
840.533	21615.04
840.858	21603.29
841.182	21706.56
841.507	21585.89
841.832	21533.69
842.156	21446.23
842.481	21399.45
842.805	21405.1
843.13	21345.22
843.454	21301.6
843.778	21262.73
844.103	21272.22
844.427	21083.08
844.751	21195.39
845.075	21174.6
845.399	20981.16
845.723	20985.9
846.047	20936.64
846.371	20742.52
846.695	20796.98
847.019	20687.61
847.343	20531.45
847.666	20553.37
847.99	20411.45
848.313	20396.99
848.637	20309.54
848.96	20282.19
849.284	20257.79
849.607	20129.65
849.931	20086.72
850.254	19955.65
850.577	19934.86
850.9	19852.83
851.223	19767.63
851.546	19697.58
851.869	19544.13
852.192	19681.53
852.515	19514.08
852.838	19480.63
853.161	19507.3
853.483	19386.4
853.806	19386.85
854.129	19314.08
854.451	19274.76
854.774	19086.29
855.096	19112.05
855.419	19078.83
855.741	19010.14
856.063	18917.26
856.385	18900.08
856.708	18900.53
857.03	18827.99
857.352	18865.96
857.674	18742.35
857.996	18594.33
858.318	18591.84
858.64	18561.56
858.961	18583.71
859.283	18517.49
859.605	18407.89
859.926	18475.01
860.248	18279.76
860.57	18227.78
860.891	18321.79
861.212	18092.19
861.534	18128.58
861.855	18114.11
862.176	18181.46
862.498	18092.65
862.819	18086.77
863.14	18022.37
863.461	17962.03
863.782	17968.81
864.103	17939.43
864.424	17869.83
864.745	17846.1
865.065	17782.82
865.386	17758.64
865.707	17758.42
866.027	17747.8
866.348	17510.06
866.668	17539.21
866.989	17544.41
867.309	17333.57
867.63	17367.69
867.95	17383.74
868.27	17277.53
868.59	17404.3
868.91	17343.74
869.23	17215.38
869.55	17173.8
869.87	17235.27
870.19	17179
870.51	17143.29
870.83	17135.61
871.15	16959.12
871.469	16991.43
871.789	16960.02
872.109	16949.17
872.428	16855.84
872.748	16992.34
873.067	16901.26
873.386	16921.83
873.706	16877.99
874.025	16772.23
874.344	16726.81
874.663	16755.73
874.982	16743.98
875.301	16742.4
875.62	16626.7
875.939	16598
876.258	16595.74
876.577	16510.99
876.896	16453.14
877.214	16391.45
877.533	16432.58
877.852	16355.74
878.17	16481.39
878.489	16460.82
878.807	16501.73
879.125	16382.18
879.444	16394.39
879.762	16291.56
880.08	16332.92
880.398	16144.45
880.716	16285.91
881.034	16263.09
881.352	16287.5
881.67	16220.15
881.988	16208.4
882.306	16118.01
882.624	16157.33
882.941	16051.8
883.259	16036.2
883.577	16020.61
883.894	15986.03
884.212	15894.51
884.529	15954.85
884.846	15918.24
885.164	15914.85
885.481	15837.79
885.798	15875.98
886.115	15785.36
886.432	15852.03
886.75	15802.31
887.067	15751.69
887.383	15664.91
887.7	15747.4
888.017	15648.87
888.334	15679.6
888.651	15661.52
888.967	15553.28
889.284	15587.63
889.6	15443.9
889.917	15502.43
890.233	15473.28
890.55	15406.61
890.866	15512.37
891.182	15452.26
891.498	15320.29
891.815	15246.84
892.131	15282.55
892.447	15270.35
892.763	15145.83
893.079	15167.52
893.395	15121.42
893.71	15042.1
894.026	15070.35
894.342	14990.58
894.657	14961.88
894.973	14838.95
895.289	14903.13
895.604	14724.82
895.92	14777.93
896.235	14694.77
896.55	14677.59
896.865	14660.87
897.181	14600.99
897.496	14513.98
897.811	14391.73
898.126	14433.53
898.441	14357.83
898.756	14281.67
899.071	14151.51
899.386	14252.75
899.7	14184.95
900.015	14105.86
900.33	13983.83
900.644	13974.34
900.959	13974.11
901.273	13983.38
901.588	13892.53
901.902	13774.34
902.216	13756.04
902.531	13723.5
902.845	13582.71
903.159	13571.86
903.473	13472.2
903.787	13433.11
904.101	13456.84
904.415	13333.22
904.729	13296.84
905.042	13191.08
905.356	13143.17
905.67	13148.14
905.984	13150.18
906.297	13113.34
906.611	13003.74
906.924	13042.16
907.237	12911.09
907.551	12897.98
907.864	12791.54
908.177	12757.42
908.491	12686.01
908.804	12598.33
909.117	12534.6
909.43	12521.49
909.743	12517.43
910.056	12397.88
910.368	12395.85
910.681	12296.87
910.994	12261.84
911.307	12213.48
911.619	12173.71
911.932	12156.3
912.244	12064.78
912.557	12047.83
912.869	11912.47
913.181	11891
913.494	11934.16
913.806	11788.4
914.118	11763.77
914.43	11665.02
914.742	11639.48
915.054	11614.4
915.366	11510.45
915.678	11505.7
915.99	11408.3
916.302	11399.71
916.613	11355.87
916.925	11317.68
917.236	11345.03
917.548	11284.01
917.859	11243.33
918.171	11218.25
918.482	11126.5
918.794	11071.81
919.105	11098.71
919.416	10971.93
919.727	10938.94
920.038	10938.94
920.349	10945.72
920.66	10785.27
920.971	10792.95
921.282	10847.64
921.593	10790.24
921.903	10711.14
922.214	10661.2
922.525	10677.47
922.835	10618.72
923.146	10566.74
923.456	10589.11
923.767	10539.4
924.077	10493.98
924.387	10442.45
924.697	10387.09
925.008	10336.01
925.318	10346.41
925.628	10314.32
925.938	10262.8
926.248	10181.22
926.558	10148.22
926.867	10124.04
927.177	10070.03
927.487	10026.19
927.796	9922.69
928.106	9941.67
928.416	9936.7
928.725	9905.06
929.034	9863.71
929.344	9861.45
929.653	9880.43
929.962	9746.88
930.271	9642.25
930.581	9617.39
930.89	9599.54
931.199	9572.64
931.508	9552.98
931.817	9462.36
932.125	9491.74
932.434	9482.48
932.743	9372.2
933.051	9338.98
933.36	9300.11
933.669	9280.9
933.977	9287.23
934.286	9275.48
934.594	9161.81
934.902	9128.59
935.21	9072.09
935.519	9099.66
935.827	9120.23
936.135	8896.96
936.443	8980.57
936.751	8874.81
937.059	8877.75
937.367	8784.19
937.674	8789.16
937.982	8744.87
938.29	8634.82
938.597	8669.16
938.905	8696.96
939.213	8570.86
939.52	8560.69
939.827	8523.86
940.135	8487.02
940.442	8387.82
940.749	8423.75
941.056	8425.1
941.363	8282.73
941.67	8258.1
941.977	8233.7
942.284	8126.81
942.591	8087.49
942.898	8076.64
943.205	8101.5
943.511	8064.21
943.818	8010.65
944.125	7940.14
944.431	7880.94
944.738	7931.33
945.044	7795.06
945.35	7798.23
945.657	7766.82
945.963	7715.97
946.269	7673.71
946.575	7592.81
946.881	7521.62
947.187	7567.27
947.493	7548.74
947.799	7504.68
948.105	7428.52
948.41	7405.92
948.716	7440.27
949.022	7332.48
949.327	7321.4
949.633	7183.1
949.938	7253.38
950.244	7242.76
950.549	7161.63
950.854	7113.73
951.16	7090.45
951.465	7042.09
951.77	6993.5
952.075	6991.69
952.38	6930.68
952.685	6952.83
952.99	6891.58
953.294	6885.93
953.599	6816.78
953.904	6807.52
954.209	6756.45
954.513	6802.1
954.818	6779.72
955.122	6704.7
955.426	6666.51
955.731	6594.19
956.035	6643.68
956.339	6552.38
956.643	6544.25
956.948	6518.94
957.252	6483.46
957.556	6464.25
957.86	6444.36
958.163	6471.26
958.467	6422.67
958.771	6382.67
959.075	6360.98
959.378	6319.17
959.682	6316.23
959.985	6300.64
960.289	6250.92
960.592	6200.3
960.896	6218.16
961.199	6190.13
961.502	6186.07
961.805	6132.28
962.108	6096.35
962.411	6114.2
962.714	6038.5
963.017	6047.31
963.32	6077.14
963.623	6024.49
963.926	6002.12
964.228	5921.44
964.531	5875.79
964.833	5903.36
965.136	5883.02
965.438	5864.72
965.741	5786.3
966.043	5810.71
966.345	5785.85
966.648	5764.83
966.95	5694.55
967.252	5740.43
967.554	5648.23
967.856	5647.78
968.158	5666.76
968.46	5607.78
968.761	5596.25
969.063	5609.58
969.365	5593.99
969.666	5554.22
969.968	5470.38
970.269	5463.6
970.571	5469.93
970.872	5443.49
971.174	5405.75
971.475	5401.45
971.776	5396.71
972.077	5354.45
972.378	5365.97
972.679	5332.08
972.98	5342.7
973.281	5283.04
973.582	5279.65
973.883	5289.82
974.183	5177.96
974.484	5211.18
974.785	5144.51
975.085	5147.9
975.386	5124.63
975.686	5079.65
975.986	5093.21
976.287	5072.65
976.587	4971.86
976.887	4996.49
977.187	4992.43
977.487	4972.54
977.787	4933.44
978.087	4914.69
978.387	4870.39
978.687	4859.1
978.987	4808.02
979.286	4821.36
979.586	4803.28
979.885	4768.7
980.185	4754.47
980.484	4746.78
980.784	4714.47
981.083	4667.01
981.382	4667.91
981.682	4610.97
981.981	4638.08
982.28	4568.93
982.579	4599.89
982.878	4553.34
983.177	4496.62
983.475	4509.95
983.774	4520.57
984.073	4459.11
984.372	4456.39
984.67	4449.39
984.969	4450.29
985.267	4389.96
985.566	4358.09
985.864	4350.18
986.162	4304.08
986.461	4263.63
986.759	4274.03
987.057	4231.99
987.355	4204.42
987.653	4219.11
987.951	4199.23
988.249	4201.26
988.547	4139.34
988.844	4111.32
989.142	4055.05
989.44	4077.65
989.737	4060.7
990.035	4021.38
990.332	3992.23
990.63	4013.24
990.927	3925.79
991.224	3984.54
991.521	3926.69
991.819	3925.11
992.116	3897.54
992.413	3865.68
992.71	3793.59
993.006	3871.32
993.303	3822.29
993.6	3803.3
993.897	3791.78
994.193	3732.8
994.49	3746.36
994.787	3694.61
995.083	3689.41
995.379	3617.09
995.676	3641.95
995.972	3640.6
996.268	3582.07
996.565	3602.18
996.861	3531.9
997.157	3553.14
997.453	3506.36
997.749	3510.66
998.044	3481.5
998.34	3478.79
998.636	3448.96
998.932	3488.96
999.227	3418.91
999.523	3424.33
999.818	3392.24
1000.114	3349.53
1000.409	3324.45
1000.704	3319.47
1001	3306.37
1001.295	3274.73
1001.59	3269.76
1001.885	3256.65
1002.18	3222.98
1002.475	3247.16
1002.77	3206.71
1003.065	3159.03
1003.359	3180.04
1003.654	3102.98
1003.949	3141.85
1004.243	3130.55
1004.538	3105.02
1004.832	3108.41
1005.127	3077
1005.421	3086.94
1005.715	3040.84
1006.009	3050.33
1006.304	2971.01
1006.598	2998.35
1006.892	2939.82
1007.186	2938.92
1007.48	2948.64
1007.773	2942.54
1008.067	2938.47
1008.361	2866.61
1008.655	2884.91
1008.948	2841.3
1009.242	2817.12
1009.535	2834.29
1009.829	2805.36
1010.122	2748.42
1010.415	2773.05
1010.708	2744.8
1011.001	2719.49
1011.295	2704.35
1011.588	2712.71
1011.881	2695.31
1012.173	2659.83
1012.466	2662.32
1012.759	2639.04
1013.052	2669.55
1013.344	2622.32
1013.637	2591.81
1013.93	2593.62
1014.222	2552.94
1014.514	2566.5
1014.807	2534.64
1015.099	2512.04
1015.391	2515.43
1015.683	2535.99
1015.976	2514.07
1016.268	2454.64
1016.56	2471.14
1016.851	2411.25
1017.143	2431.81
1017.435	2429.1
1017.727	2413.74
1018.018	2367.18
1018.31	2355.21
1018.602	2343.46
1018.893	2347.07
1019.185	2315.89
1019.476	2281.54
1019.767	2316.34
1020.058	2234.53
1020.35	2228.88
1020.641	2254.87
1020.932	2217.13
1021.223	2205.15
1021.514	2181.65
1021.804	2173.29
1022.095	2189.56
1022.386	2130.58
1022.677	2115.21
1022.967	2119.28
1023.258	2106.63
1023.548	2089.9
1023.839	2064.82
1024.129	2046.97
1024.419	2057.59
1024.709	2017.14
1025	2022.11
1025.29	1984.14
1025.58	1977.59
1025.87	1968.1
1026.16	1927.87
1026.449	1965.84
1026.739	1904.6
1027.029	1907.08
1027.319	1918.61
1027.608	1868.44
1027.898	1834.77
1028.187	1842.45
1028.477	1811.94
1028.766	1789.12
1029.055	1807.88
1029.344	1774.43
1029.634	1787.31
1029.923	1780.98
1030.212	1772.62
1030.501	1733.08
1030.79	1738.27
1031.078	1717.94
1031.367	1731.72
1031.656	1683.13
1031.945	1696.69
1032.233	1714.77
1032.522	1654.21
1032.81	1681.55
1033.099	1636.58
1033.387	1644.49
1033.675	1623.47
1033.963	1574.89
1034.251	1570.37
1034.54	1559.3
1034.828	1561.33
1035.116	1540.99
1035.403	1536.24
1035.691	1525.62
1035.979	1503.93
1036.267	1481.11
1036.554	1485.85
1036.842	1464.61
1037.129	1481.11
1037.417	1428.45
1037.704	1442.46
1037.992	1435.23
1038.279	1417.6
1038.566	1387.1
1038.853	1387.1
1039.14	1387.1
