Data from aluminium_surface_pro_back_FLMS001491_00048.txt Node
Date: Wed Feb 08 15:34:07 GMT 2017
User: dcchb
Spectrometer: FLMS00149
Trigger mode: 0
Integration Time (sec): 2.000000E-2
Scans to average: 10
Electric dark correction enabled: true
Nonlinearity correction enabled: false
Boxcar width: 0
XAxis mode: Wavelengths
Number of Pixels in Spectrum: 2048
>>>>>Begin Spectral Data<<<<<
341.393	-4.12
341.776	-4.12
342.16	-4.12
342.543	-73.95
342.927	-51.81
343.31	-66.5
343.693	-90.68
344.077	-61.98
344.46	-59.72
344.843	-57
345.226	-45.25
345.61	-26.27
345.993	-17.01
346.376	-14.29
346.759	19.38
347.142	38.81
347.525	43.33
347.908	53.95
348.291	74.07
348.674	91.24
349.057	117.91
349.44	117.91
349.823	131.47
350.206	166.04
350.588	199.94
350.971	235.42
351.354	235.42
351.737	244.23
352.119	266.83
352.502	258.92
352.884	277.22
353.267	312.7
353.65	303.89
354.032	324.23
354.414	321.74
354.797	347.5
355.179	342.31
355.562	349.31
355.944	366.04
356.326	366.49
356.709	348.63
357.091	365.81
357.473	361.97
357.855	358.58
358.238	371.23
358.62	366.04
359.002	360.61
359.384	367.62
359.766	365.13
360.148	381.18
360.53	394.06
360.912	388.41
361.294	372.14
361.676	354.28
362.057	368.3
362.439	358.58
362.821	368.52
363.203	361.52
363.584	372.14
363.966	374.4
364.348	362.19
364.729	371.01
365.111	375.98
365.493	353.38
365.874	361.29
366.256	386.6
366.637	370.78
367.019	359.93
367.4	354.74
367.781	339.14
368.163	372.59
368.544	359.71
368.925	359.71
369.306	371.91
369.688	349.99
370.069	357.22
370.45	385.02
370.831	369.43
371.212	375.98
371.593	366.71
371.974	357.67
372.355	395.19
372.736	380.5
373.117	375.53
373.498	366.94
373.879	388.63
374.26	366.04
374.641	371.46
375.021	378.69
375.402	411.01
375.783	398.58
376.163	421.4
376.544	424.57
376.925	407.39
377.305	419.37
377.686	399.03
378.066	421.18
378.447	407.62
378.827	423.21
379.208	415.07
379.588	415.75
379.968	407.16
380.349	423.66
380.729	429.76
381.109	422.53
381.489	430.21
381.87	454.62
382.25	455.75
382.63	438.58
383.01	465.69
383.39	435.41
383.77	459.14
384.15	452.14
384.53	459.59
384.91	449.88
385.29	474.96
385.67	502.53
386.049	502.53
386.429	481.74
386.809	503.66
387.189	476.77
387.568	512.47
387.948	508.18
388.328	503.89
388.707	515.86
389.087	525.35
389.466	538.01
389.846	535.07
390.225	543.43
390.605	535.97
390.984	569.87
391.363	524.68
391.743	542.53
392.122	568.52
392.501	597.67
392.881	584.79
393.26	601.51
393.639	589.76
394.018	599.02
394.397	612.36
394.776	625.69
395.155	612.36
395.534	632.47
395.913	636.54
396.292	647.84
396.671	626.14
397.05	651.23
397.429	649.64
397.808	653.03
398.186	656.65
398.565	688.51
398.944	680.15
399.323	686.71
399.701	681.51
400.08	688.74
400.458	709.76
400.837	726.7
401.215	746.59
401.594	735.07
401.972	738.91
402.351	716.31
402.729	737.33
403.107	779.13
403.486	777.32
403.864	781.84
404.242	776.19
404.62	780.94
404.999	807.38
405.377	815.29
405.755	824.55
406.133	801.73
406.511	855.74
406.889	810.54
407.267	837.21
407.645	887.15
408.023	878.11
408.401	893.71
408.779	912.24
409.156	916.76
409.534	917.66
409.912	927.15
410.29	972.35
410.667	981.84
411.045	974.16
411.422	996.75
411.8	1023.87
412.178	1015.51
412.555	1018.67
412.933	1055.51
413.31	1073.36
413.687	1067.94
414.065	1086.92
414.442	1115.85
414.819	1125.34
415.197	1125.56
415.574	1152
415.951	1137.54
416.328	1152.46
416.705	1168.5
417.082	1167.37
417.46	1193.58
417.837	1206.92
418.214	1208.73
418.591	1237.65
418.967	1229.06
419.344	1234.94
419.721	1268.84
420.098	1261.15
420.475	1300.25
420.852	1335.95
421.228	1319
421.605	1345.22
421.982	1319.46
422.358	1357.65
422.735	1384.54
423.111	1391.77
423.488	1426.35
423.864	1421.15
424.241	1442.39
424.617	1454.37
424.994	1455.27
425.37	1487.59
425.746	1469.06
426.123	1518.77
426.499	1504.99
426.875	1540.24
427.251	1564.87
427.627	1584.76
428.003	1624.99
428.379	1613.23
428.756	1663.63
429.132	1674.93
429.507	1691.88
429.883	1713.34
430.259	1727.81
430.635	1756.73
431.011	1789.05
431.387	1827.47
431.763	1851.87
432.138	1831.99
432.514	1896.16
432.89	1890.74
433.265	1912.66
433.641	1925.99
434.016	1994.02
434.392	2003.51
434.767	2037.86
435.143	2025.65
435.518	2044.41
435.894	2095.26
436.269	2132.77
436.644	2150.62
437.02	2164.41
437.395	2154.01
437.77	2231.98
438.145	2247.79
438.52	2283.95
438.895	2273.33
439.271	2283.27
439.646	2338.87
440.021	2340.67
440.395	2385.19
440.77	2380.22
441.145	2416.38
441.52	2405.3
441.895	2414.12
442.27	2474.91
442.645	2472.42
443.019	2505.19
443.394	2483.72
443.769	2558.07
444.143	2541.57
444.518	2543.83
444.892	2568.69
445.267	2594
445.641	2629.7
446.016	2616.15
446.39	2673.77
446.764	2690.95
447.139	2701.34
447.513	2718.97
447.887	2729.36
448.262	2767.55
448.636	2762.81
449.01	2814.78
449.384	2840.09
449.758	2840.09
450.132	2862.47
450.506	2887.1
450.88	2936.36
451.254	2923.26
451.628	2999.19
452.002	3000.09
452.376	3035.34
452.75	3047.32
453.123	3107.21
453.497	3148.56
453.871	3200.09
454.244	3191.5
454.618	3278.95
454.992	3304.72
455.365	3304.26
455.739	3371.83
456.112	3446.41
456.486	3484.6
456.859	3513.3
457.232	3567.08
457.606	3554.65
457.979	3583.35
458.352	3705.61
458.725	3756.45
459.099	3781.31
459.472	3827.64
459.845	3856.79
460.218	3888.43
460.591	3937.24
460.964	3964.13
461.337	4055.2
461.71	4142.21
462.083	4155.09
462.456	4234.86
462.829	4222.66
463.201	4252.04
463.574	4318.47
463.947	4374.97
464.32	4449.54
464.692	4504.91
465.065	4498.13
465.438	4588.52
465.81	4631.01
466.183	4727.28
466.555	4818.35
466.928	4848.18
467.3	4832.58
467.672	4920.72
468.045	5070.32
468.417	5087.49
468.789	5099.92
469.161	5153.71
469.534	5283.19
469.906	5452.46
470.278	5397.32
470.65	5497.2
471.022	5617.2
471.394	5718.21
471.766	5788.94
472.138	5826.91
472.51	5930.41
472.882	6038.65
473.253	6075.26
473.625	6168.37
473.997	6319.55
474.369	6322.72
474.74	6490.62
475.112	6609.49
475.484	6722.25
475.855	6782.14
476.227	6844.06
476.598	7054.9
476.97	7114.78
477.341	7314.1
477.713	7396.13
478.084	7433.65
478.455	7651.95
478.827	7757.93
479.198	7946.85
479.569	7999.51
479.94	8180.07
480.311	8213.74
480.682	8407.86
481.053	8630.68
481.424	8763.1
481.795	8867.96
482.166	9019.37
482.537	9169.87
482.908	9293.48
483.279	9370.09
483.65	9591.78
484.021	9820.93
484.391	9857.54
484.762	9978.21
485.133	10075.84
485.503	10198.32
485.874	10474.47
486.244	10573.68
486.615	10749.49
486.985	10945.64
487.356	11099.31
487.726	11212.08
488.097	11418.63
488.467	11448.68
488.837	11746.53
489.207	11892.74
489.578	12024.03
489.948	12153.07
490.318	12373.63
490.688	12446.4
491.058	12599.84
491.428	12775.88
491.798	12847.52
492.168	13082.31
492.538	13181.97
492.908	13381.96
493.278	13515.29
493.648	13619.7
494.017	13767.94
494.387	13899.69
494.757	14086.8
495.126	14206.58
495.496	14146.24
495.866	14330.41
496.235	14613.34
496.605	14586
496.974	14802.72
497.344	14870.29
497.713	14998.19
498.082	15167
498.452	15307.79
498.821	15456.26
499.19	15369.48
499.559	15649.02
499.928	15641.57
500.298	15713.43
500.667	15999.52
501.036	15952.97
501.405	16099.18
501.774	16096.7
502.143	16336.46
502.512	16465.05
502.88	16602.44
503.249	16615.1
503.618	16691.48
503.987	16797.02
504.356	16915.88
504.724	17085.82
505.093	17206.95
505.462	17300.73
505.83	17441.52
506.199	17596.99
506.567	17734.84
506.936	17818.68
507.304	17931.45
507.672	18017.32
508.041	18157.43
508.409	18293.47
508.777	18416.63
509.145	18593.58
509.514	18678.32
509.882	18806.91
510.25	18901.14
510.618	19074.24
510.986	19173.9
511.354	19340
511.722	19487.57
512.09	19757.16
512.458	19705.19
512.826	19936.14
513.193	20104.95
513.561	20128.23
513.929	20363.02
514.297	20494.09
514.664	20596.92
515.032	20770.92
515.4	20956.45
515.767	21056.34
516.135	21231.48
516.502	21108.77
516.869	21579.49
517.237	21542.65
517.604	21723.21
517.972	22000.72
518.339	22067.16
518.706	22255.4
519.073	22307.83
519.44	22558.67
519.808	22851.77
520.175	22742.85
520.542	23174.25
520.909	23291.08
521.276	23336.28
521.643	23456.73
522.009	23760.22
522.376	23802.93
522.743	24017.17
523.11	24377.61
523.477	24599.75
523.843	24720.2
524.21	24989.79
524.577	25331.93
524.943	25357.92
525.31	25517.46
525.676	25702.32
526.043	25867.06
526.409	25992.48
526.776	26334.17
527.142	26430.43
527.508	26594.95
527.874	26814.61
528.241	27001.72
528.607	27097.76
528.973	27381.14
529.339	27452.1
529.705	27659.56
530.071	27869.72
530.437	28001.47
530.803	28249.37
531.169	28443.72
531.535	28503.37
531.901	28616.59
532.267	28741.33
532.632	28974.77
532.998	29092.74
533.364	29197.82
533.73	29365.5
534.095	29647.53
534.461	29707.86
534.826	29916.22
535.192	30061.98
535.557	30369.09
535.923	30381.74
536.288	30340.16
536.653	30573.15
537.019	30631.45
537.384	30671.23
537.749	30878.91
538.114	30957.55
538.479	30977.21
538.845	31121.16
539.21	31135.62
539.575	31339.68
539.94	31477.53
540.305	31589.17
540.67	31503.07
541.034	31725.21
541.399	31876.85
541.764	31931.31
542.129	32036.16
542.494	32221.02
542.858	32260.34
543.223	32264.18
543.587	32524.06
543.952	32470.28
544.316	32630.5
544.681	32734
545.045	32825.3
545.41	32953.2
545.774	32954.56
546.138	33153.42
546.503	33284.27
546.867	33277.94
547.231	33672.96
547.595	33659.4
547.959	33875.21
548.324	33881.99
548.688	33957.92
549.052	34107.75
549.416	34201.98
549.779	34388.64
550.143	34458.47
550.507	34557.68
550.871	34769.88
551.235	34798.12
551.599	35067.04
551.962	35094.61
552.326	35207.61
552.689	35555.62
553.053	35332.35
553.417	35674.71
553.78	36003.74
554.143	35732.11
554.507	36094.36
554.87	36122.38
555.234	36487.12
555.597	36289.84
555.96	36531.41
556.323	36782.71
556.686	36761.01
557.05	36991.51
557.413	37148.57
557.776	37229.02
558.139	37490.26
558.502	37453.65
558.865	37669.91
559.228	38064.03
559.59	38214.31
559.953	38196.91
560.316	38634.18
560.679	38588.08
561.041	38995.3
561.404	38921.41
561.767	39308.74
562.129	39290.21
562.492	39558.23
562.854	39494.5
563.217	39608.85
563.579	39885.9
563.941	40042.51
564.304	40202.05
564.666	40515.49
565.028	40582.61
565.39	40837.29
565.753	40937.62
566.115	41183.95
566.477	41324.28
566.839	41383.26
567.201	41796.81
567.563	41852.18
567.925	42128.78
568.287	42313.41
568.648	42401.31
569.01	42632.49
569.372	42881.98
569.734	42811.47
570.095	43104.8
570.457	43342.31
570.819	43301.18
571.18	43427.28
571.542	43575.07
571.903	43789.07
572.265	43965.34
572.626	44039.69
572.987	44145.45
573.349	44280.36
573.71	44590.18
574.071	44570.52
574.432	44827.69
574.794	45081.02
575.155	44999.66
575.516	44886.22
575.877	45123.73
576.238	45220.22
576.599	45429.03
576.96	45445.53
577.32	45557.84
577.681	45751.51
578.042	45871.51
578.403	45908.79
578.763	45981.56
579.124	46050.71
579.485	46343.81
579.845	46342.68
580.206	46470.59
580.566	46418.38
580.927	46557.82
581.287	46761.88
581.648	46616.8
582.008	46723.69
582.368	46643.01
582.728	46711.71
583.089	46897.24
583.449	46711.03
583.809	46874.19
584.169	47000.52
584.529	46834.19
584.889	47301.98
585.249	46921.87
585.609	46922.55
585.969	47100.17
586.329	47018.82
586.688	47172.71
587.048	47044.13
587.408	47037.8
587.768	47043.45
588.127	47047.07
588.487	47021.76
588.846	47360.28
589.206	47155.31
589.565	47161.42
589.925	47321.41
590.284	47329.55
590.643	47318.7
591.003	47420.84
591.362	47464.46
591.721	47387.17
592.08	47323.44
592.44	47503.33
592.799	47393.5
593.158	47379.71
593.517	47497.45
593.876	47513.27
594.235	47424.69
594.593	47503.78
594.952	47645.92
595.311	47419.49
595.67	47567.28
596.029	47694.51
596.387	47820.61
596.746	47909.87
597.104	47664.23
597.463	47746.26
597.822	47832.13
598.18	47758.69
598.538	47760.72
598.897	47983.99
599.255	47639.37
599.613	48234.16
599.972	47919.14
600.33	48028.74
600.688	48045.46
601.046	48127.49
601.404	48210.43
601.762	48117.32
602.12	48260.82
602.478	48127.72
602.836	48282.06
603.194	48118.45
603.552	48171.78
603.91	47971.11
604.268	48194.38
604.625	48183.76
604.983	48469.4
605.341	48251.78
605.698	48486.13
606.056	48498.33
606.413	48482.96
606.771	48683.64
607.128	48715.27
607.485	48387.37
607.843	48553.24
608.2	48744.88
608.557	48769.28
608.914	48589.17
609.272	48884.76
609.629	48914.59
609.986	48959.79
610.343	48895.61
610.7	49204.53
611.057	49003.17
611.414	49091.99
611.771	49035.72
612.127	49195.71
612.484	49147.13
612.841	49210.4
613.198	49146
613.554	49184.86
613.911	49348.93
614.267	49285.88
614.624	49304.18
614.98	49439.32
615.337	49586.89
615.693	49526.32
616.05	49446.33
616.406	49642.71
616.762	49504.63
617.118	49531.75
617.475	49548.02
617.831	49659.43
618.187	49748.01
618.543	49703.04
618.899	49816.26
619.255	49815.58
619.611	49865.3
619.967	49958.63
620.323	50016.93
620.678	49912.76
621.034	49856.49
621.39	49807.9
621.746	49817.39
622.101	50276.14
622.457	49964.51
622.812	49939.2
623.168	49986.2
623.523	50040.66
623.879	50180.32
624.234	49948.91
624.589	50141.68
624.945	50089.7
625.3	50032.07
625.655	50195.23
626.01	50044.28
626.365	50072.98
626.72	49954.11
627.075	49996.82
627.43	49934.68
627.785	49804.96
628.14	49989.59
628.495	50029.14
628.85	49953.21
629.205	49752.31
629.559	50000.21
629.914	49777.62
630.269	49890.61
630.623	49767.67
630.978	49791.18
631.332	49956.6
631.687	50031.62
632.041	49721.57
632.396	49790.72
632.75	49750.05
633.104	49675.25
633.459	49628.02
633.813	49463.95
634.167	49512.31
634.521	49474.35
634.875	49491.75
635.229	49355.26
635.583	49390.51
635.937	49297.86
636.291	49255.82
636.645	49365.65
636.999	49133.34
637.352	49288.37
637.706	48955.49
638.06	49017.19
638.413	49060.35
638.767	48832.33
639.121	48967.02
639.474	48732.45
639.828	48749.62
640.181	48848.6
640.534	48849.96
640.888	48687.48
641.241	48588.72
641.594	48673.24
641.947	48753.01
642.301	48550.31
642.654	48698.78
643.007	48604.32
643.36	48563.19
643.713	48417.88
644.066	48616.29
644.419	48178.34
644.771	48091.11
645.124	47709.65
645.477	47692.7
645.83	47426.27
646.182	47048.65
646.535	47125.48
646.888	47169.1
647.24	46905.83
647.593	47184.92
647.945	46950.8
648.298	46826.51
648.65	46762.1
649.002	46765.04
649.355	46810.69
649.707	46850.92
650.059	46936.79
650.411	47346.5
650.763	47251.81
651.115	47662.87
651.467	47558.02
651.819	47557.11
652.171	47403.44
652.523	47289.32
652.875	47260.4
653.227	47185.6
653.578	47393.27
653.93	47281.41
654.282	46900.63
654.633	46985.15
654.985	47002.78
655.337	47061.3
655.688	46968.88
656.039	47007.07
656.391	46753.06
656.742	46717.13
657.094	46728.43
657.445	46799.62
657.796	46633.07
658.147	46562.34
658.498	46572.05
658.849	46728.21
659.2	46613.18
659.551	46650.92
659.902	46671.03
660.253	46581.77
660.604	46552.39
660.955	46431.49
661.306	46510.13
661.656	46472.39
662.007	46506.74
662.358	46378.61
662.708	46438.95
663.059	46392.85
663.409	46031.5
663.76	46302
664.11	46286.86
664.461	46342
664.811	46276.24
665.161	46246.64
665.511	46101.56
665.862	46202.57
666.212	46271.27
666.562	46336.35
666.912	46074.66
667.262	46216.58
667.612	46077.83
667.962	46099.07
668.312	45880.09
668.662	46160.76
669.011	45958.96
669.361	46000.77
669.711	45943.14
670.06	45647.78
670.41	45753.54
670.76	45692.08
671.109	45946.08
671.459	45878.74
671.808	45733.43
672.157	45795.12
672.507	45473.32
672.856	45625.64
673.205	45641.46
673.554	45707.44
673.904	45662.02
674.253	45771.4
674.602	45514
674.951	44933.68
675.3	44832.44
675.649	45477.39
675.998	45389.03
676.346	45341.58
676.695	45504.51
677.044	45135.25
677.393	45258.41
677.741	45250.73
678.09	45139.77
678.438	45038.31
678.787	45260
679.135	45267.68
679.484	45003.96
679.832	45142.94
680.181	44745.21
680.529	44978.2
680.877	44960.34
681.225	44751.54
681.573	45062.26
681.922	44584.53
682.27	44422.5
682.618	44539.34
682.966	44440.36
683.314	44570.3
683.661	44300.25
684.009	44223.41
684.357	44118.78
684.705	44253.24
685.053	44169.86
685.4	43991.1
685.748	43938.45
686.095	43784.78
686.443	43735.29
686.79	43705.69
687.138	43872.46
687.485	43790.2
687.832	43479.25
688.18	43361.29
688.527	43395.64
688.874	43345.92
689.221	43315.64
689.568	43119.26
689.915	42851.02
690.262	42951.81
690.609	42639.05
690.956	42678.37
691.303	42628.2
691.65	42506.62
691.997	42558.6
692.344	42199.74
692.69	42127.65
693.037	42194.99
693.383	41699.64
693.73	41927.2
694.077	41675.91
694.423	41740.54
694.769	41582.8
695.116	41430.72
695.462	41304.39
695.808	41189.14
696.155	41338.74
696.501	40990.73
696.847	40955.93
697.193	40815.14
697.539	40897.63
697.885	40635.49
698.231	40565.66
698.577	40585.77
698.923	40387.36
699.269	40093.13
699.614	40051.55
699.96	39995.95
700.306	40082.51
700.651	39740.82
700.997	39595.29
701.342	39618.79
701.688	39548.73
702.033	39388.29
702.379	39431
702.724	39044.79
703.069	39279.59
703.415	38902.2
703.76	38808.41
704.105	38975.42
704.45	38763.44
704.795	38521.42
705.14	38452.49
705.485	38472.38
705.83	38183.12
706.175	38210.69
706.52	38158.71
706.865	37983.13
707.209	37970.24
707.554	37818.38
707.899	37939.74
708.243	37702.45
708.588	37663.59
708.932	37407.55
709.277	37315.8
709.621	37365.06
709.966	37125.3
710.31	37128.68
710.654	36932.76
710.998	36778.86
711.342	36962.36
711.687	36812.31
712.031	36595.82
712.375	36575.48
712.719	36512.66
713.063	36645.08
713.407	36519.66
713.75	36293.45
714.094	36502.26
714.438	36088.49
714.782	36180.01
715.125	35981.6
715.469	36112.21
715.812	35739.57
716.156	35700.25
716.499	35615.28
716.843	35663.19
717.186	35277.21
717.53	35450.76
717.873	35408.5
718.216	35282.18
718.559	35193.14
718.902	35100.26
719.246	35056.2
719.589	34875.64
719.932	34917.22
720.275	34951.11
720.617	34737.79
720.96	34686.04
721.303	34662.31
721.646	34709.31
721.989	34453.95
722.331	34557.45
722.674	34355.88
723.016	34413.5
723.359	34246.73
723.701	34257.12
724.044	34068.65
724.386	33947.75
724.729	34040.4
725.071	33997.92
725.413	33872.5
725.755	33924.25
726.097	33724.03
726.439	33518.38
726.782	33664.82
727.124	33779.85
727.465	33543.24
727.807	33519.97
728.149	33455.11
728.491	33352.74
728.833	33352.51
729.175	33275.23
729.516	33354.09
729.858	33116.59
730.199	33161.33
730.541	32995.23
730.882	33021
731.224	33047.21
731.565	32923.15
731.906	32810.38
732.248	32814.9
732.589	32673.43
732.93	32521.12
733.271	32614.91
733.612	32618.07
733.953	32602.02
734.294	32369.94
734.635	32353.9
734.976	32484.74
735.317	32252.65
735.658	32185.76
735.999	32237.29
736.339	31995.03
736.68	32157.06
737.021	31995.71
737.361	31941.93
737.702	31959.56
738.042	31841.59
738.383	31705.78
738.723	31705.32
739.063	31652.9
739.404	31647.25
739.744	31569.06
740.084	31457.65
740.424	31523.86
740.764	31380.36
741.104	31500.13
741.444	31179.91
741.784	31260.82
742.124	31203.64
742.464	31155.28
742.804	31097.43
743.143	30875.29
743.483	31093.82
743.823	30893.37
744.162	30917.55
744.502	30966.36
744.841	30633.71
745.181	30807.04
745.52	30600.04
745.86	30595.75
746.199	30508.97
746.538	30423.1
746.877	30416.77
747.216	30409.09
747.556	30332.48
747.895	30404.79
748.234	30151.92
748.573	30216.78
748.911	30182.88
749.25	30138.81
749.589	30012.49
749.928	29972.49
750.267	30090.45
750.605	29830.12
750.944	29839.84
751.283	29652.5
751.621	29760.52
751.96	29613.4
752.298	29591.03
752.636	29565.27
752.975	29395.78
753.313	29424.03
753.651	29495.67
753.989	29300.87
754.327	29259.51
754.666	29067.88
755.004	29082.57
755.342	29126.86
755.679	28962.57
756.017	28770.49
756.355	28888
756.693	28761
757.031	28862.24
757.368	28543.37
757.706	28563.94
758.044	28373.43
758.381	28547.89
758.719	28271.52
759.056	28248.92
759.394	28087.57
759.731	27897.74
760.068	27877.85
760.405	27800.79
760.743	27681.93
761.08	27683.51
761.417	27614.36
761.754	27501.37
762.091	27571.2
762.428	27434.02
762.765	27238.55
763.102	27297.98
763.438	27080.81
763.775	27000.36
764.112	27119
764.449	27102.28
764.785	26790.65
765.122	26656.19
765.458	26707.04
765.795	26560.38
766.131	26507.95
766.467	26334.62
766.804	26127.62
767.14	26139.6
767.476	26097.11
767.812	25990.22
768.148	26091.01
768.485	25728.76
768.821	25705.03
769.157	25665.71
769.492	25515.2
769.828	25551.14
770.164	25293.74
770.5	25316.79
770.836	25278.37
771.171	24965.84
771.507	24995.22
771.842	24802.46
772.178	24799.97
772.513	24689.24
772.849	24754.09
773.184	24606.75
773.519	24512.97
773.855	24380.55
774.19	24337.83
774.525	24133.32
774.86	24138.97
775.195	24196.14
775.53	23963.16
775.865	23851.75
776.2	23595.48
776.535	23472.09
776.87	23496.73
777.205	23331.76
777.539	23196.85
777.874	23279.11
778.209	23102.16
778.543	23061.03
778.878	22869.4
779.212	22943.3
779.547	22718.67
779.881	22880.92
780.215	22472.35
780.55	22623.08
780.884	22473.7
781.218	22474.83
781.552	22501.72
781.886	22253.6
782.22	22158.91
782.554	22068.97
782.888	21889.54
783.222	21824.45
783.556	21762.31
783.889	21683.89
784.223	21583.56
784.557	21460.62
784.89	21641.63
785.224	21475.99
785.557	21382.21
785.891	21344.02
786.224	21191.7
786.558	21266.28
786.891	21047.07
787.224	21030.8
787.557	20932.05
787.891	20867.19
788.224	20866.51
788.557	20707.65
788.89	20677.82
789.223	20638.27
789.556	20468.33
789.888	20427.43
790.221	20321.67
790.554	20135.23
790.887	20100.66
791.219	20189.47
791.552	20122.58
791.884	20002.58
792.217	19825.86
792.549	19811.63
792.882	19655.02
793.214	19551.52
793.546	19632.2
793.879	19453.44
794.211	19394.46
794.543	19432.88
794.875	19295.26
795.207	19419.32
795.539	19224.75
795.871	19161.02
796.203	19014.81
796.535	18968.71
796.867	18855.49
797.198	18913.12
797.53	18772.33
797.862	18734.59
798.193	18708.83
798.525	18591.09
798.856	18599.45
799.188	18315.17
799.519	18408.95
799.85	18209.86
800.182	18241.05
800.513	18193.14
800.844	18001.96
801.175	18170.54
801.506	18079.47
801.837	18054.84
802.168	17937.32
802.499	17969.87
802.83	17813.26
803.161	17739.82
803.491	17677.44
803.822	17684.9
804.153	17510.67
804.483	17401.29
804.814	17384.8
805.145	17399.71
805.475	17430.67
805.805	17286.04
806.136	17248.53
806.466	17286.95
806.796	17121.98
807.126	16953.85
807.457	16962.89
807.787	16968.99
808.117	16877.47
808.447	16903.23
808.777	16854.64
809.107	16665.04
809.436	16745.94
809.766	16628.21
810.096	16582.11
810.426	16584.14
810.755	16535.78
811.085	16439.96
811.414	16504.14
811.744	16289.91
812.073	16312.06
812.403	16235.45
812.732	16150.25
813.061	16150.48
813.39	16085.4
813.719	16012.86
814.049	16041.78
814.378	15980.77
814.707	15967.21
815.036	15940.77
815.365	15868.68
815.693	15686.08
816.022	15738.06
816.351	15771.96
816.68	15681.11
817.008	15716.82
817.337	15488.35
817.665	15609.25
817.994	15560.66
818.322	15586.88
818.651	15449.25
818.979	15421.23
819.307	15451.97
819.636	15404.28
819.964	15377.84
820.292	15377.17
820.62	15322.7
820.948	15185.76
821.276	15345.53
821.604	15296.72
821.932	15251.75
822.259	15331.07
822.587	15287.45
822.915	15341.24
823.243	15304.85
823.57	15252.65
823.898	15257.17
824.225	15197.51
824.553	15180.56
824.88	15227.79
825.207	15243.38
825.535	15266.66
825.862	15236.83
826.189	15235.7
826.516	15185.98
826.843	15310.28
827.17	15285.19
827.497	15185.08
827.824	15196.38
828.151	15264.85
828.478	15220.56
828.805	15202.71
829.131	15141.01
829.458	15116.61
829.785	15032.77
830.111	15054.24
830.438	15159.09
830.764	15074.58
831.09	15082.26
831.417	15068.47
831.743	15093.33
832.069	15085.87
832.395	15018.76
832.722	14981.7
833.048	14909.61
833.374	15065.08
833.7	15021.47
834.026	15053.11
834.351	14953.67
834.677	14990.51
835.003	15019.89
835.329	15072.32
835.654	14959.55
835.98	14863.06
836.306	14863.06
836.631	14795.26
836.956	14874.35
837.282	14796.62
837.607	14688.14
837.932	14663.51
838.258	14660.57
838.583	14708.26
838.908	14557.75
839.233	14644.3
839.558	14608.6
839.883	14590.97
840.208	14548.04
840.533	14631.42
840.858	14568.83
841.182	14554.59
841.507	14548.71
841.832	14443.86
842.156	14443.41
842.481	14454.7
842.805	14431.65
843.13	14440.47
843.454	14360.47
843.778	14380.13
844.103	14294.03
844.427	14237.99
844.751	14267.82
845.075	14328.15
845.399	14163.86
845.723	14082.29
846.047	14177.88
846.371	14016.52
846.695	14011.78
847.019	13909.18
847.343	13858.34
847.666	13775.4
847.99	13654.95
848.313	13695.85
848.637	13555.97
848.96	13683.2
849.284	13583.09
849.607	13401.4
849.931	13475.97
850.254	13412.92
850.577	13209.54
850.9	13212.93
851.223	13205.25
851.546	13139.26
851.869	13064.46
852.192	13191.91
852.515	13015.42
852.838	13013.84
853.161	13038.24
853.483	12961.18
853.806	12786.27
854.129	12824.92
854.451	12741.98
854.774	12651.59
855.096	12655.43
855.419	12624.24
855.741	12620.18
856.063	12613.4
856.385	12532.04
856.708	12544.92
857.03	12447.07
857.352	12467.86
857.674	12460.18
857.996	12365.95
858.318	12311.48
858.64	12360.3
858.961	12263.12
859.283	12244.14
859.605	12142.22
859.926	12222.22
860.248	12103.81
860.57	12118.72
860.891	12129.79
861.212	12145.84
861.534	12046.41
861.855	12012.96
862.176	11959.18
862.498	11997.82
862.819	11987.88
863.14	11938.39
863.461	11916.24
863.782	11900.2
864.103	12007.09
864.424	11845.73
864.745	11915.56
865.065	11801.22
865.386	11798.28
865.707	11792.85
866.027	11774.1
866.348	11710.14
866.668	11681.9
866.989	11689.13
867.309	11718.96
867.63	11708.79
867.95	11631.28
868.27	11595.8
868.59	11623.37
868.91	11537.72
869.23	11554.67
869.55	11557.15
869.87	11567.55
870.19	11537.95
870.51	11557.61
870.83	11532.52
871.15	11532.07
871.469	11516.25
871.789	11496.82
872.109	11383.6
872.428	11330.95
872.748	11425.63
873.067	11374.33
873.386	11470.6
873.706	11426.08
874.025	11384.28
874.344	11371.4
874.663	11338.4
874.982	11278.07
875.301	11281
875.62	11294.34
875.939	11213.43
876.258	11182.25
876.577	11244.85
876.896	11165.98
877.214	11151.06
877.533	11235.13
877.852	11181.57
878.17	11137.05
878.489	11129.14
878.807	11153.77
879.125	11156.26
879.444	11133.44
879.762	11067.68
880.08	11007.11
880.398	11067
880.716	11077.84
881.034	11003.72
881.352	10987.23
881.67	10927.34
881.988	10942.71
882.306	10957.17
882.624	10815.93
882.941	10873.56
883.259	10767.12
883.577	10741.36
883.894	10732.09
884.212	10757.4
884.529	10701.13
884.846	10696.16
885.164	10750.17
885.481	10693
885.798	10704.29
886.115	10596.73
886.432	10619.78
886.75	10552.43
887.067	10629.49
887.383	10558.99
887.7	10574.58
888.017	10542.49
888.334	10518.09
888.651	10497.97
888.967	10495.71
889.284	10433.57
889.6	10466.11
889.917	10392.21
890.233	10443.96
890.55	10324.42
890.866	10374.13
891.182	10316.96
891.498	10216.4
891.815	10277.19
892.131	10270.18
892.447	10207.81
892.763	10166.23
893.079	10184.99
893.395	10142.73
893.71	10099.79
894.026	10089.17
894.342	10034.48
894.657	9978.66
894.973	10016.86
895.289	10019.57
895.604	10021.83
895.92	9924.65
896.235	9880.59
896.55	9896.18
896.865	9864.32
897.181	9819.12
897.496	9908.84
897.811	9821.38
898.126	9726.92
898.441	9659.12
898.756	9672.46
899.071	9634.04
899.386	9651.44
899.7	9518.34
900.015	9561.27
900.33	9471.56
900.644	9444.89
900.959	9481.5
901.273	9417.55
901.588	9370.77
901.902	9376.19
902.216	9351.79
902.531	9238.57
902.845	9291.68
903.159	9189.76
903.473	9172.36
903.787	9196.99
904.101	9119.03
904.415	9090.55
904.729	9030.44
905.042	9024.56
905.356	8899.14
905.67	8971.46
905.984	8916.77
906.297	8909.31
906.611	8852.37
906.924	8822.54
907.237	8851.01
907.551	8750.9
907.864	8760.84
908.177	8784.8
908.491	8734.86
908.804	8672.03
909.117	8601.3
909.43	8637.91
909.743	8586.61
910.056	8494.18
910.368	8550.68
910.681	8458.03
910.994	8448.08
911.307	8391.81
911.619	8315.66
911.932	8379.61
912.244	8352.27
912.557	8336
912.869	8240.18
913.181	8264.13
913.494	8225.72
913.806	8191.82
914.118	8147.75
914.43	8102.33
914.742	8179.62
915.054	8101.43
915.366	8092.84
915.678	8072.95
915.99	7968.32
916.302	7969.45
916.613	7920.87
916.925	7914.09
917.236	7961.09
917.548	7827.99
917.859	7840.87
918.171	7734.88
918.482	7743.69
918.794	7714.09
919.105	7691.04
919.416	7630.7
919.727	7628.22
920.038	7615.34
920.349	7571.04
920.66	7510.48
920.971	7546.86
921.282	7498.73
921.593	7466.64
921.903	7403.14
922.214	7426.87
922.525	7373.53
922.835	7358.85
923.146	7307.1
923.456	7229.58
923.767	7215.35
924.077	7235.46
924.387	7164.95
924.697	7119.98
925.008	7077.27
925.318	7132.41
925.628	7049.7
925.938	7013.32
926.248	7025.97
926.558	6946.88
926.867	6899.2
927.177	6928.8
927.487	6879.31
927.796	6822.81
928.106	6797.73
928.416	6788.24
928.725	6751.18
929.034	6721.35
929.344	6729.48
929.653	6711.41
929.962	6636.83
930.271	6660.56
930.581	6552.99
930.89	6598.64
931.199	6488.13
931.508	6465.08
931.817	6564.06
932.125	6495.82
932.434	6456.27
932.743	6424.18
933.051	6370.4
933.36	6319.78
933.669	6322.04
933.977	6345.31
934.286	6301.7
934.594	6276.61
934.902	6184.87
935.21	6192.32
935.519	6257.86
935.827	6229.61
936.135	6132.89
936.443	6118.43
936.751	6094.47
937.059	6095.15
937.367	6002.5
937.674	6017.41
937.982	5997.53
938.29	5974.02
938.597	5958.2
938.905	5914.14
939.213	5913.01
939.52	5873.69
939.827	5898.09
940.135	5828.72
940.442	5849.06
940.749	5817.64
941.056	5781.71
941.363	5757.53
941.67	5735.61
941.977	5692.22
942.284	5628.72
942.591	5626.24
942.898	5644.99
943.205	5588.95
943.511	5609.97
943.818	5592.56
944.125	5565.9
944.431	5539.68
944.738	5539.01
945.044	5472.12
945.35	5445.45
945.657	5394.15
945.963	5400.71
946.269	5376.3
946.575	5386.02
946.881	5381.95
947.187	5348.05
947.493	5295.85
947.799	5290.88
948.105	5264.44
948.41	5183.08
948.716	5206.36
949.022	5183.76
949.327	5155.29
949.633	5095.85
949.938	5100.15
950.244	5118.68
950.549	5040.49
950.854	5055.86
951.16	5039.36
951.465	5009.98
951.77	4944.9
952.075	5018.57
952.38	4948.06
952.685	4970.89
952.99	4894.96
953.294	4813.6
953.599	4875.3
953.904	4809.31
954.209	4811.57
954.513	4817.9
954.818	4769.76
955.122	4741.51
955.426	4762.98
955.731	4776.32
956.035	4717.56
956.339	4712.59
956.643	4689.31
956.948	4692.48
957.252	4611.35
957.556	4651.35
957.86	4623.55
958.163	4566.6
958.467	4566.15
958.771	4539.26
959.075	4574.06
959.378	4465.36
959.682	4515.98
959.985	4485.25
960.289	4487.96
960.592	4413.84
960.896	4399.83
961.199	4375.2
961.502	4379.49
961.805	4367.51
962.108	4338.36
962.411	4359.15
962.714	4305.14
963.017	4290
963.32	4324.8
963.623	4261.98
963.926	4203.45
964.228	4202.09
964.531	4218.14
964.833	4209.32
965.136	4164.81
965.438	4157.57
965.741	4081.64
966.043	4148.31
966.345	4100.17
966.648	4099.72
966.95	4099.04
967.252	4057.46
967.554	4049.33
967.856	4044.58
968.158	3977.47
968.46	3983.12
968.761	3978.6
969.063	3960.29
969.365	3918.71
969.666	3925.49
969.968	3899.73
970.269	3882.33
970.571	3890.91
970.872	3880.52
971.174	3802.56
971.475	3836
971.776	3825.83
972.077	3796.68
972.378	3773.4
972.679	3813.63
972.98	3718.49
973.281	3771.37
973.582	3713.52
973.883	3710.13
974.183	3667.64
974.484	3673.97
974.785	3669.68
975.085	3607.08
975.386	3617.25
975.686	3646.63
975.986	3609.79
976.287	3605.72
976.587	3503.35
976.887	3531.6
977.187	3582.22
977.487	3503.13
977.787	3539.29
978.087	3475.56
978.387	3496.12
978.687	3439.63
978.987	3429.91
979.286	3420.64
979.586	3431.49
979.885	3389.23
980.185	3336.8
980.484	3345.39
980.784	3370.7
981.083	3342.23
981.382	3334.09
981.682	3284.15
981.981	3282.12
982.28	3262
982.579	3247.54
982.878	3283.02
983.177	3262.91
983.475	3172.97
983.774	3149.01
984.073	3180.88
984.372	3162.12
984.67	3178.39
984.969	3146.98
985.267	3140.2
985.566	3098.39
985.864	3103.82
986.162	3134.55
986.461	3068.56
986.759	3054.78
987.057	3071.05
987.355	3000.77
987.653	3035.57
987.951	3027.89
988.249	2981.11
988.547	2976.36
988.844	2968
989.142	2981.33
989.44	2931.62
989.737	2945.18
990.035	2944.27
990.332	2930.04
990.63	2876.7
990.927	2895.01
991.224	2844.84
991.521	2892.75
991.819	2893.43
992.116	2846.65
992.413	2854.56
992.71	2826.54
993.006	2832.64
993.303	2816.59
993.6	2798.06
993.897	2795.12
994.193	2791.28
994.49	2771.85
994.787	2747.89
995.083	2709.7
995.379	2693.21
995.676	2690.95
995.972	2639.2
996.268	2690.49
996.565	2662.25
996.861	2639.87
997.157	2654.79
997.453	2612.08
997.749	2612.76
998.044	2569.37
998.34	2549.03
998.636	2580.44
998.932	2579.76
999.227	2485.08
999.523	2537.96
999.818	2528.92
1000.114	2503.15
1000.409	2499.99
1000.704	2509.93
1001	2448.47
1001.295	2447.79
1001.59	2436.94
1001.885	2414.57
1002.18	2434.91
1002.475	2399.2
1002.77	2378.41
1003.065	2371.86
1003.359	2337.06
1003.654	2338.19
1003.949	2338.64
1004.243	2327.34
1004.538	2322.82
1004.832	2294.57
1005.127	2315.81
1005.421	2300.67
1005.715	2223.61
1006.009	2250.51
1006.304	2239.43
1006.598	2231.52
1006.892	2213.9
1007.186	2197.63
1007.48	2176.38
1007.773	2177.06
1008.067	2159.89
1008.361	2142.03
1008.655	2136.38
1008.948	2113.33
1009.242	2100
1009.535	2120.11
1009.829	2050.51
1010.122	2068.36
1010.415	2038.76
1010.708	2074.47
1011.001	2000.57
1011.295	2002.15
1011.588	2007.12
1011.881	2044.86
1012.173	1986.56
1012.466	1982.26
1012.759	1954.24
1013.052	1978.65
1013.344	1954.02
1013.637	1931.64
1013.93	1874.02
1014.222	1902.27
1014.514	1905.43
1014.807	1901.14
1015.099	1897.07
1015.391	1880.35
1015.683	1838.31
1015.976	1836.51
1016.268	1837.86
1016.56	1809.39
1016.851	1801.25
1017.143	1809.84
1017.435	1809.84
1017.727	1793.12
1018.018	1778.65
1018.31	1764.64
1018.602	1771.65
1018.893	1739.78
1019.185	1714.7
1019.476	1677.64
1019.767	1729.62
1020.058	1679.22
1020.35	1670.41
1020.641	1673.12
1020.932	1656.17
1021.223	1641.26
1021.514	1646.91
1021.804	1637.87
1022.095	1607.81
1022.386	1593.35
1022.677	1584.76
1022.967	1600.58
1023.258	1535.5
1023.548	1565.78
1023.839	1547.7
1024.129	1559
1024.419	1507.93
1024.709	1519.23
1025	1519.45
1025.29	1496.63
1025.58	1494.14
1025.87	1497.53
1026.16	1473.8
1026.449	1491.88
1026.739	1431.54
1027.029	1437.42
1027.319	1427.48
1027.608	1403.75
1027.898	1393.13
1028.187	1413.69
1028.477	1408.04
1028.766	1387.48
1029.055	1379.79
1029.344	1373.69
1029.634	1381.38
1029.923	1354.26
1030.212	1337.99
1030.501	1358.78
1030.79	1336.63
1031.078	1335.28
1031.367	1290.31
1031.656	1301.38
1031.945	1285.79
1032.233	1284.43
1032.522	1268.16
1032.81	1248.95
1033.099	1261.61
1033.387	1261.83
1033.675	1236.97
1033.963	1240.14
1034.251	1224.54
1034.54	1199.91
1034.828	1166.47
1035.116	1189.06
1035.403	1173.02
1035.691	1193.81
1035.979	1179.12
1036.267	1181.38
1036.554	1144.09
1036.842	1154.04
1037.129	1131.44
1037.417	1118.33
1037.704	1119.01
1037.992	1131.44
1038.279	1087.82
1038.566	1090.76
1038.853	1090.76
1039.14	1090.76
