Data from aluminium_surface_pro_back_FLMS001491_00088.txt Node
Date: Wed Feb 08 15:34:40 GMT 2017
User: dcchb
Spectrometer: FLMS00149
Trigger mode: 0
Integration Time (sec): 2.000000E-2
Scans to average: 10
Electric dark correction enabled: true
Nonlinearity correction enabled: false
Boxcar width: 0
XAxis mode: Wavelengths
Number of Pixels in Spectrum: 2048
>>>>>Begin Spectral Data<<<<<
341.393	-15.25
341.776	-15.25
342.16	-15.25
342.543	-34.46
342.927	-72.65
343.31	-65.42
343.693	-71.98
344.077	-69.26
344.46	-58.87
344.843	-47.57
345.226	-39.21
345.61	-46.21
345.993	-28.13
346.376	-8.02
346.759	3.73
347.142	16.61
347.525	34.91
347.908	60.45
348.291	98.42
348.674	106.55
349.057	114.01
349.44	125.31
349.823	151.52
350.206	156.72
350.588	212.08
350.971	238.07
351.354	256.15
351.737	279.65
352.119	287.56
352.502	294.57
352.884	326.66
353.267	328.24
353.65	328.92
354.032	322.82
354.414	360.33
354.797	335.47
355.179	363.27
355.562	352.19
355.944	383.38
356.326	376.83
356.709	378.41
357.091	380.89
357.473	365.08
357.855	391.29
358.238	388.13
358.62	366.43
359.002	370.27
359.384	398.07
359.766	396.49
360.148	360.56
360.53	399.42
360.912	385.19
361.294	375.7
361.676	386.09
362.057	388.8
362.439	363.27
362.821	378.41
363.203	375.02
363.584	356.49
363.966	360.33
364.348	366.66
364.729	379.31
365.111	355.81
365.493	367.33
365.874	379.31
366.256	374.57
366.637	354.91
367.019	372.98
367.4	389.48
367.781	390.16
368.163	386.32
368.544	382.25
368.925	391.06
369.306	418.63
369.688	394
370.069	367.79
370.45	381.57
370.831	364.17
371.212	396.03
371.593	382.25
371.974	395.13
372.355	387
372.736	394.45
373.117	404.4
373.498	402.36
373.879	395.81
374.26	384.74
374.641	372.76
375.021	383.15
375.402	394.68
375.783	414.57
376.163	429.48
376.544	410.27
376.925	427.67
377.305	435.81
377.686	429.25
378.066	436.26
378.447	432.42
378.827	435.81
379.208	463.38
379.588	431.51
379.968	441.01
380.349	451.4
380.729	444.85
381.109	425.41
381.489	446.88
381.87	459.31
382.25	452.08
382.63	468.58
383.01	490.72
383.39	471.51
383.77	490.04
384.15	495.24
384.53	502.92
384.91	499.31
385.29	495.02
385.67	498.18
386.049	530.27
386.429	532.98
386.809	526.43
387.189	526.43
387.568	525.3
387.948	527.56
388.328	533.66
388.707	552.64
389.087	540.44
389.466	542.25
389.846	561.91
390.225	569.59
390.605	565.52
390.984	574.11
391.363	600.55
391.743	607.55
392.122	608.23
392.501	610.72
392.881	622.7
393.26	618.63
393.639	623.6
394.018	620.44
394.397	638.51
394.776	660.43
395.155	641.23
395.534	643.03
395.913	685.74
396.292	654.79
396.671	677.16
397.05	694.56
397.429	678.29
397.808	700.21
398.186	697.72
398.565	703.6
398.944	713.09
399.323	709.25
399.701	703.15
400.08	746.31
400.458	738.85
400.837	772.75
401.215	766.87
401.594	782.01
401.972	801.67
402.351	772.52
402.729	805.97
403.107	796.25
403.486	823.59
403.864	838.51
404.242	838.06
404.62	877.38
404.999	862.24
405.377	875.34
405.755	873.76
406.133	881.45
406.511	901.78
406.889	918.96
407.267	921.9
407.645	940.88
408.023	972.74
408.401	975.23
408.779	955.34
409.156	993.99
409.534	1003.25
409.912	1016.36
410.29	1036.02
410.667	1065.62
411.045	1036.47
411.422	1055.45
411.8	1073.53
412.178	1118.28
412.555	1103.59
412.933	1116.92
413.31	1139.29
413.687	1167.31
414.065	1197.37
414.442	1184.49
414.819	1184.49
415.197	1232.17
415.574	1254.54
415.951	1215.22
416.328	1245.28
416.705	1260.19
417.082	1282.79
417.46	1303.58
417.837	1327.54
418.214	1304.49
418.591	1336.12
418.967	1375.9
419.344	1388.78
419.721	1387.2
420.098	1395.1
420.475	1408.44
420.852	1439.85
421.228	1446.85
421.605	1425.84
421.982	1471.71
422.358	1477.59
422.735	1483.01
423.111	1504.71
423.488	1509.68
423.864	1554.87
424.241	1558.49
424.617	1578.83
424.994	1577.7
425.37	1584.48
425.746	1610.92
426.123	1644.82
426.499	1659.73
426.875	1679.62
427.251	1717.58
427.627	1749.45
428.003	1783.57
428.379	1780.63
428.756	1800.07
429.132	1818.6
429.507	1826.28
429.883	1858.82
430.259	1860.18
430.635	1906.5
431.011	1942.43
431.387	1981.53
431.763	1973.39
432.138	2029.44
432.514	2057.01
432.89	2060.62
433.265	2096.1
433.641	2126.84
434.016	2161.86
434.392	2209.09
434.767	2230.34
435.143	2258.58
435.518	2246.38
435.894	2302.2
436.269	2316.44
436.644	2355.98
437.02	2377
437.395	2373.61
437.77	2397.79
438.145	2473.72
438.52	2475.98
438.895	2504.23
439.271	2514.85
439.646	2550.33
440.021	2572.7
440.395	2601.85
440.77	2612.47
441.145	2630.55
441.52	2659.25
441.895	2686.37
442.27	2709.19
442.645	2725.01
443.019	2787.84
443.394	2789.19
443.769	2793.49
444.143	2771.11
444.518	2867.38
444.892	2867.16
445.267	2862.18
445.641	2889.75
446.016	2926.82
446.39	2946.48
446.764	2940.83
447.139	2956.19
447.513	2983.99
447.887	3058.79
448.262	3034.84
448.636	3025.8
449.01	3077.77
449.384	3106.02
449.758	3143.99
450.132	3174.04
450.506	3173.81
450.88	3168.17
451.254	3196.64
451.628	3278.22
452.002	3299.24
452.376	3348.27
452.75	3418.33
453.123	3392.57
453.497	3491.32
453.871	3475.95
454.244	3547.59
454.618	3597.53
454.992	3633.01
455.365	3630.75
455.739	3740.58
456.112	3757.3
456.486	3798.88
456.859	3842.5
457.232	3932.21
457.606	3941.48
457.979	3972.66
458.352	4063.73
458.725	4119.33
459.099	4153
459.472	4210.62
459.845	4272.09
460.218	4310.96
460.591	4313.45
460.964	4332.65
461.337	4456.27
461.71	4508.7
462.083	4613.55
462.456	4603.83
462.829	4644.51
463.201	4710.72
463.574	4751.63
463.947	4817.39
464.32	4894.45
464.692	4965.86
465.065	5008.57
465.438	5105.06
465.81	5173.08
466.183	5204.04
466.555	5362.68
466.928	5347.99
467.3	5349.58
467.672	5406.07
468.045	5629.8
468.417	5643.13
468.789	5649
469.161	5753.18
469.534	5846.51
469.906	5971.93
470.278	6002.44
470.65	6091.93
471.022	6200.4
471.394	6281.08
471.766	6317.69
472.138	6410.57
472.51	6562.43
472.882	6712.7
473.253	6771.01
473.625	6868.18
473.997	7033.37
474.369	7017.56
474.74	7191.79
475.112	7288.06
475.484	7339.13
475.855	7539.35
476.227	7718.55
476.598	7806.24
476.97	7923.29
477.341	8150.41
477.713	8249.39
478.084	8261.36
478.455	8522.15
478.827	8603.73
479.198	8882.82
479.569	8877.85
479.94	9121
480.311	9190.83
480.682	9412.97
481.053	9570.93
481.424	9786.3
481.795	9883.02
482.166	10119.39
482.537	10137.47
482.908	10399.84
483.279	10533.4
483.65	10753.95
484.021	10946.27
484.391	11034.63
484.762	11119.14
485.133	11281.4
485.503	11495.18
485.874	11639.35
486.244	11837.09
486.615	12073.24
486.985	12217.64
487.356	12385.32
487.726	12544.42
488.097	12884.97
488.467	12887.68
488.837	13111.63
489.207	13398.4
489.578	13509.59
489.948	13550.49
490.318	13902.8
490.688	13763.37
491.058	14154.54
491.428	14356.8
491.798	14476.12
492.168	14747.3
492.538	14803.79
492.908	14970.11
493.278	15188.19
493.648	15234.51
494.017	15498.01
494.387	15547.05
494.757	15658.91
495.126	15929.86
495.496	15959.47
495.866	16103.42
496.235	16257.99
496.605	16446.46
496.974	16556.97
497.344	16673.57
497.713	16762.61
498.082	16881.93
498.452	17144.07
498.821	17297.06
499.19	17283.05
499.559	17534.79
499.928	17683.26
500.298	17696.6
500.667	17912.41
501.036	17889.81
501.405	18153.99
501.774	18160.54
502.143	18434.88
502.512	18474.2
502.88	18654.99
503.249	18717.13
503.618	18828.77
503.987	18901.08
504.356	19058.59
504.724	19053.4
505.093	19270.34
505.462	19336.33
505.83	19539.71
506.199	19706.71
506.567	19951.23
506.936	19972.24
507.304	20195.97
507.672	20239.81
508.041	20384.89
508.409	20577.2
508.777	20799.34
509.145	20977.19
509.514	21051.31
509.882	21119.11
510.25	21244.3
510.618	21535.59
510.986	21615.82
511.354	21751.63
511.722	22011.51
512.09	22251.05
512.458	22122.7
512.826	22507.54
513.193	22610.14
513.561	22719.29
513.929	22837.03
514.297	22999.51
514.664	23241.76
515.032	23253.74
515.4	23523.34
515.767	23728.53
516.135	23881.97
516.502	23768.3
516.869	24369.19
517.237	24338.23
517.604	24474.5
517.972	24846.69
518.339	24849.18
518.706	24895.96
519.073	25164.2
519.44	25298.66
519.808	25520.8
520.175	25672.88
520.542	26017.51
520.909	26166.43
521.276	26232.87
521.643	26521.45
522.009	26760.09
522.376	26926.18
522.743	27064.26
523.11	27424.93
523.477	27783.79
523.843	27863.34
524.21	28050
524.577	28286.37
524.943	28527.95
525.31	28734.95
525.676	28996.64
526.043	29250.19
526.409	29287.25
526.776	29626.68
527.142	29808.37
527.508	30012.21
527.874	30194.35
528.241	30306.89
528.607	30572.64
528.973	30850.6
529.339	30929.02
529.705	31167.66
530.071	31473.41
530.437	31534.2
530.803	31821.2
531.169	32029.55
531.535	31997.24
531.901	32178.7
532.267	32254.18
532.632	32702.53
532.998	32724
533.364	32849.64
533.73	32905.24
534.095	33199.69
534.461	33484.88
534.826	33619.57
535.192	33722.16
535.557	34098.2
535.923	34023.63
536.288	34077.86
536.653	34302.49
537.019	34322.83
537.384	34482.6
537.749	34652.54
538.114	34895.01
538.479	34856.6
538.845	35066.31
539.21	34972.53
539.575	35196.7
539.94	35269.69
540.305	35398.96
540.67	35476.92
541.034	35680.3
541.399	35873.75
541.764	35929.34
542.129	35978.15
542.494	36204.58
542.858	36232.15
543.223	36316.9
543.587	36595.76
543.952	36507.18
544.316	36711.92
544.681	36719.15
545.045	37007.95
545.41	37152.36
545.774	37220.15
546.138	37266.93
546.503	37372.46
546.867	37534.72
547.231	37941.94
547.595	37834.37
547.959	38074.59
548.324	38205.89
548.688	38369.27
549.052	38463.51
549.416	38486.11
549.779	38608.36
550.143	38701.92
550.507	39115.02
550.871	39043.15
551.235	39015.36
551.599	39403.6
551.962	39338.97
552.326	39459.41
552.689	39715.23
553.053	39490.6
553.417	39691.5
553.78	40183.69
554.143	40059.17
554.507	40160.41
554.87	40405.38
555.234	40808.76
555.597	40651.25
555.96	40808.31
556.323	41083.33
556.686	41046.94
557.05	41386.82
557.413	41495.07
557.776	41557.89
558.139	41875.85
558.502	41937.77
558.865	41991.33
559.228	42507.7
559.59	42440.35
559.953	42631.08
560.316	43050.51
560.679	43154.46
561.041	43426.99
561.404	43561.68
561.767	43811.16
562.129	43715.57
562.492	44049.8
562.854	44060.2
563.217	44198.5
563.579	44426.06
563.941	44724.59
564.304	44960.06
564.666	45193.27
565.028	45284.8
565.39	45446.6
565.753	45689.08
566.115	45940.15
566.477	45995.51
566.839	46136.3
567.201	46470.76
567.563	46501.49
567.925	46692.44
568.287	46774.93
568.648	46906.45
569.01	47142.83
569.372	47540.11
569.734	47381.01
570.095	47680.89
570.457	47811.74
570.819	47990.26
571.18	47971.51
571.542	48171.73
571.903	48277.26
572.265	48619.4
572.626	48701.43
572.987	48762.9
573.349	48867.3
573.71	48984.59
574.071	49127.86
574.432	49179.16
574.794	49517.23
575.155	49521.97
575.516	49359.95
575.877	49727.39
576.238	49757.45
576.599	49833.38
576.96	49838.12
577.32	49867.28
577.681	50103.2
578.042	50240.83
578.403	50337.77
578.763	50265.46
579.124	50363.08
579.485	50603.3
579.845	50608.05
580.206	50566.24
580.566	50683.07
580.927	50596.07
581.287	50786.8
581.648	50810.75
582.008	50888.49
582.368	50849.85
582.728	50891.66
583.089	50796.97
583.449	50996.29
583.809	50933.46
584.169	50979.11
584.529	51102.27
584.889	51261.59
585.249	51168.94
585.609	51074.02
585.969	51323.96
586.329	51170.29
586.688	51242.16
587.048	51239.67
587.408	51182.27
587.768	51180.24
588.127	51310.18
588.487	51120.35
588.846	51444.41
589.206	51207.81
589.565	51166.9
589.925	51311.76
590.284	51262.72
590.643	51329.38
591.003	51362.15
591.362	51441.47
591.721	51349.95
592.08	51386.78
592.44	51350.85
592.799	51507.46
593.158	51434.69
593.517	51372.55
593.876	51488.93
594.235	51335.26
594.593	51450.06
594.952	51569.15
595.311	51424.07
595.67	51638.98
596.029	51719.88
596.387	51676.04
596.746	51718.75
597.104	51605.76
597.463	51629.94
597.822	51791.52
598.18	51551.07
598.538	51539.77
598.897	51849.82
599.255	51523.96
599.613	52158.97
599.972	51867.45
600.33	51848.02
600.688	51877.84
601.046	51929.6
601.404	52004.62
601.762	51991.51
602.12	52142.92
602.478	52173.43
602.836	52228.12
603.194	51966.43
603.552	52081
603.91	51975.47
604.268	52208.68
604.625	51998.97
604.983	52191.96
605.341	52052.98
605.698	52212.53
606.056	52327.32
606.413	52261.11
606.771	52272.64
607.128	52415.91
607.485	52173.66
607.843	52251.39
608.2	52446.64
608.557	52575
608.914	52465.85
609.272	52675.56
609.629	52611.84
609.986	52720.53
610.343	52599.63
610.7	52818.84
611.057	52757.37
611.414	52727.54
611.771	52811.38
612.127	52868.78
612.484	52886.18
612.841	53043.69
613.198	52933.18
613.554	53002.79
613.911	53115.78
614.267	53136.12
614.624	53113.29
614.98	53111.48
615.337	53329.11
615.693	53287.3
616.05	53311.25
616.406	53360.07
616.762	53280.29
617.118	53281.65
617.475	53273.51
617.831	53293.4
618.187	53294.98
618.543	53378.14
618.899	53454.75
619.255	53435.54
619.611	53494.53
619.967	53541.53
620.323	53568.87
620.678	53460.4
621.034	53498.59
621.39	53448.65
621.746	53461.53
622.101	53756.44
622.457	53458.37
622.812	53527.52
623.168	53688.19
623.523	53687.29
623.879	53820.62
624.234	53680.74
624.589	53799.6
624.945	53769.77
625.3	53779.72
625.655	53691.81
626.01	53819.04
626.365	53726.38
626.72	53666.05
627.075	53705.37
627.43	53653.62
627.785	53519.16
628.14	53778.13
628.495	53686.16
628.85	53673.28
629.205	53605.48
629.559	53766.61
629.914	53584.01
630.269	53601.19
630.623	53552.6
630.978	53481.64
631.332	53612.04
631.687	53726.84
632.041	53499.5
632.396	53524.81
632.75	53354.87
633.104	53416.56
633.459	53323.23
633.813	53327.98
634.167	53324.81
634.521	53308.54
634.875	53312.84
635.229	53279.62
635.583	53028.32
635.937	53078.04
636.291	52946.97
636.645	52942
636.999	52847.54
637.352	52890.02
637.706	52660.65
638.06	52773.19
638.413	52666.52
638.767	52621.33
639.121	52670.82
639.474	52442.35
639.828	52439.64
640.181	52387.89
640.534	52398.74
640.888	52365.06
641.241	52183.6
641.594	52323.93
641.947	52333.2
642.301	52284.16
642.654	52303.6
643.007	52272.18
643.36	52278.96
643.713	52076.71
644.066	52229.7
644.419	52036.71
644.771	51834.68
645.124	51584.29
645.477	51575.93
645.83	51275.37
646.182	51211.65
646.535	51060.92
646.888	51091.42
647.24	51016.62
647.593	51112.89
647.945	51031.54
648.298	50823.86
648.65	50771.21
649.002	50673.58
649.355	50714.49
649.707	50695.96
650.059	50828.38
650.411	51214.59
650.763	51251.19
651.115	51581.81
651.467	51420.68
651.819	51433.34
652.171	51346.56
652.523	51263.62
652.875	51182.5
653.227	51133.01
653.578	51284.41
653.93	51281.25
654.282	51148.37
654.633	50933.91
654.985	51024.08
655.337	51141.82
655.688	50876.29
656.039	51227.47
656.391	50892.33
656.742	50933.46
657.094	50997.64
657.445	51086
657.796	50972.56
658.147	50814.37
658.498	50813.01
658.849	50745.45
659.2	50771.21
659.551	50601.72
659.902	50710.87
660.253	50662.51
660.604	50668.61
660.955	50533.25
661.306	50584.55
661.656	50512.91
662.007	50557.43
662.358	50507.94
662.708	50500.93
663.059	50471.33
663.409	50244.89
663.76	50590.42
664.11	50476.07
664.461	50488.5
664.811	50417.09
665.161	50313.14
665.511	50211.45
665.862	50260.26
666.212	50481.5
666.562	50455.96
666.912	50323.99
667.262	50232.24
667.612	50181.17
667.962	50251.67
668.312	50190.88
668.662	50386.58
669.011	50277.44
669.361	50216.42
669.711	50140.49
670.06	50073.6
670.41	49932.13
670.76	49967.84
671.109	50119.47
671.459	49922.87
671.808	49950.21
672.157	49961.29
672.507	49902.3
672.856	49852.14
673.205	49896.65
673.554	49995.18
673.904	49888.74
674.253	49921.51
674.602	49883.1
674.951	49255.54
675.3	49191.59
675.649	49835.64
675.998	49783.44
676.346	49815.07
676.695	49836.09
677.044	49514.97
677.393	49726.49
677.741	49615.08
678.09	49631.8
678.438	49543.67
678.787	49599.49
679.135	49561.52
679.484	49299.61
679.832	49380.96
680.181	49300.29
680.529	49428.87
680.877	49206.95
681.225	49131.7
681.573	49317.23
681.922	49045.6
682.27	48996.34
682.618	48951.59
682.966	48785.72
683.314	48962.44
683.661	48809.68
684.009	48571.72
684.357	48461.66
684.705	48465.28
685.053	48441.78
685.4	48410.59
685.748	48227.32
686.095	48013.54
686.443	48023.03
686.79	47902.36
687.138	48030.04
687.485	48025.29
687.832	47819.42
688.18	47955.91
688.527	47689.25
688.874	47686.99
689.221	47664.4
689.568	47463.72
689.915	47453.1
690.262	47275.25
690.609	47245.88
690.956	47048.82
691.303	47028.93
691.65	46942.38
691.997	46693.12
692.344	46543.52
692.69	46616.51
693.037	46620.36
693.383	46253.59
693.73	46400.02
694.077	46077.77
694.423	46120.93
694.769	45996.42
695.116	45866.03
695.462	45862.18
695.808	45653.15
696.155	45665.58
696.501	45491.35
696.847	45535.64
697.193	45158.25
697.539	45366.38
697.885	44963.9
698.231	44907.86
698.577	44760.74
698.923	44793.51
699.269	44499.51
699.614	44379.51
699.96	44239.85
700.306	44307.2
700.651	44097.03
700.997	43866.76
701.342	43917.15
701.688	43943.59
702.033	43670.6
702.379	43682.13
702.724	43577.5
703.069	43525.07
703.415	42999.89
703.76	43224.51
704.105	43258.41
704.45	43102.71
704.795	42851.19
705.14	42763.51
705.485	42782.26
705.83	42455.04
706.175	42659.78
706.52	42476.28
706.865	42266.8
707.209	42235.61
707.554	42087.14
707.899	42126.24
708.243	41930.31
708.588	41939.58
708.932	41669.53
709.277	41690.99
709.621	41651
709.966	41319.7
710.31	41418.23
710.654	41205.36
710.998	41156.32
711.342	41133.49
711.687	40919.26
712.031	40835.42
712.375	40686.05
712.719	40715.43
713.063	40690.57
713.407	40680.85
713.75	40411.48
714.094	40533.28
714.438	40340.07
714.782	40202.22
715.125	40097.59
715.469	40090.36
715.812	39988.89
716.156	39787.32
716.499	39779.63
716.843	39840.65
717.186	39599.75
717.53	39743.25
717.873	39566.3
718.216	39444.05
718.559	39326.31
718.902	39117.28
719.246	39238.4
719.589	39128.58
719.932	39162.93
720.275	39011.52
720.617	39054.68
720.96	38846.32
721.303	38822.37
721.646	38978.07
721.989	38694.24
722.331	38707.8
722.674	38447.46
723.016	38540.79
723.359	38435.26
723.701	38502.38
724.044	38157.53
724.386	37891.55
724.729	38186.23
725.071	37982.17
725.413	38061.03
725.755	38049.96
726.097	37761.15
726.439	37635.51
726.782	37627.6
727.124	37806.35
727.465	37552.57
727.807	37478.9
728.149	37425.34
728.491	37268.96
728.833	37333.59
729.175	37292.47
729.516	37130.21
729.858	37132.02
730.199	37064
730.541	36990.55
730.882	37042.75
731.224	37006.82
731.565	36741.29
731.906	36671.69
732.248	36709.88
732.589	36424.01
732.93	36284.36
733.271	36384.47
733.612	36365.26
733.953	36379.04
734.294	36269.22
734.635	36145.6
734.976	36189.22
735.317	36075.1
735.658	35964.82
735.999	35905.38
736.339	35892.28
736.68	36030.35
737.021	35903.35
737.361	35674.2
737.702	35753.52
738.042	35686.41
738.383	35506.3
738.723	35601.21
739.063	35241.45
739.404	35412.97
739.744	35474.89
740.084	35177.95
740.424	35195.12
740.764	35097.95
741.104	35189.24
741.444	34972.53
741.784	34942.47
742.124	34965.97
742.464	34885.52
742.804	34726.66
743.143	34694.79
743.483	34734.57
743.823	34577.96
744.162	34470.62
744.502	34584.74
744.841	34298.65
745.181	34327.57
745.52	34268.14
745.86	34270.17
746.199	34291.19
746.538	34082.61
746.877	33969.62
747.216	34092.55
747.556	33961.48
747.895	33869.96
748.234	33868.15
748.573	33739.79
748.911	33712.9
749.25	33650.75
749.589	33529.17
749.928	33490.53
750.267	33567.37
750.605	33267.03
750.944	33321.27
751.283	33205.12
751.621	33202.86
751.96	33100.94
752.298	32927.61
752.636	33158.79
752.975	33003.31
753.313	32837.67
753.651	32947.72
753.989	32696.43
754.327	32619.82
754.666	32493.04
755.004	32577.79
755.342	32554.51
755.679	32523.33
756.017	32273.84
756.355	32352.48
756.693	32225.25
757.031	32167.85
757.368	32017.35
757.706	31971.48
758.044	31777.36
758.381	31844.93
758.719	31715.66
759.056	31599.73
759.394	31590.47
759.731	31306.86
760.068	31172.4
760.405	31138.28
760.743	31024.38
761.08	31006.3
761.417	30960.65
761.754	30747.33
762.091	30625.75
762.428	30574.45
762.765	30310.5
763.102	30452.65
763.438	30290.16
763.775	30154.35
764.112	30228.7
764.449	30119.32
764.785	30057.4
765.122	29834.13
765.458	29616.51
765.795	29706.68
766.131	29711.87
766.467	29534.7
766.804	29442.5
767.14	29347.82
767.476	29241.6
767.812	29245.67
768.148	29343.52
768.485	29147.14
768.821	28975.62
769.157	28830.09
769.492	28763.2
769.828	28786.02
770.164	28529.76
770.5	28442.75
770.836	28349.65
771.171	28104.91
771.507	28096.78
771.842	27871.02
772.178	27905.59
772.513	27742.66
772.849	27643.45
773.184	27453.4
773.519	27447.3
773.855	27307.87
774.19	27222.67
774.525	27198.72
774.86	27139.06
775.195	27000.76
775.53	26800.54
775.865	26806.64
776.2	26550.15
776.535	26347.44
776.87	26428.12
777.205	26301.57
777.539	26096.38
777.874	26185.19
778.209	26001.92
778.543	25857.51
778.878	25756.95
779.212	25655.94
779.547	25537.07
779.881	25616.84
780.215	25420.24
780.55	25386.79
780.884	25172.56
781.218	25087.14
781.552	25093.92
781.886	25067.93
782.22	24745
782.554	24653.48
782.888	24526.93
783.222	24448.06
783.556	24292.36
783.889	24344.11
784.223	24252.81
784.557	24191.12
784.89	24178.23
785.224	23973.04
785.557	23798.81
785.891	23849.2
786.224	23722.2
786.558	23813.05
786.891	23490.12
787.224	23507.74
787.557	23342.1
787.891	23417.58
788.224	23280.86
788.557	23276.34
788.89	23193.63
789.223	23089.45
789.556	22971.71
789.888	22889.68
790.221	22893.97
790.554	22624.6
790.887	22658.05
791.219	22613.98
791.552	22562.68
791.884	22373.76
792.217	22389.58
792.549	22264.84
792.882	22089.02
793.214	21999.08
793.546	22098.51
793.879	21891.29
794.211	21772.42
794.543	21822.14
794.875	21630.28
795.207	21739.88
795.539	21631.63
795.871	21570.85
796.203	21346.67
796.535	21335.82
796.867	21129.5
797.198	21056.96
797.53	21129.27
797.862	20872.78
798.193	20953.91
798.525	20869.39
798.856	20922.05
799.188	20673.47
799.519	20656.97
799.85	20446.13
800.182	20528.39
800.513	20498.56
800.844	20162.29
801.175	20335.62
801.506	20358.22
801.837	20153.48
802.168	20190.99
802.499	20053.82
802.83	19990.32
803.161	20031
803.491	19952.58
803.822	19837.56
804.153	19767.5
804.483	19501.07
804.814	19513.72
805.145	19518.24
805.475	19487.96
805.805	19448.64
806.136	19429.21
806.466	19314.18
806.796	19311.7
807.126	19234.86
807.457	19199.61
807.787	19113.06
808.117	19070.8
808.447	18907.86
808.777	19019.05
809.107	18908.77
809.436	18835.78
809.766	18838.26
810.096	18704.71
810.426	18637.82
810.755	18585.84
811.085	18552.85
811.414	18462.45
811.744	18325.51
812.073	18431.94
812.403	18309.01
812.732	18153.31
813.061	18354.43
813.39	18157.83
813.719	18148.11
814.049	18239.63
814.378	18218.39
814.707	18088
815.036	18043.71
815.365	17923.71
815.693	17710.16
816.022	17756.93
816.351	17637.39
816.68	17608.46
817.008	17667.45
817.337	17549.26
817.665	17462.7
817.994	17599.42
818.322	17507
818.651	17336.61
818.979	17258.42
819.307	17394.23
819.636	17277.17
819.964	17118.76
820.292	17222.03
820.62	17216.61
820.948	17089.61
821.276	17057.74
821.604	17135.93
821.932	17148.59
822.259	17132.09
822.587	17101.13
822.915	17127.8
823.243	17226.55
823.57	17057.97
823.898	17081.7
824.225	17016.16
824.553	16987.69
824.88	16992.43
825.207	16995.6
825.535	16990.17
825.862	17114.24
826.189	17013.68
826.516	17104.52
826.843	17137.97
827.17	17101.58
827.497	17059.55
827.824	17047.8
828.151	16977.07
828.478	16989.72
828.805	17045.77
829.131	16964.41
829.458	16979.33
829.785	16842.61
830.111	16821.37
830.438	16953.79
830.764	16916.05
831.09	16961.93
831.417	16878.99
831.743	16868.14
832.069	16841.93
832.395	16830.63
832.722	16904.75
833.048	16788.6
833.374	16868.82
833.7	16787.47
834.026	16814.36
834.351	16774.59
834.677	16785.43
835.003	16747.02
835.329	16807.58
835.654	16733.46
835.98	16687.36
836.306	16708.83
836.631	16580.47
836.956	16697.75
837.282	16579.79
837.607	16470.87
837.932	16427.48
838.258	16528.49
838.583	16567.14
838.908	16355.84
839.233	16423.86
839.558	16424.54
839.883	16282.62
840.208	16291.21
840.533	16248.5
840.858	16218.22
841.182	16224.77
841.507	16275.17
841.832	16200.14
842.156	16170.08
842.481	16108.62
842.805	16119.92
843.13	16136.64
843.454	16151.33
843.778	16060.48
844.103	15968.05
844.427	15952.91
844.751	16008.05
845.075	15947.72
845.399	15888.28
845.723	15736.65
846.047	15760.38
846.371	15600.38
846.695	15596.31
847.019	15495.75
847.343	15448.97
847.666	15403.78
847.99	15204.01
848.313	15286.94
848.637	15277.45
848.96	15209.2
849.284	15170.34
849.607	15080.17
849.931	14963.56
850.254	14783.45
850.577	14806.73
850.9	14728.54
851.223	14687.64
851.546	14639.73
851.869	14629.78
852.192	14585.49
852.515	14471.6
852.838	14406.74
853.161	14399.51
853.483	14393.41
853.806	14357.93
854.129	14287.42
854.451	14220.3
854.774	14213.52
855.096	14122
855.419	14075.45
855.741	14119.29
856.063	13938.5
856.385	14021.44
856.708	13964.27
857.03	13930.37
857.352	13914.32
857.674	13884.04
857.996	13781.45
858.318	13788.23
858.64	13671.84
858.961	13685.4
859.283	13655.8
859.605	13639.53
859.926	13698.96
860.248	13519.53
860.57	13563.15
860.891	13549.14
861.212	13437.05
861.534	13510.72
861.855	13487.44
862.176	13536.93
862.498	13390.27
862.819	13366.32
863.14	13355.69
863.461	13288.58
863.782	13404.96
864.103	13324.06
864.424	13326.32
864.745	13276.37
865.065	13209.03
865.386	13154.57
865.707	13144.4
866.027	13179.65
866.348	13108.02
866.668	13126.77
866.989	13137.39
867.309	13035.02
867.63	13042.03
867.95	13047.23
868.27	12946.44
868.59	13021.24
868.91	13005.65
869.23	12815.14
869.55	12879.55
869.87	12873.9
870.19	12934.46
870.51	12885.2
870.83	12905.76
871.15	12766.78
871.469	12872.32
871.789	12822.6
872.109	12843.84
872.428	12760.91
872.748	12785.77
873.067	12769.04
873.386	12756.84
873.706	12709.38
874.025	12701.47
874.344	12618.31
874.663	12709.16
874.982	12721.81
875.301	12639.33
875.62	12678.65
875.939	12564.75
876.258	12560.01
876.577	12548.26
876.896	12554.13
877.214	12473.91
877.533	12514.81
877.852	12513.46
878.17	12450.86
878.489	12467.36
878.807	12371.77
879.125	12400.92
879.444	12353.91
879.762	12310.98
880.08	12401.82
880.398	12281.82
880.716	12344.65
881.034	12360.24
881.352	12315.5
881.67	12229.62
881.988	12321.6
882.306	12275.72
882.624	12250.86
882.941	12198.44
883.259	12096.74
883.577	12138.32
883.894	12096.74
884.212	12082.28
884.529	12116.86
884.846	12015.16
885.164	12045.45
885.481	11964.54
885.798	11936.3
886.115	11922.29
886.432	11950.08
886.75	11927.26
887.067	11937.88
887.383	11899.24
887.7	11893.36
888.017	11880.48
888.334	11820.14
888.651	11820.59
888.967	11694.04
889.284	11629.64
889.6	11674.38
889.917	11645.68
890.233	11583.54
890.55	11575.4
890.866	11513.93
891.182	11519.36
891.498	11507.83
891.815	11440.49
892.131	11394.39
892.447	11368.4
892.763	11407.95
893.079	11388.51
893.395	11321.4
893.71	11296.54
894.026	11233.49
894.342	11236.2
894.657	11147.39
894.973	11228.29
895.289	11151.01
895.604	11193.04
895.92	11129.54
896.235	11084.34
896.55	11129.99
896.865	11079.6
897.181	10965.7
897.496	10962.54
897.811	10866.04
898.126	10842.31
898.441	10899.94
898.756	10781.07
899.071	10730.45
899.386	10777
899.7	10663.79
900.015	10582.43
900.33	10512.38
900.644	10525.26
900.959	10500.18
901.273	10543.79
901.588	10473.96
901.902	10443
902.216	10392.83
902.531	10458.6
902.845	10393.29
903.159	10318.26
903.473	10287.53
903.787	10227.41
904.101	10186.29
904.415	10171.37
904.729	10134.76
905.042	10101.09
905.356	10057.93
905.67	10017.48
905.984	10077.81
906.297	10028.78
906.611	9976.57
906.924	9958.04
907.237	9870.81
907.551	9849.57
907.864	9844.83
908.177	9805.28
908.491	9785.39
908.804	9672.85
909.117	9711.5
909.43	9617.04
909.743	9601.22
910.056	9605.74
910.368	9578.84
910.681	9523.48
910.994	9476.02
911.307	9419.07
911.619	9349.92
911.932	9384.5
912.244	9323.71
912.557	9359.19
912.869	9283.71
913.181	9266.08
913.494	9235.35
913.806	9129.82
914.118	9078.52
914.43	9069.25
914.742	9082.59
915.054	9042.59
915.366	8983.38
915.678	8978.63
915.99	8909.03
916.302	8824.06
916.613	8867
916.925	8821.12
917.236	8774.35
917.548	8718.53
917.859	8721.69
918.171	8688.92
918.482	8617.74
918.794	8551.07
919.105	8608.7
919.416	8462.49
919.727	8491.19
920.038	8419.1
920.349	8387.24
920.66	8353.57
920.971	8375.49
921.282	8307.47
921.593	8255.04
921.903	8323.74
922.214	8239.9
922.525	8201.93
922.835	8153.34
923.146	8109.05
923.456	8093.01
923.767	8088.71
924.077	8005.33
924.387	8017.76
924.697	7950.19
925.008	7962.39
925.318	7919.45
925.628	7844.2
925.938	7832.9
926.248	7766.01
926.558	7706.8
926.867	7707.25
927.177	7675.62
927.487	7614.6
927.796	7528.73
928.106	7596.52
928.416	7554.26
928.725	7468.62
929.034	7481.72
929.344	7505.23
929.653	7412.35
929.962	7408.51
930.271	7361.73
930.581	7329.64
930.89	7294.16
931.199	7289.19
931.508	7253.03
931.817	7229.75
932.125	7286.93
932.434	7145.91
932.743	7101.62
933.051	7098.91
933.36	7152.92
933.669	6996.09
933.977	7012.81
934.286	7006.93
934.594	7003.32
934.902	6943.66
935.21	6880.16
935.519	6904.34
935.827	6873.6
936.135	6828.63
936.443	6796.09
936.751	6780.05
937.059	6747.28
937.367	6731.24
937.674	6719.48
937.982	6695.3
938.29	6627.96
938.597	6684.91
938.905	6582.54
939.213	6573.05
939.52	6537.12
939.827	6535.53
940.135	6537.57
940.442	6481.07
940.749	6493.28
941.056	6474.97
941.363	6379.15
941.67	6415.31
941.977	6372.6
942.284	6343.9
942.591	6285.15
942.898	6233.17
943.205	6236.11
943.511	6207.86
943.818	6167.18
944.125	6140.74
944.431	6086.28
944.738	6090.8
945.044	6091.48
945.35	6073.85
945.657	5993.4
945.963	5975.32
946.269	5960.63
946.575	5994.53
946.881	5898.04
947.187	5885.16
947.493	5883.12
947.799	5891.26
948.105	5818.04
948.41	5785.5
948.716	5814.42
949.022	5790.7
949.327	5718.38
949.633	5699.62
949.938	5673.41
950.244	5692.62
950.549	5590.47
950.854	5608.55
951.16	5600.87
951.465	5632.51
951.77	5542.11
952.075	5544.6
952.38	5490.82
952.685	5518.16
952.99	5480.87
953.294	5412.63
953.599	5370.37
953.904	5352.29
954.209	5342.12
954.513	5351.84
954.818	5368.79
955.122	5350.48
955.426	5295.79
955.731	5236.36
956.035	5206.08
956.339	5188.68
956.643	5187.55
956.948	5149.81
957.252	5087.21
957.556	5128.34
957.86	5093.31
958.163	5089.7
958.467	5053.54
958.771	5052.41
959.075	5055.12
959.378	4991.62
959.682	4955.01
959.985	4954.56
960.289	4945.52
960.592	4911.4
960.896	4901.23
961.199	4837.05
961.502	4858.97
961.805	4814.68
962.108	4820.33
962.411	4852.41
962.714	4767.22
963.017	4790.95
963.32	4767.9
963.623	4746.88
963.926	4752.3
964.228	4696.49
964.531	4635.92
964.833	4605.42
965.136	4614.91
965.438	4629.82
965.741	4581.91
966.043	4562.25
966.345	4569.26
966.648	4534.01
966.95	4535.59
967.252	4484.74
967.554	4459.66
967.856	4430.73
968.158	4389.6
968.46	4449.94
968.761	4353.44
969.063	4399.77
969.365	4307.34
969.666	4343.05
969.968	4297.85
970.269	4271.64
970.571	4291.75
970.872	4293.33
971.174	4247.46
971.475	4194.35
971.776	4207.23
972.077	4206.78
972.378	4140.12
972.679	4114.58
972.98	4148.25
973.281	4145.54
973.582	4113.9
973.883	4065.54
974.183	4046.79
974.484	4043.4
974.785	4012.89
975.085	4014.24
975.386	4033.45
975.686	3981.25
975.986	4002.49
976.287	3960.23
976.587	3923.85
976.887	3875.27
977.187	3909.39
977.487	3900.58
977.787	3844.31
978.087	3861.93
978.387	3863.74
978.687	3819.22
978.987	3811.54
979.286	3813.35
979.586	3748.04
979.885	3735.61
980.185	3736.29
980.484	3690.86
980.784	3720.02
981.083	3686.34
981.382	3644.99
981.682	3676.4
981.981	3672.33
982.28	3607.25
982.579	3587.36
982.878	3592.79
983.177	3599.11
983.475	3568.61
983.774	3500.36
984.073	3497.65
984.372	3505.33
984.67	3501.94
984.969	3448.38
985.267	3474.6
985.566	3440.25
985.864	3411.32
986.162	3411.32
986.461	3388.05
986.759	3433.92
987.057	3381.94
987.355	3357.09
987.653	3363.87
987.951	3351.21
988.249	3341.72
988.547	3332.45
988.844	3305.56
989.142	3320.25
989.44	3236.19
989.737	3267.37
990.035	3237.32
990.332	3235.96
990.63	3226.02
990.927	3205.9
991.224	3192.12
991.521	3165.68
991.819	3150.76
992.116	3149.18
992.413	3074.83
992.71	3101.05
993.006	3105.34
993.303	3088.85
993.6	3014.27
993.897	3033.03
994.193	3012.92
994.49	2994.84
994.787	2998.45
995.083	2958.91
995.379	3007.49
995.676	2984.22
995.972	3002.07
996.268	2925.46
996.565	2909.19
996.861	2937.66
997.157	2925.01
997.453	2860.83
997.749	2818.12
998.044	2823.77
998.34	2816.76
998.636	2826.71
998.932	2786.93
999.227	2767.5
999.523	2783.77
999.818	2775.18
1000.114	2780.15
1000.409	2773.83
1000.704	2739.93
1001	2717.33
1001.295	2662.87
1001.59	2639.82
1001.885	2664.45
1002.18	2633.49
1002.475	2634.85
1002.77	2651.57
1003.065	2595.3
1003.359	2610.44
1003.654	2568.63
1003.949	2544.68
1004.243	2543.1
1004.538	2572.7
1004.832	2529.09
1005.127	2504.91
1005.421	2493.83
1005.715	2483.21
1006.009	2493.15
1006.304	2466.94
1006.598	2407.28
1006.892	2406.83
1007.186	2365.7
1007.48	2385.59
1007.773	2403.44
1008.067	2389.88
1008.361	2373.38
1008.655	2359.37
1008.948	2320.96
1009.242	2339.26
1009.535	2304.01
1009.829	2282.54
1010.122	2297.23
1010.415	2282.09
1010.708	2245.93
1011.001	2235.99
1011.295	2236.66
1011.588	2198.25
1011.881	2200.96
1012.173	2161.64
1012.466	2203.44
1012.759	2139.94
1013.052	2137.91
1013.344	2112.6
1013.637	2114.86
1013.93	2127.97
1014.222	2080.74
1014.514	2091.13
1014.807	2067.4
1015.099	2035.09
1015.391	2051.36
1015.683	2013.85
1015.976	2017.01
1016.268	2022.66
1016.56	2009.1
1016.851	2000.74
1017.143	1952.6
1017.435	1942.89
1017.727	1941.08
1018.018	1923.9
1018.31	1915.77
1018.602	1934.53
1018.893	1922.55
1019.185	1865.37
1019.476	1890.91
1019.767	1869.89
1020.058	1857.92
1020.35	1836.45
1020.641	1824.92
1020.932	1775.21
1021.223	1788.09
1021.514	1829.67
1021.804	1762.33
1022.095	1737.69
1022.386	1742.89
1022.677	1696.11
1022.967	1721.88
1023.258	1705.83
1023.548	1708.54
1023.839	1683.46
1024.129	1673.29
1024.419	1683.46
1024.709	1650.69
1025	1659.5
1025.29	1629.9
1025.58	1612.05
1025.87	1575.44
1026.16	1609.34
1026.449	1599.84
1026.739	1568.21
1027.029	1564.59
1027.319	1549
1027.608	1554.42
1027.898	1539.73
1028.187	1503.58
1028.477	1525.27
1028.766	1516.91
1029.055	1476.91
1029.344	1517.81
1029.634	1488.89
1029.923	1462.45
1030.212	1418.83
1030.501	1452.73
1030.79	1443.92
1031.078	1410.47
1031.367	1388.78
1031.656	1399.17
1031.945	1378.38
1032.233	1406.18
1032.522	1392.84
1032.81	1345.61
1033.099	1360.53
1033.387	1320.3
1033.675	1337.7
1033.963	1328.67
1034.251	1316.24
1034.54	1295.22
1034.828	1302.9
1035.116	1269.91
1035.403	1259.74
1035.691	1283.47
1035.979	1288.21
1036.267	1263.81
1036.554	1244.37
1036.842	1225.84
1037.129	1240.76
1037.417	1212.06
1037.704	1233.75
1037.992	1198.73
1038.279	1203.7
1038.566	1204.38
1038.853	1204.38
1039.14	1204.38
