Data from aluminium_surface_pro_back_FLMS001491_00059.txt Node
Date: Wed Feb 08 15:34:16 GMT 2017
User: dcchb
Spectrometer: FLMS00149
Trigger mode: 0
Integration Time (sec): 2.000000E-2
Scans to average: 10
Electric dark correction enabled: true
Nonlinearity correction enabled: false
Boxcar width: 0
XAxis mode: Wavelengths
Number of Pixels in Spectrum: 2048
>>>>>Begin Spectral Data<<<<<
341.393	-16.47
341.776	-16.47
342.16	-16.47
342.543	-53.3
342.927	-62.12
343.31	-56.24
343.693	-46.3
344.077	-66.86
344.46	-62.79
344.843	-58.95
345.226	-38.16
345.61	-25.96
345.993	-24.6
346.376	-10.14
346.759	-9.46
347.142	8.39
347.525	51.33
347.908	73.02
348.291	58.78
348.674	97.43
349.057	110.53
349.44	130.19
349.823	137.65
350.206	188.05
350.588	231.43
350.971	233.02
351.354	250.42
351.737	254.94
352.119	299
352.502	277.76
352.884	268.72
353.267	314.14
353.65	329.29
354.032	340.13
354.414	345.33
354.797	351.66
355.179	337.87
355.562	347.14
355.944	372.9
356.326	369.51
356.709	358.66
357.091	373.35
357.473	368.38
357.855	395.5
358.238	372
358.62	362.73
359.002	372
359.384	369.28
359.766	372.45
360.148	369.74
360.53	373.35
360.912	364.09
361.294	364.99
361.676	378.55
362.057	351.66
362.439	380.13
362.821	382.84
363.203	367.7
363.584	382.84
363.966	362.96
364.348	375.61
364.729	351.21
365.111	379.45
365.493	355.27
365.874	387.59
366.256	359.11
366.637	367.48
367.019	376.74
367.4	373.8
367.781	381.04
368.163	363.63
368.544	352.56
368.925	354.37
369.306	370.87
369.688	378.55
370.069	398.44
370.45	378.55
370.831	371.32
371.212	380.81
371.593	387.59
371.974	396.85
372.355	376.52
372.736	376.29
373.117	406.8
373.498	382.62
373.879	389.62
374.26	375.84
374.641	379.68
375.021	361.6
375.402	411.77
375.783	382.62
376.163	417.64
376.544	433.01
376.925	386.91
377.305	400.47
377.686	425.78
378.066	409.28
378.447	422.84
378.827	427.14
379.208	427.14
379.588	459.23
379.968	439.79
380.349	443.63
380.729	445.44
381.109	455.16
381.489	450.19
381.87	447.25
382.25	442.73
382.63	478.43
383.01	485.67
383.39	481.37
383.77	472.11
384.15	477.08
384.53	449.73
384.91	466
385.29	479.34
385.67	494.48
386.049	494.48
386.429	513.69
386.809	496.06
387.189	497.64
387.568	509.62
387.948	524.53
388.328	507.13
388.707	538.55
389.087	539.9
389.466	536.51
389.846	529.05
390.225	536.96
390.605	565.21
390.984	574.7
391.363	567.24
391.743	573.35
392.122	584.42
392.501	588.04
392.881	575.83
393.26	595.04
393.639	629.16
394.018	633.68
394.397	635.49
394.776	635.94
395.155	638.88
395.534	644.53
395.913	626
396.292	650.41
396.671	658.99
397.05	668.94
397.429	690.63
397.808	683.4
398.186	677.07
398.565	707.58
398.944	712.55
399.323	701.03
399.701	698.31
400.08	720.46
400.458	739.67
400.837	715.94
401.215	754.58
401.594	741.03
401.972	754.81
402.351	772.44
402.729	765.88
403.107	803.62
403.486	803.85
403.864	806.33
404.242	809.95
404.62	849.05
404.999	842.94
405.377	850.63
405.755	854.7
406.133	858.76
406.511	863.28
406.889	886.56
407.267	895.6
407.645	892.66
408.023	895.15
408.401	915.94
408.779	943.05
409.156	952.77
409.534	973.34
409.912	982.15
410.29	974.92
410.667	1004.07
411.045	1025.09
411.422	1044.07
411.8	1046.55
412.178	1054.24
412.555	1077.51
412.933	1103.28
413.31	1113.67
413.687	1122.26
414.065	1118.42
414.442	1159.32
414.819	1167
415.197	1182.6
415.574	1181.24
415.951	1216.27
416.328	1219.43
416.705	1213.1
417.082	1218.75
417.46	1260.33
417.837	1265.53
418.214	1259.88
418.591	1275.47
418.967	1271.86
419.344	1296.27
419.721	1309.37
420.098	1316.15
420.475	1326.77
420.852	1353.66
421.228	1386.88
421.605	1414
421.982	1407.45
422.358	1431.18
422.735	1430.95
423.111	1436.37
423.488	1475.24
423.864	1497.16
424.241	1474.34
424.617	1506.66
424.994	1532.42
425.37	1539.2
425.746	1547.33
426.123	1586.88
426.499	1612.19
426.875	1614.22
427.251	1600.44
427.627	1664.39
428.003	1670.49
428.379	1708.01
428.756	1715.92
429.132	1778.51
429.507	1749.81
429.883	1755.46
430.259	1800.21
430.635	1835.91
431.011	1857.83
431.387	1920.88
431.763	1908
432.138	1926.98
432.514	1962.01
432.89	1990.26
433.265	2015.34
433.641	2040.88
434.016	2077.26
434.392	2092.4
434.767	2129.92
435.143	2139.63
435.518	2132.4
435.894	2203.13
436.269	2221.66
436.644	2225.96
437.02	2281.1
437.395	2281.1
437.77	2307.54
438.145	2328.33
438.52	2390.93
438.895	2412.85
439.271	2406.07
439.646	2465.05
440.021	2481.09
440.395	2458.27
440.77	2470.02
441.145	2516.12
441.52	2563.8
441.895	2593.63
442.27	2603.12
442.645	2613.07
443.019	2655.33
443.394	2614.2
443.769	2654.65
444.143	2662.11
444.518	2692.61
444.892	2671.14
445.267	2711.14
445.641	2745.49
446.016	2735.1
446.39	2765.83
446.764	2819.84
447.139	2802.67
447.513	2888.99
447.887	2855.55
448.262	2867.3
448.636	2879.27
449.01	2964.47
449.384	2969.67
449.758	2980.51
450.132	3027.97
450.506	3067.29
450.88	3107.29
451.254	3117.46
451.628	3156.33
452.002	3181.87
452.376	3201.3
452.75	3242.2
453.123	3268.87
453.497	3296.44
453.871	3343.67
454.244	3406.27
454.618	3418.7
454.992	3474.97
455.365	3480.39
455.739	3608.29
456.112	3639.71
456.486	3606.71
456.859	3651.23
457.232	3782.08
457.606	3695.98
457.979	3748.18
458.352	3870.43
458.725	3881.06
459.099	3967.61
459.472	4046.02
459.845	4079.02
460.218	4095.74
460.591	4123.08
460.964	4167.6
461.337	4280.37
461.71	4348.16
462.083	4373.47
462.456	4387.26
462.829	4451.66
463.201	4533.92
463.574	4521.94
463.947	4605.78
464.32	4730.53
464.692	4748.6
465.065	4760.58
465.438	4816.17
465.81	4907.24
466.183	4968.71
466.555	5090.74
466.928	5052.32
467.3	5135.49
467.672	5211.87
468.045	5326.89
468.417	5337.52
468.789	5385.42
469.161	5457.96
469.534	5553.55
469.906	5710.61
470.278	5747.9
470.65	5841.46
471.022	5904.51
471.394	6026.99
471.766	6091.62
472.138	6125.06
472.51	6271.95
472.882	6354.44
473.253	6400.54
473.625	6486.86
473.997	6628.1
474.369	6710.59
474.74	6809.57
475.112	6991.03
475.484	7000.97
475.855	7159.16
476.227	7272.38
476.598	7393.73
476.97	7502.2
477.341	7653.61
477.713	7738.13
478.084	7861.74
478.455	8015.86
478.827	8111.45
479.198	8388.06
479.569	8386.93
479.94	8648.61
480.311	8769.97
480.682	8821.94
481.053	9090.18
481.424	9241.14
481.795	9370.86
482.166	9468.03
482.537	9613.33
482.908	9823.95
483.279	9876.38
483.65	10105.75
484.021	10310.49
484.391	10407.21
484.762	10587.32
485.133	10651.5
485.503	10809.46
485.874	11055.1
486.244	11075.22
486.615	11365.83
486.985	11388.2
487.356	11712.04
487.726	11759.72
488.097	12099.37
488.467	12058.47
488.837	12307.73
489.207	12496.87
489.578	12673.37
489.948	12697.32
490.318	13010.31
490.688	13045.33
491.058	13185.44
491.428	13474.25
491.798	13528.94
492.168	13851.64
492.538	13916.27
492.908	14053.22
493.278	14355.13
493.648	14286.21
494.017	14567.33
494.387	14620.43
494.757	14776.14
495.126	15042.34
495.496	15027.88
495.866	15235.56
496.235	15318.72
496.605	15519.39
496.974	15590.8
497.344	15792.83
497.713	15901.76
498.082	15963
498.452	16192.14
498.821	16301.52
499.19	16355.3
499.559	16524.11
499.928	16605.69
500.298	16721.4
500.667	16946.93
501.036	16905.8
501.405	17177.88
501.774	17151.89
502.143	17367.03
502.512	17443.64
502.88	17632.11
503.249	17600.47
503.618	17669.85
503.987	17943.29
504.356	18071.64
504.724	18174.69
505.093	18299.66
505.462	18332.65
505.83	18431.18
506.199	18599.54
506.567	18894.67
506.936	18884.73
507.304	19144.84
507.672	19095.8
508.041	19323.36
508.409	19380.76
508.777	19561.32
509.145	19717.48
509.514	19829.56
509.882	19962.67
510.25	20027.3
510.618	20185.71
510.986	20317.91
511.354	20525.82
511.722	20767.62
512.09	20905.02
512.458	20970.1
512.826	21165.12
513.193	21308.62
513.561	21366.02
513.929	21530.08
514.297	21793.58
514.664	21926.46
515.032	22086
515.4	22236.51
515.767	22371.87
516.135	22378.87
516.502	22413.45
516.869	22869.03
517.237	22924.17
517.604	22969.37
517.972	23241
518.339	23484.38
518.706	23550.14
519.073	23645.96
519.44	23809.12
519.808	24133.86
520.175	24101.99
520.542	24525.94
520.909	24637.8
521.276	24671.47
521.643	24898.36
522.009	25073.95
522.376	25322.75
522.743	25510.32
523.11	25705.12
523.477	26021.04
523.843	26134.71
524.21	26495.15
524.577	26618.31
524.943	26808.36
525.31	27006.1
525.676	27265.75
526.043	27500.32
526.409	27553.88
526.776	27899.41
527.142	27893.53
527.508	28230.47
527.874	28473.18
528.241	28535.32
528.607	28736.45
528.973	28910.45
529.339	29066.83
529.705	29399.93
530.071	29568.06
530.437	29677.89
530.803	29857.77
531.169	30015.74
531.535	30056.19
531.901	30080.82
532.267	30415.5
532.632	30557.64
532.998	30622.27
533.364	30860.01
533.73	30845.09
534.095	31188.36
534.461	31220
534.826	31403.5
535.192	31581.57
535.557	31789.02
535.923	31692.53
536.288	31883.03
536.653	32050.03
537.019	32180.2
537.384	32313.3
537.749	32390.14
538.114	32652.73
538.479	32692.05
538.845	32842.55
539.21	32800.3
539.575	33082.55
539.94	33113.96
540.305	33362.09
540.67	33263.56
541.034	33395.76
541.399	33508.07
541.764	33684.57
542.129	33774.28
542.494	33904
542.858	33969.08
543.223	34116.19
543.587	34425.34
543.952	34311.22
544.316	34437.99
544.681	34509.18
545.045	34773.35
545.41	34792.33
545.774	34959.79
546.138	35026.68
546.503	35004.31
546.867	35131.31
547.231	35325.43
547.595	35544.86
547.959	35727.68
548.324	35631.63
548.688	35727.22
549.052	36002.02
549.416	35996.37
549.779	36041.34
550.143	36115.91
550.507	36517.94
550.871	36430.03
551.235	36460.31
551.599	36813.75
551.962	36991.15
552.326	37060.3
552.689	37289.67
553.053	37120.63
553.417	37296.67
553.78	37829.99
554.143	37665.25
554.507	37983.21
554.87	38013.27
555.234	38383.2
555.597	38161.74
555.96	38392.47
556.323	38646.92
556.686	38693.47
557.05	39072.9
557.413	39196.29
557.776	39405.09
558.139	39387.02
558.502	39485.09
558.865	39569.61
559.228	39915.36
559.59	40114.45
559.953	40170.05
560.316	40618.85
560.679	40666.53
561.041	40899.07
561.404	41115.33
561.767	41244.82
562.129	41231.94
562.492	41733.17
562.854	41594.64
563.217	41792.6
563.579	42067.17
563.941	42163.44
564.304	42269.43
564.666	42645.01
565.028	42775.17
565.39	42861.5
565.753	43209.06
566.115	43324.09
566.477	43580.8
566.839	43602.5
567.201	43963.62
567.563	43986.44
567.925	44364.74
568.287	44505.3
568.648	44349.37
569.01	44943.03
569.372	45025.06
569.734	44992.07
570.095	45276.8
570.457	45495.78
570.819	45506.18
571.18	45625.27
571.542	45839.27
571.903	45969.67
572.265	46118.14
572.626	46303.67
572.987	46348.41
573.349	46433.61
573.71	46764.9
574.071	46864.11
574.432	46965.35
574.794	47253.7
575.155	47240.37
575.516	47226.58
575.877	47359.01
576.238	47356.3
576.599	47561.72
576.96	47704.31
577.32	47560.81
577.681	47813.01
578.042	48075.83
578.403	48025.66
578.763	48173
579.124	48269.95
579.485	48372.54
579.845	48488.02
580.206	48527.34
580.566	48570.73
580.927	48581.8
581.287	48861.57
581.648	48715.36
582.008	48874.22
582.368	48749.25
582.728	48837.84
583.089	48787.22
583.449	48877.84
583.809	48912.64
584.169	49003.26
584.529	48822.93
584.889	49134.1
585.249	49092.75
585.609	48981.34
585.969	49135.46
586.329	49035.35
586.688	49120.32
587.048	49062.02
587.408	48996.03
587.768	49197.83
588.127	49062.02
588.487	49036.25
588.846	49316.02
589.206	49004.62
589.565	49145.4
589.925	49353.76
590.284	49189.02
590.643	49412.97
591.003	49424.94
591.362	49365.28
591.721	49421.33
592.08	49394.89
592.44	49491.38
592.799	49449.12
593.158	49464.94
593.517	49572.74
593.876	49549.46
594.235	49516.92
594.593	49503.59
594.952	49671.26
595.311	49545.39
595.67	49587.65
596.029	49869
596.387	49811.6
596.746	49815.89
597.104	49680.98
597.463	49669.91
597.822	49814.54
598.18	49609.12
598.538	49721.66
598.897	49897.25
599.255	49663.36
599.613	50117.81
599.972	49782.9
600.33	49986.96
600.688	49847.98
601.046	49895.67
601.404	49976.57
601.762	49957.13
602.12	50071.48
602.478	50172.27
602.836	50052.72
603.194	49952.61
603.552	50001.88
603.91	50017.47
604.268	50149.67
604.625	50045.72
604.983	50157.35
605.341	50178.37
605.698	50336.78
606.056	50457.01
606.413	50395.31
606.771	50508.98
607.128	50517.12
607.485	50340.63
607.843	50342.21
608.2	50566.38
608.557	50614.74
608.914	50560.28
609.272	50693.84
609.629	50627.62
609.986	50874.62
610.343	50613.84
610.7	50848.63
611.057	50775.64
611.414	50830.33
611.771	50784.23
612.127	50874.17
612.484	50992.59
612.841	51009.53
613.198	50911.01
613.554	50958.24
613.911	51212.69
614.267	51259.7
614.624	51086.59
614.98	51130.89
615.337	51363.65
615.693	51382.18
616.05	51366.81
616.406	51609.29
616.762	51366.14
617.118	51458.11
617.475	51314.61
617.831	51545.57
618.187	51566.58
618.543	51537.2
618.899	51666.47
619.255	51613.59
619.611	51591.67
619.967	51741.49
620.323	51859.46
620.678	51664.43
621.034	51516.64
621.39	51606.35
621.746	51596.19
622.101	51880.47
622.457	51714.37
622.812	51793.02
623.168	51825.56
623.523	51897.87
623.879	51892.9
624.234	51736.75
624.589	51782.4
624.945	51855.84
625.3	51750.08
625.655	51746.01
626.01	51875.27
626.365	51855.61
626.72	51853.35
627.075	51863.52
627.43	51829.4
627.785	51670.53
628.14	51791.21
628.495	51717.09
628.85	51796.86
629.205	51639.8
629.559	51746.46
629.914	51606.81
630.269	51718.89
630.623	51515.28
630.978	51471.9
631.332	51614.94
631.687	51623.08
632.041	51357.1
632.396	51413.59
632.75	51205.01
633.104	51290.66
633.459	51147.38
633.813	51071.23
634.167	51182.64
634.521	51077.33
634.875	51182.41
635.229	51097.44
635.583	50939.48
635.937	51007.95
636.291	50960.27
636.645	50961.17
636.999	50776.55
637.352	50833.04
637.706	50698.13
638.06	50858.8
638.413	50749.2
638.767	50673.27
639.121	50656.78
639.474	50447.29
639.828	50523.9
640.181	50586.04
640.534	50514.86
640.888	50504.01
641.241	50285.26
641.594	50405.93
641.947	50391.47
642.301	50405.48
642.654	50403.67
643.007	50327.52
643.36	50238.26
643.713	50138.37
644.066	50269.67
644.419	49986.06
644.771	49723.47
645.124	49342.23
645.477	49418.39
645.83	49135.46
646.182	48960.77
646.535	48880.1
646.888	48974.11
647.24	48744.06
647.593	49013.65
647.945	48818.86
648.298	48608.24
648.65	48598.52
649.002	48517.4
649.355	48577.73
649.707	48576.38
650.059	48850.27
650.411	49084.39
650.763	49137.04
651.115	49547.65
651.467	49280.99
651.819	49289.13
652.171	49289.13
652.523	49139.98
652.875	49180.2
653.227	48903.6
653.578	49130.04
653.93	48933.43
654.282	48853.88
654.633	48705.19
654.985	48744.74
655.337	48747
655.688	48749.71
656.039	48905.18
656.391	48290.96
656.742	48563.27
657.094	48450.05
657.445	48579.09
657.796	48440.11
658.147	48389.72
658.498	48330.28
658.849	48460.22
659.2	48382.94
659.551	48275.14
659.902	48493.22
660.253	48438.98
660.604	48474.23
660.955	48295.71
661.306	48463.39
661.656	48279.89
662.007	48411.86
662.358	48321.92
662.708	48201.02
663.059	48321.7
663.409	47985.43
663.76	48350.4
664.11	48390.17
664.461	48280.57
664.811	48278.08
665.161	48149.5
665.511	48095.71
665.862	48209.61
666.212	48275.6
666.562	48246.22
666.912	48177.74
667.262	48111.76
667.612	48042.61
667.962	48070.18
668.312	48039.67
668.662	48171.42
669.011	48099.1
669.361	48027.24
669.711	47934.59
670.06	48016.84
670.41	47813.69
670.76	47829.51
671.109	48073.11
671.459	47823.63
671.808	47871.54
672.157	47866.34
672.507	47757.87
672.856	47705.21
673.205	47728.94
673.554	47811.88
673.904	47695.05
674.253	47862.72
674.602	47803.74
674.951	47029.98
675.3	46864.56
675.649	47433.81
675.998	47428.16
676.346	47537.31
676.695	47565.78
677.044	47181.84
677.393	47299.12
677.741	47417.99
678.09	47238.79
678.438	47253.25
678.787	47261.84
679.135	47275.62
679.484	46934.39
679.832	47190.43
680.181	46895.74
680.529	46978.68
680.877	46850.32
681.225	46736.65
681.573	46972.13
681.922	46764
682.27	46575.07
682.618	46535.53
682.966	46597.45
683.314	46745.69
683.661	46413.27
684.009	46157.23
684.357	46148.42
684.705	46032.72
685.053	46187.29
685.4	46008.31
685.748	45936.9
686.095	45842.66
686.443	45623.91
686.79	45468.89
687.138	45688.09
687.485	45584.82
687.832	45427.76
688.18	45361.1
688.527	45235.67
688.874	45331.72
689.221	45199.52
689.568	44975.57
689.915	45008.34
690.262	44890.6
690.609	44823.93
690.956	44658.52
691.303	44583.04
691.65	44413.78
691.997	44418.97
692.344	44138.08
692.69	44189.37
693.037	44214.91
693.383	43914.35
693.73	43942.15
694.077	43644.3
694.423	43924.97
694.769	43673
695.116	43492.9
695.462	43427.13
695.808	43429.62
696.155	43243.41
696.501	42959.12
696.847	42971.78
697.193	42721.84
697.539	42836.64
697.885	42486.82
698.231	42466.48
698.577	42336.54
698.923	42315.07
699.269	42153.72
699.614	41984.91
699.96	41711.7
700.306	41842.32
700.651	41593.28
700.997	41497.24
701.342	41433.06
701.688	41435.1
702.033	41319.39
702.379	41308.55
702.724	41133.86
703.069	41226.74
703.415	40778.39
703.76	40788.56
704.105	40744.95
704.45	40725.74
704.795	40545.85
705.14	40221.8
705.485	40232.19
705.83	40123.72
706.175	40072.42
706.52	40054.57
706.865	39704.3
707.209	39761.69
707.554	39573.68
707.899	39608.03
708.243	39319.9
708.588	39403.96
708.932	39064.54
709.277	39040.81
709.621	39042.84
709.966	38782.96
710.31	38976.4
710.654	38518.34
710.998	38629.97
711.342	38637.2
711.687	38377.78
712.031	38382.52
712.375	38239.47
712.719	38388.4
713.063	38128.74
713.407	38345.23
713.75	38092.36
714.094	38014.85
714.438	37712.48
714.782	37909.31
715.125	37710.68
715.469	37812.37
715.812	37504.35
716.156	37310.46
716.499	37311.36
716.843	37408.54
717.186	37155.66
717.53	37430
717.873	37219.16
718.216	37181.2
718.559	36964.71
718.902	36795.22
719.246	36852.39
719.589	36765.84
719.932	36559.07
720.275	36651.04
720.617	36560.2
720.96	36404.04
721.303	36433.87
721.646	36228.23
721.989	36098.51
722.331	36298.28
722.674	36130.15
723.016	36072.75
723.359	36084.96
723.701	35938.29
724.044	35741.69
724.386	35654.23
724.729	35548.25
725.071	35527.91
725.413	35615.36
725.755	35662.59
726.097	35346.22
726.439	35314.81
726.782	35188.48
727.124	35341.47
727.465	35104.87
727.807	35047.47
728.149	34937.87
728.491	34900.35
728.833	34938.09
729.175	34851.32
729.516	34776.97
729.858	34584.88
730.199	34588.5
730.541	34667.14
730.882	34610.19
731.224	34754.59
731.565	34424.66
731.906	34478.67
732.248	34590.31
732.589	34317.32
732.93	34229.64
733.271	34237.32
733.612	34336.3
733.953	34283.42
734.294	33954.39
734.635	33926.59
734.976	33956.42
735.317	33849.53
735.658	33702.64
735.999	33774.28
736.339	33632.14
736.68	33676.66
737.021	33569.32
737.361	33500.84
737.702	33639.14
738.042	33524.12
738.383	33302.66
738.723	33394.63
739.063	33188.99
739.404	33243.45
739.744	33157.8
740.084	33081.87
740.424	33013.4
740.764	32971.82
741.104	33111.47
741.444	32835.32
741.784	32823.57
742.124	32791.26
742.464	32716.68
742.804	32749.9
743.143	32578.38
743.483	32474.65
743.823	32318.73
744.162	32378.16
744.502	32268.78
744.841	32056.81
745.181	32184.94
745.52	32066.08
745.86	32048.23
746.199	32012.75
746.538	31977.27
746.877	31994.22
747.216	31978.85
747.556	31832.41
747.895	31686.43
748.234	31678.52
748.573	31689.82
748.911	31583.83
749.25	31549.03
749.589	31411.41
749.928	31402.82
750.267	31466.32
750.605	31411.18
750.944	31245.53
751.283	31083.05
751.621	31224.52
751.96	30902.04
752.298	30926.9
752.636	30914.7
752.975	30738.88
753.313	30746.79
753.651	30801.93
753.989	30668.83
754.327	30596.06
754.666	30554.25
755.004	30600.13
755.342	30582.73
755.679	30475.39
756.017	30247.59
756.355	30401.49
756.693	30196.97
757.031	30073.36
757.368	30053.7
757.706	30039.01
758.044	29797.44
758.381	29859.13
758.719	29636.31
759.056	29640.38
759.394	29612.36
759.731	29308.41
760.068	29486.94
760.405	29253.95
760.743	29129.43
761.08	29194.51
761.417	29077.23
761.754	28936.44
762.091	28850.8
762.428	28759.05
762.765	28518.37
763.102	28543.68
763.438	28437.7
763.775	28419.17
764.112	28298.95
764.449	28325.39
764.785	28061.89
765.122	27898.73
765.458	27756.81
765.795	27789.35
766.131	27801.78
766.467	27690.83
766.804	27387.78
767.14	27257.39
767.476	27279.54
767.812	27114.34
768.148	27123.83
768.485	27000.45
768.821	26872.54
769.157	26774.92
769.492	26699.67
769.828	26665.54
770.164	26495.6
770.5	26378.77
770.836	26475.26
771.171	26207.02
771.507	26213.8
771.842	26039.8
772.178	26075.05
772.513	25929.97
772.849	25811.78
773.184	25711.44
773.519	25791.67
773.855	25652.24
774.19	25496.08
774.525	25284.56
774.86	25312.36
775.195	25246.82
775.53	25100.16
775.865	24970.45
776.2	24808.87
776.535	24488.42
776.87	24562.77
777.205	24516.9
777.539	24303.57
777.874	24400.74
778.209	24257.02
778.543	24080.07
778.878	23990.36
779.212	23977.48
779.547	23793.75
779.881	23886.86
780.215	23680.99
780.55	23820.19
780.884	23570.03
781.218	23488.68
781.552	23489.81
781.886	23288.46
782.22	23213.88
782.554	23173.88
782.888	22880.78
783.222	22845.76
783.556	22720.33
783.889	22758.53
784.223	22587.46
784.557	22498.42
784.89	22673.78
785.224	22412.32
785.557	22277.41
785.891	22354.92
786.224	22113.8
786.558	22210.74
786.891	21897.98
787.224	21924.88
787.557	21877.42
787.891	21916.97
788.224	21793.35
788.557	21743.41
788.89	21629.29
789.223	21553.81
789.556	21393.36
789.888	21428.62
790.221	21329.64
790.554	21163.09
790.887	21156.31
791.219	21120.6
791.552	21069.08
791.884	20943.66
792.217	20858.91
792.549	20845.36
792.882	20593.84
793.214	20647.85
793.546	20593.16
793.879	20412.37
794.211	20362.43
794.543	20305.03
794.875	20352.26
795.207	20325.82
795.539	20242.66
795.871	20175.54
796.203	19962.67
796.535	19959.73
796.867	19919.28
797.198	19801.54
797.53	19738.72
797.862	19628.21
798.193	19689.23
798.525	19598.38
798.856	19539.4
799.188	19388.67
799.519	19246.98
799.85	19213.99
800.182	19208.11
800.513	19217.15
800.844	18937.38
801.175	19056.02
801.506	19037.04
801.837	18821
802.168	18768.8
802.499	18668.46
802.83	18496.27
803.161	18504.85
803.491	18443.16
803.822	18411.3
804.153	18379.21
804.483	18190.96
804.814	18263.95
805.145	18120.23
805.475	18185.54
805.805	18171.53
806.136	18036.84
806.466	18028.93
806.796	18051.31
807.126	17888.37
807.457	17813.12
807.787	17909.61
808.117	17797.98
808.447	17739
808.777	17903.51
809.107	17790.07
809.436	17752.56
809.766	17659.45
810.096	17667.13
810.426	17549.85
810.755	17529.28
811.085	17515.5
811.414	17311.21
811.744	17359.12
812.073	17260.59
812.403	17341.95
812.732	17165.68
813.061	17167.71
813.39	17170.42
813.719	17017.66
814.049	17116.41
814.378	16999.13
814.707	16875.29
815.036	16919.13
815.365	16903.09
815.693	16645.47
816.022	16678.23
816.351	16630.33
816.68	16595.3
817.008	16599.82
817.337	16512.59
817.665	16380.39
817.994	16365.7
818.322	16372.25
818.651	16313.27
818.979	16200.96
819.307	16292.48
819.636	16141.98
819.964	16077.35
820.292	16186.95
820.62	16105.14
820.948	16064.46
821.276	16130
821.604	16038.02
821.932	16075.09
822.259	16064.46
822.587	16114.18
822.915	16054.52
823.243	16134.29
823.57	16008.42
823.898	16050.68
824.225	16022.88
824.553	15977.69
824.88	16052.71
825.207	16130.23
825.535	15998.48
825.862	16088.87
826.189	16064.46
826.516	16159.38
826.843	16075.54
827.17	15974.52
827.497	16112.82
827.824	16042.32
828.151	16053.17
828.478	15926.84
828.805	16090.23
829.131	15970
829.458	15990.12
829.785	15801.87
830.111	15977.24
830.438	16029.21
830.764	16011.36
831.09	16039.15
831.417	15934.75
831.743	15995.54
832.069	15979.5
832.395	15871.93
832.722	15995.54
833.048	15930
833.374	15912.6
833.7	15868.99
834.026	15875.99
834.351	15868.54
834.677	15871.25
835.003	15753.06
835.329	15825.6
835.654	15777.01
835.98	15707.64
836.306	15674.64
836.631	15617.24
836.956	15695.89
837.282	15673.74
837.607	15576.34
837.932	15575.89
838.258	15608.66
838.583	15572.05
838.908	15366.4
839.233	15439.62
839.558	15459.51
839.883	15412.96
840.208	15395.56
840.533	15401.21
840.858	15366.86
841.182	15317.82
841.507	15250.02
841.832	15255.22
842.156	15150.36
842.481	15210.02
842.805	15125.28
843.13	15111.27
843.454	15112.4
843.778	15037.15
844.103	14990.82
844.427	15011.61
844.751	15001.89
845.075	15005.51
845.399	14905.4
845.723	14829.69
846.047	14749.7
846.371	14744.5
846.695	14614.33
847.019	14698.4
847.343	14525.97
847.666	14482.81
847.99	14411.4
848.313	14489.59
848.637	14335.24
848.96	14432.64
849.284	14304.51
849.607	14274.68
849.931	14148.58
850.254	14169.83
850.577	14048.47
850.9	13897.97
851.223	13852.55
851.546	13836.05
851.869	13791.3
852.192	13825.43
852.515	13718.99
852.838	13709.5
853.161	13725.32
853.483	13554.47
853.806	13598.09
854.129	13567.81
854.451	13421.37
854.774	13419.79
855.096	13347.02
855.419	13312.45
855.741	13392.9
856.063	13231.77
856.385	13280.36
856.708	13245.78
857.03	13087.82
857.352	13135.95
857.674	13062.96
857.996	13057.09
858.318	13001.27
858.64	13055.96
858.961	13003.98
859.283	12882.4
859.605	12825.45
859.926	12914.04
860.248	12917.88
860.57	12817.32
860.891	12788.62
861.212	12783.65
861.534	12649.87
861.855	12626.36
862.176	12729.86
862.498	12613.93
862.819	12685.57
863.14	12526.7
863.461	12575.06
863.782	12568.96
864.103	12485.35
864.424	12566.25
864.745	12496.65
865.065	12403.32
865.386	12391.57
865.707	12422.98
866.027	12475.41
866.348	12368.06
866.668	12396.54
866.989	12349.08
867.309	12422.53
867.63	12438.57
867.95	12347.05
868.27	12274.96
868.59	12291.91
868.91	12275.86
869.23	12220.27
869.55	12151.35
869.87	12187.28
870.19	12164
870.51	12160.16
870.83	12185.47
871.15	12165.36
871.469	12169.88
871.789	12161.06
872.109	12131.91
872.428	12072.71
872.748	12179.6
873.067	12144.57
873.386	12157.45
873.706	12013.95
874.025	12026.6
874.344	12004.01
874.663	12114.51
874.982	11976.89
875.301	11985.93
875.62	11940.73
875.939	11916.78
876.258	11951.8
876.577	11823.45
876.896	11896.66
877.214	11844.91
877.533	11862.54
877.852	11837.46
878.17	11804.01
878.489	11833.16
878.807	11791.81
879.125	11747.06
879.444	11677.91
879.762	11782.32
880.08	11714.07
880.398	11679.04
880.716	11698.93
881.034	11623.68
881.352	11650.57
881.67	11546.17
881.988	11550.01
882.306	11606.5
882.624	11524.47
882.941	11520.18
883.259	11475.66
883.577	11507.75
883.894	11519.95
884.212	11387.07
884.529	11373.97
884.846	11426.62
885.164	11381.2
885.481	11333.52
885.798	11342.1
886.115	11311.37
886.432	11267.3
886.75	11262.11
887.067	11248.09
887.383	11228.89
887.7	11202.22
888.017	11201.54
888.334	11206.51
888.651	11075.44
888.967	11089.45
889.284	11096.91
889.6	11045.16
889.917	10976.01
890.233	11047.65
890.55	10936.24
890.866	10927.42
891.182	10845.39
891.498	10865.28
891.815	10876.8
892.131	10837.26
892.447	10782.8
892.763	10762.68
893.079	10745.28
893.395	10627.77
893.71	10657.83
894.026	10570.15
894.342	10610.37
894.657	10532.86
894.973	10527.66
895.289	10502.12
895.604	10516.59
895.92	10423.26
896.235	10404.95
896.55	10386.65
896.865	10418.29
897.181	10279.53
897.496	10275.01
897.811	10233.21
898.126	10225.97
898.441	10252.87
898.756	10187.33
899.071	10100.1
899.386	10112.08
899.7	9978.3
900.015	10019.43
900.33	9996.6
900.644	9918.41
900.959	10028.01
901.273	10009.48
901.588	9861.24
901.902	9813.56
902.216	9785.31
902.531	9810.84
902.845	9749.83
903.159	9631.87
903.473	9707.12
903.787	9623.28
904.101	9589.61
904.415	9602.49
904.729	9584.18
905.042	9545.77
905.356	9543.28
905.67	9487.01
905.984	9478.88
906.297	9439.55
906.611	9368.14
906.924	9451.76
907.237	9307.58
907.551	9284.98
907.864	9246.79
908.177	9270.97
908.491	9196.85
908.804	9213.12
909.117	9202.05
909.43	9134.03
909.743	9103.97
910.056	9083.41
910.368	9054.93
910.681	8961.6
910.994	9012.9
911.307	8903.07
911.619	8820.81
911.932	8850.87
912.244	8858.55
912.557	8815.62
912.869	8759.57
913.181	8696.52
913.494	8700.36
913.806	8630.76
914.118	8581.5
914.43	8544.44
914.742	8620.59
915.054	8571.1
915.366	8529.07
915.678	8545.11
915.99	8454.27
916.302	8377.66
916.613	8348.06
916.925	8415.4
917.236	8333.82
917.548	8256.08
917.859	8298.12
918.171	8219.02
918.482	8174.95
918.794	8142.41
919.105	8158.23
919.416	8009.99
919.727	8106.03
920.038	8070.55
920.349	7972.7
920.66	7955.53
920.971	7923.21
921.282	7876.43
921.593	7860.84
921.903	7762.99
922.214	7762.54
922.525	7760.73
922.835	7639.83
923.146	7639.15
923.456	7662.65
923.767	7602.09
924.077	7649.54
924.387	7561.19
924.697	7563.45
925.008	7465.14
925.318	7407.07
925.628	7408.87
925.938	7373.62
926.248	7423.56
926.558	7323
926.867	7305.15
927.177	7274.64
927.487	7255.88
927.796	7227.86
928.106	7183.57
928.416	7231.7
928.725	7160.74
929.034	7114.87
929.344	7129.56
929.653	7090.69
929.962	7054.76
930.271	7047.07
930.581	7040.97
930.89	6967.08
931.199	6904.03
931.508	6925.27
931.817	6943.57
932.125	6980.18
932.434	6907.87
932.743	6836.68
933.051	6781.09
933.36	6750.13
933.669	6753.97
933.977	6752.62
934.286	6673.53
934.594	6707.2
934.902	6585.84
935.21	6644.6
935.519	6603.02
935.827	6567.54
936.135	6536.35
936.443	6492.96
936.751	6424.27
937.059	6404.15
937.367	6417.94
937.674	6410.71
937.982	6388.79
938.29	6332.07
938.597	6344.27
938.905	6302.01
939.213	6305.17
939.52	6257.26
939.827	6265.85
940.135	6201.45
940.442	6212.29
940.749	6149.02
941.056	6187.66
941.363	6021.79
941.67	6067.21
941.977	6013.88
942.284	5987.44
942.591	5954.9
942.898	6002.36
943.205	5931.85
943.511	5956.93
943.818	5905.18
944.125	5876.94
944.431	5888.24
944.738	5861.57
945.044	5836.26
945.35	5789.71
945.657	5766.66
945.963	5712.65
946.269	5742.93
946.575	5707
946.881	5688.69
947.187	5633.1
947.493	5671.07
947.799	5650.28
948.105	5580.22
948.41	5548.81
948.716	5538.64
949.022	5481.92
949.327	5508.81
949.633	5476.72
949.938	5445.31
950.244	5471.3
950.549	5429.04
950.854	5428.81
951.16	5378.87
951.465	5338.42
951.77	5343.16
952.075	5283.96
952.38	5329.61
952.685	5300.45
952.99	5271.53
953.294	5157.86
953.599	5192.21
953.904	5106.79
954.209	5131.42
954.513	5108.14
954.818	5078.76
955.122	5065.88
955.426	5066.56
955.731	5069.5
956.035	4970.52
956.339	4966.68
956.643	4969.84
956.948	4937.3
957.252	4865.66
957.556	4887.81
957.86	4843.06
958.163	4832.67
958.467	4833.12
958.771	4827.47
959.075	4819.56
959.378	4760.81
959.682	4757.64
959.985	4712.22
960.289	4643.75
960.592	4654.6
960.896	4666.8
961.199	4612.34
961.502	4629.96
961.805	4594.71
962.108	4604.65
962.411	4579.12
962.714	4569.85
963.017	4566.24
963.32	4498.67
963.623	4515.39
963.926	4477.42
964.228	4423.19
964.531	4400.14
964.833	4387.71
965.136	4358.78
965.438	4389.74
965.741	4320.37
966.043	4324.89
966.345	4312.01
966.648	4339.12
966.95	4284.21
967.252	4267.03
967.554	4268.62
967.856	4227.49
968.158	4236.98
968.46	4214.83
968.761	4239.92
969.063	4203.99
969.365	4133.7
969.666	4159.01
969.968	4102.07
970.269	4132.57
970.571	4122.18
970.872	4055.97
971.174	4029.75
971.475	4048.51
971.776	4030.88
972.077	3969.19
972.378	3976.87
972.679	3941.17
972.98	3952.01
973.281	3958.57
973.582	3904.56
973.883	3866.37
974.183	3826.37
974.484	3883.09
974.785	3810.78
975.085	3826.37
975.386	3825.24
975.686	3814.17
975.986	3829.76
976.287	3754.05
976.587	3737.11
976.887	3767.39
977.187	3742.98
977.487	3726.94
977.787	3692.36
978.087	3690.78
978.387	3705.47
978.687	3686.71
978.987	3630.89
979.286	3587.05
979.586	3598.58
979.885	3573.95
980.185	3549.31
980.484	3561.74
980.784	3565.81
981.083	3504.79
981.382	3510.9
981.682	3484.23
981.981	3504.57
982.28	3454.17
982.579	3441.97
982.878	3420.28
983.177	3443.33
983.475	3389.77
983.774	3370.11
984.073	3366.04
984.372	3362.65
984.67	3370.56
984.969	3347.51
985.267	3312.71
985.566	3333.05
985.864	3285.37
986.162	3269.55
986.461	3252.82
986.759	3282.43
987.057	3187.52
987.355	3229.32
987.653	3176.22
987.951	3177.12
988.249	3144.13
988.547	3174.41
988.844	3151.81
989.142	3095.77
989.44	3084.47
989.737	3095.54
990.035	3096.67
990.332	3061.19
990.63	3032.72
990.927	3029.1
991.224	2987.07
991.521	2997.01
991.819	3004.02
992.116	2970.8
992.413	2970.57
992.71	2951.14
993.006	2925.83
993.303	2935.77
993.6	2940.29
993.897	2899.39
994.193	2875.88
994.49	2865.04
994.787	2849.9
995.083	2801.31
995.379	2816.68
995.676	2815.32
995.972	2803.57
996.268	2789.79
996.565	2753.4
996.861	2777.58
997.157	2743.91
997.453	2734.19
997.749	2714.99
998.044	2714.53
998.34	2684.48
998.636	2659.85
998.932	2670.92
999.227	2648.09
999.523	2632.95
999.818	2644.48
1000.114	2626.85
1000.409	2597.25
1000.704	2601.77
1001	2565.61
1001.295	2564.71
1001.59	2563.58
1001.885	2554.99
1002.18	2547.98
1002.475	2539.17
1002.77	2467.08
1003.065	2446.52
1003.359	2454.88
1003.654	2457.59
1003.949	2410.59
1004.243	2429.57
1004.538	2400.87
1004.832	2385.5
1005.127	2398.16
1005.421	2365.39
1005.715	2367.2
1006.009	2363.58
1006.304	2322.91
1006.598	2314.54
1006.892	2318.16
1007.186	2308.44
1007.48	2277.26
1007.773	2268.9
1008.067	2279.52
1008.361	2211.72
1008.655	2231.38
1008.948	2230.93
1009.242	2185.06
1009.535	2168.78
1009.829	2195.45
1010.122	2161.33
1010.415	2171.04
1010.708	2134.66
1011.001	2103.7
1011.295	2104.15
1011.588	2109.58
1011.881	2074.78
1012.173	2097.83
1012.466	2053.08
1012.759	2029.35
1013.052	2041.33
1013.344	2015.12
1013.637	2007.21
1013.93	2001.11
1014.222	2024.83
1014.514	2001.78
1014.807	1991.39
1015.099	1962.01
1015.391	1949.13
1015.683	1927.66
1015.976	1925.18
1016.268	1931.95
1016.56	1899.87
1016.851	1891.96
1017.143	1921.11
1017.435	1862.35
1017.727	1832.3
1018.018	1867.78
1018.31	1857.61
1018.602	1820.55
1018.893	1838.62
1019.185	1809.47
1019.476	1778.51
1019.767	1781.68
1020.058	1765.41
1020.35	1742.36
1020.641	1742.58
1020.932	1753.2
1021.223	1712.75
1021.514	1700.32
1021.804	1670.27
1022.095	1680.44
1022.386	1676.14
1022.677	1658.29
1022.967	1607.44
1023.258	1640.44
1023.548	1650.15
1023.839	1633.88
1024.129	1621.23
1024.419	1586.43
1024.709	1587.11
1025	1600.89
1025.29	1522.93
1025.58	1541.46
1025.87	1533.55
1026.16	1550.72
1026.449	1527.9
1026.739	1526.77
1027.029	1521.12
1027.319	1490.16
1027.608	1475.02
1027.898	1482.25
1028.187	1503.49
1028.477	1432.98
1028.766	1443.83
1029.055	1451.52
1029.344	1426.21
1029.634	1412.42
1029.923	1407
1030.212	1418.52
1030.501	1392.31
1030.79	1396.6
1031.078	1379.65
1031.367	1358.64
1031.656	1341.24
1031.945	1339.2
1032.233	1344.17
1032.522	1315.47
1032.81	1299.88
1033.099	1282.71
1033.387	1319.09
1033.675	1272.54
1033.963	1264.85
1034.251	1269.15
1034.54	1271.18
1034.828	1247.91
1035.116	1246.1
1035.403	1228.47
1035.691	1232.54
1035.979	1226.44
1036.267	1222.37
1036.554	1218.98
1036.842	1192.54
1037.129	1189.15
1037.417	1162.03
1037.704	1197.51
1037.992	1158.19
1038.279	1155.93
1038.566	1154.35
1038.853	1154.35
1039.14	1154.35
