Data from aluminium_surface_pro_back_FLMS001491_00005.txt Node
Date: Wed Feb 08 15:33:29 GMT 2017
User: dcchb
Spectrometer: FLMS00149
Trigger mode: 0
Integration Time (sec): 2.000000E-2
Scans to average: 10
Electric dark correction enabled: true
Nonlinearity correction enabled: false
Boxcar width: 0
XAxis mode: Wavelengths
Number of Pixels in Spectrum: 2048
>>>>>Begin Spectral Data<<<<<
341.393	-14.25
341.776	-14.25
342.16	-14.25
342.543	-53.8
342.927	-62.61
343.31	-80.01
343.693	-68.94
344.077	-67.58
344.46	-70.52
344.843	-60.8
345.226	-34.82
345.61	-39.11
345.993	-13.57
346.376	-8.38
346.759	6.99
347.142	1.79
347.525	47.89
347.908	76.37
348.291	76.82
348.674	105.75
349.057	128.12
349.44	101.68
349.823	146.65
350.206	155.69
350.588	217.38
350.971	238.17
351.354	230.94
351.737	271.39
352.119	274.78
352.502	292.18
352.884	302.12
353.267	308.45
353.65	311.39
354.032	310.94
354.414	325.85
354.797	343.93
355.179	350.03
355.562	348.68
355.944	341.67
356.326	370.6
356.709	359.98
357.091	371.73
357.473	369.69
357.855	365.4
358.238	382.35
358.62	357.26
359.002	373.08
359.384	371.95
359.766	380.54
360.148	382.8
360.53	369.02
360.912	382.8
361.294	366.76
361.676	391.39
362.057	376.02
362.439	376.93
362.821	364.27
363.203	371.73
363.584	367.89
363.966	366.53
364.348	373.99
364.729	348
365.111	366.3
365.493	356.13
365.874	375.8
366.256	371.73
366.637	340.77
367.019	371.05
367.4	360.88
367.781	375.8
368.163	359.75
368.544	345.29
368.925	374.21
369.306	373.99
369.688	373.76
370.069	376.02
370.45	366.76
370.831	379.18
371.212	359.07
371.593	381.9
371.974	364.5
372.355	376.7
372.736	378.06
373.117	402.01
373.498	385.06
373.879	385.96
374.26	359.75
374.641	391.61
375.021	343.25
375.402	391.84
375.783	376.25
376.163	395
376.544	425.96
376.925	428.45
377.305	426.19
377.686	412.18
378.066	410.14
378.447	420.99
378.827	427.32
379.208	417.83
379.588	422.12
379.968	428.9
380.349	426.19
380.729	408.34
381.109	420.31
381.489	432.74
381.87	438.39
382.25	460.54
382.63	461.44
383.01	446.08
383.39	474.1
383.77	470.71
384.15	481.1
384.53	487.2
384.91	468.67
385.29	464.15
385.67	513.64
386.049	507.09
386.429	485.85
386.809	499.41
387.189	525.17
387.568	511.84
387.948	495.34
388.328	532.85
388.707	530.14
389.087	517.94
389.466	545.28
389.846	569.46
390.225	533.76
390.605	538.5
390.984	551.84
391.363	554.77
391.743	566.07
392.122	593.42
392.501	598.39
392.881	599.07
393.26	596.58
393.639	599.74
394.018	597.94
394.397	596.35
394.776	615.34
395.155	622.34
395.534	618.05
395.913	625.51
396.292	637.94
396.671	662.34
397.05	646.3
397.429	676.35
397.808	666.18
398.186	676.8
398.565	708.89
398.944	693.53
399.323	699.85
399.701	714.54
400.08	722
400.458	739.63
400.837	729.91
401.215	736.46
401.594	740.08
401.972	740.98
402.351	751.6
402.729	788.21
403.107	793.19
403.486	787.54
403.864	802.45
404.242	791.83
404.62	831.15
404.999	823.69
405.377	834.09
405.755	824.6
406.133	865.95
406.511	851.49
406.889	872.96
407.267	893.52
407.645	925.39
408.023	922.9
408.401	934.42
408.779	946.63
409.156	973.75
409.534	974.65
409.912	966.06
410.29	984.82
410.667	1005.61
411.045	1015.1
411.422	1030.02
411.8	1029.11
412.178	1071.14
412.555	1103.91
412.933	1072.5
413.31	1104.82
413.687	1112.72
414.065	1130.8
414.442	1130.35
414.819	1157.47
415.197	1144.59
415.574	1194.76
415.951	1186.4
416.328	1215.32
416.705	1211.25
417.082	1239.95
417.46	1242.89
417.837	1265.26
418.214	1267.52
418.591	1285.38
418.967	1297.58
419.344	1288.99
419.721	1338.03
420.098	1312.27
420.475	1341.65
420.852	1381.19
421.228	1361.98
421.605	1390.23
421.982	1394.3
422.358	1456.44
422.735	1461.19
423.111	1437.91
423.488	1469.78
423.864	1481.98
424.241	1502.09
424.617	1517.69
424.994	1518.59
425.37	1569.66
425.746	1557.69
426.123	1569.66
426.499	1580.74
426.875	1587.51
427.251	1622.09
427.627	1703.44
428.003	1678.59
428.379	1701.64
428.756	1751.8
429.132	1764.01
429.507	1785.02
429.883	1811.92
430.259	1827.51
430.635	1844.23
431.011	1859.15
431.387	1905.47
431.763	1952.02
432.138	1940.95
432.514	1973.95
432.89	1973.95
433.265	2025.47
433.641	2053.27
434.016	2066.37
434.392	2102.76
434.767	2168.97
435.143	2167.39
435.518	2171.45
435.894	2231.34
436.269	2239.93
436.644	2270.89
437.02	2309.3
437.395	2296.2
437.77	2315.86
438.145	2388.4
438.52	2423.42
438.895	2405.57
439.271	2411.22
439.646	2496.19
440.021	2464.55
440.395	2530.77
440.77	2499.81
441.145	2535.51
441.52	2592.23
441.895	2542.74
442.27	2625.45
442.645	2608.05
443.019	2661.84
443.394	2672.46
443.769	2683.53
444.143	2687.15
444.518	2751.1
444.892	2713.81
445.267	2764.66
445.641	2786.81
446.016	2824.32
446.39	2829.97
446.764	2835.17
447.139	2841.04
447.513	2885.33
447.887	2887.82
448.262	2902.51
448.636	2925.56
449.01	2988.16
449.384	3019.79
449.758	3050.98
450.132	3063.63
450.506	3069.96
450.88	3140.47
451.254	3131.65
451.628	3200.58
452.002	3190.64
452.376	3234.48
452.75	3259.34
453.123	3284.19
453.497	3356.73
453.871	3395.83
454.244	3472.44
454.618	3452.55
454.992	3534.13
455.365	3483.96
455.739	3563.28
456.112	3669.49
456.486	3683.73
456.859	3714.46
457.232	3798.53
457.606	3801.92
457.979	3860.68
458.352	3955.36
458.725	3972.08
459.099	3982.93
459.472	4051.86
459.845	4121.69
460.218	4179.99
460.591	4189.71
460.964	4222.93
461.337	4348.12
461.71	4342.02
462.083	4473.77
462.456	4454.11
462.829	4487.78
463.201	4565.06
463.574	4613.2
463.947	4652.29
464.32	4803.93
464.692	4821.33
465.065	4859.07
465.438	4939.07
465.81	5010.02
466.183	5054.77
466.555	5136.8
466.928	5127.08
467.3	5147.87
467.672	5263.58
468.045	5380.86
468.417	5416.11
468.789	5417.47
469.161	5515.55
469.534	5596.9
469.906	5794.86
470.278	5823.79
470.65	5876.89
471.022	5927.51
471.394	6089.09
471.766	6115.31
472.138	6224.68
472.51	6360.5
472.882	6421.06
473.253	6541.73
473.625	6630.09
473.997	6752.35
474.369	6809.52
474.74	6909.63
475.112	7077.99
475.484	7197.31
475.855	7259
476.227	7303.75
476.598	7566.34
476.97	7615.6
477.341	7815.15
477.713	7892.89
478.084	7990.96
478.455	8277.51
478.827	8303.04
479.198	8569.25
479.569	8529.25
479.94	8771.73
480.311	8885.63
480.682	9021.67
481.053	9192.96
481.424	9357.93
481.795	9485.39
482.166	9707.08
482.537	9786.4
482.908	10011.02
483.279	10089.66
483.65	10265.25
484.021	10471.8
484.391	10622.98
484.762	10660.04
485.133	10797.67
485.503	10942.07
485.874	11202.4
486.244	11323.98
486.615	11509.51
486.985	11621.83
487.356	11891.65
487.726	12058.65
488.097	12257.52
488.467	12217.29
488.837	12547
489.207	12689.14
489.578	12820.67
489.948	12965.75
490.318	13144.5
490.688	13242.35
491.058	13457.49
491.428	13678.72
491.798	13765.95
492.168	14015.44
492.538	14064.02
492.908	14297.01
493.278	14536.78
493.648	14491.58
494.017	14708.07
494.387	14878.69
494.757	14917.56
495.126	15182.19
495.496	15212.02
495.866	15347.6
496.235	15518.22
496.605	15697.2
496.974	15816.52
497.344	15855.16
497.713	16049.51
498.082	16185.32
498.452	16346.67
498.821	16562.94
499.19	16548.93
499.559	16814.68
499.928	16861.92
500.298	16931.07
500.667	17170.61
501.036	17202.02
501.405	17343.71
501.774	17368.79
502.143	17536.7
502.512	17520.43
502.88	17719.29
503.249	17769.69
503.618	17977.82
503.987	18036.12
504.356	18149.11
504.724	18296
505.093	18448.31
505.462	18471.36
505.83	18679.72
506.199	18824.12
506.567	18988.41
506.936	19081.29
507.304	19287.61
507.672	19465.24
508.041	19449.42
508.409	19627.49
508.777	19820.48
509.145	19943.87
509.514	20131.66
509.882	20221.83
510.25	20356.51
510.618	20473.8
510.986	20527.36
511.354	20829.72
511.722	21054.12
512.09	21259.31
512.458	21258.18
512.826	21417.05
513.193	21610.94
513.561	21608.68
513.929	21850.94
514.297	22151.27
514.664	22232.85
515.032	22282.34
515.4	22620.86
515.767	22650.92
516.135	22751.93
516.502	22658.15
516.869	23172.03
517.237	23206.38
517.604	23275.31
517.972	23461.74
518.339	23623.09
518.706	23830.09
519.073	23883.43
519.44	24021.73
519.808	24387.37
520.175	24413.36
520.542	24658.09
520.909	24989.84
521.276	24892.66
521.643	25070.97
522.009	25316.16
522.376	25572.65
522.743	25679.99
523.11	26015.57
523.477	26309.58
523.843	26419.86
524.21	26739.85
524.577	26845.38
524.943	27160.18
525.31	27325.82
525.676	27476.78
526.043	27712.48
526.409	27813.72
526.776	28298
527.142	28214.61
527.508	28511.55
527.874	28706.35
528.241	28896.4
528.607	29037.19
528.973	29323.73
529.339	29309.05
529.705	29652.99
530.071	29827.22
530.437	30082.81
530.803	30268.57
531.169	30512.63
531.535	30471.05
531.901	30358.74
532.267	30670.37
532.632	30839.85
532.998	31103.12
533.364	31200.52
533.73	31384.25
534.095	31424.02
534.461	31733.39
534.826	31847.96
535.192	32115.07
535.557	32284.11
535.923	32227.39
536.288	32338.12
536.653	32578.34
537.019	32508.28
537.384	32849.52
537.749	32755.28
538.114	33056.52
538.479	33056.52
538.845	33232.78
539.21	33280.01
539.575	33498.99
539.94	33594.13
540.305	33715.94
540.67	33701.02
541.034	33817.63
541.399	34033.67
541.764	34117.05
542.129	34376.26
542.494	34361.79
542.858	34691.28
543.223	34776.25
543.587	34791.39
543.952	34780.99
544.316	35025.96
544.681	34900.54
545.045	35152.96
545.41	35364.03
545.774	35505.94
546.138	35570.35
546.503	35668.88
546.867	35695.32
547.231	36041.52
547.595	36106.83
547.959	36202.42
548.324	36297.79
548.688	36354.06
549.052	36437.9
549.416	36564.67
549.779	36630.44
550.143	36701.62
550.507	36986.81
550.871	37165.56
551.235	37115.62
551.599	37493.24
551.962	37465.22
552.326	37526.23
552.689	37752.21
553.053	37646.23
553.417	37784.08
553.78	38251.64
554.143	38185.65
554.507	38259.77
554.87	38607.56
555.234	38823.82
555.597	38804.62
555.96	38815.46
556.323	39038.73
556.686	39131.84
557.05	39413.41
557.413	39604.37
557.776	39749.45
558.139	39829
558.502	40030.35
558.865	40192.6
559.228	40491.35
559.59	40558.02
559.953	40687.5
560.316	41050.21
560.679	41129.53
561.041	41426.69
561.404	41525.67
561.767	41909.17
562.129	41642.28
562.492	42143.06
562.854	42240.68
563.217	42186.22
563.579	42557.06
563.941	42799.54
564.304	43077.27
564.666	43262.8
565.028	43371.27
565.39	43489.46
565.753	43799.06
566.115	43860.98
566.477	44107.3
566.839	44172.38
567.201	44459.38
567.563	44614.41
567.925	44858.69
568.287	44924.91
568.648	44963.32
569.01	45131.91
569.372	45562.4
569.734	45275.41
570.095	45677.65
570.457	45919
570.819	46011.88
571.18	46055.72
571.542	46224.08
571.903	46325.1
572.265	46557.41
572.626	46679.44
572.987	46946.77
573.349	46916.49
573.71	47086.21
574.071	47248.91
574.432	47307.89
574.794	47634.67
575.155	47717.83
575.516	47614.78
575.877	47831.5
576.238	47946.52
576.599	48043.69
576.96	48109
577.32	48159.17
577.681	48202.56
578.042	48427.64
578.403	48433.74
578.763	48558.26
579.124	48538.37
579.485	48799.83
579.845	48920.96
580.206	48765.03
580.566	48880.96
580.927	48921.19
581.287	49168.86
581.648	49023.56
582.008	49202.76
582.368	49190.33
582.728	49277.79
583.089	49192.82
583.449	49206.15
583.809	49200.5
584.169	49372.47
584.529	49288.41
584.889	49536.99
585.249	49336.09
585.609	49232.59
585.969	49454.73
586.329	49455.86
586.688	49491.79
587.048	49329.99
587.408	49369.31
587.768	49470.32
588.127	49384.9
588.487	49444.11
588.846	49691.79
589.206	49513.26
589.565	49564.33
589.925	49657.66
590.284	49571.11
590.643	49709.87
591.003	49863.31
591.362	49901.27
591.721	49780.6
592.08	49793.48
592.44	49873.7
592.799	49848.62
593.158	49878.45
593.517	49715.74
593.876	49841.61
594.235	49699.24
594.593	49844.1
594.952	49918
595.311	49830.54
595.67	49902.85
596.029	50102.17
596.387	50137.88
596.746	50185.56
597.104	50006.58
597.463	49972.23
597.822	50153.24
598.18	50097.88
598.538	49944.21
598.897	50261.94
599.255	49970.2
599.613	50571.76
599.972	50201.6
600.33	50390.75
600.688	50179.01
601.046	50384.88
601.404	50459.68
601.762	50420.36
602.12	50655.38
602.478	50563.4
602.836	50580.58
603.194	50536.96
603.552	50498.77
603.91	50359.34
604.268	50712.1
604.625	50561.37
604.983	50740.8
605.341	50465.1
605.698	50654.93
606.056	50872.09
606.413	50784.41
606.771	50854.24
607.128	50852.89
607.485	50761.14
607.843	50757.52
608.2	50836.62
608.557	51039.32
608.914	50934.24
609.272	51085.2
609.629	51177.62
609.986	51311.18
610.343	51135.36
610.7	51332.87
611.057	51277.96
611.414	51252.2
611.771	51144.86
612.127	51354.57
612.484	51362.7
612.841	51430.27
613.198	51310.28
613.554	51272.08
613.911	51519.54
614.267	51472.98
614.624	51589.36
614.98	51620.32
615.337	51737.83
615.693	51626.43
616.05	51615.58
616.406	51880.66
616.762	51803.14
617.118	51824.84
617.475	51750.72
617.831	51839.75
618.187	51957.72
618.543	51867.1
618.899	51985.06
619.255	52017.15
619.611	52066.19
619.967	52103.93
620.323	52216.47
620.678	52018.96
621.034	52006.53
621.39	51818.28
621.746	51887.89
622.101	52276.8
622.457	51945.96
622.812	52067.09
623.168	52138.5
623.523	52036.81
623.879	52158.16
624.234	51894.89
624.589	52061.67
624.945	52003.82
625.3	52192.96
625.655	52011.5
626.01	52062.12
626.365	52002.69
626.72	51930.82
627.075	51907.32
627.43	51946.64
627.785	51917.49
628.14	51983.03
628.495	51997.71
628.85	51953.42
629.205	51779.64
629.559	52063.93
629.914	51808.57
630.269	51954.78
630.623	51965.63
630.978	51872.29
631.332	51987.09
631.687	51911.39
632.041	51854.22
632.396	51866.87
632.75	51736.93
633.104	51868.9
633.459	51670.72
633.813	51512.08
634.167	51563.15
634.521	51576.93
634.875	51551.62
635.229	51501.23
635.583	51351.4
635.937	51343.27
636.291	51323.61
636.645	51335.13
636.999	51179.88
637.352	51267.34
637.706	51087.91
638.06	51262.82
638.413	51122.26
638.767	51140.56
639.121	51152.54
639.474	50903.73
639.828	50894.69
640.181	50960.68
640.534	51011.3
640.888	50911.64
641.241	50731.53
641.594	50754.36
641.947	50735.38
642.301	50665.77
642.654	50674.81
643.007	50630.29
643.36	50515.49
643.713	50513.69
644.066	50733.79
644.419	50403.86
644.771	50213.35
645.124	49835.06
645.477	49764.33
645.83	49571.11
646.182	49433.04
646.535	49410.66
646.888	49464.67
647.24	49302.19
647.593	49252.25
647.945	49259.26
648.298	49109.43
648.65	49033.27
649.002	48966.61
649.355	49178.81
649.707	49016.78
650.059	49202.76
650.411	49620.15
650.763	49686.82
651.115	50083.19
651.467	49859.01
651.819	49792.8
652.171	49809.07
652.523	49703.54
652.875	49723.88
653.227	49583.09
653.578	49886.81
653.93	49579.7
654.282	49406.6
654.633	49329.31
654.985	49402.08
655.337	49416.09
655.688	49434.17
656.039	49417.9
656.391	49167.51
656.742	49256.54
657.094	49143.55
657.445	49260.16
657.796	49115.98
658.147	49048.19
658.498	49048.64
658.849	49174.96
659.2	49019.71
659.551	49004.35
659.902	49138.58
660.253	49021.3
660.604	49076.66
660.955	48853.16
661.306	48945.14
661.656	48934.97
662.007	48976.78
662.358	48875.08
662.708	48790.79
663.059	48762.77
663.409	48500.18
663.76	48870.34
664.11	48787.63
664.461	48797.57
664.811	48589.67
665.161	48609.56
665.511	48447.75
665.862	48572.49
666.212	48564.36
666.562	48598.93
666.912	48561.19
667.262	48365.49
667.612	48280.3
667.962	48401.88
668.312	48372.73
668.662	48588.09
669.011	48443.91
669.361	48421.76
669.711	48272.61
670.06	48297.7
670.41	48172.96
670.76	48144.71
671.109	48325.95
671.459	48264.71
671.808	48271.94
672.157	48244.37
672.507	48037.37
672.856	48065.39
673.205	48116.01
673.554	48265.61
673.904	48064.94
674.253	48221.54
674.602	48223.12
674.951	47541.56
675.3	47337.72
675.649	47960.31
675.998	47819.52
676.346	47927.54
676.695	47959.63
677.044	47576.14
677.393	47680.77
677.741	47729.8
678.09	47537.72
678.438	47526.65
678.787	47536.82
679.135	47571.39
679.484	47392.64
679.832	47441
680.181	47255.47
680.529	47426.76
680.877	47239.65
681.225	47272.19
681.573	47447.1
681.922	47114.68
682.27	46924.63
682.618	47067
682.966	46928.92
683.314	47072.65
683.661	46979.32
684.009	46591.53
684.357	46549.27
684.705	46619.33
685.053	46625.43
685.4	46528.48
685.748	46220.01
686.095	46319.9
686.443	46032
686.79	46100.02
687.138	46067.02
687.485	46102.5
687.832	45934.82
688.18	45927.82
688.527	45734.38
688.874	45693.47
689.221	45707.03
689.568	45398.57
689.915	45324.22
690.262	45429.07
690.609	45239.7
690.956	45121.51
691.303	45268.63
691.65	44940.27
691.997	44798.58
692.344	44751.35
692.69	44601.52
693.037	44667.51
693.383	44224.81
693.73	44498.48
694.077	44273.62
694.423	44244.25
694.769	44015.1
695.116	43993.63
695.462	43940.07
695.808	43819.17
696.155	43784.6
696.501	43521.78
696.847	43424.83
697.193	43155.24
697.539	43479.29
697.885	43102.36
698.231	42974.22
698.577	42978.74
698.923	42869.14
699.269	42677.28
699.614	42492.88
699.96	42393.45
700.306	42274.13
700.651	42122.49
700.997	41954.81
701.342	41906
701.688	41893.12
702.033	41813.8
702.379	41630.53
702.724	41626.46
703.069	41735.16
703.415	41096.76
703.76	41206.13
704.105	41286.13
704.45	41175.85
704.795	40819.7
705.14	40580.39
705.485	40616.32
705.83	40473.05
706.175	40645.7
706.52	40477.34
706.865	40391.01
707.209	40309.66
707.554	40155.31
707.899	40193.51
708.243	39887.75
708.588	39831.25
708.932	39584.03
709.277	39762.56
709.621	39455.45
709.966	39264.04
710.31	39381.78
710.654	39079.86
710.998	39169.8
711.342	39086.19
711.687	38923.71
712.031	38928.45
712.375	38674.9
712.719	38572.98
713.063	38705.18
713.407	38661.79
713.75	38551.74
714.094	38464.51
714.438	38187
714.782	38277.85
715.125	38168.47
715.469	38217.96
715.812	38018.42
716.156	37905.66
716.499	37843.96
716.843	37776.39
717.186	37762.16
717.53	37897.52
717.873	37807.35
718.216	37603.29
718.559	37392.9
718.902	37313.58
719.246	37277.65
719.589	37109.74
719.932	37092.57
720.275	37098.9
720.617	37028.39
720.96	36875.17
721.303	36877.43
721.646	36709.53
721.989	36523.77
722.331	36630.66
722.674	36539.36
723.016	36516.99
723.359	36521.29
723.701	36319.48
724.044	36104.8
724.386	36140.96
724.729	36167.17
725.071	36156.32
725.413	36186.15
725.755	36106.16
726.097	35805.15
726.439	35632.95
726.782	35670.46
727.124	35922.66
727.465	35574.42
727.807	35738.26
728.149	35546.4
728.491	35476.79
728.833	35499.39
729.175	35386.63
729.516	35143.92
729.858	35173.52
730.199	35260.53
730.541	35286.06
730.882	35077.26
731.224	35149.8
731.565	34833.19
731.906	34953.19
732.248	34995
732.589	34693.99
732.93	34627.55
733.271	34703.48
733.612	34619.87
733.953	34607.21
734.294	34396.6
734.635	34340.55
734.976	34411.28
735.317	34126.32
735.658	34178.07
735.999	34150.27
736.339	34079.09
736.68	34089.03
737.021	33866.21
737.361	33870.06
737.702	33969.94
738.042	33887.91
738.383	33833.9
738.723	33771.08
739.063	33592.55
739.404	33716.61
739.744	33610.4
740.084	33441.14
740.424	33420.58
740.764	33463.74
741.104	33463.74
741.444	33230.52
741.784	33228.26
742.124	33234.14
742.464	33186.01
742.804	33088.16
743.143	33024.65
743.483	32929.29
743.823	32859.69
744.162	32747.83
744.502	32835.28
744.841	32758.45
745.181	32804.55
745.52	32582.41
745.86	32694.04
746.199	32529.53
746.538	32536.53
746.877	32539.24
747.216	32495.85
747.556	32278.23
747.895	32220.83
748.234	32057.45
748.573	31921.63
748.911	31918.24
749.25	31967.73
749.589	31772.03
749.928	31840.05
750.267	31771.58
750.605	31761.41
750.944	31548.31
751.283	31491.14
751.621	31493.4
751.96	31399.16
752.298	31287.52
752.636	31291.82
752.975	31090.69
753.313	31012.96
753.651	31111.03
753.989	30881.43
754.327	30857.03
754.666	30681.67
755.004	30838.95
755.342	30741.32
755.679	30668.78
756.017	30497.49
756.355	30593.08
756.693	30313.77
757.031	30473.08
757.368	30295.46
757.706	30242.58
758.044	30046.65
758.381	30113.09
758.719	29844.17
759.056	29929.37
759.394	29901.35
759.731	29681.01
760.068	29564.18
760.405	29654.35
760.743	29352.89
761.08	29472.43
761.417	29269.95
761.754	29245.54
762.091	29265.88
762.428	28963.07
762.765	28873.58
763.102	28924.88
763.438	28754.48
763.775	28560.82
764.112	28721.04
764.449	28541.38
764.785	28374.38
765.122	28217.55
765.458	28073.37
765.795	28091.9
766.131	28089.64
766.467	27955.86
766.804	27760.61
767.14	27646.94
767.476	27702.99
767.812	27486.27
768.148	27564.23
768.485	27402.88
768.821	27141.87
769.157	27106.17
769.492	27020.97
769.828	27025.04
770.164	26873.18
770.5	26714.76
770.836	26716.12
771.171	26617.37
771.507	26441.55
771.842	26248.79
772.178	26220.77
772.513	26145.97
772.849	26089.7
773.184	25952.52
773.519	25886.08
773.855	25869.36
774.19	25786.2
774.525	25630.05
774.86	25618.3
775.195	25563.83
775.53	25425.98
775.865	25279.55
776.2	25099.21
776.535	25040.23
776.87	24998.42
777.205	24935.83
777.539	24717.08
777.874	24786.68
778.209	24548.94
778.543	24456.07
778.878	24355.96
779.212	24374.71
779.547	24313.02
779.881	24222.85
780.215	24082.29
780.55	24186.02
780.884	24023.99
781.218	23790.09
781.552	23848.17
781.886	23762.07
782.22	23633.26
782.554	23380.84
782.888	23271.24
783.222	23272.14
783.556	23062.2
783.889	23043.45
784.223	22945.6
784.557	22873.51
784.89	23020.62
785.224	22793.51
785.557	22699.73
785.891	22739.27
786.224	22606.62
786.558	22597.81
786.891	22248.44
787.224	22287.31
787.557	22152.4
787.891	22138.39
788.224	22225.62
788.557	22106.52
788.89	22007.99
789.223	21844.84
789.556	21744.27
789.888	21669.25
790.221	21565.75
790.554	21458.18
790.887	21479.87
791.219	21441.46
791.552	21208.02
791.884	21217.96
792.217	21201.69
792.549	21007.34
792.882	20873.56
793.214	20834.69
793.546	20861.81
793.879	20745.2
794.211	20660.01
794.543	20601.93
794.875	20571.2
795.207	20520.12
795.539	20475.38
795.871	20276.51
796.203	20243.97
796.535	20158.55
796.867	20034.71
797.198	20012.57
797.53	19983.19
797.862	19880.82
798.193	19892.12
798.525	19703.65
798.856	19816.41
799.188	19590.88
799.519	19480.15
799.85	19359.25
800.182	19481.28
800.513	19388.18
800.844	19192.02
801.175	19219.59
801.506	19359.48
801.837	19135.08
802.168	19016.66
802.499	19081.07
802.83	18905.93
803.161	18787.97
803.491	18854.86
803.822	18886.04
804.153	18720.17
804.483	18570.57
804.814	18580.97
805.145	18548.65
805.475	18593.4
805.805	18427.07
806.136	18367.86
806.466	18434.76
806.796	18298.71
807.126	18102.56
807.457	18088.55
807.787	18216
808.117	17974.43
808.447	18011.04
808.777	17904.15
809.107	17935.56
809.436	17938.27
809.766	17832.96
810.096	17819.4
810.426	17720.42
810.755	17756.81
811.085	17649.47
811.414	17563.59
811.744	17475.91
812.073	17431.17
812.403	17434.56
812.732	17373.99
813.061	17485.18
813.39	17376.93
813.719	17330.38
814.049	17268.46
814.378	17165.41
814.707	17106.2
815.036	17072.76
815.365	17026.88
815.693	16933.33
816.022	16858.98
816.351	16831.41
816.68	16738.75
817.008	16734.91
817.337	16617.18
817.665	16589.61
817.994	16595.71
818.322	16609.04
818.651	16525.88
818.979	16447.91
819.307	16496.05
819.636	16466.45
819.964	16263.97
820.292	16382.38
820.62	16415.83
820.948	16245.89
821.276	16330.4
821.604	16248.82
821.932	16272.78
822.259	16273.68
822.587	16302.83
822.915	16213.8
823.243	16286.79
823.57	16278.88
823.898	16285.21
824.225	16154.59
824.553	16223.51
824.88	16171.09
825.207	16274.13
825.535	16236.62
825.862	16279.56
826.189	16174.25
826.516	16251.99
826.843	16285.66
827.17	16290.86
827.497	16310.07
827.824	16245.66
828.151	16352.78
828.478	16220.8
828.805	16188.49
829.131	16209.28
829.458	16252.67
829.785	16073.24
830.111	16251.31
830.438	16254.7
830.764	16198.2
831.09	16207.7
831.417	16096.29
831.743	16244.53
832.069	16141.48
832.395	16072.33
832.722	16174.7
833.048	16074.37
833.374	16132.67
833.7	16103.29
834.026	16106.68
834.351	16115.04
834.677	16089.96
835.003	16089.51
835.329	16081.6
835.654	15998.66
835.98	15899.68
836.306	15953.92
836.631	15863.98
836.956	15831.21
837.282	15837.54
837.607	15702.17
837.932	15847.25
838.258	15740.14
838.583	15714.37
838.908	15670.99
839.233	15609.97
839.558	15630.99
839.883	15529.97
840.208	15434.16
840.533	15432.35
840.858	15469.64
841.182	15412.01
841.507	15422.18
841.832	15334.72
842.156	15382.41
842.481	15368.85
842.805	15317.32
843.13	15279.36
843.454	15170.66
843.778	15210.21
844.103	15146.71
844.427	15135.86
844.751	15149.19
845.075	15115.07
845.399	15006.14
845.723	15002.76
846.047	14958.01
846.371	14907.84
846.695	14863.78
847.019	14865.81
847.343	14713.95
847.666	14669.43
847.99	14760.28
848.313	14594.63
848.637	14491.81
848.96	14507.63
849.284	14588.08
849.607	14374.98
849.931	14377.01
850.254	14208.2
850.577	14171.82
850.9	14057.24
851.223	14017.24
851.546	14052.27
851.869	13943.35
852.192	14036.45
852.515	13803.69
852.838	13771.15
853.161	13738.83
853.483	13682.79
853.806	13642.11
854.129	13623.81
854.451	13532.06
854.774	13567.31
855.096	13450.03
855.419	13480.99
855.741	13516.24
856.063	13354.89
856.385	13296.36
856.708	13338.84
857.03	13298.39
857.352	13222.69
857.674	13169.36
857.996	13235.34
858.318	13078.51
858.64	13106.08
858.961	13116.25
859.283	13002.13
859.605	12961.23
859.926	12978.85
860.248	12957.39
860.57	12895.92
860.891	12819.99
861.212	12845.3
861.534	12825.41
861.855	12808.69
862.176	12794.68
862.498	12797.62
862.819	12766.88
863.14	12726.88
863.461	12689.82
863.782	12710.16
864.103	12628.13
864.424	12590.62
864.745	12669.26
865.065	12542.93
865.386	12508.36
865.707	12466.32
866.027	12517.17
866.348	12505.19
866.668	12513.56
866.989	12428.36
867.309	12422.48
867.63	12498.64
867.95	12395.59
868.27	12309.94
868.59	12395.82
868.91	12330.28
869.23	12364.63
869.55	12166.45
869.87	12363.95
870.19	12279.66
870.51	12319.66
870.83	12304.75
871.15	12148.37
871.469	12279.89
871.789	12212.09
872.109	12165.99
872.428	12186.56
872.748	12154.47
873.067	12107.46
873.386	12108.82
873.706	12132.1
874.025	12061.14
874.344	12090.74
874.663	12143.62
874.982	12071.08
875.301	12017.07
875.62	11970.29
875.939	11964.42
876.258	12003.06
876.577	11944.53
876.896	11925.55
877.214	11969.61
877.533	11918.09
877.852	11908.6
878.17	11964.42
878.489	11843.97
878.807	11941.59
879.125	11863.4
879.444	11849.62
879.762	11803.07
880.08	11885.78
880.398	11740.47
880.716	11838.77
881.034	11844.19
881.352	11766.68
881.67	11717.64
881.988	11745.44
882.306	11687.14
882.624	11647.14
882.941	11618.44
883.259	11560.13
883.577	11587.7
883.894	11538.44
884.212	11476.97
884.529	11538.21
884.846	11519.23
885.164	11471.77
885.481	11466.58
885.798	11363.53
886.115	11366.01
886.432	11371.44
886.75	11291.44
887.067	11332.12
887.383	11266.13
887.7	11294.38
888.017	11253.25
888.334	11199.92
888.651	11222.52
888.967	11171.22
889.284	11063.88
889.6	11087.38
889.917	11071.56
890.233	11084.67
890.55	11003.09
890.866	11035.4
891.182	10927.83
891.498	10951.11
891.815	10899.59
892.131	10919.92
892.447	10811.9
892.763	10779.82
893.079	10756.54
893.395	10772.58
893.71	10777.1
894.026	10763.77
894.342	10558.58
894.657	10609.42
894.973	10684
895.289	10677.22
895.604	10641.29
895.92	10540.27
896.235	10474.51
896.55	10485.81
896.865	10510.44
897.181	10477.68
897.496	10443.1
897.811	10386.38
898.126	10383.22
898.441	10296.44
898.756	10276.33
899.071	10249.66
899.386	10306.38
899.7	10202.43
900.015	10175.09
900.33	10135.54
900.644	10065.03
900.959	10126.05
901.273	10070.68
901.588	9994.53
901.902	10033.62
902.216	9903.91
902.531	10008.76
902.845	9973.28
903.159	9830.69
903.473	9822.78
903.787	9790.24
904.101	9802.89
904.415	9821.2
904.729	9705.49
905.042	9705.27
905.356	9731.26
905.67	9681.54
905.984	9653.97
906.297	9589.11
906.611	9558.15
906.924	9577.81
907.237	9479.28
907.551	9429.57
907.864	9446.52
908.177	9409.46
908.491	9371.72
908.804	9319.06
909.117	9268.67
909.43	9211.5
909.743	9229.12
910.056	9171.04
910.368	9112.51
910.681	9056.7
910.994	9060.54
911.307	9070.48
911.619	8987.77
911.932	8945.51
912.244	8920.66
912.557	8927.43
912.869	8929.47
913.181	8834.56
913.494	8826.19
913.806	8725.18
914.118	8738.51
914.43	8676.82
914.742	8702.13
915.054	8640.66
915.366	8654.9
915.678	8606.09
915.99	8579.2
916.302	8493.77
916.613	8485.41
916.925	8465.07
917.236	8421.69
917.548	8348.69
917.859	8430.95
918.171	8263.05
918.482	8265.08
918.794	8224.85
919.105	8210.84
919.416	8177.85
919.727	8184.18
920.038	8152.99
920.349	8014.46
920.66	8057.85
920.971	8095.59
921.282	8000.68
921.593	7918.65
921.903	7890.85
922.214	7855.15
922.525	7908.48
922.835	7843.62
923.146	7828.03
923.456	7778.54
923.767	7664.87
924.077	7754.36
924.387	7708.26
924.697	7622.38
925.008	7609.05
925.318	7589.16
925.628	7609.5
925.938	7541.93
926.248	7438.66
926.558	7436.4
926.867	7425.55
927.177	7404.99
927.487	7418.55
927.796	7339.23
928.106	7301.49
928.416	7281.38
928.725	7252.45
929.034	7198.67
929.344	7209.74
929.653	7180.81
929.962	7138.1
930.271	7085.45
930.581	7087.26
930.89	7094.71
931.199	7042.51
931.508	6980.82
931.817	6995.96
932.125	6981.5
932.434	6951.22
932.743	6894.72
933.051	6876.87
933.36	6841.61
933.669	6774.5
933.977	6819.24
934.286	6761.84
934.594	6740.37
934.902	6681.17
935.21	6671
935.519	6685.69
935.827	6631.22
936.135	6572.47
936.443	6497.44
936.751	6473.71
937.059	6492.24
937.367	6386.94
937.674	6430.33
937.982	6423.55
938.29	6351.46
938.597	6401.63
938.905	6331.8
939.213	6268.3
939.52	6221.97
939.827	6294.06
940.135	6238.01
940.442	6202.99
940.749	6138.58
941.056	6224.45
941.363	6058.13
941.67	6093.84
941.977	6060.62
942.284	6053.39
942.591	6026.49
942.898	5986.5
943.205	5979.49
943.511	5875.54
943.818	5934.75
944.125	5871.92
944.431	5831.02
944.738	5826.95
945.044	5831.7
945.35	5778.82
945.657	5733.39
945.963	5704.47
946.269	5740.4
946.575	5750.34
946.881	5681.42
947.187	5603.23
947.493	5633.51
947.799	5613.17
948.105	5598.93
948.41	5529.56
948.716	5546.96
949.022	5570.46
949.327	5506.06
949.633	5464.47
949.938	5432.61
950.244	5448.2
950.549	5429
950.854	5394.42
951.16	5364.36
951.465	5334.08
951.77	5312.61
952.075	5278.04
952.38	5259.73
952.685	5275.78
952.99	5220.87
953.294	5219.28
953.599	5152.62
953.904	5148.78
954.209	5158.72
954.513	5144.94
954.818	5089.57
955.122	5086.63
955.426	5035.33
955.731	5043.24
956.035	4993.53
956.339	4942.68
956.643	4963.7
956.948	4982.68
957.252	4952.62
957.556	4902.91
957.86	4942.68
958.163	4885.06
958.467	4870.14
958.771	4861.1
959.075	4803.48
959.378	4850.48
959.682	4809.8
959.985	4711.73
960.289	4720.77
960.592	4676.93
960.896	4666.3
961.199	4637.83
961.502	4698.39
961.805	4599.64
962.108	4558.51
962.411	4600.09
962.714	4565.52
963.017	4537.95
963.32	4560.54
963.623	4513.09
963.926	4556.02
964.228	4469.02
964.531	4422.92
964.833	4380.44
965.136	4400.77
965.438	4428.8
965.741	4364.62
966.043	4355.13
966.345	4331.62
966.648	4335.47
966.95	4321
967.252	4304.73
967.554	4277.84
967.856	4263.38
968.158	4209.14
968.46	4229.93
968.761	4168.46
969.063	4178.86
969.365	4183.38
969.666	4112.87
969.968	4106.54
970.269	4082.82
970.571	4110.39
970.872	4089.37
971.174	4044.17
971.475	4058.18
971.776	4059.31
972.077	3994.23
972.378	4032.65
972.679	4039.88
972.98	3988.81
973.281	3925.76
973.582	3974.12
973.883	3892.76
974.183	3910.39
974.484	3874.23
974.785	3864.29
975.085	3849.15
975.386	3854.12
975.686	3836.95
975.986	3810.28
976.287	3765.99
976.587	3795.37
976.887	3781.58
977.187	3762.15
977.487	3708.14
977.787	3687.12
978.087	3683.96
978.387	3661.36
978.687	3684.86
978.987	3612.55
979.286	3610.51
979.586	3638.99
979.885	3581.81
980.185	3576.39
980.484	3558.31
980.784	3595.6
981.083	3583.39
981.382	3557.18
981.682	3503.17
981.981	3481.48
982.28	3476.96
982.579	3474.02
982.878	3458.65
983.177	3452.32
983.475	3453.91
983.774	3387.47
984.073	3410.29
984.372	3403.51
984.67	3360.12
984.969	3380.69
985.267	3368.26
985.566	3368.26
985.864	3331.88
986.162	3300.24
986.461	3248.94
986.759	3252.33
987.057	3204.42
987.355	3240.13
987.653	3241.48
987.951	3241.93
988.249	3180.47
988.547	3164.2
988.844	3128.49
989.142	3149.73
989.44	3111.32
989.737	3101.37
990.035	3100.02
990.332	3067.48
990.63	3064.54
990.927	3042.62
991.224	3043.52
991.521	3014.6
991.819	3034.26
992.116	2986.8
992.413	2979.12
992.71	2960.36
993.006	2957.87
993.303	2981.83
993.6	2937.54
993.897	2974.82
994.193	2917.65
994.49	2905.45
994.787	2834.49
995.083	2849.4
995.379	2830.42
995.676	2821.83
995.972	2802.4
996.268	2799.69
996.565	2782.06
996.861	2763.98
997.157	2766.01
997.453	2763.98
997.749	2737.77
998.044	2720.82
998.34	2709.97
998.636	2718.56
998.932	2672.01
999.227	2671.55
999.523	2650.99
999.818	2668.62
1000.114	2649.41
1000.409	2648.96
1000.704	2618.45
1001	2584.55
1001.295	2568.96
1001.59	2568.73
1001.885	2548.39
1002.18	2559.69
1002.475	2510.88
1002.77	2487.83
1003.065	2494.61
1003.359	2468.85
1003.654	2474.05
1003.949	2450.32
1004.243	2444.89
1004.538	2410.09
1004.832	2421.17
1005.127	2412.13
1005.421	2365.35
1005.715	2395.63
1006.009	2338.46
1006.304	2353.82
1006.598	2351.79
1006.892	2290.55
1007.186	2302.98
1007.48	2306.82
1007.773	2267.72
1008.067	2264.11
1008.361	2282.64
1008.655	2237.67
1008.948	2216.65
1009.242	2257.33
1009.535	2189.98
1009.829	2222.98
1010.122	2190.21
1010.415	2156.99
1010.708	2160.61
1011.001	2124.22
1011.295	2124.68
1011.588	2116.54
1011.881	2087.84
1012.173	2073.6
1012.466	2117.67
1012.759	2072.7
1013.052	2073.83
1013.344	2065.24
1013.637	2064.11
1013.93	2036.09
1014.222	2012.59
1014.514	1998.35
1014.807	1979.59
1015.099	1992.7
1015.391	1968.97
1015.683	1972.14
1015.976	1988.63
1016.268	1932.82
1016.56	1921.29
1016.851	1888.07
1017.143	1929.2
1017.435	1897.56
1017.727	1879.71
1018.018	1858.47
1018.31	1839.49
1018.602	1828.86
1018.893	1822.76
1019.185	1845.81
1019.476	1813.72
1019.767	1766.04
1020.058	1800.39
1020.35	1754.97
1020.641	1764.46
1020.932	1740.51
1021.223	1720.84
1021.514	1736.66
1021.804	1708.64
1022.095	1702.99
1022.386	1688.76
1022.677	1680.62
1022.967	1637.91
1023.258	1669.09
1023.548	1641.3
1023.839	1637
1024.129	1627.06
1024.419	1608.08
1024.709	1595.42
1025	1580.06
1025.29	1573.05
1025.58	1573.05
1025.87	1573.28
1026.16	1504.58
1026.449	1550.68
1026.739	1544.58
1027.029	1520.4
1027.319	1500.96
1027.608	1492.38
1027.898	1473.39
1028.187	1481.08
1028.477	1484.69
1028.766	1470
1029.055	1437.01
1029.344	1447.41
1029.634	1444.47
1029.923	1404.02
1030.212	1397.69
1030.501	1412.15
1030.79	1403.34
1031.078	1377.35
1031.367	1362.44
1031.656	1365.83
1031.945	1331.48
1032.233	1345.71
1032.522	1311.59
1032.81	1329.22
1033.099	1302.1
1033.387	1322.21
1033.675	1289.22
1033.963	1296.67
1034.251	1274.3
1034.54	1269.78
1034.828	1253.51
1035.116	1219.84
1035.403	1242.44
1035.691	1212.16
1035.979	1207.19
1036.267	1210.58
1036.554	1209.67
1036.842	1179.16
1037.129	1206.28
1037.417	1195.66
1037.704	1179.84
1037.992	1153.18
1038.279	1152.05
1038.566	1149.11
1038.853	1149.11
1039.14	1149.11
