Data from aluminium_macbook_case_FLMS001491_089.txt Node
Date: Tue Feb 07 10:44:18 GMT 2017
User: dcchb
Spectrometer: FLMS00149
Trigger mode: 0
Integration Time (sec): 2.000000E-2
Scans to average: 10
Electric dark correction enabled: true
Nonlinearity correction enabled: false
Boxcar width: 0
XAxis mode: Wavelengths
Number of Pixels in Spectrum: 2048
>>>>>Begin Spectral Data<<<<<
341.393	-20.17
341.776	-20.17
342.16	-20.17
342.543	-57.68
342.927	-50.45
343.31	-65.82
343.693	-60.39
344.077	-70.79
344.46	-80.51
344.843	-51.81
345.226	-44.12
345.61	-17.01
345.993	-18.36
346.376	1.3
346.759	11.69
347.142	15.08
347.525	38.36
347.908	76.33
348.291	63.22
348.674	72.26
349.057	130.56
349.44	129.88
349.823	141.86
350.206	162.43
350.588	234.51
350.971	255.98
351.354	277.9
351.737	290.56
352.119	308.41
352.502	296.21
352.884	324.45
353.267	344.12
353.65	352.7
354.032	357
354.414	365.36
354.797	388.63
355.179	392.7
355.562	363.1
355.944	406.03
356.326	392.02
356.709	385.47
357.091	401.06
357.473	416.88
357.855	418.01
358.238	402.87
358.62	389.54
359.002	412.14
359.384	425.24
359.766	408.07
360.148	399.26
360.53	439.03
360.912	439.71
361.294	415.53
361.676	417.79
362.057	399.71
362.439	423.66
362.821	412.81
363.203	414.4
363.584	435.86
363.966	424.11
364.348	433.38
364.729	436.99
365.111	440.16
365.493	419.59
365.874	432.7
366.256	437.22
366.637	434.06
367.019	420.72
367.4	453.49
367.781	428.41
368.163	451.23
368.544	421.18
368.925	436.99
369.306	445.81
369.688	456.65
370.069	446.71
370.45	453.26
370.831	461.17
371.212	458.01
371.593	472.25
371.974	461.17
372.355	497.78
372.736	483.77
373.117	503.89
373.498	496.2
373.879	471.34
374.26	464.56
374.641	465.02
375.021	470.67
375.402	469.54
375.783	518.57
376.163	518.35
376.544	568.06
376.925	538.23
377.305	514.51
377.686	527.16
378.066	540.95
378.447	542.75
378.827	531.45
379.208	534.39
379.588	555.64
379.968	558.35
380.349	548.4
380.729	566.03
381.109	558.57
381.489	589.76
381.87	603.32
382.25	589.76
382.63	588.18
383.01	597.67
383.39	606.48
383.77	604.45
384.15	602.87
384.53	629.53
384.91	635.18
385.29	653.49
385.67	658.01
386.049	653.49
386.429	643.77
386.809	693.26
387.189	679.25
387.568	677.89
387.948	674.73
388.328	701.85
388.707	710.66
389.087	736.42
389.466	739.36
389.846	725.35
390.225	744.33
390.605	736.87
390.984	767.38
391.363	770.54
391.743	775.74
392.122	790.21
392.501	794.5
392.881	815.06
393.26	836.76
393.639	845.8
394.018	842.18
394.397	855.51
394.776	863.2
395.155	850.32
395.534	897.77
395.913	878.11
396.292	902.74
396.671	902.29
397.05	920.15
397.429	918.34
397.808	922.18
398.186	948.62
398.565	931.44
398.944	964.44
399.323	947.49
399.701	966.02
400.08	1004.44
400.458	1012.35
400.837	1039.24
401.215	1065.9
401.594	1046.92
401.972	1052.12
402.351	1057.32
402.729	1071.1
403.107	1098.67
403.486	1124.21
403.864	1134.83
404.242	1149.52
404.62	1127.82
404.999	1142.74
405.377	1173.02
405.755	1194.49
406.133	1198.33
406.511	1220.93
406.889	1251.21
407.267	1286.69
407.645	1281.72
408.023	1284.88
408.401	1326.91
408.779	1339.12
409.156	1363.3
409.534	1366.91
409.912	1390.64
410.29	1407.82
410.667	1424.76
411.045	1453.01
411.422	1456.4
411.8	1487.14
412.178	1525.1
412.555	1560.58
412.933	1579.79
413.31	1581.37
413.687	1622.73
414.065	1611.65
414.442	1671.54
414.819	1666.57
415.197	1694.81
415.574	1735.49
415.951	1699.79
416.328	1743.17
416.705	1782.72
417.082	1766.45
417.46	1811.42
417.837	1832.66
418.214	1835.15
418.591	1879.67
418.967	1874.92
419.344	1912.89
419.721	1911.76
420.098	1938.65
420.475	1982.26
420.852	1993.11
421.228	1964.41
421.605	2007.12
421.982	2032.88
422.358	2077.63
422.735	2088.48
423.111	2115.82
423.488	2138.87
423.864	2171.19
424.241	2185.65
424.617	2217.96
424.994	2265.19
425.37	2257.06
425.746	2304.74
426.123	2362.82
426.499	2324.63
426.875	2408.69
427.251	2406.66
427.627	2462.03
428.003	2507.67
428.379	2482.82
428.756	2585.19
429.132	2557.39
429.507	2669.93
429.883	2650.5
430.259	2702.92
430.635	2709.02
431.011	2785.18
431.387	2874.9
431.763	2881.22
432.138	2906.31
432.514	2969.81
432.89	2985.4
433.265	3059.52
433.641	3115.12
434.016	3125.96
434.392	3135.91
434.767	3244.15
435.143	3278.73
435.518	3279.63
435.894	3294.09
436.269	3364.15
436.644	3427.2
437.02	3474.65
437.395	3490.25
437.77	3536.35
438.145	3571.83
438.52	3616.35
438.895	3674.88
439.271	3683.69
439.646	3728.66
440.021	3787.64
440.395	3809.33
440.77	3809.33
441.145	3833.06
441.52	3886.62
441.895	3915.77
442.27	3963.91
442.645	3969.78
443.019	4048.65
443.394	3993.74
443.769	4081.42
444.143	4078.48
444.518	4151.47
444.892	4124.58
445.267	4136.78
445.641	4259.94
446.016	4303.11
446.39	4281.64
446.764	4320.06
447.139	4304.01
447.513	4352.82
447.887	4367.74
448.262	4420.17
448.636	4467.4
449.01	4516.43
449.384	4602.31
449.758	4655.41
450.132	4699.48
450.506	4736.54
450.88	4769.76
451.254	4780.16
451.628	4849.76
452.002	4924.33
452.376	4910.77
452.75	5037.33
453.123	5040.71
453.497	5092.01
453.871	5151.67
454.244	5232.12
454.618	5306.47
454.992	5377.2
455.365	5416.52
455.739	5566.8
456.112	5617.42
456.486	5666.01
456.859	5692.45
457.232	5818.77
457.606	5852.22
457.979	5881.6
458.352	6056.06
458.725	6116.17
459.099	6105.32
459.472	6337.4
459.845	6397.06
460.218	6380.57
460.591	6489.04
460.964	6535.59
461.337	6709.37
461.71	6788.69
462.083	6884.06
462.456	6920.44
462.829	6957.05
463.201	7076.14
463.574	7107.33
463.947	7155.69
464.32	7396.81
464.692	7400.2
465.065	7458.05
465.438	7623.7
465.81	7749.57
466.183	7881.77
466.555	8074.53
466.928	8006.74
467.3	8080.86
467.672	8241.08
468.045	8423.22
468.417	8473.17
468.789	8520.85
469.161	8697.12
469.534	8837.68
469.906	8997.45
470.278	9074.28
470.65	9199.02
471.022	9355.63
471.394	9566.47
471.766	9697.77
472.138	9696.86
472.51	9961.26
472.882	10094.82
473.253	10243.06
473.625	10353.8
473.997	10606.44
474.369	10650.06
474.74	10802.37
475.112	10986.55
475.484	11117.39
475.855	11436.48
476.227	11544.95
476.598	11911.72
476.97	11990.81
477.341	12246.18
477.713	12438.49
478.084	12555.55
478.455	12921.64
478.827	12957.79
479.198	13464
479.569	13470.1
479.94	13828.28
480.311	13946.02
480.682	14226.91
481.053	14507.13
481.424	14821.25
481.795	14894.47
482.166	15136.49
482.537	15371.74
482.908	15759.53
483.279	15825.29
483.65	16223.92
484.021	16465.73
484.391	16644.93
484.762	16883.12
485.133	17001.98
485.503	17299.83
485.874	17597.67
486.244	17843.09
486.615	18206.02
486.985	18367.6
487.356	18751.77
487.726	18976.17
488.097	19389.04
488.467	19441.69
488.837	19880.1
489.207	20056.14
489.578	20455.45
489.948	20553.3
490.318	20826.51
490.688	21003.46
491.058	21285.03
491.428	21604.12
491.798	21703.78
492.168	22297.21
492.538	22238.45
492.908	22526.81
493.278	22797.08
493.648	22845.67
494.017	23142.16
494.387	23396.62
494.757	23611.3
495.126	23884.06
495.496	23935.13
495.866	24159.99
496.235	24389.58
496.605	24606.75
496.974	24830.25
497.344	25089.68
497.713	25292.61
498.082	25519.72
498.452	25696.44
498.821	25978.02
499.19	26022.54
499.559	26383.88
499.928	26503.65
500.298	26759.92
500.667	26994.94
501.036	26976.64
501.405	27267.7
501.774	27361.48
502.143	27564.42
502.512	27588.82
502.88	27949.72
503.249	27934.12
503.618	28175.93
503.987	28254.34
504.356	28469.25
504.724	28726.19
505.093	28951.27
505.462	29038.95
505.83	29213.64
506.199	29422.9
506.567	29813.85
506.936	29811.14
507.304	30106.72
507.672	30318.47
508.041	30529.54
508.409	30779.7
508.777	31126.13
509.145	31370.42
509.514	31414.26
509.882	31648.6
510.25	31715.27
510.618	32108.93
510.986	32193
511.354	32762.7
511.722	32740.1
512.09	33161.78
512.458	33151.84
512.826	33466.18
513.193	33677.02
513.561	33734.65
513.929	34003.12
514.297	34518.36
514.664	34605.59
515.032	34787.96
515.4	34955.63
515.767	35268.17
516.135	35291.67
516.502	35269.3
516.869	35970.3
517.237	36057.3
517.604	36009.17
517.972	36453.9
518.339	36684.4
518.706	36826.32
519.073	37059.76
519.44	37274.44
519.808	37818.16
520.175	37671.72
520.542	38244.14
520.909	38618.59
521.276	38748.53
521.643	39124.79
522.009	39255.18
522.376	39708.28
522.743	40104.88
523.11	40264.2
523.477	40818.76
523.843	41035.47
524.21	41453.32
524.577	41667.32
524.943	41864.15
525.31	42118.38
525.676	42461.88
526.043	42634.53
526.409	42992.26
526.776	43295.75
527.142	43306.83
527.508	43738.91
527.874	44010.99
528.241	44175.28
528.607	44150.65
528.973	44648.94
529.339	44685.32
529.705	45141.81
530.071	45344.74
530.437	45590.61
530.803	45813.88
531.169	46071.95
531.535	46161.22
531.901	46354.2
532.267	46596.01
532.632	46885.49
532.998	46946.05
533.364	47197.35
533.73	47379.71
534.095	47809.76
534.461	47750.55
534.826	48033.26
535.192	48240.93
535.557	48430.08
535.923	48440.7
536.288	48760.24
536.653	48883.86
537.019	48893.12
537.384	49061.25
537.749	49127.47
538.114	49332.88
538.479	49322.71
538.845	49732.2
539.21	49588.92
539.575	49882.93
539.94	50023.03
540.305	50202.01
540.67	50130.15
541.034	50273.42
541.399	50335.8
541.764	50576.69
542.129	50640.19
542.494	50711.6
542.858	50882
543.223	50960.64
543.587	51053.52
543.952	51115.89
544.316	51294.64
544.681	51267.07
545.045	51454.18
545.41	51709.09
545.774	51801.75
546.138	51816.66
546.503	51894.17
546.867	51874.06
547.231	52351.11
547.595	52345.69
547.959	52437.89
548.324	52558.56
548.688	52729.18
549.052	52800.14
549.416	52821.83
549.779	52945.67
550.143	53077.87
550.507	53311.54
550.871	53277.19
551.235	53400.35
551.599	53592.66
551.962	53691.19
552.326	53658.42
552.689	53958.3
553.053	53817.74
553.417	53907.45
553.78	54286.65
554.143	54243.71
554.507	54424.28
554.87	54400.55
555.234	54667.88
555.597	54555.12
555.96	54749.69
556.323	54828.11
556.686	54851.83
557.05	55102.22
557.413	55168.21
557.776	55229.45
558.139	55441.65
558.502	55471.03
558.865	55533.4
559.228	55793.73
559.59	55872.6
559.953	55942.65
560.316	56163.21
560.679	56203.89
561.041	56395.07
561.404	56514.84
561.767	56699.02
562.129	56640.26
562.492	56971.1
562.854	56934.27
563.217	56992.34
563.579	57140.14
563.941	57287.48
564.304	57372.9
564.666	57555.49
565.028	57559.79
565.39	57666.68
565.753	57810.4
566.115	57885.2
566.477	58038.87
566.839	58176.04
567.201	58247.23
567.563	58214.91
567.925	58389.82
568.287	58465.3
568.648	58459.2
569.01	58596.59
569.372	58763.37
569.734	58756.36
570.095	58863.93
570.457	58917.26
570.819	59018.96
571.18	58983.93
571.542	59188.22
571.903	59217.37
572.265	59314.77
572.626	59308.44
572.987	59371.94
573.349	59475.22
573.71	59569.68
574.071	59658.71
574.432	59688.77
574.794	59936.67
575.155	59885.6
575.516	59775.55
575.877	59974.19
576.238	60012.83
576.599	60115.42
576.96	60044.47
577.32	60137.12
577.681	60249.66
578.042	60304.8
578.403	60300.73
578.763	60404.46
579.124	60357.23
579.485	60467.05
579.845	60527.84
580.206	60449.2
580.566	60484.91
580.927	60486.26
581.287	60619.59
581.648	60495.3
582.008	60640.16
582.368	60521.74
582.728	60628.63
583.089	60569.88
583.449	60521.52
583.809	60617.33
584.169	60579.59
584.529	60618.69
584.889	60762.64
585.249	60501.63
585.609	60520.61
585.969	60625.92
586.329	60564.9
586.688	60637.9
587.048	60597.9
587.408	60577.11
587.768	60641.74
588.127	60698.01
588.487	60568.29
588.846	60712.7
589.206	60604.23
589.565	60661.17
589.925	60813.26
590.284	60696.65
590.643	60826.59
591.003	60795.63
591.362	60871.11
591.721	60818.91
592.08	60853.03
592.44	60832.47
592.799	60892.35
593.158	60856.2
593.517	60867.27
593.876	60904.1
594.235	60880.38
594.593	60866.59
594.952	60967.61
595.311	60835.18
595.67	60865.69
596.029	61019.81
596.387	61011.22
596.746	61055.29
597.104	60891.9
597.463	60906.82
597.822	61003.54
598.18	60873.82
598.538	60915.63
598.897	61031.33
599.255	60871.79
599.613	61217.54
599.972	60976.65
600.33	61025.68
600.688	60941.62
601.046	61065.68
601.404	61145.23
601.762	61071.56
602.12	61153.59
602.478	61155.85
602.836	61172.12
603.194	61017.77
603.552	61109.98
603.91	61010.77
604.268	61167.15
604.625	61149.52
604.983	61266.81
605.341	61117.21
605.698	61322.62
606.056	61319.24
606.413	61311.33
606.771	61435.16
607.128	61482.17
607.485	61337.77
607.843	61441.72
608.2	61598.32
608.557	61626.8
608.914	61531.66
609.272	61669.73
609.629	61624.09
609.986	61779.11
610.343	61667.93
610.7	61786.79
611.057	61702.73
611.414	61738.89
611.771	61801.03
612.127	61821.14
612.484	61789.05
612.841	61809.84
613.198	61747.02
613.554	61831.31
613.911	61897.3
614.267	61887.58
614.624	61877.41
614.98	61899.78
615.337	61925.55
615.693	61906.11
616.05	61850.29
616.406	62029.05
616.762	61924.87
617.118	61966
617.475	61997.18
617.831	61998.31
618.187	62002.16
618.543	62006.67
618.899	62103.4
619.255	62039.22
619.611	62043.96
619.967	62090.74
620.323	62128.71
620.678	62122.15
621.034	62056.39
621.39	62042.61
621.746	62023.17
622.101	62245.31
622.457	62093
622.812	62153.79
623.168	62211.42
623.523	62139.33
623.879	62253.22
624.234	62091.64
624.589	62158.76
624.945	62234.47
625.3	62268.59
625.655	62271.75
626.01	62234.92
626.365	62239.44
626.72	62241.92
627.075	62171.19
627.43	62175.94
627.785	62170.29
628.14	62221.36
628.495	62260.68
628.85	62163.96
629.205	62089.16
629.559	62225.88
629.914	62133.23
630.269	62075.6
630.623	62008.03
630.978	61974.59
631.332	62057.07
631.687	62041.48
632.041	61928.48
632.396	61907.69
632.75	61862.27
633.104	61857.3
633.459	61768.49
633.813	61759
634.167	61770.07
634.521	61706.57
634.875	61684.42
635.229	61668.83
635.583	61477.2
635.937	61558.78
636.291	61460.93
636.645	61532.11
636.999	61490.3
637.352	61480.59
637.706	61314.26
638.06	61398.78
638.413	61392
638.767	61295.73
639.121	61308.84
639.474	61248.73
639.828	61222.06
640.181	61238.11
640.534	61292.34
640.888	61129.18
641.241	61030.43
641.594	61127.83
641.947	61164.21
642.301	61089.64
642.654	61124.89
643.007	61097.77
643.36	61120.14
643.713	61035.4
644.066	61085.12
644.419	60968.28
644.771	60818.23
645.124	60661.4
645.477	60591.57
645.83	60382.99
646.182	60362.42
646.535	60225.93
646.888	60290.11
647.24	60128.31
647.593	60271.58
647.945	60097.8
648.298	60053.05
648.65	59987.52
649.002	59968.08
649.355	60037.91
649.707	59981.64
650.059	60037.91
650.411	60330.56
650.763	60347.96
651.115	60520.39
651.467	60388.64
651.819	60343.89
652.171	60297.79
652.523	60260.96
652.875	60295.31
653.227	60165.59
653.578	60277.45
653.93	60146.61
654.282	60022.09
654.633	60011.92
654.985	60119.72
655.337	60046.05
655.688	60012.83
656.039	60079.72
656.391	59921.08
656.742	59878.82
657.094	59889.89
657.445	59981.87
657.796	59938.25
658.147	59901.65
658.498	59873.17
658.849	59904.36
659.2	59899.39
659.551	59786.17
659.902	59893.96
660.253	59879.05
660.604	59927.86
660.955	59791.37
661.306	59892.15
661.656	59816
662.007	59818.03
662.358	59841.99
662.708	59747.98
663.059	59741.88
663.409	59717.92
663.76	59808.99
664.11	59739.39
664.461	59769.22
664.811	59803.79
665.161	59752.95
665.511	59661.2
665.862	59688.54
666.212	59764.25
666.562	59787.52
666.912	59665.04
667.262	59702.78
667.612	59635.66
667.962	59613.52
668.312	59475.89
668.662	59717.02
669.011	59593.63
669.361	59535.55
669.711	59453.07
670.06	59458.49
670.41	59343.47
670.76	59327.65
671.109	59387.31
671.459	59281.77
671.808	59267.09
672.157	59329.46
672.507	59058.73
672.856	59122.23
673.205	59119.97
673.554	59258.27
673.904	59049.46
674.253	59221.44
674.602	59119.97
674.951	58678.4
675.3	58579.87
675.649	58996.13
675.998	58987.55
676.346	58945.06
676.695	58982.57
677.044	58807.21
677.393	58882.69
677.741	58902.12
678.09	58840.66
678.438	58760.43
678.787	58865.74
679.135	58872.52
679.484	58632.3
679.832	58823.93
680.181	58620.78
680.529	58747.78
680.877	58646.09
681.225	58641.11
681.573	58746.2
681.922	58572.41
682.27	58533.77
682.618	58565.41
682.966	58453.55
683.314	58513.89
683.661	58412.64
684.009	58303.27
684.357	58306.88
684.705	58282.03
685.053	58361.12
685.4	58241.8
685.748	58114.8
686.095	58077.96
686.443	58019.21
686.79	57996.61
687.138	57966.78
687.485	57973.56
687.832	57879.33
688.18	57898.99
688.527	57739.89
688.874	57714.36
689.221	57638.2
689.568	57463.07
689.915	57509.84
690.262	57487.02
690.609	57332.45
690.956	57268.27
691.303	57219.46
691.65	57008.16
691.997	57040.48
692.344	56917.09
692.69	56840.26
693.037	56816.75
693.383	56577.66
693.73	56632.58
694.077	56445.01
694.423	56419.7
694.769	56334.06
695.116	56282.53
695.462	56271.91
695.808	56145.13
696.155	56113.04
696.501	55998.25
696.847	55913.73
697.193	55851.13
697.539	55873.73
697.885	55661.3
698.231	55632.61
698.577	55556
698.923	55466.73
699.269	55364.36
699.614	55271.03
699.96	55188.32
700.306	55182.22
700.651	55140.41
700.997	55091.6
701.342	55020.87
701.688	55017.71
702.033	54834.21
702.379	54803.02
702.724	54815.23
703.069	54867.88
703.415	54466.08
703.76	54570.03
704.105	54584.27
704.45	54422.24
704.795	54287.78
705.14	54296.82
705.485	54289.59
705.83	54156.26
706.175	54214.79
706.52	53961.01
706.865	54030.16
707.209	53830.84
707.554	53758.76
707.899	53888.02
708.243	53675.59
708.588	53592.43
708.932	53366.45
709.277	53439.89
709.621	53420.46
709.966	53156.29
710.31	53252.55
710.654	53000.58
710.998	53062.96
711.342	52972.56
711.687	52904.77
712.031	52698.44
712.375	52591.56
712.719	52690.76
713.063	52469.07
713.407	52667.71
713.75	52331.22
714.094	52415.06
714.438	52104.56
714.782	52149.08
715.125	51933.04
715.469	52066.37
715.812	51824.57
716.156	51727.17
716.499	51689.66
716.843	51609.89
717.186	51456.22
717.53	51526.95
717.873	51479.72
718.216	51448.31
718.559	51235.21
718.902	51110.01
719.246	51106.17
719.589	50976.23
719.932	50905.05
720.275	50801.32
720.617	50801.77
720.96	50641.32
721.303	50676.13
721.646	50550.03
721.989	50463.48
722.331	50558.39
722.674	50351.61
723.016	50507.54
723.359	50290.82
723.701	50347.55
724.044	50264.38
724.386	50028.68
724.729	50240.88
725.071	50027.33
725.413	50014.22
725.755	49989.59
726.097	49856.26
726.439	49840.67
726.782	49738.07
727.124	49941
727.465	49668.69
727.807	49754.57
728.149	49675.7
728.491	49459.43
728.833	49767
729.175	49480.9
729.516	49386.67
729.858	49294.01
730.199	49399.1
730.541	49279.55
730.882	49117.07
731.224	49307.35
731.565	48999.11
731.906	49023.06
732.248	49074.59
732.589	48723.18
732.93	48626.69
733.271	48734.26
733.612	48639.57
733.953	48637.99
734.294	48528.84
734.635	48445.68
734.976	48475.96
735.317	48169.07
735.658	48210.43
735.999	48076.19
736.339	47975.63
736.68	47996.2
737.021	47925.24
737.361	47665.13
737.702	47827.16
738.042	47687.96
738.383	47637.11
738.723	47500.39
739.063	47378.13
739.404	47398.7
739.744	47221.53
740.084	47073.06
740.424	47024.47
740.764	46845.94
741.104	46988.76
741.444	46753.74
741.784	46711.03
742.124	46706.29
742.464	46538.83
742.804	46558.49
743.143	46313.75
743.483	46418.16
743.823	45989.92
744.162	46039.18
744.502	46110.6
744.841	45888.68
745.181	46023.37
745.52	45829.47
745.86	45855.69
746.199	45810.49
746.538	45755.12
746.877	45714.45
747.216	45712.87
747.556	45657.27
747.895	45558.29
748.234	45246.44
748.573	45359.65
748.911	45322.82
749.25	45217.74
749.589	45056.61
749.928	45185.65
750.267	45168.93
750.605	45066.78
750.944	44894.36
751.283	44760.12
751.621	44932.1
751.96	44703.85
752.298	44689.16
752.636	44795.83
752.975	44557.64
753.313	44312.68
753.651	44520.13
753.989	44309.74
754.327	44316.52
754.666	43974.61
755.004	43977.54
755.342	44072.91
755.679	43861.16
756.017	43578.46
756.355	43707.95
756.693	43403.55
757.031	43604.67
757.368	43208.3
757.706	43278.58
758.044	43022.99
758.381	43156.77
758.719	42878.36
759.056	43021.86
759.394	42657.8
759.731	42517.47
760.068	42406.51
760.405	42217.14
760.743	42113.86
761.08	42085.84
761.417	41789.13
761.754	41820.76
762.091	41651.5
762.428	41493.77
762.765	41169.26
763.102	41319.31
763.438	40939.21
763.775	40793.45
764.112	40802.49
764.449	40767.91
764.785	40717.52
765.122	40290.41
765.458	40074.6
765.795	40028.04
766.131	39901.27
766.467	39815.39
766.804	39647.94
767.14	39310.55
767.476	39311.45
767.812	39094.28
768.148	39271.45
768.485	39008.64
768.821	38697.46
769.157	38673.73
769.492	38546.05
769.828	38511.02
770.164	38244.81
770.5	38020.41
770.836	38034.42
771.171	37686.18
771.507	37711.95
771.842	37526.41
772.178	37452.74
772.513	37349.7
772.849	37117.84
773.184	37098.63
773.519	36948.35
773.855	36851.86
774.19	36653.22
774.525	36522.6
774.86	36580.45
775.195	36344.07
775.53	36347.91
775.865	36077.41
776.2	35928.72
776.535	35621.15
776.87	35662.28
777.205	35615.28
777.539	35352.46
777.874	35531.44
778.209	35248.28
778.543	35164.89
778.878	35138.45
779.212	34907.73
779.547	34714.96
779.881	34796.32
780.215	34506.38
780.55	34756.09
780.884	34534.85
781.218	34295.54
781.552	34438.81
781.886	34150.23
782.22	33931.25
782.554	33691.94
782.888	33554.77
783.222	33473.64
783.556	33257.15
783.889	33205.62
784.223	33024.61
784.557	33053.09
784.89	33040.88
785.224	32940.09
785.557	32818.29
785.891	32505.53
786.224	32551.4
786.558	32464.17
786.891	32140.57
787.224	31932.89
787.557	31876.39
787.891	31780.12
788.224	31774.93
788.557	31709.84
788.89	31667.59
789.223	31455.16
789.556	31209.74
789.888	31119.58
790.221	31042.29
790.554	30715.52
790.887	30786.7
791.219	30624.67
791.552	30503.1
791.884	30306.49
792.217	30236.44
792.549	30060.85
792.882	29891.59
793.214	29747.41
793.546	29775.21
793.879	29579.28
794.211	29349.68
794.543	29400.75
794.875	29196.92
795.207	29296.8
795.539	28973.64
795.871	29104.26
796.203	28855.91
796.535	28531.17
796.867	28641.45
797.198	28449.36
797.53	28521.23
797.862	28330.05
798.193	28326.88
798.525	28004.4
798.856	28138.19
799.188	27762.83
799.519	27721.47
799.85	27516.96
800.182	27670.85
800.513	27570.52
800.844	27376.62
801.175	27462.5
801.506	27334.59
801.837	27259.79
802.168	27222.96
802.499	27115.39
802.83	27054.83
803.161	26916.98
803.491	26864.32
803.822	26819.35
804.153	26794.04
804.483	26595.85
804.814	26471.34
805.145	26544.56
805.475	26485.35
805.805	26265.92
806.136	26455.75
806.466	26313.15
806.796	26326.26
807.126	26169.65
807.457	26091.46
807.787	26116.54
808.117	25928.75
808.447	25927.17
808.777	25892.82
809.107	25784.58
809.436	25875.65
809.766	25731.47
810.096	25635.43
810.426	25551.14
810.755	25534.64
811.085	25562.44
811.414	25441.31
811.744	25232.95
812.073	25188.21
812.403	25294.87
812.732	25151.37
813.061	25127.42
813.39	25007.65
813.719	24966.29
814.049	24969.68
814.378	24989.79
814.707	24790.25
815.036	24749.8
815.365	24575.34
815.693	24515.46
816.022	24487.21
816.351	24367.44
816.68	24188.46
817.008	24223.71
817.337	24122.47
817.665	23947.56
817.994	24122.7
818.322	23933.33
818.651	23887.45
818.979	23693.33
819.307	23802.48
819.636	23744.18
819.964	23467.35
820.292	23673.45
820.62	23567.69
820.948	23404.07
821.276	23524.52
821.604	23426.67
821.932	23366.11
822.259	23334.47
822.587	23351.42
822.915	23267.81
823.243	23317.52
823.57	23308.94
823.898	23348.03
824.225	23304.42
824.553	23265.55
824.88	23346.45
825.207	23333.12
825.535	23334.47
825.862	23247.92
826.189	23146.68
826.516	23217.86
826.843	23391.64
827.17	23144.87
827.497	23211.08
827.824	23121.6
828.151	23098.77
828.478	23003.18
828.805	23139.9
829.131	23074.82
829.458	23081.82
829.785	22956.63
830.111	23113.01
830.438	23161.82
830.764	23007.02
831.09	23012.67
831.417	22918.89
831.743	22949.17
832.069	22969.74
832.395	23047.47
832.722	23033.01
833.048	22923.41
833.374	22862.62
833.7	22891.77
834.026	22870.08
834.351	22878.21
834.677	22860.59
835.003	22915.05
835.329	22891.32
835.654	22811.77
835.98	22929.06
836.306	23005.21
836.631	22891.77
836.956	22826.01
837.282	22834.6
837.607	22692.91
837.932	22676.86
838.258	22672.12
838.583	22715.28
838.908	22559.12
839.233	22684.77
839.558	22691.32
839.883	22617.2
840.208	22609.52
840.533	22630.99
840.858	22587.37
841.182	22515.28
841.507	22534.04
841.832	22362.97
842.156	22409.3
842.481	22342.63
842.805	22378.34
843.13	22248.62
843.454	22322.29
843.778	22115.75
844.103	22105.8
844.427	22085.69
844.751	22127.95
845.075	22024
845.399	22049.99
845.723	21865.58
846.047	21798.69
846.371	21591.01
846.695	21737.45
847.019	21428.08
847.343	21372.49
847.666	21242.77
847.99	21142.21
848.313	21118.03
848.637	21083.23
848.96	21053.4
849.284	20981.99
849.607	20772.28
849.931	20760.3
850.254	20563.47
850.577	20492.29
850.9	20337.71
851.223	20380.2
851.546	20201.45
851.869	20120.77
852.192	20145.18
852.515	20051.17
852.838	19862.02
853.161	19903.6
853.483	19756.26
853.806	19703.38
854.129	19641.69
854.451	19541.58
854.774	19462.48
855.096	19354.01
855.419	19422.03
855.741	19321.24
856.063	19249.15
856.385	19203.73
856.708	19099.33
857.03	19031.76
857.352	19031.53
857.674	18953.57
857.996	18898.2
858.318	18717.19
858.64	18708.6
858.961	18678.1
859.283	18558.33
859.605	18387.71
859.926	18530.08
860.248	18458.67
860.57	18392.23
860.891	18364.88
861.212	18341.61
861.534	18245.11
861.855	18190.43
862.176	18182.97
862.498	18165.34
862.819	18145.46
863.14	18049.86
863.461	18085.12
863.782	17892.13
864.103	18028.17
864.424	17934.16
864.745	17988.62
865.065	17856.65
865.386	17838.57
865.707	17698.24
866.027	17811.23
866.348	17742.75
866.668	17834.28
866.989	17692.13
867.309	17648.29
867.63	17730.32
867.95	17749.53
868.27	17600.61
868.59	17625.69
868.91	17679.25
869.23	17649.42
869.55	17542.53
869.87	17677.67
870.19	17597.22
870.51	17584.11
870.83	17600.84
871.15	17418.92
871.469	17582.08
871.789	17446.72
872.109	17576.43
872.428	17341.86
872.748	17453.95
873.067	17491.01
873.386	17465.92
873.706	17410.79
874.025	17353.16
874.344	17262.99
874.663	17363.33
874.982	17281.97
875.301	17363.1
875.62	17306.61
875.939	17221.19
876.258	17194.75
876.577	17189.77
876.896	17092.83
877.214	17144.8
877.533	17263.9
877.852	17143.22
878.17	17123.56
878.489	17095.09
878.807	17188.87
879.125	17149.78
879.444	16993.85
879.762	16960.63
880.08	17089.44
880.398	16861.87
880.716	16919.27
881.034	16884.7
881.352	16907.3
881.67	16812.83
881.988	16851.93
882.306	16789.11
882.624	16707.3
882.941	16707.75
883.259	16636.34
883.577	16637.7
883.894	16474.76
884.212	16666.62
884.529	16576.91
884.846	16488.1
885.164	16554.31
885.481	16409.91
885.798	16431.83
886.115	16372.62
886.432	16293.98
886.75	16214.43
887.067	16286.07
887.383	16119.97
887.7	16068.67
888.017	15966.3
888.334	16026.64
888.651	15954.33
888.967	15900.99
889.284	15862.58
889.6	15840.88
889.917	15655.35
890.233	15781.9
890.55	15711.85
890.866	15666.42
891.182	15670.72
891.498	15531.74
891.815	15442.7
892.131	15422.81
892.447	15359.09
892.763	15251.52
893.079	15213.78
893.395	15256.49
893.71	15168.13
894.026	15195.93
894.342	15113.9
894.657	14932.88
894.973	14891.3
895.289	14955.48
895.604	14894.24
895.92	14818.99
896.235	14703.96
896.55	14723.4
896.865	14704.64
897.181	14609.73
897.496	14590.29
897.811	14553.69
898.126	14385.33
898.441	14406.8
898.756	14327.02
899.071	14219.23
899.386	14286.8
899.7	14213.58
900.015	14177.2
900.33	14102.85
900.644	14097.65
900.959	14118.44
901.273	14004.55
901.588	13964.32
901.902	13855.62
902.216	13898.79
902.531	13821.05
902.845	13756.19
903.159	13712.13
903.473	13753.48
903.787	13686.14
904.101	13559.81
904.415	13553.49
904.729	13561.85
905.042	13455.86
905.356	13380.61
905.67	13403.43
905.984	13412.02
906.297	13376.31
906.611	13311.91
906.924	13241.86
907.237	13194.4
907.551	13133.61
907.864	13057
908.177	13034.63
908.491	13069.2
908.804	13021.97
909.117	12945.37
909.43	12944.01
909.743	12783.11
910.056	12861.3
910.368	12819.95
910.681	12733.39
910.994	12636.67
911.307	12643.68
911.619	12616.79
911.932	12700.85
912.244	12547.86
912.557	12493.17
912.869	12414.76
913.181	12363.46
913.494	12374.31
913.806	12314.2
914.118	12338.6
914.43	12212.5
914.742	12204.59
915.054	12142.45
915.366	12083.69
915.678	12036.24
915.99	11987.42
916.302	11945.17
916.613	11897.94
916.925	11947.43
917.236	11750.59
917.548	11759.86
917.859	11800.99
918.171	11666.76
918.482	11606.64
918.794	11560.54
919.105	11589.02
919.416	11459.98
919.727	11446.2
920.038	11460.66
920.349	11374.33
920.66	11261.12
920.971	11204.85
921.282	11188.12
921.593	11193.32
921.903	11034.46
922.214	11067.9
922.525	11004.85
922.835	10971.18
923.146	10914.01
923.456	10886.21
923.767	10738.19
924.077	10766.21
924.387	10757.63
924.697	10658.87
925.008	10626.56
925.318	10564.41
925.628	10596.95
925.938	10450.52
926.248	10411.42
926.558	10341.59
926.867	10419.33
927.177	10281.71
927.487	10263.63
927.796	10127.81
928.106	10100.69
928.416	10098.44
928.725	10011.21
929.034	9983.64
929.344	9975.95
929.653	10008.95
929.962	9869.51
930.271	9770.08
930.581	9807.14
930.89	9722.4
931.199	9653.93
931.508	9569.86
931.817	9663.64
932.125	9514.27
932.434	9468.4
932.743	9427.94
933.051	9413.48
933.36	9312.02
933.669	9294.39
933.977	9285.8
934.286	9215.07
934.594	9152.02
934.902	9109.76
935.21	9097.56
935.519	9082.42
935.827	9096.43
936.135	8998.35
936.443	8919.26
936.751	8891.91
937.059	8883.78
937.367	8831.35
937.674	8811.01
937.982	8799.94
938.29	8724.01
938.597	8728.08
938.905	8651.24
939.213	8652.82
939.52	8586.84
939.827	8615.54
940.135	8529.21
940.442	8471.13
940.749	8405.6
941.056	8444.92
941.363	8332.61
941.67	8333.28
941.977	8337.58
942.284	8313.17
942.591	8231.59
942.898	8293.96
943.205	8250.35
943.511	8293.51
943.818	8179.16
944.125	8089.22
944.431	8017.59
944.738	8080.18
945.044	8010.13
945.35	8019.17
945.657	7941.66
945.963	7909.79
946.269	7907.08
946.575	7886.52
946.881	7809.46
947.187	7738.27
947.493	7792.28
947.799	7756.12
948.105	7718.61
948.41	7641.55
948.716	7714.54
949.022	7616.24
949.327	7624.83
949.633	7479.07
949.938	7546.19
950.244	7519.97
950.549	7456.24
950.854	7352.52
951.16	7406.3
951.465	7332.41
951.77	7356.36
952.075	7238.62
952.38	7307.32
952.685	7269.58
952.99	7218.51
953.294	7157.04
953.599	7149.36
953.904	7136.48
954.209	7050.61
954.513	7096.93
954.818	7048.8
955.122	7027.1
955.426	7006.09
955.731	6931.29
956.035	6914.79
956.339	6947.78
956.643	6918.86
956.948	6790.05
957.252	6798.41
957.556	6832.31
957.86	6730.16
958.163	6695.59
958.467	6711.18
958.771	6673.44
959.075	6607.23
959.378	6582.6
959.682	6592.31
959.985	6559.77
960.289	6504.41
960.592	6498.76
960.896	6431.41
961.199	6408.14
961.502	6400.45
961.805	6378.31
962.108	6381.92
962.411	6291.53
962.714	6256.05
963.017	6218.31
963.32	6225.77
963.623	6184.41
963.926	6194.58
964.228	6125.43
964.531	6097.41
964.833	6056.73
965.136	6012.67
965.438	6031.88
965.741	5954.59
966.043	5969.5
966.345	5894.48
966.648	5915.95
966.95	5902.84
967.252	5855.83
967.554	5850.41
967.856	5800.69
968.158	5742.62
968.46	5724.54
968.761	5714.37
969.063	5659.23
969.365	5661.26
969.666	5648.38
969.968	5581.27
970.269	5575.84
970.571	5508.5
970.872	5556.18
971.174	5499.46
971.475	5474.38
971.776	5440.25
972.077	5308.05
972.378	5422.4
972.679	5388.73
972.98	5372.68
973.281	5358.45
973.582	5292.46
973.883	5307.37
974.183	5221.28
974.484	5186.02
974.785	5209.75
975.085	5215.17
975.386	5189.64
975.686	5127.49
975.986	5087.49
976.287	5074.84
976.587	5023.99
976.887	4999.81
977.187	5012.69
977.487	4984.67
977.787	4937.44
978.087	4932.7
978.387	4900.15
978.687	4887.05
978.987	4927.5
979.286	4853.38
979.586	4829.87
979.885	4771.34
980.185	4804.56
980.484	4728.41
980.784	4743.32
981.083	4705.36
981.382	4691.57
981.682	4634.85
981.981	4664
982.28	4626.94
982.579	4558.47
982.878	4555.08
983.177	4540.62
983.475	4569.54
983.774	4563.89
984.073	4488.64
984.372	4459.26
984.67	4494.06
984.969	4471.46
985.267	4453.16
985.566	4379.49
985.864	4357.8
986.162	4342.43
986.461	4289.1
986.759	4322.77
987.057	4312.15
987.355	4271.24
987.653	4211.81
987.951	4226.27
988.249	4223.34
988.547	4188.31
988.844	4182.21
989.142	4158.25
989.44	4171.36
989.737	4104.92
990.035	4099.27
990.332	4110.12
990.63	4131.59
990.927	4058.37
991.224	4013.85
991.521	4042.55
991.819	3979.05
992.116	3996.22
992.413	4014.75
992.71	3994.19
993.006	3933.63
993.303	3898.6
993.6	3954.42
993.897	3920.74
994.193	3881.88
994.49	3881.2
994.787	3813.85
995.083	3830.13
995.379	3791.03
995.676	3780.41
995.972	3757.58
996.268	3762.33
996.565	3730.47
996.861	3696.12
997.157	3668.32
997.453	3706.51
997.749	3673.29
998.044	3641.2
998.34	3657.7
998.636	3588.78
998.932	3599.4
999.227	3528.44
999.523	3599.4
999.818	3521.43
1000.114	3524.6
1000.409	3471.04
1000.704	3469.46
1001	3461.32
1001.295	3429.91
1001.59	3416.35
1001.885	3403.24
1002.18	3409.35
1002.475	3337.26
1002.77	3329.12
1003.065	3343.58
1003.359	3318.95
1003.654	3318.5
1003.949	3276.92
1004.243	3269.01
1004.538	3190.14
1004.832	3226.3
1005.127	3212.29
1005.421	3154.66
1005.715	3157.15
1006.009	3176.81
1006.304	3118.96
1006.598	3099.07
1006.892	3087.55
1007.186	3069.47
1007.48	3042.35
1007.773	2983.14
1008.067	3014.1
1008.361	2964.84
1008.655	2968.9
1008.948	2900.88
1009.242	2953.76
1009.535	2911.05
1009.829	2897.04
1010.122	2868.57
1010.415	2859.08
1010.708	2857.72
1011.001	2828.12
1011.295	2807.78
1011.588	2769.14
1011.881	2744.28
1012.173	2742.24
1012.466	2713.54
1012.759	2686.2
1013.052	2712.19
1013.344	2653.89
1013.637	2675.58
1013.93	2602.36
1014.222	2592.64
1014.514	2586.54
1014.807	2605.07
1015.099	2564.85
1015.391	2568.92
1015.683	2519.65
1015.976	2554.23
1016.268	2513.32
1016.56	2458.64
1016.851	2460.67
1017.143	2445.75
1017.435	2427
1017.727	2409.82
1018.018	2390.16
1018.31	2392.2
1018.602	2344.97
1018.893	2326.44
1019.185	2341.12
1019.476	2323.95
1019.767	2291.18
1020.058	2269.71
1020.35	2239.66
1020.641	2239.88
1020.932	2248.25
1021.223	2206.21
1021.514	2195.59
1021.804	2180.9
1022.095	2140.68
1022.386	2141.36
1022.677	2111.75
1022.967	2093.22
1023.258	2098.65
1023.548	2095.71
1023.839	2056.16
1024.129	2035.6
1024.419	2043.96
1024.709	2038.08
1025	2010.29
1025.29	2003.28
1025.58	1997.86
1025.87	1984.07
1026.16	1952.66
1026.449	1946.33
1026.739	1944.75
1027.029	1931.19
1027.319	1929.38
1027.608	1883.96
1027.898	1869.95
1028.187	1865.43
1028.477	1838.31
1028.766	1836.05
1029.055	1786.79
1029.344	1790.4
1029.634	1781.59
1029.923	1780.69
1030.212	1759.67
1030.501	1775.26
1030.79	1738.65
1031.078	1731.65
1031.367	1709.5
1031.656	1747.47
1031.945	1690.97
1032.233	1677.41
1032.522	1635.38
1032.81	1671.99
1033.099	1630.86
1033.387	1623.4
1033.675	1649.62
1033.963	1579.56
1034.251	1584.53
1034.54	1568.72
1034.828	1567.59
1035.116	1586.12
1035.403	1546.34
1035.691	1521.94
1035.979	1531.2
1036.267	1515.38
1036.554	1524.65
1036.842	1516.51
1037.129	1480.36
1037.417	1495.27
1037.704	1465.67
1037.992	1457.98
1038.279	1440.58
1038.566	1458.21
1038.853	1458.21
1039.14	1458.21
