Data from aluminium_surface_pro_back_FLMS001491_00093.txt Node
Date: Wed Feb 08 15:34:47 GMT 2017
User: dcchb
Spectrometer: FLMS00149
Trigger mode: 0
Integration Time (sec): 2.000000E-2
Scans to average: 10
Electric dark correction enabled: true
Nonlinearity correction enabled: false
Boxcar width: 0
XAxis mode: Wavelengths
Number of Pixels in Spectrum: 2048
>>>>>Begin Spectral Data<<<<<
341.393	5.07
341.776	5.07
342.16	5.07
342.543	-63.63
342.927	-91.88
343.31	-76.51
343.693	-89.62
344.077	-67.47
344.46	-58.43
344.843	-56.4
345.226	-33.12
345.61	-31.99
345.993	-13.23
346.376	-7.81
346.759	8.69
347.142	11.85
347.525	55.46
347.908	62.92
348.291	93.2
348.674	102.02
349.057	100.44
349.44	126.65
349.823	145.18
350.206	170.26
350.588	203.48
350.971	232.18
351.354	245.97
351.737	241.9
352.119	263.59
352.502	281
352.884	291.39
353.267	321.45
353.65	308.11
354.032	319.64
354.414	327.32
354.797	338.4
355.179	332.97
355.562	351.28
355.944	332.52
356.326	376.81
356.709	374.1
357.091	348.79
357.473	379.07
357.855	381.33
358.238	379.3
358.62	385.63
359.002	383.14
359.384	369.35
359.766	357.6
360.148	379.98
360.53	372.07
360.912	368
361.294	374.78
361.676	368.68
362.057	358.73
362.439	369.35
362.821	369.13
363.203	371.84
363.584	365.29
363.966	354.67
364.348	354.67
364.729	370.94
365.111	364.38
365.493	346.98
365.874	369.58
366.256	358.73
366.637	373.87
367.019	371.61
367.4	346.08
367.781	347.89
368.163	351.05
368.544	352.86
368.925	341.56
369.306	353.76
369.688	374.78
370.069	374.33
370.45	375.68
370.831	368.68
371.212	402.57
371.593	381.78
371.974	376.81
372.355	381.78
372.736	387.66
373.117	388.79
373.498	374.78
373.879	383.59
374.26	404.38
374.641	370.71
375.021	382.01
375.402	389.69
375.783	416.13
376.163	421.78
376.544	410.48
376.925	403.93
377.305	416.59
377.686	410.26
378.066	387.89
378.447	417.72
378.827	396.02
379.208	421.78
379.588	416.36
379.968	425.4
380.349	426.98
380.729	426.53
381.109	429.69
381.489	438.96
381.87	440.31
382.25	430.6
382.63	457.49
383.01	435.12
383.39	479.63
383.77	440.77
384.15	477.83
384.53	465.85
384.91	460.43
385.29	469.92
385.67	476.02
386.049	471.05
386.429	484.15
386.809	485.06
387.189	478.73
387.568	501.1
387.948	516.02
388.328	525.96
388.707	525.73
389.087	528.9
389.466	518.5
389.846	528.9
390.225	548.33
390.605	545.4
390.984	554.43
391.363	568.67
391.743	552.4
392.122	577.94
392.501	587.65
392.881	583.13
393.26	578.61
393.639	580.42
394.018	583.13
394.397	591.27
394.776	618.84
395.155	614.55
395.534	616.35
395.913	642.79
396.292	639.63
396.671	641.44
397.05	645.51
397.429	640.99
397.808	670.82
398.186	659.74
398.565	659.74
398.944	650.93
399.323	691.61
399.701	684.15
400.08	705.17
400.458	712.62
400.837	710.81
401.215	707.65
401.594	718.27
401.972	758.72
402.351	734.32
402.729	740.64
403.107	757.37
403.486	773.86
403.864	799.17
404.242	792.17
404.62	789.68
404.999	793.75
405.377	815.67
405.755	818.83
406.133	850.92
406.511	838.49
406.889	854.31
407.267	855.44
407.645	867.87
408.023	909.23
408.401	891.6
408.779	924.37
409.156	934.09
409.534	923.92
409.912	925.27
410.29	969.79
410.667	981.09
411.045	998.49
411.422	999.62
411.8	980.41
412.178	1054.53
412.555	1040.3
412.933	1029
413.31	1057.02
413.687	1102.22
414.065	1077.58
414.442	1100.63
414.819	1139.96
415.197	1146.74
415.574	1124.82
415.951	1141.09
416.328	1158.49
416.705	1176.34
417.082	1138.37
417.46	1179.5
417.837	1214.08
418.214	1212.95
418.591	1236.45
418.967	1216.79
419.344	1299.27
419.721	1286.17
420.098	1281.42
420.475	1299.27
420.852	1353.96
421.228	1338.82
421.605	1335.21
421.982	1348.54
422.358	1365.94
422.735	1384.02
423.111	1401.19
423.488	1414.98
423.864	1411.14
424.241	1436.45
424.617	1453.39
424.994	1475.54
425.37	1490.46
425.746	1466.28
426.123	1506.05
426.499	1552.37
426.875	1570
427.251	1584.46
427.627	1603.45
428.003	1628.3
428.379	1632.82
428.756	1664.91
429.132	1651.81
429.507	1680.73
429.883	1726.16
430.259	1762.09
430.635	1736.78
431.011	1774.29
431.387	1788.53
431.763	1816.55
432.138	1868.3
432.514	1889.99
432.89	1876.89
433.265	1912.82
433.641	1991.91
434.016	1940.84
434.392	2020.84
434.767	2025.58
435.143	2047.5
435.518	2062.42
435.894	2111.46
436.269	2106.94
436.644	2179.7
437.02	2199.59
437.395	2178.8
437.77	2200.94
438.145	2242.75
438.52	2267.84
438.895	2316.2
439.271	2287.95
439.646	2375.18
440.021	2372.01
440.395	2360.94
440.77	2373.37
441.145	2395.97
441.52	2443.88
441.895	2446.14
442.27	2471.45
442.645	2477.1
443.019	2516.64
443.394	2478.45
443.769	2544.44
444.143	2542.63
444.518	2565
444.892	2573.59
445.267	2569.75
445.641	2648.39
446.016	2637.09
446.39	2698.78
446.764	2667.83
447.139	2697.66
447.513	2704.89
447.887	2741.27
448.262	2714.15
448.636	2765.68
449.01	2825.56
449.384	2819.23
449.758	2811.32
450.132	2880.7
450.506	2893.36
450.88	2945.11
451.254	2921.38
451.628	3004.31
452.002	2996.4
452.376	3037.31
452.75	3060.36
453.123	3074.82
453.497	3161.82
453.871	3145.33
454.244	3212.22
454.618	3209.51
454.992	3281.14
455.365	3301.03
455.739	3388.94
456.112	3399.33
456.486	3406.56
456.859	3467.13
457.232	3551.19
457.606	3538.54
457.979	3582.6
458.352	3688.82
458.725	3698.31
459.099	3771.98
459.472	3833.44
459.845	3852.2
460.218	3881.13
460.591	3906.89
460.964	3950.96
461.337	4061.01
461.71	4130.16
462.083	4172.42
462.456	4188.69
462.829	4194.34
463.201	4273.88
463.574	4257.16
463.947	4325.18
464.32	4500.77
464.692	4451.51
465.065	4509.13
465.438	4573.31
465.81	4634.33
466.183	4663.93
466.555	4786.41
466.928	4833.87
467.3	4836.81
467.672	4957.03
468.045	5080.19
468.417	5060.3
468.789	5102.34
469.161	5138.04
469.534	5264.37
469.906	5353.4
470.278	5378.71
470.65	5457.13
471.022	5535.09
471.394	5656
471.766	5704.36
472.138	5789.78
472.51	5888.98
472.882	6033.61
473.253	6099.15
473.625	6143.21
473.997	6309.99
474.369	6290.55
474.74	6379.59
475.112	6519.7
475.484	6662.52
475.855	6789.98
476.227	6838.56
476.598	7018.22
476.97	7083.75
477.341	7210.98
477.713	7306.12
478.084	7371.2
478.455	7527.13
478.827	7638.77
479.198	7850.51
479.569	7820.91
479.94	8096.38
480.311	8148.59
480.682	8396.71
481.053	8554.45
481.424	8713.54
481.795	8799.42
482.166	8984.27
482.537	9013.65
482.908	9226.3
483.279	9272.85
483.65	9572.95
484.021	9751.03
484.391	9871.48
484.762	9882.1
485.133	9995.99
485.503	10127.52
485.874	10329.09
486.244	10467.85
486.615	10732.92
486.985	10839.81
487.356	10990.09
487.726	11087.94
488.097	11327.26
488.467	11412.23
488.837	11508.27
489.207	11725.89
489.578	11901.93
489.948	12028.48
490.318	12254.01
490.688	12252.66
491.058	12557.06
491.428	12673.66
491.798	12862.59
492.168	13021
492.538	13204.72
492.908	13278.62
493.278	13437.26
493.648	13478.61
494.017	13769.45
494.387	13787.53
494.757	14065.72
495.126	14055.55
495.496	14134.87
495.866	14190.01
496.235	14444.46
496.605	14506.61
496.974	14586.16
497.344	14835.19
497.713	14863.89
498.082	15058.01
498.452	15255.74
498.821	15320.15
499.19	15409.41
499.559	15610.54
499.928	15662.96
500.298	15791.77
500.667	15947.48
501.036	15918.78
501.405	16129.62
501.774	16148.6
502.143	16297.75
502.512	16458.65
502.88	16493.45
503.249	16620
503.618	16695.25
503.987	16747.91
504.356	16883.27
504.724	17013.44
505.093	17112.87
505.462	17165.3
505.83	17371.85
506.199	17509.47
506.567	17735.23
506.936	17713.08
507.304	17966.63
507.672	17981.77
508.041	18129.34
508.409	18230.81
508.777	18421.76
509.145	18580.18
509.514	18567.75
509.882	18871.24
510.25	18772.03
510.618	18934.06
510.986	19128.41
511.354	19180.84
511.722	19528.62
512.09	19569.98
512.458	19578.34
512.826	19805.45
513.193	19946.24
513.561	20007.93
513.929	20261.04
514.297	20366.57
514.664	20642.04
515.032	20607.69
515.4	20832.55
515.767	20940.57
516.135	21014.01
516.502	21007.46
516.869	21470.72
517.237	21581.45
517.604	21649.25
517.972	21869.81
518.339	22024.83
518.706	22069.58
519.073	22247.42
519.44	22448.77
519.808	22661.65
520.175	22747.75
520.542	23011.92
520.909	23235.19
521.276	23159.26
521.643	23481.97
522.009	23654.84
522.376	23847.38
522.743	23976.19
523.11	24206.24
523.477	24443.98
523.843	24667.92
524.21	24933.91
524.577	25028.37
524.943	25173.9
525.31	25341.35
525.676	25648.01
526.043	25784.96
526.409	25875.35
526.776	26259.97
527.142	26413.87
527.508	26503.13
527.874	26671.26
528.241	26813.18
528.607	27013.4
528.973	27350.11
529.339	27261.3
529.705	27565.25
530.071	27783.78
530.437	27828.52
530.803	28162.52
531.169	28190.32
531.535	28211.11
531.901	28347.83
532.267	28546.92
532.632	28658.55
532.998	28878.89
533.364	28917.3
533.73	29091.09
534.095	29227.58
534.461	29549.15
534.826	29611.3
535.192	29729.94
535.557	29905.53
535.923	29935.36
536.288	30084.73
536.653	30304.61
537.019	30176.71
537.384	30356.36
537.749	30602.01
538.114	30590.93
538.479	30732.17
538.845	30928.1
539.21	30903.69
539.575	31229.11
539.94	31138.04
540.305	31288.54
540.67	31443.11
541.034	31387.07
541.399	31712.26
541.764	31668.64
542.129	31837.91
542.494	32029.31
542.858	32084.45
543.223	32160.61
543.587	32510.88
543.952	32312.24
544.316	32482.18
544.681	32528.74
545.045	32638.56
545.41	32982.96
545.774	32996.52
546.138	32933.47
546.503	33112.9
546.867	33146.8
547.231	33373.01
547.595	33405.32
547.959	33550.86
548.324	33693.22
548.688	33747.01
549.052	33880.11
549.416	34017.28
549.779	34031.97
550.143	34206.66
550.507	34374.34
550.871	34372.75
551.235	34413.43
551.599	34772.97
551.962	34798.51
552.326	34923.47
552.689	35115.11
553.053	34926.41
553.417	35177.25
553.78	35677.58
554.143	35464.03
554.507	35634.87
554.87	35799.84
555.234	36117.57
555.597	35950.11
555.96	36328.41
556.323	36436.2
556.686	36379.93
557.05	36655.86
557.413	36896.08
557.776	36926.13
558.139	37395.73
558.502	37277.99
558.865	37577.19
559.228	37797.98
559.59	37856.05
559.953	37954.58
560.316	38343.05
560.679	38348.7
561.041	38644.28
561.404	38765.18
561.767	39103.7
562.129	38899.42
562.492	39350.93
562.854	39365.84
563.217	39427.08
563.579	39593.63
563.941	39882.89
564.304	40152.04
564.666	40334.18
565.028	40324.46
565.39	40498.47
565.753	40866.82
566.115	40899.59
566.477	41188.85
566.839	41234.72
567.201	41545
567.563	41612.34
567.925	41844.2
568.287	41855.5
568.648	42241.93
569.01	42337.74
569.372	42610.28
569.734	42400.34
570.095	42828.35
570.457	42893.66
570.819	43121
571.18	43146.54
571.542	43393.99
571.903	43431.95
572.265	43704.03
572.626	43773.86
572.987	43862.67
573.349	44050.01
573.71	44252.04
574.071	44413.85
574.432	44512.83
574.794	44718.25
575.155	44790.11
575.516	44778.81
575.877	45087.73
576.238	45178.35
576.599	45318
576.96	45256.08
577.32	45491.11
577.681	45592.12
578.042	45677.99
578.403	45633.48
578.763	45804.54
579.124	45845.45
579.485	46016.74
579.845	46218.32
580.206	46134.48
580.566	46152.56
580.927	46199.34
581.287	46286.34
581.648	46145.1
582.008	46363.17
582.368	46371.99
582.728	46490.18
583.089	46501.48
583.449	46498.31
583.809	46461.25
584.169	46720
584.529	46605.2
584.889	46876.15
585.249	46566.78
585.609	46623.05
585.969	46866.66
586.329	46693.33
586.688	46728.14
587.048	46814.24
587.408	46740.79
587.768	46696.27
588.127	46625.31
588.487	46626.67
588.846	46805.87
589.206	46609.72
589.565	46848.58
589.925	46877.96
590.284	46863.95
590.643	46767.68
591.003	46865.08
591.362	46995.93
591.721	46910.73
592.08	46862.14
592.44	47079.54
592.799	46931.07
593.158	46950.05
593.517	46950.73
593.876	46986.21
594.235	46947.34
594.593	47023.04
594.952	47197.28
595.311	47066.66
595.67	47229.14
596.029	47375.8
596.387	47392.75
596.746	47408.12
597.104	47194.79
597.463	47161.12
597.822	47356.14
598.18	47381
598.538	47267.33
598.897	47457.38
599.255	47185.52
599.613	47725.4
599.972	47352.07
600.33	47619.41
600.688	47461.22
601.046	47475.01
601.404	47651.05
601.762	47649.69
602.12	47776.7
602.478	47839.07
602.836	47816.02
603.194	47632.52
603.552	47838.62
603.91	47646.53
604.268	47863.7
604.625	47769.46
604.983	47989.8
605.341	47861.44
605.698	48065.05
606.056	48222.79
606.413	48145.95
606.771	48335.33
607.128	48382.56
607.485	48096.91
607.843	48246.29
608.2	48409.45
608.557	48492.38
608.914	48409
609.272	48587.07
609.629	48588.88
609.986	48774.86
610.343	48583.45
610.7	48833.84
611.057	48716.33
611.414	48747.07
611.771	48748.42
612.127	48823.22
612.484	48805.82
612.841	48919.04
613.198	48904.8
613.554	49031.8
613.911	49089.88
614.267	48974.18
614.624	49020.96
614.98	48988.64
615.337	49301.4
615.693	49257.33
616.05	49145.93
616.406	49485.58
616.762	49254.62
617.118	49326.49
617.475	49336.65
617.831	49372.36
618.187	49525.35
618.543	49492.81
618.899	49718.11
619.255	49626.59
619.611	49541.62
619.967	49686.93
620.323	49737.77
620.678	49675.63
621.034	49560.38
621.39	49432.25
621.746	49572.35
622.101	50092.79
622.457	49591.34
622.812	49752.24
623.168	49849.41
623.523	49688.06
623.879	49990.42
624.234	49642.18
624.589	49819.58
624.945	49813.48
625.3	49906.58
625.655	49877.21
626.01	49848.96
626.365	49930.54
626.72	49935.74
627.075	49795.63
627.43	49809.18
627.785	49698.45
628.14	49895.51
628.495	49886.24
628.85	49823.2
629.205	49586.82
629.559	49846.02
629.914	49674.5
630.269	49684.44
630.623	49726.47
630.978	49543.2
631.332	49694.84
631.687	49790.65
632.041	49620.49
632.396	49541.62
632.75	49514.73
633.104	49573.26
633.459	49349.76
633.813	49347.95
634.167	49218.92
634.521	49289.2
634.875	49387.95
635.229	49281.06
635.583	49035.42
635.937	48952.26
636.291	48994.52
636.645	48952.71
636.999	48941.41
637.352	48969.43
637.706	48666.16
638.06	48757.91
638.413	48640.63
638.767	48593.17
639.121	48672.94
639.474	48322.22
639.828	48285.61
640.181	48380.07
640.534	48340.07
640.888	48332.84
641.241	48053.52
641.594	48249
641.947	48277.93
642.301	48150.47
642.654	48125.84
643.007	48052.17
643.36	48179.62
643.713	48019.85
644.066	48199.28
644.419	47875.68
644.771	47595.01
645.124	47305.52
645.477	47235.24
645.83	46927
646.182	46808.36
646.535	46654.24
646.888	46671.19
647.24	46563.39
647.593	46759.1
647.945	46698.31
648.298	46460.35
648.65	46358.2
649.002	46275.49
649.355	46438.65
649.707	46357.75
650.059	46453.11
650.411	46868.02
650.763	46973.33
651.115	47231.4
651.467	47185.3
651.819	47111.18
652.171	46986.89
652.523	46912.54
652.875	46857.62
653.227	46679.32
653.578	46908.02
653.93	46875.93
654.282	46546.22
654.633	46451.53
654.985	46717.74
655.337	46620.12
655.688	46508.03
656.039	46743.05
656.391	46400.01
656.742	46535.82
657.094	46542.83
657.445	46801.81
657.796	46448.37
658.147	46555.94
658.498	46444.75
658.849	46486.33
659.2	46517.07
659.551	46417.18
659.902	46452.89
660.253	46435.49
660.604	46524.3
660.955	46198.66
661.306	46425.32
661.656	46341.93
662.007	46332.89
662.358	46290.63
662.708	46251.76
663.059	46084.31
663.409	45847.71
663.76	46252.67
664.11	46177.64
664.461	46122.73
664.811	46117.98
665.161	46188.49
665.511	45834.83
665.862	46007.25
666.212	46211.09
666.562	46018.1
666.912	45860.81
667.262	45885.22
667.612	45775.84
667.962	45899.01
668.312	45677.32
668.662	45893.58
669.011	45708.28
669.361	45735.39
669.711	45576.08
670.06	45406.14
670.41	45409.53
670.76	45466.7
671.109	45477.1
671.459	45322.97
671.808	45264.9
672.157	45423.09
672.507	45045.47
672.856	45126.37
673.205	45052.7
673.554	45352.8
673.904	45026.94
674.253	45304.67
674.602	45015.64
674.951	44432.15
675.3	44185.38
675.649	44850.45
675.998	44821.29
676.346	44768.19
676.695	44980.84
677.044	44591.92
677.393	44681.86
677.741	44772.71
678.09	44695.19
678.438	44625.59
678.787	44672.14
679.135	44793.05
679.484	44397.12
679.832	44574.75
680.181	44325.94
680.529	44541.3
680.877	44492.94
681.225	44174.53
681.573	44467.86
681.922	44223.57
682.27	44066.96
682.618	44120.75
682.966	44162.55
683.314	44241.65
683.661	43965.72
684.009	43755.33
684.357	43858.83
684.705	43715.11
685.053	43689.12
685.4	43586.3
685.748	43376.59
686.095	43417.71
686.443	43161
686.79	43091.4
687.138	43145.18
687.485	43050.72
687.832	43027.67
688.18	43016.14
688.527	42821.8
688.874	42771.63
689.221	42749.26
689.568	42415.48
689.915	42422.71
690.262	42515.82
690.609	42282.15
690.956	42248.93
691.303	42093.68
691.65	41862.73
691.997	41960.35
692.344	41627.93
692.69	41575.5
693.037	41759.68
693.383	41486.24
693.73	41636.52
694.077	41249.41
694.423	41181.61
694.769	41106.59
695.116	40980.49
695.462	40933.94
695.808	40757.9
696.155	40833.38
696.501	40587.51
696.847	40523.78
697.193	40341.41
697.539	40378.02
697.885	40140.51
698.231	40043.57
698.577	39971.03
698.923	40024.13
699.269	39726.29
699.614	39485.61
699.96	39467.99
700.306	39449.01
700.651	39286.07
700.997	39173.76
701.342	39122.01
701.688	38923.6
702.033	38844.05
702.379	38795.91
702.724	38807.44
703.069	38775.35
703.415	38240
703.76	38478.64
704.105	38428.02
704.45	38390.28
704.795	38034.81
705.14	37948.93
705.485	37896.73
705.83	37867.35
706.175	37677.3
706.52	37716.17
706.865	37411.32
707.209	37483.63
707.554	37367.25
707.899	37476.63
708.243	37107.82
708.588	37148.73
708.932	36907.6
709.277	36813.37
709.621	36928.39
709.966	36749.87
710.31	36569.31
710.654	36410.67
710.998	36504.22
711.342	36527.95
711.687	36383.77
712.031	36201.63
712.375	36107.85
712.719	36243.89
713.063	36099.71
713.407	36202.54
713.75	35898.14
714.094	35879.83
714.438	35707.41
714.782	35705.83
715.125	35522.1
715.469	35633.06
715.812	35436.91
716.156	35148.55
716.499	35327.31
716.843	35232.62
717.186	35120.53
717.53	35237.82
717.873	35294.76
718.216	35135.9
718.559	34959.63
718.902	34708.34
719.246	34805.06
719.589	34736.81
719.932	34476.93
720.275	34446.65
720.617	34421.79
720.96	34364.85
721.303	34296.82
721.646	34322.36
721.989	34090.5
722.331	34163.72
722.674	34109.48
723.016	34124.85
723.359	33935.7
723.701	33937.74
724.044	33756.5
724.386	33668.14
724.729	33760.34
725.071	33631.98
725.413	33624.07
725.755	33546.56
726.097	33428.82
726.439	33250.3
726.782	33254.14
727.124	33209.85
727.465	33048.95
727.807	32987.03
728.149	33001.04
728.491	32897.54
728.833	32932.57
729.175	32780.03
729.516	32741.16
729.858	32592.69
730.199	32644.89
730.541	32644.44
730.882	32514.05
731.224	32674.72
731.565	32264.34
731.906	32356.99
732.248	32471.11
732.589	32242.87
732.93	32150.67
733.271	32213.26
733.612	32152.47
733.953	32214.62
734.294	31908.19
734.635	31898.02
734.976	31982.99
735.317	31800.62
735.658	31928.98
735.999	31810.56
736.339	31736.21
736.68	31908.64
737.021	31691.69
737.361	31561.08
737.702	31708.87
738.042	31608.53
738.383	31539.38
738.723	31573.73
739.063	31360.4
739.404	31476.79
739.744	31393.17
740.084	31111.15
740.424	31309.56
740.764	31247.64
741.104	31291.71
741.444	30999.06
741.784	30891.26
742.124	30958.15
742.464	30861.21
742.804	30828.44
743.143	30684.49
743.483	30724.71
743.823	30474.78
744.162	30476.36
744.502	30610.14
744.841	30428.68
745.181	30513.87
745.52	30235.46
745.86	30233.65
746.199	30213.77
746.538	30181.23
746.877	30308.91
747.216	30078.86
747.556	29969.03
747.895	29972.42
748.234	29966.09
748.573	29800.9
748.911	29731.52
749.25	29723.16
749.589	29651.97
749.928	29746.44
750.267	29717.96
750.605	29393.22
750.944	29529.49
751.283	29346.67
751.621	29348.48
751.96	29218.77
752.298	29086.57
752.636	29056.28
752.975	28906.23
753.313	28829.62
753.651	28990.3
753.989	28731.77
754.327	28647.48
754.666	28588.27
755.004	28736.52
755.342	28581.04
755.679	28641.61
756.017	28392.8
756.355	28475.96
756.693	28247.04
757.031	28317.55
757.368	28221.5
757.706	28015.18
758.044	27979.93
758.381	28000.04
758.719	27958.69
759.056	27984.22
759.394	27704.23
759.731	27486.38
760.068	27500.39
760.405	27396.44
760.743	27312.83
761.08	27421.52
761.417	27154.41
761.754	27153.96
762.091	27222.43
762.428	26974.76
762.765	26918.04
763.102	26960.97
763.438	26772.73
763.775	26673.3
764.112	26651.83
764.449	26694.54
764.785	26374.32
765.122	26394.66
765.458	26285.74
765.795	26175.46
766.131	26293.87
766.467	26006.65
766.804	26031.96
767.14	25927.78
767.476	25952.41
767.812	25723.94
768.148	25831.06
768.485	25585.87
768.821	25438.07
769.157	25328.7
769.492	25303.84
769.828	25216.61
770.164	24957.41
770.5	24893
770.836	24937.97
771.171	24601.03
771.507	24731.88
771.842	24464.31
772.178	24429.29
772.513	24416.86
772.849	24248.05
773.184	24255.51
773.519	24271.78
773.855	24023.42
774.19	23994.95
774.525	23974.38
774.86	23898.91
775.195	23851.22
775.53	23734.84
775.865	23447.84
776.2	23368.98
776.535	23235.19
776.87	23202.88
777.205	23262.99
777.539	23091.92
777.874	23055.09
778.209	22800.86
778.543	22721.76
778.878	22572.16
779.212	22748.2
779.547	22523.12
779.881	22615.32
780.215	22449.68
780.55	22505.72
780.884	22209.01
781.218	22170.59
781.552	22200.65
781.886	21974.44
782.22	21914.55
782.554	21841.11
782.888	21630.94
783.222	21585.29
783.556	21490.38
783.889	21368.12
784.223	21298.75
784.557	21249.26
784.89	21285.19
785.224	21187.11
785.557	21076.61
785.891	20920.9
786.224	20838.87
786.558	20967.68
786.891	20758.42
787.224	20691.53
787.557	20734.02
787.891	20592.1
788.224	20539.45
788.557	20431.2
788.89	20463.97
789.223	20411.09
789.556	20237.31
789.888	20180.81
790.221	20066.69
790.554	19904.66
790.887	19903.53
791.219	19757.77
791.552	19790.99
791.884	19632.58
792.217	19630.77
792.549	19597.55
792.882	19399.14
793.214	19308.29
793.546	19452.69
793.879	19145.58
794.211	19152.59
794.543	19144.68
794.875	19036.21
795.207	19149.2
795.539	18950.11
795.871	18872.15
796.203	18736.78
796.535	18694.07
796.867	18654.75
797.198	18569.1
797.53	18553.06
797.862	18411.14
798.193	18400.52
798.525	18223.8
798.856	18312.84
799.188	18026.29
799.519	18069.45
799.85	17977.71
800.182	17929.12
800.513	18073.3
800.844	17739.29
801.175	17816.81
801.506	17828.33
801.837	17706.3
802.168	17710.59
802.499	17702.23
802.83	17526.87
803.161	17547.89
803.491	17555.8
803.822	17420.66
804.153	17327.33
804.483	17149.25
804.814	17149.25
805.145	17102.7
805.475	17062.02
805.805	17008.01
806.136	16998.97
806.466	16958.07
806.796	16901.35
807.126	16792.43
807.457	16769.15
807.787	16693.9
808.117	16652.77
808.447	16599.89
808.777	16550.4
809.107	16617.74
809.436	16530.96
809.766	16524.64
810.096	16477.63
810.426	16396.28
810.755	16374.13
811.085	16310.86
811.414	16303.17
811.744	16161.93
812.073	16123.52
812.403	16000.36
812.732	15973.24
813.061	16062.05
813.39	15993.35
813.719	15923.52
814.049	15994.03
814.378	15891.43
814.707	15861.15
815.036	15795.62
815.365	15711.55
815.693	15639.01
816.022	15606.92
816.351	15645.34
816.68	15460.94
817.008	15486.92
817.337	15333.26
817.665	15339.13
817.994	15388.85
818.322	15361.73
818.651	15265.46
818.979	15137.33
819.307	15219.59
819.636	15083.77
819.964	15082.19
820.292	15124.45
820.62	15126.93
820.948	14976.65
821.276	15076.31
821.604	15069.99
821.932	15068.4
822.259	15056.2
822.587	15013.72
822.915	14906.83
823.243	14970.55
823.57	14921.29
823.898	14958.12
824.225	14967.84
824.553	14945.24
824.88	14934.85
825.207	15019.14
825.535	14947.73
825.862	14938.69
826.189	14832.25
826.516	14951.12
826.843	15048.52
827.17	14980.72
827.497	14941.17
827.824	14911.35
828.151	14986.37
828.478	14918.12
828.805	14890.33
829.131	14833.83
829.458	14773.5
829.785	14747.28
830.111	14780.73
830.438	14940.27
830.764	14859.82
831.09	14858.01
831.417	14779.15
831.743	14806.72
832.069	14778.02
832.395	14739.6
832.722	14797
833.048	14762.2
833.374	14756.32
833.7	14596.78
834.026	14587.96
834.351	14660.5
834.677	14620.96
835.003	14757.68
835.329	14643.33
835.654	14645.82
835.98	14585.03
836.306	14603.56
836.631	14578.02
836.956	14510
837.282	14561.52
837.607	14490.79
837.932	14415.31
838.258	14402.21
838.583	14421.87
838.908	14423.67
839.233	14402.66
839.558	14337.8
839.883	14269.55
840.208	14258.03
840.533	14321.76
840.858	14275.2
841.182	14276.33
841.507	14198.82
841.832	14226.62
842.156	14171.93
842.481	14079.5
842.805	14096.23
843.13	14094.87
843.454	14080.41
843.778	14046.06
844.103	13979.62
844.427	14059.62
844.751	13965.16
845.075	13899.39
845.399	13831.6
845.723	13779.17
846.047	13874.99
846.371	13692.17
846.695	13679.51
847.019	13563.81
847.343	13567.88
847.666	13539.18
847.99	13466.41
848.313	13453.76
848.637	13304.83
848.96	13333.08
849.284	13275.46
849.607	13268.68
849.931	13116.59
850.254	13117.95
850.577	13066.2
850.9	12846.99
851.223	12874.56
851.546	12919.76
851.869	12771.97
852.192	12875.69
852.515	12710.27
852.838	12737.84
853.161	12729.48
853.483	12720.67
853.806	12595.47
854.129	12599.09
854.451	12559.99
854.774	12532.2
855.096	12445.87
855.419	12431.41
855.741	12343.73
856.063	12309.61
856.385	12317.06
856.708	12294.69
857.03	12236.39
857.352	12262.38
857.674	12169.04
857.996	12122.72
858.318	12065.77
858.64	12052.44
858.961	12043.4
859.283	11977.64
859.605	11929.73
859.926	11928.37
860.248	11869.62
860.57	11810.64
860.891	11821.93
861.212	11789.17
861.534	11820.35
861.855	11838.66
862.176	11716.63
862.498	11755.27
862.819	11666.01
863.14	11703.75
863.461	11636.18
863.782	11627.82
864.103	11697.19
864.424	11640.24
864.745	11609.06
865.065	11550.08
865.386	11548.5
865.707	11576.07
866.027	11588.49
866.348	11548.04
866.668	11570.42
866.989	11497.2
867.309	11356.86
867.63	11445.67
867.95	11499.46
868.27	11340.14
868.59	11348.5
868.91	11451.32
869.23	11318.67
869.55	11244.32
869.87	11315.73
870.19	11259.46
870.51	11364.32
870.83	11283.87
871.15	11271.21
871.469	11241.61
871.789	11257.66
872.109	11225.11
872.428	11090.65
872.748	11180.14
873.067	11209.07
873.386	11152.57
873.706	11207.94
874.025	11111.9
874.344	11084.78
874.663	11129.52
874.982	11081.62
875.301	11035.97
875.62	11037.32
875.939	11075.06
876.258	11031.67
876.577	11030.32
876.896	11054.05
877.214	10890.43
877.533	11024.44
877.852	10957.55
878.17	10913.03
878.489	10970.66
878.807	10883.2
879.125	10911.22
879.444	10931.11
879.762	10946.25
880.08	10948.06
880.398	10852.02
880.716	10895.18
881.034	10859.25
881.352	10836.2
881.67	10840.94
881.988	10828.51
882.306	10718.69
882.624	10725.92
882.941	10682.3
883.259	10709.42
883.577	10626.71
883.894	10632.14
884.212	10670.55
884.529	10627.39
884.846	10594.17
885.164	10553.72
885.481	10567.73
885.798	10576.09
886.115	10457.9
886.432	10546.71
886.75	10451.35
887.067	10445.02
887.383	10426.27
887.7	10471.46
888.017	10412.48
888.334	10411.35
888.651	10331.8
888.967	10311.01
889.284	10294.29
889.6	10255.65
889.917	10207.29
890.233	10205.48
890.55	10127.74
890.866	10102.21
891.182	10121.64
891.498	10121.41
891.815	9994.19
892.131	10072.15
892.447	10080.51
892.763	9973.4
893.079	10027.63
893.395	9966.39
893.71	9882.1
894.026	9834.87
894.342	9885.04
894.657	9775.21
894.973	9828.32
895.289	9807.52
895.604	9806.62
895.92	9667.64
896.235	9727.98
896.55	9683.46
896.865	9679.39
897.181	9593.97
897.496	9616.34
897.811	9539.74
898.126	9565.95
898.441	9476.23
898.756	9457.25
899.071	9436.23
899.386	9425.39
899.7	9403.92
900.015	9327.76
900.33	9298.84
900.644	9273.75
900.959	9255
901.273	9195.11
901.588	9170.48
901.902	9133.87
902.216	9074.66
902.531	9105.85
902.845	9038.51
903.159	8958.28
903.473	9015.91
903.787	8897.27
904.101	8914.67
904.415	8935.46
904.729	8929.81
905.042	8917.6
905.356	8888.68
905.67	8798.51
905.984	8814.1
906.297	8806.65
906.611	8774.33
906.924	8714.22
907.237	8635.58
907.551	8666.76
907.864	8628.35
908.177	8625.41
908.491	8538.63
908.804	8542.02
909.117	8431.52
909.43	8476.49
909.743	8444.4
910.056	8428.8
910.368	8363.49
910.681	8394
910.994	8368.24
911.307	8257.73
911.619	8234.68
911.932	8225.87
912.244	8144.97
912.557	8221.8
912.869	8108.59
913.181	8072.2
913.494	7984.07
913.806	7990.62
914.118	7994.92
914.43	7984.3
914.742	7918.76
915.054	7931.19
915.366	7898.65
915.678	7827.01
915.99	7844.19
916.302	7708.82
916.613	7625.89
916.925	7667.92
917.236	7663.85
917.548	7543.86
917.859	7657.52
918.171	7522.39
918.482	7557.87
918.794	7533.23
919.105	7514.03
919.416	7435.38
919.727	7434.93
920.038	7384.54
920.349	7356.06
920.66	7374.14
920.971	7270.19
921.282	7265.9
921.593	7212.34
921.903	7234.03
922.214	7205.33
922.525	7189.29
922.835	7150.19
923.146	7103.41
923.456	7072.23
923.767	7036.98
924.077	7048.5
924.387	7030.42
924.697	6999.91
925.008	6941.61
925.318	6938.45
925.628	6931.67
925.938	6798.11
926.248	6846.25
926.558	6795.4
926.867	6818.9
927.177	6757.44
927.487	6724.89
927.796	6690.32
928.106	6663.88
928.416	6654.61
928.725	6650.55
929.034	6584.56
929.344	6638.79
929.653	6553.15
929.962	6537.33
930.271	6487.84
930.581	6476.76
930.89	6443.77
931.199	6406.26
931.508	6391.12
931.817	6347.95
932.125	6338.46
932.434	6332.36
932.743	6294.17
933.051	6289.43
933.36	6265.24
933.669	6202.65
933.977	6188.41
934.286	6202.2
934.594	6165.36
934.902	6133.04
935.21	6070
935.519	6063.89
935.827	6084.91
936.135	6030
936.443	5970.56
936.751	5933.5
937.059	5947.74
937.367	5915.2
937.674	5940.96
937.982	5908.19
938.29	5869.78
938.597	5888.98
938.905	5825.26
939.213	5817.57
939.52	5780.06
939.827	5766.73
940.135	5728.76
940.442	5695.77
940.749	5745.03
941.056	5707.07
941.363	5584.58
941.67	5604.47
941.977	5521.31
942.284	5545.72
942.591	5520.86
942.898	5498.71
943.205	5487.41
943.511	5444.7
943.818	5478.15
944.125	5393.86
944.431	5405.15
944.738	5376.23
945.044	5350.01
945.35	5334.42
945.657	5283.12
945.963	5289.45
946.269	5288.32
946.575	5262.79
946.881	5195.89
947.187	5243.8
947.493	5189.79
947.799	5177.59
948.105	5104.37
948.41	5120.64
948.716	5101.66
949.022	5080.87
949.327	5093.07
949.633	5042.9
949.938	5030.25
950.244	4986.63
950.549	4956.35
950.854	4959.29
951.16	4926.97
951.465	4960.87
951.77	4923.59
952.075	4863.25
952.38	4846.75
952.685	4860.31
952.99	4791.61
953.294	4816.02
953.599	4742.35
953.904	4747.09
954.209	4716.36
954.513	4724.04
954.818	4708.68
955.122	4691.73
955.426	4666.42
955.731	4625.74
956.035	4589.58
956.339	4640.2
956.643	4614.44
956.948	4562.69
957.252	4525.18
957.556	4477.95
957.86	4506.42
958.163	4499.64
958.467	4495.12
958.771	4449.93
959.075	4425.29
959.378	4408.34
959.682	4422.13
959.985	4369.02
960.289	4340.55
960.592	4362.92
960.896	4332.64
961.199	4287.44
961.502	4294.9
961.805	4237.28
962.108	4300.55
962.411	4244.06
962.714	4213.1
963.017	4204.96
963.32	4201.34
963.623	4167.67
963.926	4170.84
964.228	4121.35
964.531	4090.84
964.833	4091.74
965.136	4070.73
965.438	4073.44
965.741	4063.27
966.043	3994.34
966.345	4047.9
966.648	3986.43
966.95	4004.74
967.252	3987.11
967.554	3911.86
967.856	3935.36
968.158	3919.09
968.46	3889.49
968.761	3868.25
969.063	3833.22
969.365	3811.98
969.666	3803.39
969.968	3774.91
970.269	3822.82
970.571	3766.78
970.872	3735.82
971.174	3761.58
971.475	3744.86
971.776	3735.37
972.077	3687.69
972.378	3680.23
972.679	3674.35
972.98	3642.94
973.281	3643.17
973.582	3602.94
973.883	3653.79
974.183	3596.16
974.484	3600
974.785	3557.52
975.085	3536.28
975.386	3563.85
975.686	3521.14
975.986	3513.23
976.287	3517.75
976.587	3468.26
976.887	3489.05
977.187	3434.81
977.487	3427.35
977.787	3441.82
978.087	3400.24
978.387	3386
978.687	3403.4
978.987	3355.26
979.286	3321.82
979.586	3320.01
979.885	3344.42
980.185	3256.28
980.484	3242.73
980.784	3243.18
981.083	3277.75
981.382	3224.19
981.682	3195.04
981.981	3206.12
982.28	3201.82
982.579	3164.99
982.878	3153.69
983.177	3118.89
983.475	3107.81
983.774	3100.58
984.073	3144.87
984.372	3081.15
984.67	3088.38
984.969	3063.52
985.267	3037.99
985.566	3065.78
985.864	3010.87
986.162	3009.74
986.461	2993.69
986.759	2989.17
987.057	2970.19
987.355	2947.14
987.653	2924.32
987.951	2905.11
988.249	2939.23
988.547	2932
988.844	2896.29
989.142	2878.22
989.44	2861.72
989.737	2835.28
990.035	2852.91
990.332	2800.93
990.63	2803.64
990.927	2822.4
991.224	2816.52
991.521	2793.02
991.819	2748.05
992.116	2755.51
992.413	2762.06
992.71	2741.27
993.006	2748.95
993.303	2744.66
993.6	2711.89
993.897	2699.91
994.193	2678.45
994.49	2674.6
994.787	2621.05
995.083	2656.98
995.379	2638.67
995.676	2596.41
995.972	2598.9
996.268	2576.08
996.565	2566.13
996.861	2615.17
997.157	2512.35
997.453	2546.02
997.749	2533.82
998.044	2527.94
998.34	2510.32
998.636	2496.08
998.932	2496.3
999.227	2469.41
999.523	2463.76
999.818	2406.82
1000.114	2440.03
1000.409	2399.13
1000.704	2387.83
1001	2395.06
1001.295	2377.44
1001.59	2370.66
1001.885	2367.04
1002.18	2329.08
1002.475	2298.8
1002.77	2316.42
1003.065	2297.21
1003.359	2317.55
1003.654	2261.06
1003.949	2283.88
1004.243	2276.88
1004.538	2244.56
1004.832	2258.34
1005.127	2207.95
1005.421	2204.11
1005.715	2196.65
1006.009	2183.54
1006.304	2142.19
1006.598	2153.49
1006.892	2153.49
1007.186	2140.38
1007.48	2125.24
1007.773	2106.94
1008.067	2090.67
1008.361	2104.68
1008.655	2065.36
1008.948	2058.58
1009.242	2074.39
1009.535	2042.08
1009.829	2028.52
1010.122	2025.36
1010.415	2031.23
1010.708	1986.71
1011.001	1983.78
1011.295	1959.37
1011.588	1974.28
1011.881	1956.66
1012.173	1939.03
1012.466	1965.02
1012.759	1917.56
1013.052	1892.93
1013.344	1915.98
1013.637	1883.21
1013.93	1854.51
1014.222	1877.79
1014.514	1865.59
1014.807	1845.47
1015.099	1820.39
1015.391	1835.3
1015.683	1842.08
1015.976	1827.4
1016.268	1781.29
1016.56	1756.44
1016.851	1756.66
1017.143	1771.35
1017.435	1762.09
1017.727	1759.37
1018.018	1711.69
1018.31	1699.26
1018.602	1693.84
1018.893	1697.68
1019.185	1672.82
1019.476	1671.69
1019.767	1686.38
1020.058	1665.37
1020.35	1638.25
1020.641	1640.73
1020.932	1619.27
1021.223	1612.03
1021.514	1607.06
1021.804	1566.39
1022.095	1572.03
1022.386	1593.28
1022.677	1555.76
1022.967	1540.4
1023.258	1511.92
1023.548	1511.7
1023.839	1513.73
1024.129	1519.38
1024.419	1486.84
1024.709	1470.57
1025	1458.82
1025.29	1437.58
1025.58	1448.65
1025.87	1417.24
1026.16	1439.38
1026.449	1418.37
1026.739	1445.26
1027.029	1416.33
1027.319	1399.16
1027.608	1368.42
1027.898	1387.63
1028.187	1366.62
1028.477	1360.97
1028.766	1351.48
1029.055	1331.59
1029.344	1329.56
1029.634	1318.71
1029.923	1303.12
1030.212	1282.1
1030.501	1299.05
1030.79	1283.91
1031.078	1261.99
1031.367	1297.47
1031.656	1279.84
1031.945	1271.48
1032.233	1227.41
1032.522	1227.41
1032.81	1227.86
1033.099	1239.16
1033.387	1191.25
1033.675	1199.16
1033.963	1201.2
1034.251	1196.9
1034.54	1177.7
1034.828	1152.61
1035.116	1165.04
1035.403	1168.88
1035.691	1149.9
1035.979	1130.92
1036.267	1105.83
1036.554	1146.96
1036.842	1116.91
1037.129	1100.18
1037.417	1091.6
1037.704	1095.66
1037.992	1085.95
1038.279	1090.92
1038.566	1061.09
1038.853	1061.09
1039.14	1061.09
