Data from aluminium_macbook_case_FLMS001491_074.txt Node
Date: Tue Feb 07 10:44:11 GMT 2017
User: dcchb
Spectrometer: FLMS00149
Trigger mode: 0
Integration Time (sec): 2.000000E-2
Scans to average: 10
Electric dark correction enabled: true
Nonlinearity correction enabled: false
Boxcar width: 0
XAxis mode: Wavelengths
Number of Pixels in Spectrum: 2048
>>>>>Begin Spectral Data<<<<<
341.393	-12.61
341.776	-12.61
342.16	-12.61
342.543	-61.2
342.927	-66.62
343.31	-74.08
343.693	-57.81
344.077	-73.4
344.46	-76.34
344.843	-38.83
345.226	-56.91
345.61	-27.53
345.993	-15.32
346.376	-3.57
346.759	24
347.142	21.06
347.525	50.21
347.908	47.95
348.291	68.06
348.674	107.61
349.057	104.9
349.44	119.81
349.823	129.3
350.206	183.54
350.588	233.71
350.971	254.95
351.354	271.9
351.737	299.7
352.119	318.68
352.502	324.78
352.884	326.14
353.267	327.04
353.65	362.52
354.032	353.25
354.414	371.78
354.797	359.13
355.179	374.95
355.562	373.82
355.944	408.39
356.326	407.94
356.709	405.23
357.091	418.34
357.473	414.72
357.855	403.65
358.238	418.79
358.62	416.98
359.002	412.46
359.384	445.45
359.766	415.4
360.148	412.91
360.53	409.75
360.912	435.06
361.294	426.25
361.676	412.23
362.057	424.89
362.439	426.02
362.821	428.28
363.203	443.87
363.584	414.27
363.966	420.37
364.348	425.12
364.729	418.34
365.111	414.04
365.493	446.36
365.874	425.57
366.256	413.14
366.637	429.64
367.019	421.05
367.4	461.05
367.781	443.19
368.163	439.8
368.544	453.59
368.925	455.4
369.306	447.94
369.688	454.27
370.069	456.98
370.45	430.31
370.831	459.24
371.212	474.15
371.593	484.78
371.974	457.21
372.355	472.35
372.736	479.13
373.117	501.95
373.498	484.32
373.879	484.78
374.26	467.6
374.641	438.22
375.021	469.41
375.402	481.61
375.783	511.89
376.163	524.1
376.544	517.54
376.925	519.8
377.305	524.55
377.686	523.64
378.066	520.71
378.447	542.85
378.827	542.18
379.208	529.07
379.588	544.43
379.968	549.18
380.349	554.6
380.729	551.21
381.109	568.16
381.489	579.24
381.87	564.1
382.25	598.9
382.63	593.7
383.01	618.11
383.39	627.14
383.77	594.6
384.15	637.99
384.53	629.86
384.91	633.7
385.29	646.35
385.67	652
386.049	644.55
386.429	668.27
386.809	658.56
387.189	679.12
387.568	684.32
387.948	693.81
388.328	704.66
388.707	735.84
389.087	708.95
389.466	721.61
389.846	726.35
390.225	758.44
390.605	762.73
390.984	759.12
391.363	770.64
391.743	776.52
392.122	802.06
392.501	823.75
392.881	820.13
393.26	840.7
393.639	819.91
394.018	864.43
394.397	869.85
394.776	871.43
395.155	884.09
395.534	873.24
395.913	906.23
396.292	927.25
396.671	932.9
397.05	930.41
397.429	931.54
397.808	933.8
398.186	936.29
398.565	946.91
398.944	946.68
399.323	970.86
399.701	1018.09
400.08	1010.19
400.458	1016.74
400.837	1018.77
401.215	1025.1
401.594	1053.12
401.972	1058.55
402.351	1056.06
402.729	1090.64
403.107	1122.05
403.486	1115.95
403.864	1108.71
404.242	1131.99
404.62	1187.81
404.999	1142.84
405.377	1149.39
405.755	1198.2
406.133	1193.01
406.511	1211.08
406.889	1258.99
407.267	1241.59
407.645	1263.74
408.023	1292.21
408.401	1309.39
408.779	1358.65
409.156	1344.19
409.534	1356.62
409.912	1387.58
410.29	1401.81
410.667	1443.62
411.045	1475.94
411.422	1449.5
411.8	1479.78
412.178	1510.74
412.555	1528.36
412.933	1541.02
413.31	1572.43
413.687	1599.1
414.065	1616.5
414.442	1642.26
414.819	1663.28
415.197	1676.83
415.574	1707.57
415.951	1743.73
416.328	1738.75
416.705	1749.37
417.082	1767
417.46	1819.88
417.837	1863.95
418.214	1824.85
418.591	1827.34
418.967	1874.34
419.344	1918.18
419.721	1929.94
420.098	1942.36
420.475	1950.5
420.852	1964.28
421.228	2018.07
421.605	2008.58
421.982	2057.84
422.358	2044.51
422.735	2105.75
423.111	2149.36
423.488	2155.01
423.864	2187.56
424.241	2201.79
424.617	2258.29
424.994	2215.58
425.37	2272.98
425.746	2314.56
426.123	2348.91
426.499	2349.13
426.875	2369.25
427.251	2400.21
427.627	2475.46
428.003	2515.91
428.379	2525.17
428.756	2554.1
429.132	2599.52
429.507	2655.79
429.883	2658.5
430.259	2722
430.635	2724.94
431.011	2789.35
431.387	2864.15
431.763	2911.6
432.138	2936.24
432.514	2994.09
432.89	2979.85
433.265	3032.96
433.641	3093.75
434.016	3110.02
434.392	3209.22
434.767	3254.19
435.143	3210.13
435.518	3257.36
435.894	3353.63
436.269	3361.76
436.644	3385.72
437.02	3478.14
437.395	3451.93
437.77	3507.97
438.145	3581.64
438.52	3596.11
438.895	3654.86
439.271	3643.34
439.646	3785.71
440.021	3778.25
440.395	3804.46
440.77	3762.66
441.145	3832.03
441.52	3921.97
441.895	3943.89
442.27	3951.8
442.645	3974.85
443.019	4028.19
443.394	4030.22
443.769	4111.57
444.143	4053.5
444.518	4184.34
444.892	4160.16
445.267	4193.38
445.641	4213.72
446.016	4231.34
446.39	4291.68
446.764	4298.46
447.139	4335.52
447.513	4379.14
447.887	4390.89
448.262	4428.63
448.636	4487.16
449.01	4576.87
449.384	4609.41
449.758	4616.19
450.132	4678.56
450.506	4735.96
450.88	4780.26
451.254	4762.4
451.628	4831.1
452.002	4925.56
452.376	4950.65
452.75	4966.47
453.123	5072.45
453.497	5160.58
453.871	5130.08
454.244	5257.31
454.618	5272.22
454.992	5413.23
455.365	5364.87
455.739	5545.21
456.112	5633.79
456.486	5669.72
456.859	5686.9
457.232	5885.99
457.606	5822.49
457.979	5916.27
458.352	6029.04
458.725	6133.44
459.099	6137.51
459.472	6328.92
459.845	6383.6
460.218	6390.38
460.591	6510.61
460.964	6556.71
461.337	6695.23
461.71	6775.01
462.083	6962.35
462.456	6902.23
462.829	6928.45
463.201	7073.3
463.574	7060.87
463.947	7217.25
464.32	7349.68
464.692	7453.86
465.065	7542.89
465.438	7612.72
465.81	7701.31
466.183	7872.38
466.555	8042.77
466.928	8070.11
467.3	8066.27
467.672	8212.26
468.045	8454.06
468.417	8462.19
468.789	8499.93
469.161	8664.45
469.534	8821.96
469.906	9051.33
470.278	9028.05
470.65	9216.75
471.022	9356.63
471.394	9524.76
471.766	9662.84
472.138	9725.21
472.51	9959.1
472.882	10076.16
473.253	10204.97
473.625	10381.92
473.997	10622.59
474.369	10649.48
474.74	10780.78
475.112	11090.15
475.484	11205.4
475.855	11347.31
476.227	11545.95
476.598	11923.12
476.97	11914.76
477.341	12221.64
477.713	12450.11
478.084	12490.79
478.455	12901.85
478.827	12992.24
479.198	13446.02
479.569	13342.74
479.94	13836.74
480.311	13884.42
480.682	14221.36
481.053	14564.63
481.424	14754.46
481.795	14985.41
482.166	15143.82
482.537	15377.72
482.908	15690.03
483.279	15848.67
483.65	16167.07
484.021	16525.71
484.391	16702.88
484.762	16702.2
485.133	17045.02
485.503	17304.67
485.874	17672.57
486.244	17859.46
486.615	18228.04
486.985	18419.9
487.356	18738.98
487.726	18884.52
488.097	19430.49
488.467	19376.03
488.837	19848.33
489.207	20042
489.578	20379.39
489.948	20517.47
490.318	20888.53
490.688	20995.42
491.058	21286.04
491.428	21581.85
491.798	21776.64
492.168	22232.9
492.538	22268.16
492.908	22502.73
493.278	22808.71
493.648	22845.09
494.017	23150.85
494.387	23430.61
494.757	23592.42
495.126	23861.56
495.496	23872.64
495.866	24194.66
496.235	24414.99
496.605	24746.06
496.974	24873.51
497.344	25101.53
497.713	25226.72
498.082	25558.69
498.452	25818.35
498.821	25951.68
499.19	25999.81
499.559	26393.25
499.928	26497.88
500.298	26678.44
500.667	26934.48
501.036	26934.02
501.405	27335.59
501.774	27253.11
502.143	27505.08
502.512	27840.44
502.88	27974
503.249	28002.92
503.618	28224.16
503.987	28334.66
504.356	28480.2
504.724	28717.93
505.093	28823.01
505.462	29020.07
505.83	29293.28
506.199	29525.82
506.567	29761.75
506.936	29884.23
507.304	30267.5
507.672	30275.18
508.041	30622.97
508.409	30813.24
508.777	31033.35
509.145	31173.69
509.514	31373.91
509.882	31688.47
510.25	31800.34
510.618	32141.34
510.986	32295.01
511.354	32635.57
511.722	32853.19
512.09	33224.25
512.458	33220.19
512.826	33439.16
513.193	33660.17
513.561	33870.34
513.929	34090.67
514.297	34449.98
514.664	34546.25
515.032	34666.7
515.4	34996.41
515.767	35220.59
516.135	35486.11
516.502	35341.03
516.869	35983.73
517.237	36132.43
517.604	36134.69
517.972	36510.72
518.339	36780.54
518.706	36775.35
519.073	37003.14
519.44	37316.35
519.808	37726.28
520.175	37865.94
520.542	38459.14
520.909	38571.68
521.276	38672.92
521.643	39029.07
522.009	39351.32
522.376	39673.12
522.743	39993.12
523.11	40380.45
523.477	40638.3
523.843	41140.88
524.21	41295
524.577	41747.19
524.943	41842.56
525.31	42135.21
525.676	42570
526.043	42765.25
526.409	42828.52
526.776	43324.1
527.142	43417.21
527.508	43532.91
527.874	43928.6
528.241	44189.39
528.607	44319.78
528.973	44595.93
529.339	44611.75
529.705	45202.7
530.071	45523.59
530.437	45641.1
530.803	45870.25
531.169	46194.31
531.535	46031.37
531.901	46294.42
532.267	46565.15
532.632	46878.36
532.998	47018.92
533.364	47165.58
533.73	47344.33
534.095	47703.65
534.461	47879.24
534.826	48062.06
535.192	48286.23
535.557	48372.56
535.923	48546.11
536.288	48840.34
536.653	49037.62
537.019	48924.41
537.384	48970.96
537.749	49370.95
538.114	49303.6
538.479	49472.64
538.845	49783.82
539.21	49593.09
539.575	49809.81
539.94	49933.19
540.305	50175.45
540.67	50108.78
541.034	50245.73
541.399	50451.15
541.764	50522.33
542.129	50718.93
542.494	50731.14
542.858	50871.7
543.223	50926.39
543.587	51158.02
543.952	51155.99
544.316	51358.01
544.681	51316.66
545.045	51508.52
545.41	51628.74
545.774	51726.14
546.138	51841.62
546.503	51982.18
546.867	52047.49
547.231	52340.81
547.595	52332
547.959	52451.09
548.324	52635.95
548.688	52642.27
549.052	52767.92
549.416	52924.53
549.779	53001.81
550.143	53060.57
550.507	53259.21
550.871	53353.89
551.235	53337.62
551.599	53668.69
551.962	53764.28
552.326	53679.76
552.689	53861
553.053	53805.86
553.417	53997.04
553.78	54307.99
554.143	54192.29
554.507	54358.61
554.87	54547.08
555.234	54791.82
555.597	54657.36
555.96	54734.65
556.323	54841.76
556.686	54905.72
557.05	55166.73
557.413	55182.77
557.776	55205.37
558.139	55283.56
558.502	55459.38
558.865	55582.99
559.228	55780.04
559.59	55810.78
559.953	55911.11
560.316	56162.86
560.679	56229.52
561.041	56432.23
561.404	56536.18
561.767	56683.98
562.129	56666.35
562.492	56999
562.854	56970.52
563.217	56994.25
563.579	57135.94
563.941	57278.31
564.304	57437.18
564.666	57611.63
565.028	57594.23
565.39	57636.94
565.753	57764.63
566.115	57964.17
566.477	58037.61
566.839	58138.63
567.201	58212.3
567.563	58294.55
567.925	58404.61
568.287	58405.06
568.648	58469.92
569.01	58630.59
569.372	58797.37
569.734	58684.15
570.095	58875.1
570.457	58937.93
570.819	59000.3
571.18	58988.77
571.542	59173.4
571.903	59171.59
572.265	59271.93
572.626	59381.98
572.987	59377.69
573.349	59508.76
573.71	59603.9
574.071	59659.94
574.432	59686.16
574.794	59878.24
575.155	59815.64
575.516	59846.6
575.877	59904.91
576.238	59958.24
576.599	60109.42
576.96	60119.82
577.32	60164.11
577.681	60267.16
578.042	60302.41
578.403	60359.81
578.763	60370.88
579.124	60376.76
579.485	60462.41
579.845	60533.82
580.206	60410.66
580.566	60525.46
580.927	60502.63
581.287	60610.2
581.648	60472.35
582.008	60611.78
582.368	60617.66
582.728	60591.67
583.089	60545.8
583.449	60641.39
583.809	60572.24
584.169	60654.72
584.529	60523.2
584.889	60785.79
585.249	60579.69
585.609	60566.36
585.969	60725.9
586.329	60545.12
586.688	60625.79
587.048	60590.54
587.408	60590.31
587.768	60585.12
588.127	60625.11
588.487	60614.95
588.846	60740.37
589.206	60593.7
589.565	60616.75
589.925	60721.16
590.284	60702.63
590.643	60767.03
591.003	60771.55
591.362	60861.27
591.721	60794.15
592.08	60835.73
592.44	60895.62
592.799	60865.33
593.158	60794.6
593.517	60832.79
593.876	60865.79
594.235	60838.67
594.593	60812.45
594.952	60953.47
595.311	60867.82
595.67	60838.44
596.029	61009.06
596.387	60986.01
596.746	61029.85
597.104	60892.45
597.463	60881.38
597.822	61042.51
598.18	60889.97
598.538	60941.72
598.897	61034.82
599.255	60856.07
599.613	61136.29
599.972	60963.64
600.33	61044.54
600.688	60947.14
601.046	61040.92
601.404	61096.97
601.762	61073.92
602.12	61196.63
602.478	61175.61
602.836	61223.52
603.194	61131.99
603.552	61098.55
603.91	61051.77
604.268	61220.58
604.625	61080.02
604.983	61340.12
605.341	61166.8
605.698	61294.02
606.056	61318.66
606.413	61283.4
606.771	61380.35
607.128	61484.75
607.485	61380.58
607.843	61405.43
608.2	61483.85
608.557	61534.24
608.914	61545.32
609.272	61608.59
609.629	61622.83
609.986	61798.64
610.343	61645.65
610.7	61783.95
611.057	61778.08
611.414	61716.84
611.771	61813.78
612.127	61820.56
612.484	61810.17
612.841	61877.51
613.198	61788.47
613.554	61822.15
613.911	61875.93
614.267	61912.31
614.624	61873.44
614.98	61874.57
615.337	62019.43
615.693	61934.23
616.05	61855.37
616.406	62041.12
616.762	61894.46
617.118	61971.97
617.475	61964.74
617.831	62036.83
618.187	61968.81
618.543	62042.25
618.899	62105.53
619.255	62105.53
619.611	61999.09
619.967	62102.59
620.323	62169.26
620.678	62103.04
621.034	62022.14
621.39	62013.33
621.746	62005.64
622.101	62323.6
622.457	62064.4
622.812	62178.07
623.168	62151.85
623.523	62134.45
623.879	62258.29
624.234	62077.28
624.589	62235.92
624.945	62262.13
625.3	62240.44
625.655	62243.6
626.01	62293.77
626.365	62281.79
626.72	62179.88
627.075	62226.65
627.43	62240.21
627.785	62167
628.14	62211.97
628.495	62247.22
628.85	62162.25
629.205	62122.93
629.559	62227.56
629.914	62083.16
630.269	62066.88
630.623	62066.66
630.978	62001.35
631.332	62035.7
631.687	62153.44
632.041	61988.24
632.396	62023.72
632.75	61862.37
633.104	61893.78
633.459	61791.64
633.813	61774.01
634.167	61753.45
634.521	61713.9
634.875	61717.29
635.229	61674.58
635.583	61526.56
635.937	61551.42
636.291	61534.7
636.645	61462.38
636.999	61456.73
637.352	61517.52
637.706	61370.86
638.06	61467.58
638.413	61426
638.767	61341.93
639.121	61402.5
639.474	61247.02
639.828	61290.41
640.181	61279.79
640.534	61261.48
640.888	61199.56
641.241	61055.16
641.594	61151.43
641.947	61155.04
642.301	61116.85
642.654	61118.44
643.007	61094.03
643.36	61112.11
643.713	61036.4
644.066	61148.72
644.419	60946.46
644.771	60853.13
645.124	60668.5
645.477	60592.8
645.83	60430.77
646.182	60359.13
646.535	60273.94
646.888	60326.82
647.24	60186.71
647.593	60251.34
647.945	60180.15
648.298	60080.95
648.65	60029.88
649.002	59967.05
649.355	60061.29
649.707	59921.18
650.059	60011.12
650.411	60316.42
650.763	60270.77
651.115	60553.03
651.467	60396.65
651.819	60353.03
652.171	60314.39
652.523	60266.03
652.875	60251.11
653.227	60115.98
653.578	60312.13
653.93	60157.56
654.282	60113.26
654.633	59992.82
654.985	60021.97
655.337	59987.39
655.688	60005.7
656.039	60113.49
656.391	59873.04
656.742	59939.71
657.094	59913.5
657.445	59968.64
657.796	59913.95
658.147	59845.7
658.498	59813.16
658.849	59883.44
659.2	59818.13
659.551	59774.06
659.902	59885.25
660.253	59860.39
660.604	59903.55
660.955	59788.98
661.306	59825.14
661.656	59794.4
662.007	59790.79
662.358	59795.53
662.708	59793.05
663.059	59772.03
663.409	59628.76
663.76	59816.77
664.11	59733.84
664.461	59803.89
664.811	59800.5
665.161	59784.69
665.511	59666.5
665.862	59707.62
666.212	59855.42
666.562	59781.07
666.912	59667.4
667.262	59647.29
667.612	59636.21
667.962	59638.25
668.312	59596.22
668.662	59732.48
669.011	59609.1
669.361	59527.97
669.711	59503.34
670.06	59385.15
670.41	59428.31
670.76	59276.68
671.109	59411.14
671.459	59291.14
671.808	59269.9
672.157	59339.95
672.507	59096.57
672.856	59141.09
673.205	59170.69
673.554	59215.66
673.904	59114.87
674.253	59233.74
674.602	59101.99
674.951	58710.36
675.3	58575.23
675.649	59032.61
675.998	58944.26
676.346	59000.75
676.695	59003.69
677.044	58758.05
677.393	58890.47
677.741	58908.32
678.09	58813.41
678.438	58802.56
678.787	58862.22
679.135	58824.26
679.484	58632.85
679.832	58781.77
680.181	58675.56
680.529	58753.98
680.877	58670.59
681.225	58602.8
681.573	58728.67
681.922	58591.95
682.27	58512.85
682.618	58564.15
682.966	58425.4
683.314	58548.56
683.661	58424.72
684.009	58390.37
684.357	58314.67
684.705	58288
685.053	58284.84
685.4	58238.74
685.748	58112.86
686.095	58128.23
686.443	58072.41
686.79	57954.9
687.138	58016.14
687.485	58005.07
687.832	57844.62
688.18	57864.51
688.527	57784.96
688.874	57736.15
689.221	57662.03
689.568	57580.22
689.915	57520.56
690.262	57450.06
690.609	57351.75
690.956	57238.09
691.303	57272.21
691.65	57010.52
691.997	57049.84
692.344	56817.53
692.69	56779.11
693.037	56873.8
693.383	56605.11
693.73	56719
694.077	56490.99
694.423	56480.82
694.769	56282.18
695.116	56238.79
695.462	56265
695.808	56148.17
696.155	56188.62
696.501	55973.49
696.847	55972.13
697.193	55762.87
697.539	55874.05
697.885	55602.87
698.231	55640.16
698.577	55620.95
698.923	55556.1
699.269	55470
699.614	55173.28
699.96	55204.24
700.306	55188.42
700.651	55095.54
700.997	55049.67
701.342	55085.83
701.688	54928.09
702.033	54872.95
702.379	54792.73
702.724	54821.43
703.069	54872.72
703.415	54492.62
703.76	54549.34
704.105	54525.39
704.45	54453.3
704.795	54292.63
705.14	54203.14
705.485	54250.59
705.83	54122.01
706.175	54273.64
706.52	54044.27
706.865	53950.71
707.209	53866.65
707.554	53825.52
707.899	53845.18
708.243	53732.19
708.588	53691.51
708.932	53425.3
709.277	53497.39
709.621	53456.94
709.966	53285.42
710.31	53281.13
710.654	52913.45
710.998	53084.07
711.342	52968.37
711.687	52964.07
712.031	52698.54
712.375	52664.19
712.719	52622.61
713.063	52648.6
713.407	52646.34
713.75	52359.12
714.094	52288.84
714.438	52173.36
714.782	52193.92
715.125	51965.46
715.469	52061.95
715.812	51859.02
716.156	51712.58
716.499	51610.21
716.843	51673.71
717.186	51541.96
717.53	51624
717.873	51546.71
718.216	51379.93
718.559	51225.36
718.902	51024.01
719.246	51212.93
719.589	50952.6
719.932	50854.98
720.275	50908.08
720.617	50748.99
720.96	50687.52
721.303	50706.28
721.646	50631.71
721.989	50512.16
722.331	50579.96
722.674	50355.33
723.016	50414.54
723.359	50304.48
723.701	50309.23
724.044	50145.62
724.386	50069.01
724.729	50305.16
725.071	50024.49
725.413	50104.26
725.755	50072.85
726.097	49853.87
726.439	49787.66
726.782	49701.79
727.124	49972.06
727.465	49631.51
727.807	49751.05
728.149	49721.67
728.491	49522.81
728.833	49655.69
729.175	49449.59
729.516	49494.11
729.858	49385.41
730.199	49317.16
730.541	49248.69
730.882	49179.31
731.224	49296.15
731.565	48922.82
731.906	49030.39
732.248	49041.24
732.589	48886.67
732.93	48582.95
733.271	48739.33
733.612	48611.65
733.953	48716.05
734.294	48399.9
734.635	48362.61
734.976	48447.58
735.317	48146.35
735.658	48265.67
735.999	48034.49
736.339	48037.42
736.68	48084.43
737.021	47846.02
737.361	47698.45
737.702	47928.05
738.042	47738.22
738.383	47567.38
738.723	47559.47
739.063	47370.77
739.404	47243.09
739.744	47128.97
740.084	47071.57
740.424	46988.41
740.764	46837
741.104	47070.9
741.444	46731.47
741.784	46576.67
742.124	46681.98
742.464	46581.64
742.804	46607.86
743.143	46430.91
743.483	46309.56
743.823	46028.89
744.162	46060.07
744.502	46134.65
744.841	46030.7
745.181	46158.6
745.52	45744.38
745.86	45924.94
746.199	45870.93
746.538	45681.33
746.877	45713.64
747.216	45691.95
747.556	45401.56
747.895	45569.92
748.234	45357.27
748.573	45404.5
748.911	45251.28
749.25	45248.34
749.589	44981.46
749.928	45201.57
750.267	45251.51
750.605	45136.03
750.944	44842.03
751.283	44815.36
751.621	44763.16
751.96	44633.22
752.298	44668.92
752.636	44660.79
752.975	44485.65
753.313	44301.48
753.651	44582.37
753.989	44282.27
754.327	44211.76
754.666	43948.49
755.004	43865.78
755.342	43975.16
755.679	43763.86
756.017	43633.25
756.355	43646.58
756.693	43474.83
757.031	43551.21
757.368	43254.27
757.706	43414.27
758.044	43015.63
758.381	43165.01
758.719	42911.23
759.056	43092.47
759.394	42744
759.731	42488.64
760.068	42341.98
760.405	42206.39
760.743	42087.75
761.08	42073.06
761.417	41852.28
761.754	41810.02
762.091	41782.9
762.428	41502.23
762.765	41328.67
763.102	41405.06
763.438	40902.02
763.775	40918.97
764.112	40812.98
764.449	40908.8
764.785	40595.36
765.122	40337.29
765.458	40105.88
765.795	40083.06
766.131	40097.75
766.467	39878.54
766.804	39514.03
767.14	39323.53
767.476	39236.07
767.812	39069.3
768.148	39158.56
768.485	38943.43
768.821	38685.58
769.157	38761.51
769.492	38664.11
769.828	38408.98
770.164	38134.86
770.5	38009.66
770.836	37940.97
771.171	37672.72
771.507	37584.36
771.842	37416.23
772.178	37505.27
772.513	37307.08
772.849	37319.74
773.184	36837.49
773.519	36984.15
773.855	36823.71
774.19	36594.56
774.525	36523.6
774.86	36562.7
775.195	36544.39
775.53	36228.47
775.865	36117.51
776.2	35868.7
776.535	35810.63
776.87	35728.59
777.205	35573.12
777.539	35496.06
777.874	35556.4
778.209	35208.61
778.543	35120.02
778.878	35125.67
779.212	34925.45
779.547	34799.13
779.881	34811.33
780.215	34613.37
780.55	34608.4
780.884	34499.93
781.218	34299.71
781.552	34318.69
781.886	34091.58
782.22	33969.77
782.554	33862.43
782.888	33512.16
783.222	33443
783.556	33223.35
783.889	33341.99
784.223	33167.08
784.557	33156.91
784.89	33044.37
785.224	32814.32
785.557	32925.73
785.891	32473.99
786.224	32368.68
786.558	32474.22
786.891	32166.2
787.224	31886.21
787.557	31949.48
787.891	31891.41
788.224	31843.05
788.557	31604.41
788.89	31646.89
789.223	31413.91
789.556	31203.06
789.888	31198.32
790.221	31048.94
790.554	30901.38
790.887	30859.57
791.219	30601.27
791.552	30407.83
791.884	30323.99
792.217	30169.19
792.549	30190.43
792.882	29967.16
793.214	29805.59
793.546	29853.95
793.879	29511.81
794.211	29414.18
794.543	29483.56
794.875	29246.05
795.207	29271.82
795.539	29039.73
795.871	29071.37
796.203	28811.71
796.535	28686.29
796.867	28642.23
797.198	28561.1
797.53	28620.31
797.862	28359.07
798.193	28213.99
798.525	27962.24
798.856	28047.44
799.188	27800.22
799.519	27661.01
799.85	27571.07
800.182	27727.67
800.513	27647.23
800.844	27286.1
801.175	27473.22
801.506	27424.18
801.837	27189.38
802.168	27235.26
802.499	27115.04
802.83	27049.5
803.161	26980.58
803.491	26850.18
803.822	26952.33
804.153	26720.24
804.483	26475.73
804.814	26369.29
805.145	26445.45
805.475	26393.7
805.805	26425.34
806.136	26384.89
806.466	26360.93
806.796	26323.42
807.126	26201.61
807.457	26242.97
807.787	26104.21
808.117	25960.49
808.447	25913.26
808.777	26002.52
809.107	25854.5
809.436	25781.06
809.766	25802.98
810.096	25686.6
810.426	25502.65
810.755	25562.99
811.085	25442.76
811.414	25460.84
811.744	25291.58
812.073	25260.62
812.403	25279.6
812.732	25060.17
813.061	25141.3
813.39	25003.9
813.719	24930.01
814.049	25027.63
814.378	24866.73
814.707	24714.65
815.036	24821.76
815.365	24597.36
815.693	24460.87
816.022	24579.06
816.351	24284.6
816.68	24106.98
817.008	24250.7
817.337	24114.66
817.665	23984.27
817.994	23983.82
818.322	23994.44
818.651	23987.21
818.979	23786.08
819.307	23876.25
819.636	23734.33
819.964	23455.02
820.292	23671.51
820.62	23550.38
820.948	23428.8
821.276	23565.07
821.604	23414.57
821.932	23377.05
822.259	23447.56
822.587	23452.31
822.915	23307.9
823.243	23412.53
823.57	23233.56
823.898	23351.97
824.225	23334.57
824.553	23328.47
824.88	23241.92
825.207	23278.98
825.535	23104.75
825.862	23156.04
826.189	23169.6
826.516	23282.14
826.843	23208.02
827.17	23117.17
827.497	23220
827.824	23196.04
828.151	23082.15
828.478	23095.93
828.805	23160.56
829.131	23087.8
829.458	23042.83
829.785	22919.21
830.111	22970.06
830.438	23160.56
830.764	23021.58
831.09	23071.07
831.417	22936.84
831.743	22932.09
832.069	22931.87
832.395	22893.68
832.722	22962.38
833.048	22879.67
833.374	22943.39
833.7	22943.62
834.026	22887.8
834.351	22901.81
834.677	22758.77
835.003	22911.53
835.329	22951.3
835.654	22884.41
835.98	22812.1
836.306	22894.36
836.631	22761.93
836.956	22935.71
837.282	22816.17
837.607	22730.74
837.932	22647.13
838.258	22704.08
838.583	22771.65
838.908	22595.38
839.233	22645.55
839.558	22654.81
839.883	22603.52
840.208	22584.31
840.533	22586.34
840.858	22526
841.182	22546.12
841.507	22600.35
841.832	22485.1
842.156	22450.53
842.481	22369.62
842.805	22343.18
843.13	22298.44
843.454	22177.76
843.778	22100.93
844.103	22127.82
844.427	22015.51
844.751	22052.57
845.075	22105.68
845.399	21974.83
845.723	21827.27
846.047	21864.78
846.371	21695.74
846.695	21776.19
847.019	21462.3
847.343	21439.48
847.666	21281.74
847.99	21261.4
848.313	21121.29
848.637	21085.36
848.96	21016.44
849.284	20954.97
849.607	20783.22
849.931	20720.18
850.254	20584.36
850.577	20572.61
850.9	20343.24
851.223	20239.51
851.546	20225.27
851.869	20159.29
852.192	20166.97
852.515	19860.09
852.838	19891.95
853.161	19923.81
853.483	19733.76
853.806	19576.25
854.129	19706.64
854.451	19639.07
854.774	19504.84
855.096	19401.57
855.419	19311.4
855.741	19298.97
856.063	19286.09
856.385	19119.31
856.708	19137.62
857.03	19075.25
857.352	18938.98
857.674	18939.88
857.996	18816.95
858.318	18738.76
858.64	18743.05
858.961	18579.67
859.283	18591.19
859.605	18450.86
859.926	18506.22
860.248	18440.91
860.57	18339.9
860.891	18328.6
861.212	18312.33
861.534	18179.45
861.855	18189.62
862.176	18318.88
862.498	18189.17
862.819	18158.66
863.14	18125.22
863.461	17988.5
863.782	17905.79
864.103	17996.86
864.424	17948.27
864.745	17902.4
865.065	17813.81
865.386	17796.86
865.707	17813.81
866.027	17844.32
866.348	17733.36
866.668	17752.34
866.989	17730.65
867.309	17629.86
867.63	17672.8
867.95	17752.57
868.27	17590.09
868.59	17652.69
868.91	17608.62
869.23	17597.77
869.55	17542.63
869.87	17663.31
870.19	17515.06
870.51	17569.98
870.83	17666.92
871.15	17525.68
871.469	17471.9
871.789	17605.46
872.109	17518.9
872.428	17378.79
872.748	17453.37
873.067	17448.62
873.386	17531.33
873.706	17465.57
874.025	17326.59
874.344	17329.98
874.663	17358.91
874.982	17294.95
875.301	17407.27
875.62	17242.53
875.939	17336.08
876.258	17284.33
876.577	17164.79
876.896	17202.08
877.214	17099.93
877.533	17145.35
877.852	17187.61
878.17	17175.18
878.489	17174.05
878.807	17074.17
879.125	17044.34
879.444	17137.44
879.762	17084.34
880.08	16994.85
880.398	16971.8
880.716	16964.34
881.034	16870.33
881.352	16999.82
881.67	16804.35
881.988	16858.13
882.306	16821.97
882.624	16800.05
882.941	16663.79
883.259	16631.7
883.577	16583.79
883.894	16528.42
884.212	16572.94
884.529	16530.46
884.846	16481.19
885.164	16507.18
885.481	16446.16
885.798	16419.72
886.115	16192.16
886.432	16317.13
886.75	16193.51
887.067	16232.38
887.383	16089.56
887.7	16066.51
888.017	15998.72
888.334	16008.89
888.651	15952.84
888.967	15938.83
889.284	15812.06
889.6	15719.86
889.917	15714.21
890.233	15765.73
890.55	15685.96
890.866	15678.73
891.182	15684.38
891.498	15633.76
891.815	15469.92
892.131	15386.3
892.447	15433.31
892.763	15274.44
893.079	15226.53
893.395	15162.13
893.71	15159.42
894.026	15118.51
894.342	15040.55
894.657	14910.61
894.973	14935.92
895.289	14953.32
895.604	14918.07
895.92	14803.72
896.235	14702.48
896.55	14720.56
896.865	14737.51
897.181	14643.73
897.496	14657.51
897.811	14511.75
898.126	14441.47
898.441	14389.27
898.756	14406.22
899.071	14297.07
899.386	14294.36
899.7	14187.69
900.015	14088.26
900.33	14003.97
900.644	14013.23
900.959	14167.13
901.273	14019.33
901.588	13994.25
901.902	13944.76
902.216	13860.69
902.531	13836.06
902.845	13822.05
903.159	13749.51
903.473	13657.31
903.787	13583.41
904.101	13549.74
904.415	13704.54
904.729	13516.52
905.042	13520.59
905.356	13491.21
905.67	13474.04
905.984	13366.47
906.297	13360.37
906.611	13271.11
906.924	13245.57
907.237	13204.21
907.551	13227.04
907.864	13134.16
908.177	13091.9
908.491	13017.33
908.804	13021.85
909.117	12946.37
909.43	12827.05
909.743	12864.79
910.056	12816.2
910.368	12759.48
910.681	12833.38
910.994	12698.24
911.307	12752.7
911.619	12580.28
911.932	12578.24
912.244	12566.27
912.557	12494.4
912.869	12415.76
913.181	12363.11
913.494	12359.27
913.806	12277.69
914.118	12327.85
914.43	12121.31
914.742	12206.73
915.054	12159.72
915.366	12122.44
915.678	12016
915.99	11972.38
916.302	11894.19
916.613	11920.63
916.925	11854.87
917.236	11835.66
917.548	11778.72
917.859	11792.95
918.171	11700.75
918.482	11618.04
918.794	11555.44
919.105	11614.2
919.416	11510.02
919.727	11427.09
920.038	11437.03
920.349	11357.26
920.66	11299.18
920.971	11234.78
921.282	11102.58
921.593	11124.95
921.903	11106.42
922.214	10978.74
922.525	10936.03
922.835	10974.22
923.146	10893.54
923.456	10821.68
923.767	10726.31
924.077	10806.09
924.387	10694.22
924.697	10727.22
925.008	10596.37
925.318	10597.73
925.628	10496.49
925.938	10472.08
926.248	10357.51
926.558	10361.58
926.867	10389.15
927.177	10273.9
927.487	10232.32
927.796	10048.59
928.106	10089.72
928.416	10063.51
928.725	10034.81
929.034	9974.7
929.344	10019.89
929.653	9980.8
929.962	9876.84
930.271	9797.52
930.581	9719.56
930.89	9713.23
931.199	9624.42
931.508	9626.68
931.817	9630.3
932.125	9522.05
932.434	9524.76
932.743	9496.06
933.051	9340.36
933.36	9341.72
933.669	9295.17
933.977	9215.85
934.286	9187.82
934.594	9252.68
934.902	9086.81
935.21	9149.63
935.519	9183.08
935.827	9109.86
936.135	8982.86
936.443	8902.86
936.751	8883.88
937.059	8954.16
937.367	8801.84
937.674	8854.72
937.982	8769.76
938.29	8725.24
938.597	8689.98
938.905	8654.73
939.213	8609.99
939.52	8522.53
939.827	8560.5
940.135	8555.52
940.442	8449.54
940.749	8386.71
941.056	8445.92
941.363	8391.91
941.67	8321.18
941.977	8372.25
942.284	8271.24
942.591	8226.04
942.898	8235.08
943.205	8224.68
943.511	8129.32
943.818	8180.17
944.125	8066.27
944.431	8035.99
944.738	8025.82
945.044	7986.73
945.35	7962.77
945.657	7920.74
945.963	7925.48
946.269	7796.9
946.575	7857.01
946.881	7741.31
947.187	7825.37
947.493	7716.45
947.799	7725.94
948.105	7723.23
948.41	7666.06
948.716	7650.24
949.022	7601.88
949.327	7565.04
949.633	7572.72
949.938	7532.73
950.244	7554.42
950.549	7410.92
950.854	7410.92
951.16	7352.62
951.465	7363.01
951.77	7338.38
952.075	7268.78
952.38	7253.64
952.685	7290.25
952.99	7194.66
953.294	7225.84
953.599	7160.98
953.904	7126.41
954.209	7037.37
954.513	7053.19
954.818	7068.11
955.122	7006.86
955.426	7038.5
955.731	6986.53
956.035	6892.06
956.339	6912.4
956.643	6889.13
956.948	6808.45
957.252	6813.65
957.556	6817.94
957.86	6708.57
958.163	6722.8
958.467	6709.92
958.771	6680.09
959.075	6669.02
959.378	6581.56
959.682	6576.37
959.985	6547.21
960.289	6518.06
960.592	6449.82
960.896	6476.03
961.199	6412.98
961.502	6363.94
961.805	6364.62
962.108	6334.79
962.411	6307.67
962.714	6187.68
963.017	6223.83
963.32	6228.58
963.623	6203.04
963.926	6132.31
964.228	6116.04
964.531	6092.76
964.833	6151.52
965.136	6016.38
965.438	6005.08
965.741	6015.93
966.043	5969.38
966.345	5948.81
966.648	5890.06
966.95	5930.73
967.252	5828.36
967.554	5796.05
967.856	5762.6
968.158	5733.9
968.46	5744.98
968.761	5722.15
969.063	5655.94
969.365	5605.32
969.666	5690.74
969.968	5611.42
970.269	5591.99
970.571	5556.96
970.872	5505.66
971.174	5456.85
971.475	5464.31
971.776	5461.59
972.077	5361.48
972.378	5373.23
972.679	5378.21
972.98	5322.84
973.281	5300.69
973.582	5288.49
973.883	5248.72
974.183	5261.6
974.484	5223.63
974.785	5186.12
975.085	5141.83
975.386	5186.8
975.686	5145.67
975.986	5143.64
976.287	5124.88
976.587	5013.7
976.887	5048.95
977.187	4978.67
977.487	4992.68
977.787	4987.71
978.087	4892.8
978.387	4902.51
978.687	4874.72
978.987	4818.9
979.286	4834.27
979.586	4866.81
979.885	4769.18
980.185	4741.61
980.484	4699.81
980.784	4734.83
981.083	4699.13
981.382	4677.89
981.682	4687.6
981.981	4659.81
982.28	4659.35
982.579	4617.55
982.878	4591.79
983.177	4519.92
983.475	4569.41
983.774	4461.39
984.073	4480.38
984.372	4483.09
984.67	4459.36
984.969	4466.82
985.267	4436.31
985.566	4416.2
985.864	4405.58
986.162	4356.99
986.461	4325.13
986.759	4298.91
987.057	4291
987.355	4245.58
987.653	4251.91
987.951	4245.35
988.249	4232.7
988.547	4237.45
988.844	4193.15
989.142	4182.76
989.44	4163.55
989.737	4170.78
990.035	4122.87
990.332	4100.73
990.63	4059.14
990.927	4047.17
991.224	4066.83
991.521	4013.27
991.819	4026.15
992.116	4014.4
992.413	3989.09
992.71	3961.97
993.006	3970.11
993.303	3976.21
993.6	3896.66
993.897	3917
994.193	3860.96
994.49	3836.55
994.787	3834.97
995.083	3814.41
995.379	3807.4
995.676	3793.39
995.972	3762.66
996.268	3740.51
996.565	3695.31
996.861	3720.85
997.157	3718.59
997.453	3651.92
997.749	3636.78
998.044	3633.85
998.34	3652.83
998.636	3601.98
998.932	3605.37
999.227	3532.83
999.523	3557.24
999.818	3576.45
1000.114	3521.31
1000.409	3504.58
1000.704	3470.01
1001	3441.53
1001.295	3457.58
1001.59	3441.08
1001.885	3377.13
1002.18	3361.99
1002.475	3374.42
1002.77	3342.1
1003.065	3309.56
1003.359	3333.29
1003.654	3310.69
1003.949	3244.48
1004.243	3244.02
1004.538	3219.39
1004.832	3213.29
1005.127	3205.61
1005.421	3190.69
1005.715	3185.04
1006.009	3138.26
1006.304	3125.61
1006.598	3105.95
1006.892	3068.44
1007.186	3100.07
1007.48	3043.13
1007.773	3025.27
1008.067	3029.34
1008.361	2929.23
1008.655	2977.59
1008.948	2912.96
1009.242	2922.9
1009.535	2886.07
1009.829	2891.94
1010.122	2864.15
1010.415	2840.87
1010.708	2840.65
1011.001	2816.92
1011.295	2775.34
1011.588	2799.74
1011.881	2745.73
1012.173	2765.17
1012.466	2713.42
1012.759	2699.86
1013.052	2670.03
1013.344	2650.82
1013.637	2624.15
1013.93	2611.27
1014.222	2596.58
1014.514	2587.09
1014.807	2594.1
1015.099	2535.12
1015.391	2542.8
1015.683	2564.27
1015.976	2504.84
1016.268	2497.15
1016.56	2459.86
1016.851	2469.81
1017.143	2472.29
1017.435	2396.82
1017.727	2419.64
1018.018	2370.6
1018.31	2390.94
1018.602	2374.22
1018.893	2351.84
1019.185	2322.24
1019.476	2316.82
1019.767	2305.97
1020.058	2277.04
1020.35	2261.9
1020.641	2232.53
1020.932	2215.8
1021.223	2196.37
1021.514	2174.22
1021.804	2160.21
1022.095	2174.67
1022.386	2152.98
1022.677	2102.36
1022.967	2129.03
1023.258	2076.82
1023.548	2081.57
1023.839	2085.41
1024.129	2053.55
1024.419	2047.67
1024.709	2002.93
1025	2032.53
1025.29	1994.11
1025.58	1983.04
1025.87	1967.22
1026.16	1925.87
1026.449	1937.39
1026.739	1880.22
1027.029	1922.7
1027.319	1883.38
1027.608	1870.5
1027.898	1856.49
1028.187	1842.93
1028.477	1859.65
1028.766	1823.95
1029.055	1799.09
1029.344	1790.96
1029.634	1795.7
1029.923	1777.85
1030.212	1742.37
1030.501	1777.17
1030.79	1757.96
1031.078	1702.6
1031.367	1712.54
1031.656	1692.65
1031.945	1696.04
1032.233	1696.72
1032.522	1658.08
1032.81	1648.13
1033.099	1642.49
1033.387	1621.02
1033.675	1605.88
1033.963	1598.64
1034.251	1600
1034.54	1572.88
1034.828	1560.91
1035.116	1583.05
1035.403	1530.17
1035.691	1552.77
1035.979	1538.08
1036.267	1517.97
1036.554	1506.44
1036.842	1469.61
1037.129	1488.14
1037.417	1487.23
1037.704	1456.5
1037.992	1430.51
1038.279	1439.55
1038.566	1424.86
1038.853	1424.86
1039.14	1424.86
