Data from aluminium_surface_pro_back_FLMS001491_00098.txt Node
Date: Wed Feb 08 15:34:48 GMT 2017
User: dcchb
Spectrometer: FLMS00149
Trigger mode: 0
Integration Time (sec): 2.000000E-2
Scans to average: 10
Electric dark correction enabled: true
Nonlinearity correction enabled: false
Boxcar width: 0
XAxis mode: Wavelengths
Number of Pixels in Spectrum: 2048
>>>>>Begin Spectral Data<<<<<
341.393	-1.54
341.776	-1.54
342.16	-1.54
342.543	-65.49
342.927	-68.66
343.31	-70.01
343.693	-66.85
344.077	-58.94
344.46	-44.25
344.843	-61.42
345.226	-33.18
345.61	-12.61
345.993	-28.88
346.376	-3.12
346.759	16.77
347.142	26.93
347.525	37.1
347.908	69.87
348.291	57.22
348.674	72.13
349.057	99.25
349.44	109.19
349.823	153.71
350.206	169.53
350.588	202.3
350.971	240.49
351.354	238.68
351.737	256.53
352.119	263.31
352.502	284.78
352.884	294.95
353.267	320.71
353.65	310.32
354.032	308.96
354.414	324.33
354.797	361.61
355.179	347.38
355.562	334.04
355.944	351.9
356.326	342.63
356.709	362.29
357.091	358.9
357.473	376.3
357.855	372.24
358.238	352.58
358.62	378.34
359.002	377.21
359.384	379.02
359.766	393.48
360.148	390.31
360.53	380.15
360.912	360.03
361.294	376.3
361.676	378.11
362.057	369.3
362.439	382.18
362.821	365.91
363.203	354.84
363.584	391.67
363.966	379.24
364.348	353.93
364.729	360.26
365.111	345.34
365.493	362.97
365.874	358.9
366.256	362.29
366.637	351.9
367.019	352.58
367.4	349.19
367.781	376.53
368.163	362.97
368.544	377.66
368.925	362.07
369.306	367.72
369.688	355.51
370.069	346.25
370.45	380.15
370.831	370.88
371.212	367.26
371.593	372.24
371.974	377.66
372.355	372.01
372.736	393.03
373.117	379.24
373.498	383.54
373.879	402.07
374.26	384.89
374.641	343.54
375.021	383.31
375.402	384.89
375.783	380.37
376.163	439.35
376.544	416.53
376.925	412.46
377.305	416.98
377.686	423.53
378.066	406.59
378.447	421.05
378.827	431.22
379.208	419.24
379.588	430.31
379.968	428.96
380.349	406.59
380.729	429.41
381.109	432.8
381.489	442.06
381.87	448.39
382.25	434.16
382.63	449.3
383.01	446.13
383.39	443.42
383.77	485.23
384.15	466.47
384.53	474.83
384.91	475.28
385.29	492.46
385.67	482.29
386.049	486.81
386.429	479.8
386.809	493.81
387.189	504.21
387.568	522.29
387.948	503.08
388.328	523.19
388.707	526.36
389.087	494.27
389.466	534.72
389.846	537.88
390.225	537.2
390.605	544.89
390.984	538.11
391.363	574.26
391.743	547.37
392.122	579.46
392.501	569.29
392.881	596.64
393.26	598.22
393.639	591.21
394.018	593.93
394.397	621.95
394.776	606.35
395.155	603.87
395.534	629.63
395.913	641.16
396.292	635.96
396.671	632.57
397.05	632.57
397.429	667.14
397.808	684.32
398.186	652.68
398.565	676.86
398.944	670.76
399.323	684.77
399.701	701.27
400.08	713.7
400.458	702.4
400.837	709.4
401.215	724.32
401.594	730.87
401.972	748.05
402.351	717.54
402.729	767.03
403.107	739.91
403.486	765.45
403.864	788.5
404.242	826.46
404.62	794.82
404.999	795.05
405.377	818.33
405.755	830.98
406.133	860.13
406.511	851.55
406.889	864.2
407.267	868.04
407.645	880.7
408.023	886.12
408.401	906.01
408.779	920.92
409.156	934.03
409.534	949.62
409.912	965.21
410.29	1003.86
410.667	994.59
411.045	969.73
411.422	1003.18
411.8	1005.44
412.178	1031.88
412.555	1041.37
412.933	1063.29
413.31	1086.12
413.687	1092.22
414.065	1084.99
414.442	1120.24
414.819	1123.18
415.197	1125.44
415.574	1139.9
415.951	1162.05
416.328	1159.33
416.705	1183.06
417.082	1174.47
417.46	1197.07
417.837	1217.19
418.214	1231.87
418.591	1251.08
418.967	1257.86
419.344	1294.25
419.721	1296.28
420.098	1295.6
420.475	1311.19
420.852	1305.32
421.228	1338.99
421.605	1370.18
421.982	1358.2
422.358	1374.7
422.735	1390.74
423.111	1387.12
423.488	1409.72
423.864	1396.62
424.241	1424.86
424.617	1451.53
424.994	1496.5
425.37	1492.88
425.746	1495.6
426.123	1524.07
426.499	1520.68
426.875	1556.61
427.251	1548.7
427.627	1582.6
428.003	1620.56
428.379	1657.4
428.756	1646.55
429.132	1668.47
429.507	1719.09
429.883	1728.36
430.259	1776.04
430.635	1767.45
431.011	1767.68
431.387	1836.6
431.763	1850.84
432.138	1862.37
432.514	1853.1
432.89	1902.37
433.265	1926.09
433.641	1943.95
434.016	1940.78
434.392	2024.17
434.767	2081.8
435.143	2057.16
435.518	2080.89
435.894	2085.19
436.269	2116.14
436.644	2140.1
437.02	2180.78
437.395	2182.36
437.77	2178.52
438.145	2265.97
438.52	2231.17
438.895	2294.45
439.271	2284.95
439.646	2361.79
440.021	2345.74
440.395	2392.75
440.77	2380.09
441.145	2398.4
441.52	2460.77
441.895	2400.21
442.27	2479.3
442.645	2461.22
443.019	2509.13
443.394	2498.96
443.769	2570.37
444.143	2536.02
444.518	2598.39
444.892	2566.53
445.267	2623.7
445.641	2628.67
446.016	2637.49
446.39	2646.3
446.764	2703.02
447.139	2660.76
447.513	2708.9
447.887	2738.73
448.262	2783.25
448.636	2784.15
449.01	2817.6
449.384	2855.56
449.758	2812.17
450.132	2904.37
450.506	2968.33
450.88	2938.95
451.254	2958.38
451.628	2966.29
452.002	3027.76
452.376	3049.91
452.75	3069.11
453.123	3104.59
453.497	3126.97
453.871	3159.06
454.244	3228.21
454.618	3217.81
454.992	3326.51
455.365	3282.67
455.739	3400.18
456.112	3404.02
456.486	3434.3
456.859	3494.19
457.232	3512.27
457.606	3590.68
457.979	3629.55
458.352	3672.94
458.725	3689.89
459.099	3713.84
459.472	3839.49
459.845	3859.38
460.218	3880.17
460.591	3939.83
460.964	3936.21
461.337	4045.81
461.71	4079.94
462.083	4161.97
462.456	4175.75
462.829	4191.8
463.201	4306.37
463.574	4262.08
463.947	4374.62
464.32	4406.25
464.692	4452.81
465.065	4481.05
465.438	4588.85
465.81	4637.89
466.183	4726.25
466.555	4808.05
466.928	4807.15
467.3	4841.5
467.672	4871.78
468.045	5074.49
468.417	5068.61
468.789	5090.76
469.161	5194.71
469.534	5256.4
469.906	5393.57
470.278	5403.29
470.65	5490.97
471.022	5592.21
471.394	5648.26
471.766	5714.02
472.138	5778.42
472.51	5932.32
472.882	5990.62
473.253	6099.77
473.625	6158.3
473.997	6288.69
474.369	6316.26
474.74	6485.52
475.112	6489.36
475.484	6594.45
475.855	6725.97
476.227	6823.82
476.598	7007.77
476.97	7015.45
477.341	7233.98
477.713	7364.37
478.084	7316.23
478.455	7564.59
478.827	7671.48
479.198	7884.13
479.569	7846.39
479.94	8135.87
480.311	8200.28
480.682	8397.56
481.053	8549.2
481.424	8659.02
481.795	8739.47
482.166	8939.92
482.537	9037.77
482.908	9208.16
483.279	9298.55
483.65	9510.3
484.021	9665.55
484.391	9776.28
484.762	9926.11
485.133	10052.21
485.503	10156.61
485.874	10355.7
486.244	10488.35
486.615	10690.38
486.985	10711.63
487.356	10951.62
487.726	11058.73
488.097	11302.8
488.467	11351.16
488.837	11570.36
489.207	11764.7
489.578	11900.97
489.948	12045.83
490.318	12206.28
490.688	12315.42
491.058	12516.55
491.428	12686.26
491.798	12811.46
492.168	13103.2
492.538	13117.21
492.908	13279.02
493.278	13516.98
493.648	13450.08
494.017	13661.6
494.387	13824.09
494.757	13912.22
495.126	14098.65
495.496	14095.72
495.866	14237.63
496.235	14461.36
496.605	14498.87
496.974	14714.46
497.344	14801.24
497.713	14895.92
498.082	15080.1
498.452	15191.73
498.821	15240.09
499.19	15351.96
499.559	15576.36
499.928	15680.53
500.298	15709.23
500.667	15922.79
501.036	15954.43
501.405	16088.66
501.774	16197.58
502.143	16339.95
502.512	16411.81
502.88	16584.47
503.249	16612.71
503.618	16613.16
503.987	16919.15
504.356	16964.57
504.724	17081.85
505.093	17183.55
505.462	17192.13
505.83	17413.37
506.199	17527.49
506.567	17721.84
506.936	17779.01
507.304	17950.3
507.672	18052.22
508.041	18116.63
508.409	18318.2
508.777	18455.15
509.145	18637.97
509.514	18697.86
509.882	18793.9
510.25	18840.45
510.618	19085.87
510.986	19111.63
511.354	19329.7
511.722	19501.45
512.09	19571.05
512.458	19642.46
512.826	19793.19
513.193	19937.37
513.561	20036.58
513.929	20123.81
514.297	20353.63
514.664	20563.34
515.032	20640.18
515.4	20804.92
515.767	21011.69
516.135	21119.71
516.502	21111.13
516.869	21471.12
517.237	21567.84
517.604	21558.57
517.972	21878.34
518.339	22087.37
518.706	22112.46
519.073	22152.91
519.44	22402.17
519.808	22733.91
520.175	22668.37
520.542	22943.39
520.909	23224.29
521.276	23214.8
521.643	23443.72
522.009	23641.45
522.376	23833.77
522.743	24088.45
523.11	24243.92
523.477	24492.51
523.843	24565.95
524.21	24872.38
524.577	25068.76
524.943	25162.32
525.31	25375.65
525.676	25553.49
526.043	25784.45
526.409	25866.48
526.776	26204.55
527.142	26330.65
527.508	26494.26
527.874	26585.33
528.241	27042.04
528.607	27050.18
528.973	27304.86
529.339	27273.68
529.705	27566.1
530.071	27822.36
530.437	27861
530.803	28174.67
531.169	28357.49
531.535	28234.33
531.901	28415.57
532.267	28571.95
532.632	28764.26
532.998	28908.21
533.364	28928.1
533.73	29010.8
534.095	29329.44
534.461	29477.46
534.826	29553.16
535.192	29690.11
535.557	29971.46
535.923	29861.4
536.288	30068.18
536.653	30212.81
537.019	30120.15
537.384	30322.41
537.749	30531.22
538.114	30572.57
538.479	30652.34
538.845	30838.55
539.21	30931.43
539.575	30992.45
539.94	31160.58
540.305	31445.54
540.67	31254.81
541.034	31444.87
541.399	31554.69
541.764	31790.39
542.129	31934.34
542.494	32106.77
542.858	32075.81
543.223	32181.57
543.587	32384.05
543.952	32365.97
544.316	32463.82
544.681	32361.9
545.045	32620.65
545.41	32876.01
545.774	33016.58
546.138	32914.21
546.503	33135.67
546.867	33227.87
547.231	33568.2
547.595	33560.74
547.959	33664.24
548.324	33725.71
548.688	33718.48
549.052	33951.01
549.416	34090.9
549.779	34078.92
550.143	34167.51
550.507	34449.31
550.871	34646.36
551.235	34528.63
551.599	34722.75
551.962	34853.14
552.326	34916.64
552.689	35108.95
553.053	35173.35
553.417	35235.5
553.78	35661.93
554.143	35464.42
554.507	35619.44
554.87	35716.17
555.234	36113.22
555.597	36013.11
555.96	36290.16
556.323	36488.57
556.686	36472.53
557.05	36859.19
557.413	36877.49
557.776	36922.91
558.139	37367.42
558.502	37368.33
558.865	37428.21
559.228	37656.23
559.59	37858.71
559.953	38026.16
560.316	38385.47
560.679	38328.98
561.041	38548.63
561.404	38893.93
561.767	38956.76
562.129	39018.45
562.492	39443.53
562.854	39464.09
563.217	39464.77
563.579	39669.73
563.941	39949.05
564.304	40136.84
564.666	40342.48
565.028	40359.89
565.39	40591.52
565.753	40761.46
566.115	41015.46
566.477	41167.1
566.839	41391.27
567.201	41612.73
567.563	41580.19
567.925	41910.58
568.287	41984.93
568.648	42036
569.01	42358.02
569.372	42647.28
569.734	42518.47
570.095	42637.11
570.457	42911.68
570.819	43087.27
571.18	43249.07
571.542	43506.7
571.903	43682.74
572.265	43732
572.626	43793.24
572.987	44032.1
573.349	44019.9
573.71	44204.3
574.071	44297.63
574.432	44626.21
574.794	44908.69
575.155	44862.14
575.516	44804.51
575.877	45134.9
576.238	45152.3
576.599	45236.37
576.96	45244.28
577.32	45359.3
577.681	45459.19
578.042	45709.12
578.403	45785.73
578.763	45821.66
579.124	45864.37
579.485	45963.13
579.845	46130.81
580.206	45987.53
580.566	46126.97
580.927	46185.27
581.287	46382.33
581.648	46209
582.008	46476.56
582.368	46257.81
582.728	46533.96
583.089	46364.25
583.449	46399.73
583.809	46531.25
584.169	46813.05
584.529	46671.36
584.889	46951.35
585.249	46740.28
585.609	46663
585.969	46878.81
586.329	46772.6
586.688	46958.13
587.048	46773.05
587.408	46651.47
587.768	46684.24
588.127	46707.51
588.487	46611.7
588.846	46966.94
589.206	46622.55
589.565	46701.64
589.925	46908.19
590.284	46883.78
590.643	46835.65
591.003	46839.49
591.362	47110.89
591.721	46976.66
592.08	46934.18
592.44	47143.44
592.799	47018.47
593.158	46942.31
593.517	47003.1
593.876	47112.02
594.235	46978.24
594.593	47001.07
594.952	47091.46
595.311	46996.55
595.67	47097.34
596.029	47353.6
596.387	47355.41
596.746	47391.79
597.104	47114.06
597.463	47213.04
597.822	47346.82
598.18	47332.36
598.538	47258.91
598.897	47581.84
599.255	47154.96
599.613	47688.96
599.972	47356.09
600.33	47570.54
600.688	47514.73
601.046	47521.28
601.404	47668.85
601.762	47648.28
602.12	47707.26
602.478	47845.11
602.836	47924.66
603.194	47688.73
603.552	47877.88
603.91	47642.86
604.268	47948.84
604.625	47882.17
604.983	47984.09
605.341	47880.59
605.698	48153.8
606.056	48211.88
606.413	48088.27
606.771	48285.55
607.128	48401.48
607.485	48057.54
607.843	48167.82
608.2	48442.61
608.557	48621.14
608.914	48333.23
609.272	48505.43
609.629	48637.41
609.986	48740
610.343	48629.5
610.7	48764.41
611.057	48662.49
611.414	48605.32
611.771	48810.06
612.127	48947
612.484	48936.61
612.841	48991.97
613.198	48795.82
613.554	48899.77
613.911	49099.09
614.267	49048.7
614.624	48975.03
614.98	49130.5
615.337	49310.16
615.693	49288.24
616.05	49236.04
616.406	49392.87
616.762	49263.61
617.118	49247.79
617.475	49367.11
617.831	49524.39
618.187	49477.16
618.543	49482.81
618.899	49735.68
619.255	49597.83
619.611	49578.63
619.967	49739.3
620.323	49826.3
620.678	49735.68
621.034	49583.37
621.39	49642.13
621.746	49569.59
622.101	49941.78
622.457	49666.99
622.812	49765.97
623.168	49849.13
623.523	49830.37
623.879	49926.41
624.234	49665.4
624.589	49939.52
624.945	49806.42
625.3	49924.83
625.655	49829.47
626.01	49897.04
626.365	49959.18
626.72	49863.59
627.075	49928
627.43	49873.76
627.785	49807.32
628.14	49696.81
628.495	49874.89
628.85	49760.77
629.205	49699.98
629.559	50011.83
629.914	49731.39
630.269	49672.63
630.623	49749.24
630.978	49605.74
631.332	49736.14
631.687	49837.15
632.041	49545.41
632.396	49548.57
632.75	49521.9
633.104	49693.43
633.459	49316.26
633.813	49375.92
634.167	49378.41
634.521	49386.77
634.875	49453.21
635.229	49225.64
635.583	49190.61
635.937	49101.58
636.291	49021.58
636.645	49036.72
636.999	48846.89
637.352	48996.04
637.706	48663.85
638.06	48739.1
638.413	48579.33
638.767	48605.09
639.121	48670.85
639.474	48471.54
639.828	48457.98
640.181	48457.75
640.534	48368.49
640.888	48206.68
641.241	48061.38
641.594	48200.58
641.947	48329.39
642.301	48134.6
642.654	48270.19
643.007	48152.22
643.36	48192.45
643.713	47997.2
644.066	48176.85
644.419	47867.71
644.771	47613.25
645.124	47266.6
645.477	47287.61
645.83	46952.03
646.182	46916.55
646.535	46663.9
646.888	46735.76
647.24	46519.5
647.593	46812.37
647.945	46702.09
648.298	46540.06
648.65	46470.46
649.002	46324.47
649.355	46549.33
649.707	46261.88
650.059	46464.58
650.411	46958.58
650.763	46940.96
651.115	47279.48
651.467	47170.55
651.819	47004.91
652.171	47029.77
652.523	47032.48
652.875	46964.91
653.227	46741.86
653.578	47025.92
653.93	46782.99
654.282	46634.97
654.633	46604.92
654.985	46593.62
655.337	46696.22
655.688	46683.11
656.039	46699.83
656.391	46332.84
656.742	46506.84
657.094	46589.55
657.445	46679.49
657.796	46527.41
658.147	46494.19
658.498	46289.9
658.849	46583
659.2	46447.41
659.551	46402.44
659.902	46493.74
660.253	46400.18
660.604	46512.72
660.955	46267.98
661.306	46378.48
661.656	46293.97
662.007	46209
662.358	46286.73
662.708	46369.22
663.059	46241.09
663.409	45950.25
663.76	46270.24
664.11	46173.97
664.461	46135.1
664.811	46112.05
665.161	46120.64
665.511	45944.6
665.862	45929.46
666.212	46083.58
666.562	46221.88
666.912	46015.56
667.262	45820.08
667.612	45825.73
667.962	45877.25
668.312	45745.96
668.662	45970.36
669.011	45759.97
669.361	45591.39
669.711	45579.41
670.06	45566.08
670.41	45326.31
670.76	45276.37
671.109	45503.93
671.459	45316.59
671.808	45169.02
672.157	45386.65
672.507	44995.24
672.856	45046.32
673.205	45187.55
673.554	45256.48
673.904	45043.15
674.253	45224.16
674.602	45008.58
674.951	44439.78
675.3	44178.32
675.649	44767.9
675.998	44756.61
676.346	44802.25
676.695	44881.12
677.044	44637.29
677.393	44827.56
677.741	44781.46
678.09	44734.23
678.438	44747.34
678.787	44712.09
679.135	44742.37
679.484	44521.36
679.832	44648.36
680.181	44325.88
680.529	44486.56
680.877	44498.31
681.225	44373.34
681.573	44581.24
681.922	44303.28
682.27	44246.56
682.618	44148.71
682.966	44121.59
683.314	44292.21
683.661	44029.85
684.009	43775.61
684.357	43793.24
684.705	43662.85
685.053	43786.24
685.4	43671.21
685.748	43433.02
686.095	43339.47
686.443	43333.14
686.79	43052.7
687.138	43197.78
687.485	42979.93
687.832	42975.64
688.18	43054.05
688.527	42739.48
688.874	42744
689.221	42729.31
689.568	42545.36
689.915	42405.71
690.262	42480.06
690.609	42297.46
690.956	42226.5
691.303	42158.71
691.65	41906.29
691.997	42058.82
692.344	41705.84
692.69	41675.33
693.037	41750.13
693.383	41367.09
693.73	41562.79
694.077	41334.77
694.423	41312.85
694.769	41118.51
695.116	41017.27
695.462	40821.12
695.808	40896.82
696.155	40969.59
696.501	40701.35
696.847	40638.07
697.193	40362.82
697.539	40535.02
697.885	40186.56
698.231	40097.97
698.577	39985.88
698.923	39829.28
699.269	39895.04
699.614	39544.54
699.96	39458.21
700.306	39430.64
700.651	39207.83
700.997	39165.57
701.342	39069.98
701.688	38990.88
702.033	38746.37
702.379	38927.15
702.724	38749.31
703.069	38843.09
703.415	38348.41
703.76	38337.57
704.105	38498.24
704.45	38375.08
704.795	38012.6
705.14	37940.06
705.485	37997.46
705.83	37880.85
706.175	37872.27
706.52	37719.73
706.865	37505.27
707.209	37514.99
707.554	37399.51
707.899	37403.8
708.243	37234.09
708.588	37100.99
708.932	36839.98
709.277	36843.14
709.621	36952.29
709.966	36750.04
710.31	36731.73
710.654	36388.92
710.998	36445.64
711.342	36553.88
711.687	36425.07
712.031	36308.01
712.375	36032.77
712.719	36132.65
713.063	36011.75
713.407	36197.06
713.75	35890.4
714.094	35926.33
714.438	35643.17
714.782	35844.52
715.125	35576.06
715.469	35660.12
715.812	35430.52
716.156	35367.25
716.499	35287.7
716.843	35347.59
717.186	35024.43
717.53	35220.59
717.873	35238.89
718.216	35054.04
718.559	34933.81
718.902	34850.2
719.246	34830.99
719.589	34715.06
719.932	34511
720.275	34528.63
720.617	34481.4
720.96	34426.26
721.303	34256.54
721.646	34309.87
721.989	34150.56
722.331	34206.15
722.674	34133.16
723.016	33920.51
723.359	33970.9
723.701	33819.04
724.044	33800.51
724.386	33509.67
724.729	33730.68
725.071	33605.49
725.413	33545.38
725.755	33633.51
726.097	33360.97
726.439	33055.67
726.782	33224.48
727.124	33317.36
727.465	33120.53
727.807	33080.08
728.149	32935.9
728.491	32856.58
728.833	33022.22
729.175	32761.21
729.516	32751.5
729.858	32645.96
730.199	32755.57
730.541	32532.75
730.882	32585.4
731.224	32538.62
731.565	32397.38
731.906	32326.42
732.248	32463.37
732.589	32344.5
732.93	32167.11
733.271	32138.18
733.612	32199.65
733.953	32054.79
734.294	31906.32
734.635	31898.86
734.976	32130.27
735.317	31813.44
735.658	31849.83
735.999	31914.46
736.339	31665.88
736.68	31864.97
737.021	31784.52
737.361	31672.88
737.702	31751.07
738.042	31681.24
738.383	31471.98
738.723	31574.58
739.063	31398.99
739.404	31485.99
739.744	31374.58
740.084	31207.58
740.424	31286.9
740.764	31260.24
741.104	31306.34
741.444	31189.73
741.784	31010.07
742.124	31016.63
742.464	30837.42
742.804	30889.17
743.143	30724.66
743.483	30641.5
743.823	30582.29
744.162	30556.08
744.502	30602.63
744.841	30458.9
745.181	30512.01
745.52	30410.09
745.86	30396.53
746.199	30180.49
746.538	30147.5
746.877	30239.02
747.216	30096.88
747.556	30062.08
747.895	29942.76
748.234	29897.34
748.573	29808.98
748.911	29828.64
749.25	29770.11
749.589	29597.23
749.928	29654.4
750.267	29635.87
750.605	29541.19
750.944	29433.84
751.283	29345.03
751.621	29415.99
751.96	29150.69
752.298	29098.71
752.636	29099.39
752.975	28912.05
753.313	28866.4
753.651	28966.06
753.989	28734.43
754.327	28730.13
754.666	28634.54
755.004	28697.37
755.342	28601.32
755.679	28604.49
756.017	28412.18
756.355	28469.35
756.693	28241.56
757.031	28364.95
757.368	28193.2
757.706	28042.02
758.044	27942.13
758.381	27995.01
758.719	27963.15
759.056	27816.94
759.394	27763.83
759.731	27616.72
760.068	27581.24
760.405	27449.49
760.743	27289.95
761.08	27400.68
761.417	27352.77
761.754	27204.3
762.091	27131.98
762.428	26979.45
762.765	26956.85
763.102	26978.32
763.438	26861.48
763.775	26751.2
764.112	26683.41
764.449	26726.12
764.785	26582.62
765.122	26543.07
765.458	26279.13
765.795	26301.27
766.131	26249.3
766.467	26123.42
766.804	25988.06
767.14	25832.13
767.476	25986.7
767.812	25678.46
768.148	25681.4
768.485	25582.19
768.821	25446.83
769.157	25342.65
769.492	25305.14
769.828	25209.55
770.164	24980.63
770.5	24957.35
770.836	24953.28
771.171	24783.8
771.507	24690.47
771.842	24466.74
772.178	24522.56
772.513	24416.58
772.849	24343.13
773.184	24138.62
773.519	24212.06
773.855	24084.83
774.19	23942.24
774.525	23977.04
774.86	23833.99
775.195	23869.92
775.53	23677.16
775.865	23624.96
776.2	23295.7
776.535	23251.86
776.87	23167.57
777.205	23111.53
777.539	23020.68
777.874	23116.27
778.209	22914.02
778.543	22810.74
778.878	22606
779.212	22619.56
779.547	22613.91
779.881	22639.22
780.215	22473.58
780.55	22455.95
780.884	22208.27
781.218	22226.8
781.552	22078.56
781.886	22077.43
782.22	21879.47
782.554	21863.65
782.888	21661.85
783.222	21561.06
783.556	21441.74
783.889	21366.03
784.223	21201.97
784.557	21114.52
784.89	21281.29
785.224	21187.28
785.557	20991.35
785.891	21060.73
786.224	21014.41
786.558	20962.66
786.891	20758.37
787.224	20554.53
787.557	20611.7
787.891	20609.22
788.224	20577.58
788.557	20575.55
788.89	20504.59
789.223	20365.61
789.556	20117.93
789.888	20177.14
790.221	20114.32
790.554	19922.68
790.887	19900.99
791.219	19886.07
791.552	19738.28
791.884	19711.39
792.217	19548.91
792.549	19524.95
792.882	19367.22
793.214	19353.43
793.546	19334.22
793.879	19279.99
794.211	19155.47
794.543	19193.66
794.875	19097.39
795.207	19081.35
795.539	19003.61
795.871	19012.65
796.203	18744.86
796.535	18679.1
796.867	18651.3
797.198	18546.9
797.53	18676.84
797.862	18311.65
798.193	18421.93
798.525	18307.58
798.856	18299.45
799.188	18152.79
799.519	18001.6
799.85	17918.89
800.182	17986.46
800.513	17960.25
800.844	17781.95
801.175	17909.4
801.506	17864.66
801.837	17717.32
802.168	17640.03
802.499	17560.48
802.83	17549.41
803.161	17533.14
803.491	17502.41
803.822	17395.97
804.153	17366.82
804.483	17278.01
804.814	17118.91
805.145	17261.51
805.475	17104.23
805.805	16886.6
806.136	17043.89
806.466	16995.3
806.796	16797.11
807.126	16683.22
807.457	16697.23
807.787	16843.44
808.117	16714.41
808.447	16612.03
808.777	16630.57
809.107	16619.49
809.436	16440.06
809.766	16518.25
810.096	16530.68
810.426	16347.64
810.755	16424.02
811.085	16386.5
811.414	16288.65
811.744	16062.44
812.073	16163.91
812.403	16068.09
812.732	15988.32
813.061	16001.66
813.39	15954.88
813.719	15932.5
814.049	15940.19
814.378	15794.2
814.707	15846.86
815.036	15782.68
815.365	15671.27
815.693	15597.37
816.022	15670.82
816.351	15573.64
816.68	15496.58
817.008	15432.86
817.337	15418.39
817.665	15393.08
817.994	15411.16
818.322	15391.05
818.651	15271.96
818.979	15169.59
819.307	15267.89
819.636	15145.63
819.964	15123.03
820.292	15056.14
820.62	15122.36
820.948	14976.82
821.276	15126.2
821.604	14967.33
821.932	15002.13
822.259	15025.64
822.587	15088.69
822.915	15014.56
823.243	15044.17
823.57	15045.3
823.898	14911.97
824.225	14945.64
824.553	14916.71
824.88	14926.88
825.207	15036.26
825.535	14958.29
825.862	14963.94
826.189	14896.83
826.516	14987.22
826.843	15024.28
827.17	14975.24
827.497	14957.39
827.824	14955.58
828.151	14973.21
828.478	14888.01
828.805	14965.75
829.131	14815.7
829.458	14872.87
829.785	14688.92
830.111	14803.27
830.438	14893.89
830.764	14843.27
831.09	14897.5
831.417	14739.32
831.743	14913.55
832.069	14806.21
832.395	14720.11
832.722	14716.72
833.048	14709.03
833.374	14725.08
833.7	14685.08
834.026	14723.72
834.351	14718.3
834.677	14635.82
835.003	14721.69
835.329	14692.54
835.654	14665.87
835.98	14496.84
836.306	14590.85
836.631	14486.89
836.956	14586.78
837.282	14505.88
837.607	14437.63
837.932	14407.35
838.258	14448.02
838.583	14505.65
838.908	14373.45
839.233	14409.83
839.558	14326.9
839.883	14285.77
840.208	14249.39
840.533	14325.32
840.858	14337.52
841.182	14203.96
841.507	14352.43
841.832	14206.9
842.156	14135.26
842.481	14102.95
842.805	14035.83
843.13	14186.79
843.454	13969.62
843.778	13950.18
844.103	14074.02
844.427	14025.21
844.751	14039.22
845.075	13877.42
845.399	13919.45
845.723	13811.2
846.047	13783.86
846.371	13744.31
846.695	13667.48
847.019	13639.68
847.343	13580.02
847.666	13543.64
847.99	13452.34
848.313	13465.45
848.637	13357.66
848.96	13352.69
849.284	13293.03
849.607	13177.32
849.931	13173.03
850.254	13072.92
850.577	13040.38
850.9	12958.8
851.223	12928.97
851.546	12921.96
851.869	12843.77
852.192	12835.64
852.515	12731.23
852.838	12750.44
853.161	12697.79
853.483	12728.75
853.806	12582.54
854.129	12594.29
854.451	12563.33
854.774	12498.02
855.096	12405.14
855.419	12402.43
855.741	12473.84
856.063	12328.76
856.385	12332.37
856.708	12271.13
857.03	12206.73
857.352	12301.41
857.674	12166.28
857.996	12106.16
858.318	12182.77
858.64	12048.77
858.961	12021.87
859.283	11956.79
859.605	11976.9
859.926	11987.07
860.248	11976
860.57	11870.01
860.891	11882.22
861.212	11813.29
861.534	11808.77
861.855	11776.23
862.176	11751.15
862.498	11680.87
862.819	11726.29
863.14	11646.52
863.461	11669.57
863.782	11677.48
864.103	11754.99
864.424	11692.39
864.745	11614.88
865.065	11573.98
865.386	11594.31
865.707	11515.45
866.027	11479.06
866.348	11443.58
866.668	11483.81
866.989	11535.33
867.309	11438.84
867.63	11461.44
867.95	11387.99
868.27	11365.39
868.59	11434.32
868.91	11380.99
869.23	11277.94
869.55	11316.58
869.87	11404.04
870.19	11332.17
870.51	11250.14
870.83	11267.77
871.15	11241.55
871.469	11247.66
871.789	11281.55
872.109	11246.3
872.428	11118.62
872.748	11190.48
873.067	11122.69
873.386	11180.31
873.706	11131.28
874.025	11103.03
874.344	11076.81
874.663	11116.59
874.982	11055.8
875.301	11091.73
875.62	11101.45
875.939	11021.67
876.258	10952.07
876.577	10990.94
876.896	10983.93
877.214	11007.89
877.533	11003.82
877.852	11008.57
878.17	11044.27
878.489	10952.97
878.807	10986.42
879.125	10939.87
879.444	10910.49
879.762	10849.02
880.08	10933.99
880.398	10796.59
880.716	10857.84
881.034	10820.55
881.352	10865.07
881.67	10781.68
881.988	10722.47
882.306	10712.76
882.624	10731.96
882.941	10661.91
883.259	10678.86
883.577	10731.96
883.894	10734.22
884.212	10674.56
884.529	10591.4
884.846	10633.89
885.164	10591.85
885.481	10550.73
885.798	10599.31
886.115	10505.3
886.432	10517.51
886.75	10498.98
887.067	10529.26
887.383	10480.9
887.7	10453.1
888.017	10409.49
888.334	10405.64
888.651	10356.38
888.967	10306.44
889.284	10298.3
889.6	10239.1
889.917	10176.72
890.233	10157.29
890.55	10154.58
890.866	10179.44
891.182	10116.84
891.498	10078.65
891.815	10092.21
892.131	10056.05
892.447	10064.18
892.763	9999.33
893.079	9992.1
893.395	9950.06
893.71	9926.79
894.026	9923.62
894.342	9858.09
894.657	9825.77
894.973	9835.04
895.289	9854.25
895.604	9746
895.92	9728.37
896.235	9609.73
896.55	9747.13
896.865	9674.14
897.181	9694.48
897.496	9645.66
897.811	9544.42
898.126	9570.86
898.441	9494.26
898.756	9475.73
899.071	9441.6
899.386	9381.72
899.7	9363.41
900.015	9329.51
900.33	9326.8
900.644	9280.25
900.959	9225.56
901.273	9153.7
901.588	9197.99
901.902	9129.52
902.216	9170.42
902.531	9134.72
902.845	9113.25
903.159	8973.14
903.473	8948.96
903.787	8946.93
904.101	8907.83
904.415	8891.56
904.729	8889.98
905.042	8884.78
905.356	8801.84
905.67	8859.24
905.984	8866.48
906.297	8807.72
906.611	8745.12
906.924	8732.24
907.237	8704.45
907.551	8667.16
907.864	8634.62
908.177	8666.26
908.491	8590.78
908.804	8537.22
909.117	8462.42
909.43	8434.4
909.743	8431.23
910.056	8401.18
910.368	8398.69
910.681	8294.74
910.994	8257.45
911.307	8283.89
911.619	8227.4
911.932	8209.32
912.244	8169.77
912.557	8185.36
912.869	8092.03
913.181	8099.49
913.494	8089.32
913.806	8004.13
914.118	8018.36
914.43	7954.64
914.742	7939.95
915.054	7884.58
915.366	7852.72
915.678	7808.65
915.99	7817.01
916.302	7739.73
916.613	7729.56
916.925	7668.99
917.236	7684.59
917.548	7566.62
917.859	7623.57
918.171	7574.31
918.482	7437.81
918.794	7531.6
919.105	7513.07
919.416	7426.06
919.727	7432.62
920.038	7426.29
920.349	7377.02
920.66	7321.43
920.971	7362.11
921.282	7317.59
921.593	7238.95
921.903	7224.49
922.214	7215.67
922.525	7160.08
922.835	7174.09
923.146	7092.51
923.456	7058.16
923.767	7054.32
924.077	7026.98
924.387	7001.44
924.697	6979.75
925.008	6958.28
925.318	6939.75
925.628	6932.29
925.938	6818.85
926.248	6822.69
926.558	6798.28
926.867	6752.63
927.177	6758.28
927.487	6763.93
927.796	6678.51
928.106	6711.28
928.416	6633.99
928.725	6627.66
929.034	6576.14
929.344	6587.89
929.653	6596.03
929.962	6507.44
930.271	6501.57
930.581	6430.83
930.89	6446.2
931.199	6439.2
931.508	6415.01
931.817	6381.57
932.125	6371.85
932.434	6319.2
932.743	6317.62
933.051	6247.34
933.36	6214.12
933.669	6215.47
933.977	6198.3
934.286	6177.28
934.594	6149.26
934.902	6141.58
935.21	6111.07
935.519	6063.61
935.827	6067.45
936.135	6068.81
936.443	6010.96
936.751	6012.77
937.059	5951.75
937.367	5933.9
937.674	5955.14
937.982	5889.38
938.29	5879.44
938.597	5905.65
938.905	5792.21
939.213	5839.66
939.52	5749.95
939.827	5769.38
940.135	5713.34
940.442	5683.73
940.749	5688.03
941.056	5669.5
941.363	5613.91
941.67	5608.48
941.977	5559.67
942.284	5496.85
942.591	5502.5
942.898	5461.59
943.205	5488.26
943.511	5467.24
943.818	5443.74
944.125	5434.93
944.431	5389.73
944.738	5368.26
945.044	5327.36
945.35	5384.31
945.657	5297.3
945.963	5296.85
946.269	5268.6
946.575	5232
946.881	5242.39
947.187	5237.42
947.493	5179.34
947.799	5201.94
948.105	5161.94
948.41	5121.04
948.716	5118.78
949.022	5074.03
949.327	5088.72
949.633	5052.79
949.938	5057.76
950.244	5010.31
950.549	4995.17
950.854	4956.97
951.16	4968.5
951.465	4916.75
951.77	4905.9
952.075	4902.74
952.38	4841.27
952.685	4855.51
952.99	4830.88
953.294	4830.65
953.599	4792.23
953.904	4738.22
954.209	4705
954.513	4717.66
954.818	4725.12
955.122	4731.44
955.426	4652.8
955.731	4618.68
956.035	4621.84
956.339	4624.33
956.643	4537.1
956.948	4596.98
957.252	4518.79
957.556	4516.31
957.86	4502.97
958.163	4469.98
958.467	4495.07
958.771	4413.49
959.075	4414.62
959.378	4377.33
959.682	4373.94
959.985	4398.57
960.289	4331.45
960.592	4325.58
960.896	4285.35
961.199	4313.38
961.502	4285.35
961.805	4283.77
962.108	4238.57
962.411	4249.87
962.714	4207.39
963.017	4177.79
963.32	4191.12
963.623	4160.16
963.926	4169.42
964.228	4105.02
964.531	4140.27
964.833	4114.96
965.136	4112.7
965.438	4085.58
965.741	4048.3
966.043	4054.63
966.345	4008.98
966.648	3984.57
966.95	3981.41
967.252	3922.43
967.554	3939.83
967.856	3927.85
968.158	3901.18
968.46	3852.14
968.761	3874.74
969.063	3901.86
969.365	3843.33
969.666	3859.83
969.968	3808.53
970.269	3806.04
970.571	3803.78
970.872	3767.63
971.174	3728.53
971.475	3744.58
971.776	3761.07
972.077	3705.93
972.378	3719.27
972.679	3691.24
972.98	3638.82
973.281	3648.08
973.582	3604.69
973.883	3629.78
974.183	3591.13
974.484	3635.65
974.785	3572.6
975.085	3551.36
975.386	3545.71
975.686	3519.5
975.986	3502.32
976.287	3514.75
976.587	3479.27
976.887	3413.29
977.187	3450.57
977.487	3438.6
977.787	3401.99
978.087	3389.11
978.387	3383.91
978.687	3383.68
978.987	3339.84
979.286	3349.11
979.586	3312.5
979.885	3301.2
980.185	3287.19
980.484	3270.24
980.784	3291.03
981.083	3270.46
981.382	3246.06
981.682	3234.53
981.981	3196.12
982.28	3183.69
982.579	3147.98
982.878	3162.45
983.177	3108.44
983.475	3116.12
983.774	3138.26
984.073	3107.98
984.372	3067.76
984.67	3080.87
984.969	3073.18
985.267	3073.86
985.566	3015.78
985.864	3064.59
986.162	3003.81
986.461	3014.2
986.759	2973.3
987.057	2981.66
987.355	2944.15
987.653	2951.6
987.951	2931.49
988.249	2933.52
988.547	2909.8
988.844	2893.3
989.142	2879.51
989.44	2877.25
989.737	2834.32
990.035	2829.35
990.332	2818.05
990.63	2828.22
990.927	2837.26
991.224	2795.22
991.521	2801.55
991.819	2784.6
992.116	2773.98
992.413	2778.95
992.71	2743.25
993.006	2731.27
993.303	2684.49
993.6	2697.6
993.897	2680.88
994.193	2693.08
994.49	2653.31
994.787	2657.6
995.083	2634.55
995.379	2607.43
995.676	2611.05
995.972	2624.38
996.268	2604.72
996.565	2588.22
996.861	2582.35
997.157	2548.22
997.453	2543.7
997.749	2541.9
998.044	2495.12
998.34	2516.59
998.636	2524.5
998.932	2518.62
999.227	2476.36
999.523	2484.04
999.818	2424.61
1000.114	2442.69
1000.409	2434.78
1000.704	2398.85
1001	2429.13
1001.295	2376.93
1001.59	2376.03
1001.885	2369.7
1002.18	2349.13
1002.475	2331.28
1002.77	2344.16
1003.065	2300.55
1003.359	2290.38
1003.654	2278.63
1003.949	2265.75
1004.243	2251.28
1004.538	2212.87
1004.832	2246.54
1005.127	2221.9
1005.421	2199.98
1005.715	2174.67
1006.009	2218.29
1006.304	2186.43
1006.598	2149.59
1006.892	2149.36
1007.186	2167.89
1007.48	2124.96
1007.773	2119.99
1008.067	2110.27
1008.361	2105.3
1008.655	2064.17
1008.948	2069.82
1009.242	2089.48
1009.535	2059.2
1009.829	2021.23
1010.122	2038.63
1010.415	2029.14
1010.708	1990.05
1011.001	1991.4
1011.295	1973.78
1011.588	1948.24
1011.881	1953.89
1012.173	1933.32
1012.466	1952.76
1012.759	1920.22
1013.052	1910.05
1013.344	1932.65
1013.637	1886.32
1013.93	1856.72
1014.222	1873.67
1014.514	1868.92
1014.807	1847.23
1015.099	1815.59
1015.391	1812.88
1015.683	1831.18
1015.976	1799.54
1016.268	1802.93
1016.56	1809.71
1016.851	1746.44
1017.143	1754.35
1017.435	1760.9
1017.727	1760.45
1018.018	1719.77
1018.31	1712.77
1018.602	1697.62
1018.893	1692.88
1019.185	1686.78
1019.476	1653.78
1019.767	1635.25
1020.058	1658.53
1020.35	1620.56
1020.641	1617.63
1020.932	1623.5
1021.223	1623.28
1021.514	1581.47
1021.804	1592.99
1022.095	1574.24
1022.386	1543.05
1022.677	1554.13
1022.967	1518.19
1023.258	1522.71
1023.548	1533.11
1023.839	1535.14
1024.129	1489.04
1024.419	1481.59
1024.709	1470.74
1025	1443.39
1025.29	1446.33
1025.58	1464.41
1025.87	1454.69
1026.16	1405.2
1026.449	1456.28
1026.739	1407.91
1027.029	1389.61
1027.319	1359.1
1027.608	1394.13
1027.898	1400.01
1028.187	1370.4
1028.477	1343.74
1028.766	1360.68
1029.055	1342.15
1029.344	1307.35
1029.634	1319.56
1029.923	1315.26
1030.212	1311.19
1030.501	1282.27
1030.79	1289.73
1031.078	1289.95
1031.367	1257.18
1031.656	1247.24
1031.945	1265.32
1032.233	1246.34
1032.522	1220.12
1032.81	1219.67
1033.099	1240.24
1033.387	1235.26
1033.675	1226
1033.963	1206.79
1034.251	1189.84
1034.54	1171.76
1034.828	1162.5
1035.116	1154.59
1035.403	1152.1
1035.691	1149.39
1035.979	1141.48
1036.267	1122.72
1036.554	1111.88
1036.842	1109.62
1037.129	1122.27
1037.417	1138.77
1037.704	1095.61
1037.992	1092.22
1038.279	1091.09
1038.566	1068.26
1038.853	1068.26
1039.14	1068.26
