Data from aluminium_macbook_case_FLMS001491_060.txt Node
Date: Tue Feb 07 10:43:51 GMT 2017
User: dcchb
Spectrometer: FLMS00149
Trigger mode: 0
Integration Time (sec): 2.000000E-2
Scans to average: 10
Electric dark correction enabled: true
Nonlinearity correction enabled: false
Boxcar width: 0
XAxis mode: Wavelengths
Number of Pixels in Spectrum: 2048
>>>>>Begin Spectral Data<<<<<
341.393	-24.79
341.776	-24.79
342.16	-24.79
342.543	-76.31
342.927	-86.03
343.31	-52.58
343.693	-67.27
344.077	-53.26
344.46	-67.95
344.843	-72.02
345.226	-59.14
345.61	-26.82
345.993	-22.53
346.376	-9.19
346.759	3.46
347.142	16.12
347.525	48.2
347.908	66.74
348.291	75.1
348.674	97.7
349.057	123.46
349.44	130.69
349.823	154.42
350.206	192.16
350.588	243.68
350.971	276.67
351.354	304.7
351.737	303.79
352.119	296.11
352.502	318.03
352.884	337.24
353.267	328.42
353.65	358.48
354.032	374.3
354.414	365.03
354.797	375.88
355.179	391.92
355.562	392.6
355.944	402.77
356.326	410.46
356.709	412.04
357.091	414.75
357.473	407.52
357.855	408.65
358.238	421.53
358.62	424.47
359.002	435.31
359.384	432.83
359.766	397.35
360.148	434.41
360.53	407.29
360.912	419.27
361.294	422.21
361.676	447.74
362.057	439.61
362.439	425.37
362.821	434.41
363.203	435.99
363.584	436.67
363.966	448.42
364.348	445.48
364.729	442.09
365.111	424.92
365.493	451.36
365.874	434.64
366.256	437.35
366.637	438.03
367.019	437.35
367.4	444.8
367.781	431.7
368.163	452.04
368.544	466.95
368.925	448.65
369.306	490.23
369.688	449.32
370.069	473.05
370.45	451.13
370.831	462.43
371.212	481.19
371.593	460.62
371.974	492.26
372.355	485.03
372.736	490.91
373.117	475.99
373.498	489.55
373.879	487.74
374.26	458.59
374.641	469.44
375.021	486.61
375.402	491.81
375.783	506.05
376.163	529.77
376.544	546.27
376.925	524.35
377.305	515.54
377.686	536.33
378.066	558.7
378.447	534.29
378.827	553.05
379.208	535.65
379.588	550.11
379.968	557.8
380.349	586.27
380.729	558.47
381.109	588.53
381.489	570.45
381.87	567.29
382.25	586.72
382.63	604.57
383.01	600.05
383.39	620.85
383.77	631.24
384.15	614.74
384.53	605.03
384.91	632.6
385.29	652.93
385.67	662.88
386.049	667.17
386.429	687.51
386.809	692.71
387.189	693.39
387.568	710.56
387.948	681.18
388.328	717.11
388.707	720.5
389.087	702.65
389.466	744.91
389.846	743.1
390.225	745.14
390.605	748.07
390.984	771.35
391.363	781.74
391.743	778.13
392.122	814.51
392.501	812.03
392.881	828.98
393.26	854.29
393.639	835.08
394.018	869.65
394.397	877.56
394.776	902.42
395.155	889.99
395.534	889.54
395.913	916.66
396.292	931.8
396.671	913.72
397.05	932.48
397.429	939.93
397.808	955.75
398.186	972.25
398.565	963.21
398.944	970.89
399.323	1008.18
399.701	1016.99
400.08	1027.61
400.458	1022.64
400.837	1029.65
401.215	1036.2
401.594	1065.81
401.972	1086.14
402.351	1092.02
402.729	1093.15
403.107	1111.91
403.486	1119.59
403.864	1140.61
404.242	1140.61
404.62	1179.93
404.999	1174.05
405.377	1199.59
405.755	1243.88
406.133	1261.51
406.511	1251.56
406.889	1278
407.267	1295.18
407.645	1319.13
408.023	1354.16
408.401	1318.68
408.779	1381.28
409.156	1369.98
409.534	1377.66
409.912	1433.93
410.29	1445.91
410.667	1472.35
411.045	1514.83
411.422	1499.69
411.8	1527.71
412.178	1527.26
412.555	1564.1
412.933	1572.23
413.31	1637.54
413.687	1621.5
414.065	1642.74
414.442	1715.05
414.819	1717.09
415.197	1751.21
415.574	1766.13
415.951	1792.34
416.328	1814.94
416.705	1803.86
417.082	1832.11
417.46	1862.17
417.837	1905.78
418.214	1861.94
418.591	1900.13
418.967	1938.78
419.344	1911.88
419.721	1990.53
420.098	1990.3
420.475	2012
420.852	2015.61
421.228	2072.56
421.605	2084.99
421.982	2136.06
422.358	2171.31
422.735	2171.09
423.111	2203.18
423.488	2245.89
423.864	2244.98
424.241	2265.55
424.617	2302.38
424.994	2319.33
425.37	2346.68
425.746	2343.74
426.123	2421.48
426.499	2415.83
426.875	2478.65
427.251	2500.8
427.627	2579.21
428.003	2565.88
428.379	2632.77
428.756	2648.81
429.132	2696.27
429.507	2733.56
429.883	2754.57
430.259	2811.52
430.635	2863.95
431.011	2876.15
431.387	2972.42
431.763	2957.28
432.138	3002.7
432.514	3068.46
432.89	3058.52
433.265	3153.21
433.641	3161.8
434.016	3225.97
434.392	3272.3
434.767	3342.36
435.143	3373.77
435.518	3408.12
435.894	3428.46
436.269	3496.02
436.644	3536.7
437.02	3599.52
437.395	3580.32
437.77	3654.21
438.145	3670.48
438.52	3737.37
438.895	3785.06
439.271	3801.1
439.646	3911.38
440.021	3910.7
440.395	3958.84
440.77	3922
441.145	3962
441.52	4064.6
441.895	4072.96
442.27	4115.89
442.645	4088.78
443.019	4254.2
443.394	4187.08
443.769	4246.51
444.143	4195.44
444.518	4349.11
444.892	4327.87
445.267	4401.99
445.641	4430.01
446.016	4432.04
446.39	4488.09
446.764	4543.91
447.139	4548.88
447.513	4601.98
447.887	4582.55
448.262	4628.2
448.636	4658.93
449.01	4727.4
449.384	4796.1
449.758	4816.67
450.132	4913.84
450.506	4935.76
450.88	5024.8
451.254	5025.48
451.628	5039.26
452.002	5123.1
452.376	5163.32
452.75	5168.52
453.123	5217.11
453.497	5348.18
453.871	5395.18
454.244	5472.24
454.618	5549.08
454.992	5701.62
455.365	5641.73
455.739	5814.16
456.112	5878.11
456.486	5907.03
456.859	6029.74
457.232	6136.63
457.606	6135.28
457.979	6259.79
458.352	6378.89
458.725	6446.91
459.099	6468.38
459.472	6639.9
459.845	6669.73
460.218	6732.77
460.591	6778.65
460.964	6801.7
461.337	6968.02
461.71	7087.79
462.083	7233.1
462.456	7171.63
462.829	7257.96
463.201	7448.01
463.574	7468.35
463.947	7520.55
464.32	7736.14
464.692	7833.08
465.065	7872.86
465.438	8022.91
465.81	8091.16
466.183	8202.79
466.555	8395.33
466.928	8498.15
467.3	8523.91
467.672	8623.35
468.045	8917.35
468.417	8845.49
468.789	9017.69
469.161	9150.11
469.534	9205.93
469.906	9454.74
470.278	9562.53
470.65	9620.38
471.022	9862.18
471.394	9977.44
471.766	10075.06
472.138	10234.38
472.51	10512.56
472.882	10616.29
473.253	10767.47
473.625	10910.74
473.997	11191.64
474.369	11259.89
474.74	11381.92
475.112	11653.32
475.484	11827.78
475.855	12027.55
476.227	12096.25
476.598	12506.63
476.97	12649.46
477.341	12929
477.713	13098.26
478.084	13207.86
478.455	13652.82
478.827	13764.23
479.198	14031.57
479.569	14102.3
479.94	14504.1
480.311	14687.37
480.682	15010.75
481.053	15332.32
481.424	15550.17
481.795	15719.88
482.166	16019.08
482.537	16219.53
482.908	16570.71
483.279	16796.24
483.65	17064.71
484.021	17449.78
484.391	17657.91
484.762	17822.88
485.133	18021.29
485.503	18249.31
485.874	18597.55
486.244	18846.35
486.615	19225.1
486.985	19518.88
487.356	19811.3
487.726	19908.47
488.097	20395.92
488.467	20562.24
488.837	20970.82
489.207	21237.7
489.578	21575.55
489.948	21745.49
490.318	22100.05
490.688	22125.14
491.058	22405.58
491.428	22665.46
491.798	22832.92
492.168	23311.55
492.538	23468.15
492.908	23813
493.278	24081.02
493.648	24212.09
494.017	24430.61
494.387	24735.01
494.757	24939.53
495.126	25190.14
495.496	25298.84
495.866	25602.11
496.235	25928.65
496.605	26135.65
496.974	26228.76
497.344	26626.49
497.713	26755.07
498.082	27060.15
498.452	27274.83
498.821	27297.43
499.19	27485.68
499.559	27754.37
499.928	27988.94
500.298	28157.75
500.667	28551.18
501.036	28503.5
501.405	28800.44
501.774	28811.52
502.143	29165.18
502.512	29174.44
502.88	29458.05
503.249	29557.03
503.618	29796.58
503.987	29881.32
504.356	30184.59
504.724	30335.32
505.093	30361.08
505.462	30778.47
505.83	30976.21
506.199	31160.16
506.567	31609.86
506.936	31654.38
507.304	32079.91
507.672	32237.87
508.041	32401.03
508.409	32762.6
508.777	33041.91
509.145	33098.18
509.514	33301.79
509.882	33539.08
510.25	33605.51
510.618	34048.21
510.986	34100.64
511.354	34478.71
511.722	34732.94
512.09	35050.67
512.458	34970.22
512.826	35406.6
513.193	35610.21
513.561	35675.52
513.929	36104.88
514.297	36410.41
514.664	36611.76
515.032	36757.75
515.4	37075.71
515.767	37116.61
516.135	37428.69
516.502	37356.6
516.869	37964.27
517.237	38062.12
517.604	38111.61
517.972	38525.16
518.339	38906.39
518.706	39057.35
519.073	39314.97
519.44	39622.08
519.808	39956.53
520.175	39996.31
520.542	40596.74
520.909	40774.37
521.276	40758.32
521.643	41469.04
522.009	41730.95
522.376	41939.53
522.743	42215.23
523.11	42632.4
523.477	43180.86
523.843	43265.83
524.21	43643.44
524.577	43979.25
524.943	44219.7
525.31	44341.73
525.676	44804.99
526.043	45034.37
526.409	45234.14
526.776	45644.29
527.142	45678.19
527.508	45854.91
527.874	46219.19
528.241	46425.74
528.607	46694.21
528.973	47007.42
529.339	47028.89
529.705	47423.46
530.071	47766.72
530.437	47883.33
530.803	48055.76
531.169	48446.93
531.535	48424.33
531.901	48628.62
532.267	48905.9
532.632	49139.34
532.998	49301.6
533.364	49514.25
533.73	49582.95
534.095	49918.98
534.461	50055.93
534.826	50327.79
535.192	50458.18
535.557	50599.19
535.923	50707.89
536.288	50829.47
536.653	51043.25
537.019	51010.25
537.384	51133.87
537.749	51355.78
538.114	51403.01
538.479	51463.35
538.845	51689.11
539.21	51693.63
539.575	51771.82
539.94	51947.86
540.305	52090.68
540.67	52132.94
541.034	52203.44
541.399	52282.99
541.764	52387.62
542.129	52564.56
542.494	52617.22
542.858	52713.26
543.223	52823.09
543.587	53047.72
543.952	53034.61
544.316	53184.89
544.681	53285.22
545.045	53403.41
545.41	53552.33
545.774	53644.99
546.138	53713.01
546.503	53842.72
546.867	53814.47
547.231	54203.84
547.595	54163.39
547.959	54290.85
548.324	54359.09
548.688	54387.34
549.052	54594.12
549.416	54698.07
549.779	54658.29
550.143	54793.21
550.507	54991.39
550.871	55114.78
551.235	55130.82
551.599	55373.3
551.962	55378.05
552.326	55512.51
552.689	55575.78
553.053	55512.74
553.417	55611.26
553.78	55914.53
554.143	55849
554.507	55906.17
554.87	55999.05
555.234	56210.12
555.597	56171.48
555.96	56314.07
556.323	56425.03
556.686	56410.11
557.05	56678.35
557.413	56709.54
557.776	56789.31
558.139	56973.71
558.502	57069.3
558.865	57145.69
559.228	57325.57
559.59	57405.57
559.953	57439.24
560.316	57761.49
560.679	57800.13
561.041	57875.61
561.404	58057.53
561.767	58251.87
562.129	58111.09
562.492	58462.94
562.854	58366.9
563.217	58470.85
563.579	58585.65
563.941	58712.65
564.304	58796.49
564.666	59047.11
565.028	59070.61
565.39	59193.32
565.753	59301.11
566.115	59435.57
566.477	59487.77
566.839	59493.42
567.201	59662
567.563	59708.33
567.925	59886.63
568.287	59837.82
568.648	59892.73
569.01	60001.43
569.372	60134.99
569.734	60140.64
570.095	60225.38
570.457	60366.84
570.819	60418.14
571.18	60426.05
571.542	60642.32
571.903	60567.52
572.265	60637.35
572.626	60744.24
572.987	60796.66
573.349	60895.64
573.71	61029.43
574.071	61084.79
574.432	61082.08
574.794	61332.92
575.155	61247.27
575.516	61261.74
575.877	61348.97
576.238	61450.21
576.599	61486.82
576.96	61461.96
577.32	61523.2
577.681	61605.46
578.042	61708.5
578.403	61680.71
578.763	61736.3
579.124	61808.61
579.485	61873.47
579.845	61910.08
580.206	61849.07
580.566	61874.38
580.927	61889.52
581.287	62018.55
581.648	61937.43
582.008	61959.8
582.368	61996.41
582.728	61973.81
583.089	61995.5
583.449	61964.32
583.809	62032.56
584.169	61996.18
584.529	61977.65
584.889	62113.69
585.249	61979.23
585.609	61906.92
585.969	62021.26
586.329	61988.27
586.688	62008.16
587.048	61948.5
587.408	61987.37
587.768	62015.84
588.127	62004.09
588.487	61955.96
588.846	62082.28
589.206	61980.81
589.565	61991.43
589.925	62126.57
590.284	62023.75
590.643	62075.5
591.003	62131.32
591.362	62220.36
591.721	62209.51
592.08	62214.25
592.44	62283.4
592.799	62162.28
593.158	62160.92
593.517	62172.67
593.876	62265.33
594.235	62189.62
594.593	62222.62
594.952	62287.7
595.311	62187.81
595.67	62274.14
596.029	62402.05
596.387	62369.73
596.746	62348.71
597.104	62329.96
597.463	62338.09
597.822	62473
598.18	62343.29
598.538	62351.88
598.897	62478.65
599.255	62266.46
599.613	62617.86
599.972	62442.5
600.33	62451.54
600.688	62358.88
601.046	62429.62
601.404	62491.53
601.762	62450.86
602.12	62577.63
602.478	62519.33
602.836	62593.45
603.194	62370.86
603.552	62421.93
603.91	62471.65
604.268	62607.92
604.625	62486.11
604.983	62616.96
605.341	62449.05
605.698	62563.4
606.056	62736.27
606.413	62634.13
606.771	62767.46
607.128	62784.86
607.485	62649.5
607.843	62738.31
608.2	62794.58
608.557	62844.97
608.914	62858.3
609.272	62889.94
609.629	62973.56
609.986	63097.85
610.343	62982.14
610.7	63135.81
611.057	63098.75
611.414	63092.87
611.771	63105.08
612.127	63156.83
612.484	63156.6
612.841	63186.88
613.198	63129.71
613.554	63150.5
613.911	63192.76
614.267	63180.33
614.624	63179.43
614.98	63183.95
615.337	63193.89
615.693	63192.76
616.05	63192.08
616.406	63193.89
616.762	63191.18
617.118	63193.89
617.475	63185.75
617.831	63193.89
618.187	63193.89
618.543	63193.89
618.899	63193.89
619.255	63193.89
619.611	63193.89
619.967	63193.89
620.323	63193.89
620.678	63193.89
621.034	63193.89
621.39	63193.89
621.746	63193.89
622.101	63193.89
622.457	63193.89
622.812	63193.89
623.168	63193.89
623.523	63193.89
623.879	63193.89
624.234	63193.89
624.589	63193.89
624.945	63193.89
625.3	63193.89
625.655	63193.89
626.01	63193.89
626.365	63193.89
626.72	63193.89
627.075	63193.89
627.43	63193.89
627.785	63193.89
628.14	63193.89
628.495	63193.89
628.85	63193.89
629.205	63193.89
629.559	63193.89
629.914	63193.89
630.269	63193.89
630.623	63193.89
630.978	63193.89
631.332	63193.89
631.687	63193.89
632.041	63184.17
632.396	63193.89
632.75	63190.5
633.104	63189.6
633.459	63164.74
633.813	63136.49
634.167	63147.34
634.521	63130.39
634.875	63097.85
635.229	63034.12
635.583	62973.33
635.937	62869.15
636.291	62871.64
636.645	62855.37
636.999	62895.14
637.352	62810.85
637.706	62709.38
638.06	62732.88
638.413	62720.91
638.767	62577.18
639.121	62730.17
639.474	62612.89
639.828	62583.06
640.181	62609.72
640.534	62655.15
640.888	62526.11
641.241	62452.44
641.594	62492.89
641.947	62512.78
642.301	62435.49
642.654	62450.18
643.007	62480.69
643.36	62425.77
643.713	62386.45
644.066	62479.11
644.419	62301.71
644.771	62197.08
645.124	61985.56
645.477	61909.4
645.83	61792.8
646.182	61718.67
646.535	61620.82
646.888	61666.7
647.24	61450.21
647.593	61569.98
647.945	61511.9
648.298	61348.29
648.65	61392.81
649.002	61300.15
649.355	61368.4
649.707	61344.22
650.059	61465.35
650.411	61779.46
650.763	61738.56
651.115	61965.67
651.467	61844.32
651.819	61797.99
652.171	61727.94
652.523	61728.62
652.875	61695.17
653.227	61609.3
653.578	61741.5
653.93	61669.18
654.282	61584.67
654.633	61453.37
654.985	61518.91
655.337	61484.78
655.688	61423.77
656.039	61470.77
656.391	61266.71
656.742	61256.09
657.094	61267.39
657.445	61330.21
657.796	61297.67
658.147	61232.58
658.498	61238.46
658.849	61192.13
659.2	61200.5
659.551	61138.58
659.902	61263.54
660.253	61172.7
660.604	61189.2
660.955	61073.49
661.306	61160.27
661.656	61129.08
662.007	61172.93
662.358	61153.49
662.708	61127.73
663.059	61145.58
663.409	60958.24
663.76	61109.2
664.11	61153.49
664.461	61152.81
664.811	61107.62
665.161	61128.18
665.511	61099.03
665.862	61058.8
666.212	61094.51
666.562	61098.35
666.912	61044.79
667.262	61009.54
667.612	61007.73
667.962	61040.95
668.312	61010.44
668.662	61051.8
669.011	60960.05
669.361	60892.03
669.711	60912.82
670.06	60865.36
670.41	60866.72
670.76	60755.31
671.109	60825.59
671.459	60821.52
671.808	60828.08
672.157	60830.79
672.507	60705.14
672.856	60619.95
673.205	60691.36
673.554	60745.14
673.904	60616.1
674.253	60733.61
674.602	60574.3
674.951	60177.47
675.3	60019.51
675.649	60420.4
675.998	60413.85
676.346	60364.36
676.695	60416.11
677.044	60233.06
677.393	60292.95
677.741	60321.42
678.09	60268.77
678.438	60156.45
678.787	60213.18
679.135	60226.74
679.484	60076.68
679.832	60166.4
680.181	60034.42
680.529	60144.25
680.877	60015.44
681.225	60067.87
681.573	60193.97
681.922	60025.84
682.27	59977.25
682.618	59946.29
682.966	59916.69
683.314	59959.4
683.661	59895.9
684.009	59805.5
684.357	59720.31
684.705	59667.2
685.053	59727.77
685.4	59709.01
685.748	59595.34
686.095	59568.67
686.443	59458.17
686.79	59422.69
687.138	59524.16
687.485	59474.44
687.832	59264.73
688.18	59397.6
688.527	59242.81
688.874	59192.19
689.221	59186.76
689.568	59084.62
689.915	58981.8
690.262	59019.08
690.609	58954.68
690.956	58872.87
691.303	58845.3
691.65	58614.12
691.997	58614.12
692.344	58504.75
692.69	58475.82
693.037	58383.17
693.383	58174.36
693.73	58247.58
694.077	58114.25
694.423	58090.75
694.769	58004.65
695.116	57928.04
695.462	57835.61
695.808	57709.29
696.155	57795.39
696.501	57584.32
696.847	57592
697.193	57320.15
697.539	57480.37
697.885	57163.77
698.231	57126.93
698.577	57101.39
698.923	57054.62
699.269	56920.83
699.614	56767.62
699.96	56735.53
700.306	56801.29
700.651	56680.61
700.997	56521.07
701.342	56512.03
701.688	56502.54
702.033	56386.84
702.379	56452.15
702.724	56332.6
703.069	56396.55
703.415	56078.82
703.76	56137.58
704.105	56143.23
704.45	56086.51
704.795	55899.39
705.14	55925.38
705.485	55898.04
705.83	55714.99
706.175	55738.94
706.52	55708.66
706.865	55646.07
707.209	55585.73
707.554	55532.62
707.899	55557.25
708.243	55426.18
708.588	55373.76
708.932	55093.31
709.277	55124.5
709.621	55096.48
709.966	54822.36
710.31	54950.94
710.654	54689.93
710.998	54875.01
711.342	54755.47
711.687	54642.48
712.031	54648.58
712.375	54481.8
712.719	54546.88
713.063	54491.75
713.407	54473.67
713.75	54278.64
714.094	54211.53
714.438	54034.58
714.782	54099.44
715.125	53950.97
715.469	54018.31
715.812	53901.48
716.156	53742.16
716.499	53714.59
716.843	53740.35
717.186	53419.01
717.53	53477.76
717.873	53547.59
718.216	53348.95
718.559	53248.16
718.902	53089.07
719.246	53132.23
719.589	52905.35
719.932	52851.79
720.275	52792.58
720.617	52781.06
720.96	52712.36
721.303	52630.78
721.646	52547.84
721.989	52425.58
722.331	52454.51
722.674	52374.06
723.016	52369.77
723.359	52206.16
723.701	52284.35
724.044	52001.87
724.386	51988.53
724.729	52071.92
725.071	52081.41
725.413	52005.71
725.755	51987.4
726.097	51794.41
726.439	51661.31
726.782	51681.2
727.124	51888.65
727.465	51671.93
727.807	51695.66
728.149	51666.51
728.491	51622.89
728.833	51605.95
729.175	51500.64
729.516	51372.51
729.858	51391.26
730.199	51383.35
730.541	51262.68
730.882	51149.23
731.224	51279.85
731.565	51132.29
731.906	51135.22
732.248	51124.15
732.589	50914.44
732.93	50841.22
733.271	50805.97
733.612	50733.2
733.953	50803.25
734.294	50657.95
734.635	50518.29
734.976	50703.14
735.317	50514
735.658	50577.5
735.999	50492.53
736.339	50311.74
736.68	50407.33
737.021	50180.9
737.361	50043.5
737.702	50165.31
738.042	49974.8
738.383	49858.42
738.723	49925.99
739.063	49739.1
739.404	49727.12
739.744	49654.13
740.084	49464.98
740.424	49598.99
740.764	49417.08
741.104	49443.74
741.444	49283.29
741.784	49249.62
742.124	49182.73
742.464	49109.97
742.804	48912
743.143	48823.19
743.483	48873.36
743.823	48643.99
744.162	48553.6
744.502	48551.79
744.841	48409.42
745.181	48440.6
745.52	48230.67
745.86	48307.28
746.199	48117.9
746.538	47990.45
746.877	48047.85
747.216	47979.6
747.556	47969.2
747.895	47924.91
748.234	47692.6
748.573	47621.87
748.911	47473.4
749.25	47522.21
749.589	47397.92
749.928	47482.44
750.267	47459.61
750.605	47312.05
750.944	47258.26
751.283	47173.97
751.621	47223.01
751.96	46949.57
752.298	47024.37
752.636	46902.34
752.975	46732.18
753.313	46708.9
753.651	46857.6
753.989	46583.48
754.327	46508.23
754.666	46393.43
755.004	46410.15
755.342	46393.88
755.679	46246.09
756.017	46081.34
756.355	46134
756.693	45829.37
757.031	46060.55
757.368	45835.7
757.706	45582.83
758.044	45535.14
758.381	45621.47
758.719	45403.62
759.056	45447.46
759.394	45197.98
759.731	45026.68
760.068	44955.05
760.405	44803.86
760.743	44506.92
761.08	44758.67
761.417	44510.99
761.754	44256.99
762.091	44254.27
762.428	44128.4
762.765	43767.96
763.102	43923.89
763.438	43819.71
763.775	43419.04
764.112	43358.03
764.449	43428.99
764.785	43234.64
765.122	42860.19
765.458	42827.19
765.795	42681.43
766.131	42588.1
766.467	42457.26
766.804	42140.88
767.14	42035.58
767.476	41902.92
767.812	41771.18
768.148	41638.75
768.485	41484.86
768.821	41297.52
769.157	41073.79
769.492	40967.13
769.828	40949.73
770.164	40539.12
770.5	40449.18
770.836	40346.58
771.171	40104.78
771.507	39947.49
771.842	39960.83
772.178	39905.91
772.513	39691.46
772.849	39557.67
773.184	39363.1
773.519	39255.54
773.855	39020.74
774.19	38848.31
774.525	38700.3
774.86	38722.89
775.195	38663.01
775.53	38384.15
775.865	38141.44
776.2	37981.44
776.535	37876.59
776.87	37777.38
777.205	37659.42
777.539	37459.42
777.874	37633.88
778.209	37266.21
778.543	37221.24
778.878	37019.66
779.212	37041.13
779.547	36941.92
779.881	37037.97
780.215	36764.3
780.55	36773.79
780.884	36557.53
781.218	36496.74
781.552	36429.4
781.886	36299.91
782.22	36146.46
782.554	36146.92
782.888	35728.62
783.222	35599.81
783.556	35591.9
783.889	35361.85
784.223	35255.41
784.557	35216.09
784.89	35178.35
785.224	34928.19
785.557	34983.11
785.891	34698.82
786.224	34647.75
786.558	34569.56
786.891	34287.98
787.224	34214.99
787.557	33972.28
787.891	34019.52
788.224	33895.68
788.557	33723.93
788.89	33595.57
789.223	33653.42
789.556	33382.7
789.888	33292.3
790.221	33298.18
790.554	32875.82
790.887	32943.39
791.219	32725.76
791.552	32672.66
791.884	32494.36
792.217	32292.1
792.549	32138.43
792.882	31936.18
793.214	31777.77
793.546	31987.7
793.879	31681.5
794.211	31418.45
794.543	31572.35
794.875	31298.46
795.207	31449.64
795.539	31075.19
795.871	31029.99
796.203	30754.97
796.535	30611.24
796.867	30448.08
797.198	30495.54
797.53	30379.38
797.862	30096.23
798.193	30175.1
798.525	30050.13
798.856	30089.9
799.188	29643.81
799.519	29622.12
799.85	29367.89
800.182	29530.14
800.513	29364.72
800.844	29066.65
801.175	29345.51
801.506	29171.73
801.837	29061
802.168	28873.21
802.499	28819.2
802.83	28609.04
803.161	28581.47
803.491	28535.82
803.822	28573.56
804.153	28325.43
804.483	28077.52
804.814	28032.78
805.145	27990.52
805.475	28107.81
805.805	27945.78
806.136	28030.97
806.466	27989.17
806.796	27917.53
807.126	27705.78
807.457	27727.03
807.787	27682.73
808.117	27582.4
808.447	27525
808.777	27522.06
809.107	27440.93
809.436	27443.87
809.766	27273.03
810.096	27347.6
810.426	27186.93
810.755	27165.01
811.085	27205.91
811.414	27074.39
811.744	27034.84
812.073	26937.44
812.403	26816.54
812.732	26588.75
813.061	26788.29
813.39	26584
813.719	26492.71
814.049	26628.75
814.378	26476.89
814.707	26248.42
815.036	26373.84
815.365	26220.85
815.693	25998.48
816.022	26161.87
816.351	26005.26
816.68	25822.44
817.008	25887.75
817.337	25682.33
817.665	25610.02
817.994	25700.64
818.322	25665.61
818.651	25580.41
818.979	25440.76
819.307	25480.53
819.636	25364.15
819.964	25154.21
820.292	25340.42
820.62	25238.96
820.948	25216.81
821.276	25307.88
821.604	25143.82
821.932	25177.94
822.259	25215.23
822.587	25097.04
822.915	25019.98
823.243	25111.73
823.57	24921.45
823.898	25046.87
824.225	24780.21
824.553	24788.8
824.88	24844.62
825.207	24888.91
825.535	24878.96
825.862	24851.62
826.189	24810.72
826.516	24897.27
826.843	24898.62
827.17	24662.92
827.497	24654.34
827.824	24709.93
828.151	24826.76
828.478	24766.43
828.805	24758.06
829.131	24553.1
829.458	24711.29
829.785	24515.81
830.111	24577.28
830.438	24651.17
830.764	24519.43
831.09	24553.32
831.417	24412.31
831.743	24634.68
832.069	24499.99
832.395	24456.15
832.722	24537.96
833.048	24473.33
833.374	24417.51
833.7	24254.57
834.026	24360.56
834.351	24370.5
834.677	24247.34
835.003	24329.15
835.329	24322.37
835.654	24229.49
835.98	24205.31
836.306	24285.31
836.631	24116.05
836.956	24188.36
837.282	24265.42
837.607	24178.42
837.932	24174.35
838.258	24107.46
838.583	24077.4
838.908	23876.5
839.233	23995.82
839.558	23912.66
839.883	23907.24
840.208	23876.5
840.533	23953.11
840.858	23954.69
841.182	23949.5
841.507	23896.39
841.832	23832.66
842.156	23781.82
842.481	23909.27
842.805	23831.53
843.13	23677.64
843.454	23730.97
843.778	23528.49
844.103	23594.25
844.427	23563.29
844.751	23515.84
845.075	23480.58
845.399	23453.24
845.723	23265.67
846.047	23354.03
846.371	23040.82
846.695	23160.82
847.019	23030.43
847.343	22876.31
847.666	22800.15
847.99	22671.56
848.313	22664.56
848.637	22561.06
848.96	22550.44
849.284	22467.28
849.607	22439.48
849.931	22189.54
850.254	22153.84
850.577	21944.58
850.9	21829.33
851.223	21795.88
851.546	21792.94
851.869	21561.54
852.192	21719.95
852.515	21474.99
852.838	21422.11
853.161	21311.6
853.483	21188.44
853.806	21194.54
854.129	21092.85
854.451	20908
854.774	20931.95
855.096	20835.23
855.419	20766.76
855.741	20630.04
856.063	20599.3
856.385	20506.42
856.708	20517.05
857.03	20392.98
857.352	20457.61
857.674	20233.21
857.996	20193.89
858.318	20146.43
858.64	20199.99
858.961	20040
859.283	19965.65
859.605	19771.98
859.926	19798.65
860.248	19752.55
860.57	19725.65
860.891	19624.19
861.212	19528.6
861.534	19499.44
861.855	19379.45
862.176	19477.98
862.498	19310.98
862.819	19298.09
863.14	19180.58
863.461	19186.91
863.782	19180.13
864.103	19220.58
864.424	19132.22
864.745	19137.19
865.065	19014.49
865.386	18967.93
865.707	18940.82
866.027	18991.44
866.348	18873.25
866.668	18837.99
866.989	18808.16
867.309	18730.2
867.63	18743.31
867.95	18683.42
868.27	18520.94
868.59	18666.02
868.91	18652.91
869.23	18672.12
869.55	18638.22
869.87	18698.79
870.19	18518.45
870.51	18655.17
870.83	18611.11
871.15	18539.02
871.469	18535.63
871.789	18591.67
872.109	18454.27
872.428	18489.75
872.748	18510.09
873.067	18523.88
873.386	18520.94
873.706	18462.64
874.025	18551.22
874.344	18423.32
874.663	18483.43
874.982	18432.58
875.301	18432.13
875.62	18315.07
875.939	18225.81
876.258	18249.76
876.577	18293.6
876.896	18305.8
877.214	18249.08
877.533	18318.46
877.852	18260.83
878.17	18246.6
878.489	18333.37
878.807	18296.99
879.125	18261.06
879.444	18274.17
879.762	18178.8
880.08	18180.84
880.398	18059.26
880.716	18067.84
881.034	18050.44
881.352	18128.41
881.67	17998.69
881.988	18088.86
882.306	18033.72
882.624	17949.66
882.941	17837.57
883.259	17781.52
883.577	17872.82
883.894	17771.81
884.212	17721.41
884.529	17734.29
884.846	17668.53
885.164	17646.84
885.481	17580.63
885.798	17657.01
886.115	17643.9
886.432	17496.56
886.75	17486.84
887.067	17440.74
887.383	17348.09
887.7	17342.67
888.017	17311.03
888.334	17189.68
888.651	17130.02
888.967	17050.47
889.284	17021.77
889.6	16869.91
889.917	16858.38
890.233	16970.92
890.55	16882.79
890.866	16835.56
891.182	16713.3
891.498	16644.38
891.815	16537.71
892.131	16618.84
892.447	16450.26
892.763	16403.93
893.079	16486.19
893.395	16271.73
893.71	16344.27
894.026	16158.52
894.342	16199.19
894.657	15982.48
894.973	16040.33
895.289	15893.66
895.604	15948.8
895.92	15865.64
896.235	15691.18
896.55	15778.41
896.865	15669.72
897.181	15590.4
897.496	15622.48
897.811	15477.86
898.126	15529.15
898.441	15386.56
898.756	15350.18
899.071	15325.77
899.386	15283.06
899.7	15096.17
900.015	15116.28
900.33	15021.14
900.644	14990.41
900.959	14910.86
901.273	14927.36
901.588	14869.96
901.902	14731.66
902.216	14794.71
902.531	14717.65
902.845	14708.16
903.159	14583.19
903.473	14473.36
903.787	14469.07
904.101	14410.09
904.415	14342.29
904.729	14363.31
905.042	14367.83
905.356	14281.73
905.67	14196.08
905.984	14180.49
906.297	14134.84
906.611	14011
906.924	13940.72
907.237	13934.85
907.551	13953.15
907.864	13829.54
908.177	13796.09
908.491	13749.99
908.804	13741.4
909.117	13639.26
909.43	13634.97
909.743	13568.08
910.056	13541.41
910.368	13431.36
910.681	13456.89
910.994	13497.57
911.307	13403.11
911.619	13252.6
911.932	13310.68
912.244	13278.82
912.557	13227.29
912.869	13156.56
913.181	13163.11
913.494	13111.36
913.806	13104.13
914.118	13020.07
914.43	12981.42
914.742	12998.15
915.054	12859.39
915.366	12860.07
915.678	12846.29
915.99	12788.43
916.302	12712.73
916.613	12648.55
916.925	12757.48
917.236	12626.41
917.548	12549.8
917.859	12531.72
918.171	12504.83
918.482	12511.38
918.794	12423.47
919.105	12296.7
919.416	12206.76
919.727	12185.06
920.038	12268.67
920.349	12096.25
920.66	12112.75
920.971	12091.73
921.282	12078.62
921.593	11903.26
921.903	11895.58
922.214	11792.53
922.525	11866.43
922.835	11724.51
923.146	11653.1
923.456	11623.04
923.767	11615.36
924.077	11614.23
924.387	11485.19
924.697	11458.98
925.008	11413.1
925.318	11366.55
925.628	11373.1
925.938	11375.36
926.248	11207.01
926.558	11154.35
926.867	11102.15
927.177	11015.15
927.487	11004.08
927.796	10904.42
928.106	10936.73
928.416	10873.23
928.725	10848.15
929.034	10644.76
929.344	10770.63
929.653	10630.53
929.962	10635.95
930.271	10562.73
930.581	10510.3
930.89	10438.21
931.199	10404.32
931.508	10373.13
931.817	10366.8
932.125	10172.23
932.434	10186.02
932.743	10136.08
933.051	10062.18
933.36	10062.63
933.669	9970.66
933.977	9942.63
934.286	9909.19
934.594	9887.04
934.902	9753.71
935.21	9731.57
935.519	9706.71
935.827	9653.6
936.135	9638.24
936.443	9483.44
936.751	9540.84
937.059	9539.71
937.367	9487.73
937.674	9338.81
937.982	9351.01
938.29	9303.1
938.597	9342.65
938.905	9156.21
939.213	9193.5
939.52	9128.64
939.827	9078.48
940.135	9057.01
940.442	8967.97
940.749	9046.39
941.056	8974.52
941.363	8876.67
941.67	8882.1
941.977	8817.47
942.284	8728.43
942.591	8741.76
942.898	8635.1
943.205	8646.62
943.511	8636.45
943.818	8545.83
944.125	8472.84
944.431	8515.1
944.738	8483.24
945.044	8392.84
945.35	8422.67
945.657	8386.74
945.963	8364.82
946.269	8273.98
946.575	8307.65
946.881	8203.7
947.187	8190.36
947.493	8191.49
947.799	8153.3
948.105	8079.41
948.41	8091.84
948.716	8108.11
949.022	8049.58
949.327	8001.44
949.633	7901.56
949.938	7930.71
950.244	7977.71
950.549	7869.02
950.854	7805.74
951.16	7781.79
951.465	7739.3
951.77	7754.44
952.075	7773.2
952.38	7641.68
952.685	7675.35
952.99	7605.75
953.294	7565.07
953.599	7600.55
953.904	7562.36
954.209	7522.58
954.513	7565.3
954.818	7487.11
955.122	7522.81
955.426	7455.24
955.731	7403.27
956.035	7366.66
956.339	7336.37
956.643	7332.76
956.948	7271.97
957.252	7249.15
957.556	7238.07
957.86	7217.28
958.163	7251.41
958.467	7125.08
958.771	7122.14
959.075	7123.5
959.378	7081.92
959.682	7038.76
959.985	7011.19
960.289	6928.48
960.592	6911.53
960.896	6870.85
961.199	6834.69
961.502	6833.11
961.805	6828.59
962.108	6798.31
962.411	6777.07
962.714	6705.21
963.017	6662.95
963.32	6678.77
963.623	6623.4
963.926	6653.91
964.228	6579.11
964.531	6583.85
964.833	6552.67
965.136	6455.95
965.438	6460.69
965.741	6479.45
966.043	6407.36
966.345	6340.92
966.648	6350.41
966.95	6340.92
967.252	6235.16
967.554	6242.84
967.856	6199
968.158	6143.41
968.46	6176.86
968.761	6133.47
969.063	6070.87
969.365	6059.57
969.666	6064.77
969.968	5983.87
970.269	5948.84
970.571	5943.42
970.872	5945.45
971.174	5886.7
971.475	5908.16
971.776	5830.2
972.077	5800.82
972.378	5787.94
972.679	5733.93
972.98	5749.52
973.281	5701.39
973.582	5668.62
973.883	5691.67
974.183	5611.22
974.484	5584.1
974.785	5544.78
975.085	5530.32
975.386	5506.82
975.686	5483.54
975.986	5422.98
976.287	5417.78
976.587	5371.45
976.887	5333.72
977.187	5326.26
977.487	5247.39
977.787	5289.2
978.087	5240.61
978.387	5233.83
978.687	5227.5
978.987	5178.69
979.286	5125.36
979.586	5136.88
979.885	5071.8
980.185	5067.73
980.484	5070.22
980.784	5045.59
981.083	5005.59
981.382	5035.42
981.682	4997.91
981.981	4961.3
982.28	4892.37
982.579	4877.91
982.878	4849.21
983.177	4827.97
983.475	4822.77
983.774	4712.04
984.073	4771.7
984.372	4734.18
984.67	4669.1
984.969	4705.48
985.267	4695.77
985.566	4632.27
985.864	4592.04
986.162	4646.5
986.461	4580.52
986.759	4577.8
987.057	4543.45
987.355	4528.31
987.653	4524.47
987.951	4525.6
988.249	4497.81
988.547	4506.17
988.844	4416
989.142	4371.26
989.44	4400.41
989.737	4335.1
990.035	4374.19
990.332	4313.4
990.63	4306.62
990.927	4266.63
991.224	4256.23
991.521	4253.29
991.819	4220.52
992.116	4195.44
992.413	4225.5
992.71	4167.64
993.006	4200.41
993.303	4143.92
993.6	4119.28
993.897	4148.89
994.193	4088.55
994.49	4074.31
994.787	4040.87
995.083	4013.3
995.379	4002.45
995.676	4039.74
995.972	3955.22
996.268	3941.66
996.565	3943.7
996.861	3931.04
997.157	3944.83
997.453	3899.18
997.749	3868.67
998.044	3835
998.34	3783.47
998.636	3783.25
998.932	3807.2
999.227	3726.53
999.523	3794.77
999.818	3723.59
1000.114	3720.65
1000.409	3717.49
1000.704	3636.81
1001	3658.96
1001.295	3637.04
1001.59	3629.58
1001.885	3587.32
1002.18	3570.82
1002.475	3526.53
1002.77	3550.03
1003.065	3500.32
1003.359	3494.44
1003.654	3489.7
1003.949	3460.54
1004.243	3416.03
1004.538	3414.67
1004.832	3386.2
1005.127	3438.17
1005.421	3378.74
1005.715	3401.56
1006.009	3342.58
1006.304	3299.87
1006.598	3283.6
1006.892	3252.41
1007.186	3284.96
1007.48	3247.67
1007.773	3213.09
1008.067	3200.89
1008.361	3178.52
1008.655	3178.07
1008.948	3134.9
1009.242	3147.78
1009.535	3105.98
1009.829	3088.35
1010.122	3034.34
1010.415	3043.61
1010.708	2993.21
1011.001	3041.35
1011.295	2972.87
1011.588	3007
1011.881	2952.08
1012.173	2923.38
1012.466	2888.81
1012.759	2904.63
1013.052	2870.96
1013.344	2854.91
1013.637	2804.06
1013.93	2809.26
1014.222	2799.09
1014.514	2795.48
1014.807	2753.9
1015.099	2756.38
1015.391	2731.75
1015.683	2680.23
1015.976	2685.42
1016.268	2668.02
1016.56	2646.78
1016.851	2620.57
1017.143	2607.23
1017.435	2606.78
1017.727	2596.84
1018.018	2552.09
1018.31	2540.79
1018.602	2528.14
1018.893	2479.33
1019.185	2479.1
1019.476	2469.61
1019.767	2463.28
1020.058	2439.1
1020.35	2429.16
1020.641	2411.53
1020.932	2395.04
1021.223	2323.4
1021.514	2346.45
1021.804	2295.15
1022.095	2294.25
1022.386	2260.35
1022.677	2263.97
1022.967	2240.92
1023.258	2227.58
1023.548	2200.46
1023.839	2190.52
1024.129	2168.38
1024.419	2168.6
1024.709	2160.01
1025	2121.14
1025.29	2135.61
1025.58	2103.74
1025.87	2058.55
1026.16	2070.75
1026.449	2064.88
1026.739	2028.72
1027.029	2060.81
1027.319	2023.29
1027.608	2001.37
1027.898	1998.21
1028.187	1939
1028.477	1910.3
1028.766	1941.94
1029.055	1901.49
1029.344	1911.88
1029.634	1904.43
1029.923	1920.25
1030.212	1882.73
1030.501	1835.5
1030.79	1815.84
1031.078	1832.56
1031.367	1788.72
1031.656	1790.76
1031.945	1790.53
1032.233	1778.33
1032.522	1717.31
1032.81	1727.48
1033.099	1730.65
1033.387	1718.9
1033.675	1737.88
1033.963	1678.9
1034.251	1684.77
1034.54	1644.1
1034.828	1651.33
1035.116	1622.85
1035.403	1614.49
1035.691	1602.51
1035.979	1609.52
1036.267	1575.4
1036.554	1556.41
1036.842	1578.56
1037.129	1577.88
1037.417	1550.31
1037.704	1550.99
1037.992	1512.12
1038.279	1519.13
1038.566	1493.82
1038.853	1493.82
1039.14	1493.82
