Data from aluminium_surface_pro_back_FLMS001491_00056.txt Node
Date: Wed Feb 08 15:34:15 GMT 2017
User: dcchb
Spectrometer: FLMS00149
Trigger mode: 0
Integration Time (sec): 2.000000E-2
Scans to average: 10
Electric dark correction enabled: true
Nonlinearity correction enabled: false
Boxcar width: 0
XAxis mode: Wavelengths
Number of Pixels in Spectrum: 2048
>>>>>Begin Spectral Data<<<<<
341.393	-6.1
341.776	-6.1
342.16	-6.1
342.543	-51.98
342.927	-48.13
343.31	-81.81
343.693	-64.63
344.077	-49.26
344.46	-56.04
344.843	-47
345.226	-51.07
345.61	-29.6
345.993	-23.05
346.376	-16.04
346.759	13.78
347.142	12.43
347.525	50.62
347.908	56.27
348.291	63.05
348.674	89.94
349.057	132.43
349.44	112.77
349.823	152.31
350.206	192.76
350.588	226.43
350.971	257.85
351.354	251.29
351.737	268.24
352.119	309.6
352.502	289.48
352.884	312.31
353.267	320.9
353.65	323.16
354.032	323.83
354.414	344.4
354.797	348.69
355.179	352.53
355.562	356.37
355.944	364.51
356.326	375.58
356.709	362.93
357.091	353.44
357.473	403.38
357.855	354.79
358.238	387.79
358.62	370.84
359.002	382.59
359.384	389.37
359.766	377.17
360.148	368.13
360.53	379.43
360.912	383.49
361.294	376.26
361.676	403.15
362.057	359.09
362.439	375.81
362.821	383.72
363.203	386.66
363.584	393.89
363.966	368.58
364.348	371.97
364.729	385.98
365.111	359.99
365.493	378.07
365.874	362.7
366.256	369.71
366.637	376.04
367.019	381.01
367.4	364.51
367.781	348.24
368.163	367.45
368.544	366.09
368.925	362.02
369.306	381.01
369.688	390.5
370.069	388.01
370.45	384.62
370.831	389.59
371.212	403.61
371.593	414.45
371.974	395.92
372.355	370.39
372.736	392.98
373.117	386.66
373.498	418.07
373.879	412.87
374.26	386.2
374.641	384.4
375.021	390.27
375.402	417.39
375.783	395.24
376.163	417.84
376.544	425.3
376.925	407.45
377.305	417.39
377.686	453.77
378.066	434.34
378.447	435.92
378.827	423.04
379.208	437.05
379.588	443.15
379.968	419.42
380.349	439.31
380.729	434.11
381.109	445.41
381.489	471.17
381.87	452.19
382.25	456.03
382.63	451.97
383.01	458.97
383.39	477.73
383.77	500.78
384.15	479.54
384.53	478.18
384.91	491.06
385.29	488.57
385.67	512.98
386.049	500.33
386.429	495.58
386.809	519.76
387.189	513.88
387.568	533.77
387.948	526.54
388.328	545.97
388.707	524.28
389.087	525.18
389.466	546.2
389.846	551.62
390.225	566.76
390.605	557.05
390.984	564.28
391.363	585.75
391.743	579.42
392.122	595.24
392.501	598.63
392.881	606.09
393.26	628.91
393.639	596.14
394.018	603.37
394.397	622.13
394.776	653.32
395.155	630.94
395.534	648.12
395.913	632.53
396.292	656.25
396.671	654.9
397.05	662.58
397.429	674.78
397.808	674.11
398.186	686.31
398.565	686.54
398.944	687.44
399.323	725.4
399.701	715.91
400.08	720.66
400.458	713.88
400.837	751.84
401.215	748.91
401.594	735.57
401.972	754.56
402.351	775.57
402.729	751.17
403.107	813.31
403.486	805.4
403.864	804.27
404.242	824.84
404.62	853.31
404.999	836.14
405.377	872.97
405.755	843.82
406.133	852.18
406.511	849.02
406.889	900.77
407.267	890.15
407.645	916.36
408.023	923.82
408.401	947.09
408.779	966.98
409.156	953.87
409.534	953.87
409.912	983.93
410.29	978.96
410.667	1000.65
411.045	1040.65
411.422	1045.4
411.8	1053.98
412.178	1050.59
412.555	1109.35
412.933	1097.37
413.31	1103.02
413.687	1130.14
414.065	1113.19
414.442	1140.53
414.819	1173.3
415.197	1147.54
415.574	1218.05
415.951	1181.89
416.328	1224.37
416.705	1206.75
417.082	1222.11
417.46	1223.24
417.837	1247.42
418.214	1266.18
418.591	1282
418.967	1283.36
419.344	1310.93
419.721	1359.51
420.098	1334.2
420.475	1350.02
420.852	1337.14
421.228	1374.88
421.605	1382.11
421.982	1424.14
422.358	1407.42
422.735	1436.35
423.111	1452.84
423.488	1494.2
423.864	1458.27
424.241	1491.94
424.617	1490.13
424.994	1541.65
425.37	1551.15
425.746	1569.45
426.123	1586.4
426.499	1612.39
426.875	1601.31
427.251	1651.71
427.627	1681.31
428.003	1697.81
428.379	1713.63
428.756	1718.6
429.132	1764.25
429.507	1785.72
429.883	1791.14
430.259	1809.9
430.635	1818.71
431.011	1827.3
431.387	1908.88
431.763	1947.52
432.138	1911.14
432.514	1963.56
432.89	1993.17
433.265	1997.46
433.641	2025.71
434.016	2073.84
434.392	2091.7
434.767	2100.51
435.143	2163.33
435.518	2150.23
435.894	2178.7
436.269	2214.86
436.644	2223.67
437.02	2265.03
437.395	2266.16
437.77	2291.24
438.145	2312.48
438.52	2373.27
438.895	2418.02
439.271	2431.12
439.646	2487.62
440.021	2480.84
440.395	2466.6
440.77	2462.76
441.145	2505.24
441.52	2584.34
441.895	2563.77
442.27	2589.08
442.645	2594.96
443.019	2627.05
443.394	2624.56
443.769	2661.85
444.143	2695.52
444.518	2709.99
444.892	2673.15
445.267	2722.64
445.641	2728.74
446.016	2776.2
446.39	2820.72
446.764	2805.35
447.139	2834.05
447.513	2882.41
447.887	2882.18
448.262	2877.21
448.636	2899.58
449.01	2980.26
449.384	2984.78
449.758	2981.39
450.132	3031.11
450.506	3046.93
450.88	3035.63
451.254	3092.35
451.628	3158.11
452.002	3150.2
452.376	3219.12
452.75	3268.16
453.123	3265.45
453.497	3298.9
453.871	3350.65
454.244	3340.93
454.618	3415.96
454.992	3460.47
455.365	3444.88
455.739	3577.08
456.112	3598.55
456.486	3627.7
456.859	3637.42
457.232	3740.01
457.606	3748.15
457.979	3812.78
458.352	3849.16
458.725	3936.85
459.099	3960.12
459.472	4048.93
459.845	4081.25
460.218	4106.33
460.591	4105.88
460.964	4154.69
461.337	4287.34
461.71	4332.77
462.083	4383.84
462.456	4401.24
462.829	4442.82
463.201	4526.43
463.574	4536.38
463.947	4601.69
464.32	4711.06
464.692	4723.72
465.065	4799.2
465.438	4930.49
465.81	4946.99
466.183	4980.66
466.555	5065.4
466.928	5144.95
467.3	5125.74
467.672	5220.65
468.045	5296.36
468.417	5351.05
468.789	5395.56
469.161	5462.23
469.534	5567.09
469.906	5641.43
470.278	5763.01
470.65	5798.72
471.022	5871.71
471.394	6012.72
471.766	6063.57
472.138	6141.99
472.51	6287.97
472.882	6373.39
473.253	6478.02
473.625	6592.14
473.997	6668.75
474.369	6684.8
474.74	6749.43
475.112	6944
475.484	7041.62
475.855	7175.63
476.227	7174.95
476.598	7435.96
476.97	7499.46
477.341	7668.95
477.713	7798.67
478.084	7885.44
478.455	8101.26
478.827	8113.01
479.198	8411.3
479.569	8382.83
479.94	8670.96
480.311	8722.48
480.682	8961.12
481.053	9123.15
481.424	9289.47
481.795	9295.12
482.166	9540.31
482.537	9599.07
482.908	9827.54
483.279	9920.19
483.65	10134.2
484.021	10328.32
484.391	10410.57
484.762	10558.59
485.133	10648.53
485.503	10785.25
485.874	11010.11
486.244	11058.24
486.615	11391.56
486.985	11465.69
487.356	11747.71
487.726	11702.74
488.097	12013.47
488.467	12024.77
488.837	12372.33
489.207	12517.86
489.578	12676.95
489.948	12706.11
490.318	13068.58
490.688	13051.41
491.058	13153.55
491.428	13495.92
491.798	13508.35
492.168	13871.27
492.538	13906.98
492.908	14088.22
493.278	14196.91
493.648	14273.07
494.017	14550.58
494.387	14683.68
494.757	14767.75
495.126	14968.19
495.496	15000.51
495.866	15183.1
496.235	15382.19
496.605	15546.26
496.974	15663.54
497.344	15786.7
497.713	15936.3
498.082	15989.41
498.452	16235.73
498.821	16313.92
499.19	16480.47
499.559	16610.86
499.928	16631.88
500.298	16758.88
500.667	16891.99
501.036	16936.05
501.405	17084.52
501.774	17179.66
502.143	17339.21
502.512	17402.93
502.88	17627.79
503.249	17680.89
503.618	17866.2
503.987	17872.98
504.356	18064.16
504.724	18123.59
505.093	18284.72
505.462	18316.81
505.83	18435.22
506.199	18573.97
506.567	18771.26
506.936	18895.1
507.304	19059.16
507.672	19114.53
508.041	19150.91
508.409	19428.64
508.777	19522.65
509.145	19722.42
509.514	19794.96
509.882	19949.98
510.25	20020.72
510.618	20243.31
510.986	20338.67
511.354	20535.51
511.722	20794.03
512.09	20892.33
512.458	20921.03
512.826	21130.97
513.193	21280.34
513.561	21354.47
513.929	21513.78
514.297	21817.73
514.664	21956.71
515.032	22038.06
515.4	22177.27
515.767	22438.51
516.135	22521.89
516.502	22411.39
516.869	22878.04
517.237	23025.61
517.604	22955.55
517.972	23355.09
518.339	23446.62
518.706	23560.06
519.073	23621.53
519.44	23737.68
519.808	24056.54
520.175	24178.8
520.542	24434.16
520.909	24568.62
521.276	24707.82
521.643	24935.84
522.009	25004.99
522.376	25264.87
522.743	25461.25
523.11	25753
523.477	26012.2
523.843	26174.68
524.21	26517.95
524.577	26741.9
524.943	26872.29
525.31	27137.59
525.676	27369.22
526.043	27520.86
526.409	27603.57
526.776	27914.97
527.142	28015.31
527.508	28295.75
527.874	28408.52
528.241	28597.67
528.607	28657.33
528.973	29034.72
529.339	28972.12
529.705	29267.48
530.071	29552.44
530.437	29697.98
530.803	29839.44
531.169	30048.93
531.535	29994.92
531.901	30238.07
532.267	30420.22
532.632	30606.43
532.998	30605.07
533.364	30912.63
533.73	30857.49
534.095	31108.33
534.461	31259.74
534.826	31480.08
535.192	31549.45
535.557	31821.76
535.923	31721.65
536.288	31917.58
536.653	32090
537.019	32053.62
537.384	32219.04
537.749	32594.4
538.114	32544
538.479	32621.97
538.845	32813.37
539.21	32799.36
539.575	33044.55
539.94	33054.5
540.305	33313.25
540.67	33344.21
541.034	33423.75
541.399	33611.55
541.764	33602.51
542.129	33955.04
542.494	33932.67
542.858	34072.55
543.223	34105.32
543.587	34312.54
543.952	34275.48
544.316	34411.98
544.681	34402.94
545.045	34751.85
545.41	34826.65
545.774	34893.09
546.138	34900.78
546.503	35218.28
546.867	35057.38
547.231	35394.78
547.595	35524.04
547.959	35642.68
548.324	35557.48
548.688	35723.35
549.052	35935.78
549.416	35927.19
549.779	36054.42
550.143	36068.43
550.507	36526.72
550.871	36407.18
551.235	36513.16
551.599	36767.62
551.962	36910.22
552.326	37070.89
552.689	37318.34
553.053	37232.02
553.417	37238.57
553.78	37753.36
554.143	37764.2
554.507	37877.2
554.87	37989.74
555.234	38436.05
555.597	38189.05
555.96	38445.09
556.323	38545.88
556.686	38814.35
557.05	38965.53
557.413	39046.66
557.776	39146.77
558.139	39590.6
558.502	39550.37
558.865	39689.13
559.228	39969.57
559.59	40093.86
559.953	40184.25
560.316	40689.1
560.679	40707.4
561.041	40858.13
561.404	41177.67
561.767	41216.77
562.129	41279.14
562.492	41633.26
562.854	41640.49
563.217	41645.68
563.579	41991.66
563.941	42240.02
564.304	42387.59
564.666	42578.99
565.028	42802.26
565.39	43061.47
565.753	43279.54
566.115	43112.54
566.477	43506.43
566.839	43544.62
567.201	43835.01
567.563	43986.87
567.925	44340.3
568.287	44327.87
568.648	44536.91
569.01	44784.81
569.372	45033.84
569.734	44887.86
570.095	45228.42
570.457	45380.95
570.819	45511.35
571.18	45517
571.542	45954.05
571.903	45924.89
572.265	46227.26
572.626	46158.11
572.987	46427.25
573.349	46570.98
573.71	46726.91
574.071	46931.87
574.432	46964.41
574.794	47269.94
575.155	47270.85
575.516	47229.94
575.877	47370.73
576.238	47452.09
576.599	47505.19
576.96	47650.05
577.32	47710.38
577.681	47808.69
578.042	48020.21
578.403	48055.23
578.763	48122.8
579.124	48263.36
579.485	48407.77
579.845	48476.01
580.206	48539.51
580.566	48603.24
580.927	48489.35
581.287	48796.68
581.648	48637.14
582.008	48869
582.368	48713.97
582.728	48837.81
583.089	48749.9
583.449	48841.88
583.809	48912.16
584.169	48983.57
584.529	48739.96
584.889	49226.28
585.249	48974.31
585.609	48832.84
585.969	49239.38
586.329	49099.27
586.688	49123.68
587.048	49062.21
587.408	49100.18
587.768	49020.41
588.127	49107.86
588.487	49080.07
588.846	49292.49
589.206	49071.25
589.565	49160.74
589.925	49381.3
590.284	49236.22
590.643	49301.75
591.003	49327.29
591.362	49432.82
591.721	49352.6
592.08	49367.74
592.44	49418.59
592.799	49599.6
593.158	49462.88
593.517	49363.45
593.876	49573.84
594.235	49382.43
594.593	49631.92
594.952	49658.36
595.311	49366.39
595.67	49551.92
596.029	49830.55
596.387	49914.39
596.746	49790.33
597.104	49557.57
597.463	49720.95
597.822	49686.15
598.18	49604.12
598.538	49567.06
598.897	49819.48
599.255	49500.62
599.613	50080.27
599.972	49761.63
600.33	49890.89
600.688	49779.26
601.046	49936.99
601.404	50009.98
601.762	49972.02
602.12	50207.95
602.478	50032.58
602.836	50107.16
603.194	49968.18
603.552	50055.63
603.91	49894.28
604.268	50248.85
604.625	50116.87
604.983	50245.91
605.341	50127.95
605.698	50299.47
606.056	50423.98
606.413	50360.94
606.771	50463.31
607.128	50537.88
607.485	50355.51
607.843	50366.13
608.2	50501.95
608.557	50580.36
608.914	50506.24
609.272	50576.07
609.629	50603.19
609.986	50771.77
610.343	50604.77
610.7	50853.8
611.057	50893.8
611.414	50746.24
611.771	50770.64
612.127	50947.36
612.484	50891.09
612.841	50962.73
613.198	50914.14
613.554	51023.29
613.911	51157.98
614.267	51219.67
614.624	51131.54
614.98	51196.39
615.337	51345.54
615.693	51325.2
616.05	51192.55
616.406	51531.98
616.762	51354.13
617.118	51463.51
617.475	51447.91
617.831	51544.63
618.187	51518.87
618.543	51553.22
618.899	51648.36
619.255	51603.61
619.611	51622.6
619.967	51660.34
620.323	51784.63
620.678	51660.11
621.034	51480.91
621.39	51569.94
621.746	51542.15
622.101	51849.94
622.457	51576.27
622.812	51741.46
623.168	51789.6
623.523	51836.6
623.879	51974
624.234	51653.11
624.589	51772.2
624.945	51893.1
625.3	51818.75
625.655	51728.13
626.01	51804.06
626.365	51859.43
626.72	51738.53
627.075	51778.75
627.43	51757.51
627.785	51660.79
628.14	51750.73
628.495	51846.77
628.85	51713.44
629.205	51620.79
629.559	51770.39
629.914	51470.51
630.269	51614.01
630.623	51534.01
630.978	51451.98
631.332	51647
631.687	51560
632.041	51359.1
632.396	51508.48
632.75	51353.23
633.104	51320.46
633.459	51170.86
633.813	51138.99
634.167	51171.08
634.521	51143.51
634.875	51162.5
635.229	51088.6
635.583	50903.52
635.937	50988.49
636.291	50935.84
636.645	50957.08
636.999	50845.89
637.352	50991.65
637.706	50759.12
638.06	50799.57
638.413	50603.87
638.767	50729.97
639.121	50713.69
639.474	50428.73
639.828	50528.16
640.181	50579.24
640.534	50469.86
640.888	50410.2
641.241	50304.21
641.594	50348.51
641.947	50458.11
642.301	50409.3
642.654	50348.96
643.007	50254.27
643.36	50218.34
643.713	50184.44
644.066	50338.56
644.419	50167.95
644.771	49718.69
645.124	49350.79
645.477	49297.69
645.83	49038.48
646.182	48955.55
646.535	48846.4
646.888	48863.8
647.24	48718.04
647.593	48833.74
647.945	48762.79
648.298	48630.13
648.65	48569.12
649.002	48440.08
649.355	48623.13
649.707	48490.93
650.059	48810.24
650.411	49076.22
650.763	49162.55
651.115	49508.53
651.467	49397.12
651.819	49285.71
652.171	49170.91
652.523	49115.32
652.875	49071.48
653.227	48950.35
653.578	49163
653.93	48984.25
654.282	48888.43
654.633	48678.72
654.985	48776.34
655.337	48667.19
655.688	48724.82
656.039	48704.93
656.391	48411.61
656.742	48643.69
657.094	48534.09
657.445	48555.56
657.796	48458.39
658.147	48289.13
658.498	48395.56
658.849	48539.74
659.2	48322.8
659.551	48186.53
659.902	48461.1
660.253	48268.34
660.604	48426.75
660.955	48132.07
661.306	48317.6
661.656	48384.26
662.007	48214.78
662.358	48309.01
662.708	48166.42
663.059	48229.92
663.409	47985.18
663.76	48152.41
664.11	48233.99
664.461	48233.53
664.811	48283.48
665.161	48122.35
665.511	48093.65
665.862	48189.02
666.212	48062.47
666.562	48125.74
666.912	48125.97
667.262	48034.67
667.612	48006.42
667.962	47987.21
668.312	47997.61
668.662	48202.57
669.011	48078.28
669.361	47977.5
669.711	47938.17
670.06	47998.29
670.41	47894.79
670.76	47826.31
671.109	48024.73
671.459	47925.07
671.808	47939.53
672.157	47932.52
672.507	47660.67
672.856	47794.45
673.205	47735.02
673.554	47886.65
673.904	47745.86
674.253	47876.71
674.602	47693.89
674.951	47029.05
675.3	46895.49
675.649	47552.2
675.998	47528.24
676.346	47439.2
676.695	47702.93
677.044	47135.71
677.393	47246.22
677.741	47392.65
678.09	47149.49
678.438	47179.55
678.787	47247.8
679.135	47242.15
679.484	47047.12
679.832	47082.6
680.181	46890.07
680.529	46918.54
680.877	46890.07
681.225	46878.32
681.573	46966.67
681.922	46688.72
682.27	46546.35
682.618	46777.53
682.966	46447.14
683.314	46619.11
683.661	46357.43
684.009	46129.86
684.357	46141.84
684.705	46065
685.053	46076.53
685.4	46015.29
685.748	45934.39
686.095	45690.78
686.443	45554.73
686.79	45565.36
687.138	45678.35
687.485	45555.19
687.832	45462.76
688.18	45472.93
688.527	45300.96
688.874	45255.31
689.221	45153.84
689.568	45106.38
689.915	44933.28
690.262	44855.09
690.609	44772.38
690.956	44773.51
691.303	44769.22
691.65	44453.07
691.997	44412.39
692.344	44156.13
692.69	44178.73
693.037	44192.28
693.383	43877.26
693.73	44049.69
694.077	43739.87
694.423	43743.26
694.769	43571.96
695.116	43490.83
695.462	43509.82
695.808	43241.57
696.155	43234.34
696.501	43014.01
696.847	43045.65
697.193	42761.59
697.539	42782.83
697.885	42557.07
698.231	42278.21
698.577	42384.65
698.923	42153.47
699.269	42201.15
699.614	41874.61
699.96	41830.99
700.306	41950.08
700.651	41686.59
700.997	41519.81
701.342	41539.02
701.688	41397.33
702.033	41368.18
702.379	41239.14
702.724	41096.32
703.069	41246.15
703.415	40748.76
703.76	40793.73
704.105	40845.48
704.45	40652.26
704.795	40398.94
705.14	40278.94
705.485	40126.4
705.83	40071.94
706.175	40168.44
706.52	40006.18
706.865	39743.36
707.209	39788.11
707.554	39503.37
707.899	39659.3
708.243	39434.9
708.588	39397.16
708.932	39117.84
709.277	39125.3
709.621	39003.95
709.966	38759.88
710.31	38833.78
710.654	38542.26
710.998	38632.2
711.342	38448.48
711.687	38500.91
712.031	38232.44
712.375	38217.07
712.719	38202.61
713.063	38135.72
713.407	38272.21
713.75	38062.95
714.094	38000.81
714.438	37735.5
714.782	37849.63
715.125	37645.79
715.469	37770.31
715.812	37488.51
716.156	37292.58
716.499	37261.85
716.843	37428.62
717.186	37182.75
717.53	37458.9
717.873	37232.02
718.216	37132.81
718.559	37067.73
718.902	36810.11
719.246	36788.41
719.589	36793.38
719.932	36463.67
720.275	36509.32
720.617	36531.02
720.96	36432.94
721.303	36343.9
721.646	36298.93
721.989	36166.05
722.331	36277.46
722.674	36120.41
723.016	36073.18
723.359	35971.48
723.701	35917.93
724.044	35745.05
724.386	35547.77
724.729	35721.09
725.071	35682.68
725.413	35528.11
725.755	35472.74
726.097	35366.98
726.439	35243.14
726.782	35167.89
727.124	35303.03
727.465	35195.68
727.807	35145.52
728.149	34878.4
728.491	35012.41
728.833	34975.35
729.175	34794.34
729.516	34761.8
729.858	34690.16
730.199	34687
730.541	34567
730.882	34484.07
731.224	34746.21
731.565	34514.35
731.906	34480.22
732.248	34409.26
732.589	34287.91
732.93	34161.59
733.271	34180.57
733.612	34177.41
733.953	34265.99
734.294	34031.87
734.635	33833.46
734.976	33955.27
735.317	33714.59
735.658	33852.9
735.999	33837.98
736.339	33685.67
736.68	33689.51
737.021	33577.65
737.361	33457.2
737.702	33659.91
738.042	33374.49
738.383	33303.98
738.723	33404.32
739.063	33134.72
739.404	33390.99
739.744	33136.08
740.084	32979.02
740.424	33064.89
740.764	32958.23
741.104	32949.87
741.444	32861.51
741.784	32783.77
742.124	32761.62
742.464	32598.69
742.804	32664.45
743.143	32565.02
743.483	32446.38
743.823	32379.71
744.162	32286.38
744.502	32171.36
744.841	32173.39
745.181	32195.99
745.52	31987.63
745.86	32029.89
746.199	31875.09
746.538	31969.55
746.877	31899.5
747.216	31932.49
747.556	31830.35
747.895	31888.65
748.234	31664.03
748.573	31629.68
748.911	31583.8
749.25	31506.97
749.589	31332.28
749.928	31434.43
750.267	31518.27
750.605	31362.79
750.944	31248.9
751.283	31132.29
751.621	31156.02
751.96	30874.44
752.298	31005.06
752.636	30970.94
752.975	30807.1
753.313	30695.92
753.651	30979.98
753.989	30538.86
754.327	30564.85
754.666	30513.1
755.004	30669.02
755.342	30543.38
755.679	30506.77
756.017	30269.94
756.355	30344.74
756.693	30201.01
757.031	30224.29
757.368	30086.21
757.706	29936.39
758.044	29904.52
758.381	29724.64
758.719	29702.72
759.056	29735.04
759.394	29612.1
759.731	29330.53
760.068	29267.25
760.405	29201.04
760.743	29046.92
761.08	29249.4
761.417	29036.3
761.754	28971.44
762.091	28811.45
762.428	28721.96
762.765	28394.96
763.102	28677.21
763.438	28378.46
763.775	28235.42
764.112	28418.91
764.449	28335.98
764.785	28094.63
765.122	27896.89
765.458	27777.57
765.795	27738.03
766.131	27707.29
766.467	27659.84
766.804	27429.79
767.14	27257.81
767.476	27235.44
767.812	27152.96
768.148	27247.87
768.485	26942.79
768.821	26824.38
769.157	26738.73
769.492	26717.49
769.828	26810.82
770.164	26405.41
770.5	26386.2
770.836	26405.18
771.171	26189.59
771.507	26197.05
771.842	26001.58
772.178	26026.21
772.513	25972.2
772.849	25783.5
773.184	25789.15
773.519	25667.35
773.855	25511.87
774.19	25431.2
774.525	25235.27
774.86	25310.52
775.195	25256.06
775.53	25089.51
775.865	24935.62
776.2	24680.48
776.535	24550.54
776.87	24587.15
777.205	24439.13
777.539	24306.03
777.874	24462.63
778.209	24143.32
778.543	24114.85
778.878	23925.92
779.212	24006.6
779.547	23859.03
779.881	23925.02
780.215	23647.97
780.55	23673.73
780.884	23542.21
781.218	23461.08
781.552	23527.06
781.886	23292.95
782.22	23194.64
782.554	23150.8
782.888	22929.79
783.222	22911.71
783.556	22709.69
783.889	22634.66
784.223	22548.11
784.557	22515.57
784.89	22621.78
785.224	22419.07
785.557	22298.85
785.891	22286.42
786.224	22206.2
786.558	22059.76
786.891	21937.05
787.224	21893.21
787.557	21815.25
787.891	21798.3
788.224	21694.8
788.557	21803.95
788.89	21681.92
789.223	21719.43
789.556	21367.35
789.888	21469.04
790.221	21285.99
790.554	21168.26
790.887	21238.31
791.219	21064.3
791.552	21086.23
791.884	21009.84
792.217	20805.1
792.549	20801.49
792.882	20694.37
793.214	20588.39
793.546	20715.39
793.879	20477.2
794.211	20300.94
794.543	20416.41
794.875	20388.16
795.207	20332.57
795.539	20172.12
795.871	20228.62
796.203	20013.26
796.535	19934.17
796.867	19907.73
797.198	19810.1
797.53	19920.38
797.862	19699.14
798.193	19676.09
798.525	19490.33
798.856	19620.05
799.188	19236.33
799.519	19279.72
799.85	19168.76
800.182	19128.54
800.513	19139.16
800.844	18938.94
801.175	19042.44
801.506	18964.02
801.837	18783.91
802.168	18740.75
802.499	18718.6
802.83	18610.36
803.161	18453.3
803.491	18529.46
803.822	18499.17
804.153	18323.13
804.483	18245.17
804.814	18214.89
805.145	18165.17
805.475	18221.22
805.805	18170.6
806.136	18134.21
806.466	18065.97
806.796	18042.46
807.126	17889.47
807.457	17880.89
807.787	17869.81
808.117	17838.4
808.447	17754.34
808.777	17808.57
809.107	17785.75
809.436	17809.02
809.766	17718.4
810.096	17661
810.426	17662.36
810.755	17546.43
811.085	17486.09
811.414	17353.22
811.744	17285.42
812.073	17205.42
812.403	17296.04
812.732	17129.95
813.061	17206.78
813.39	16999.55
813.719	16958.88
814.049	17047.46
814.378	17014.02
814.707	16954.81
815.036	16888.14
815.365	16882.27
815.693	16581.26
816.022	16703.52
816.351	16609.96
816.68	16437.08
817.008	16697.19
817.337	16496.29
817.665	16508.72
817.994	16473.01
818.322	16441.6
818.651	16338.1
818.979	16222.62
819.307	16249.97
819.636	16270.98
819.964	16109.86
820.292	16193.47
820.62	16191.21
820.948	16095.17
821.276	16118.22
821.604	16054.27
821.932	16075.06
822.259	16093.81
822.587	16078.45
822.915	16037.77
823.243	16044.55
823.57	16066.24
823.898	16006.81
824.225	16014.95
824.553	15983.53
824.88	16034.61
825.207	16070.09
825.535	15930.43
825.862	16030.99
826.189	15944.44
826.516	16082.29
826.843	16095.17
827.17	16064.44
827.497	16078.67
827.824	16012.46
828.151	16111.44
828.478	15993.93
828.805	16003.2
829.131	15947.38
829.458	15994.61
829.785	15896.31
830.111	15957.32
830.438	16003.65
830.764	16008.17
831.09	16028.28
831.417	15941.95
831.743	15902.86
832.069	15951.44
832.395	15873.48
832.722	15919.81
833.048	15900.6
833.374	15932.24
833.7	15756.87
834.026	15774.95
834.351	15814.5
834.677	15849.07
835.003	15758.68
835.329	15829.64
835.654	15841.17
835.98	15653.6
836.306	15695.41
836.631	15693.37
836.956	15615.63
837.282	15724.33
837.607	15622.19
837.932	15560.04
838.258	15544.9
838.583	15600.72
838.908	15407.96
839.233	15566.14
839.558	15464.23
839.883	15344.46
840.208	15311.91
840.533	15454.06
840.858	15371.12
841.182	15339.26
841.507	15338.13
841.832	15146.27
842.156	15144.01
842.481	15226.49
842.805	15226.49
843.13	15141.52
843.454	15116.44
843.778	15058.14
844.103	15065.82
844.427	15026.95
844.751	14971.58
845.075	14926.61
845.399	14831.7
845.723	14793.51
846.047	14847.75
846.371	14697.92
846.695	14730.46
847.019	14602.78
847.343	14612.27
847.666	14446.4
847.99	14521.2
848.313	14419.73
848.637	14373.18
848.96	14383.58
849.284	14277.59
849.607	14241.43
849.931	14205.05
850.254	14052.74
850.577	14010.71
850.9	13962.8
851.223	13922.12
851.546	13895.23
851.869	13819.07
852.192	13817.04
852.515	13802.12
852.838	13619.98
853.161	13670.83
853.483	13596.03
853.806	13560.1
854.129	13508.35
854.451	13420.89
854.774	13432.19
855.096	13372.08
855.419	13283.72
855.741	13393.09
856.063	13249.6
856.385	13213.44
856.708	13187.68
857.03	13145.42
857.352	13164.63
857.674	13150.61
857.996	13039.66
858.318	12976.38
858.64	12955.82
858.961	13009.38
859.283	12904.75
859.605	12817.74
859.926	12864.52
860.248	12866.78
860.57	12811.41
860.891	12807.12
861.212	12746.56
861.534	12736.16
861.855	12714.69
862.176	12733.45
862.498	12680.12
862.819	12598.31
863.14	12566.9
863.461	12564.42
863.782	12558.09
864.103	12564.87
864.424	12561.03
864.745	12575.94
865.065	12435.83
865.386	12403.97
865.707	12408.26
866.027	12356.74
866.348	12391.31
866.668	12390.41
866.989	12333.91
867.309	12346.34
867.63	12362.61
867.95	12373.91
868.27	12266.34
868.59	12336.62
868.91	12270.64
869.23	12224.31
869.55	12146.12
869.87	12309.51
870.19	12239.45
870.51	12241.03
870.83	12198.55
871.15	12187.48
871.469	12202.39
871.789	12136.86
872.109	12135.95
872.428	12156.74
872.748	12114.48
873.067	12118.1
873.386	12076.07
873.706	12071.77
874.025	12017.09
874.344	12055.95
874.663	12003.53
874.982	11955.62
875.301	11938.67
875.62	11866.13
875.939	11901.83
876.258	11880.82
876.577	11869.29
876.896	11836.98
877.214	11815.51
877.533	11855.96
877.852	11827.71
878.17	11857.32
878.489	11811.89
878.807	11822.29
879.125	11750.65
879.444	11686.47
879.762	11701.16
880.08	11709.75
880.398	11716.08
880.716	11691.22
881.034	11668.62
881.352	11657.32
881.67	11596.08
881.988	11655.74
882.306	11628.39
882.624	11580.26
882.941	11512.92
883.259	11455.97
883.577	11441.06
883.894	11437.67
884.212	11442.64
884.529	11410.1
884.846	11394.73
885.164	11331.91
885.481	11353.15
885.798	11406.25
886.115	11242.64
886.432	11322.87
886.75	11280.61
887.067	11323.32
887.383	11190.44
887.7	11201.97
888.017	11183.43
888.334	11225.02
888.651	11149.76
888.967	11124.45
889.284	11049.65
889.6	11082.19
889.917	11015.76
890.233	11018.24
890.55	10967.4
890.866	10966.27
891.182	10875.42
891.498	10840.62
891.815	10786.61
892.131	10877
892.447	10774.41
892.763	10776.44
893.079	10732.15
893.395	10659.61
893.71	10637.91
894.026	10594.75
894.342	10609.89
894.657	10538.93
894.973	10462.78
895.289	10541.42
895.604	10484.02
895.92	10413.51
896.235	10338.26
896.55	10439.27
896.865	10404.02
897.181	10279.73
897.496	10324.7
897.811	10255.78
898.126	10199.51
898.441	10186.17
898.756	10215.55
899.071	10149.56
899.386	10110.24
899.7	10094.42
900.015	10084.93
900.33	9983.92
900.644	9943.02
900.959	10033.18
901.273	9894.88
901.588	9827.09
901.902	9795.45
902.216	9803.36
902.531	9756.35
902.845	9836.13
903.159	9661.89
903.473	9658.5
903.787	9600.2
904.101	9639.75
904.415	9657.37
904.729	9603.82
905.042	9542.12
905.356	9501.9
905.67	9477.72
905.984	9510.03
906.297	9487.66
906.611	9378.28
906.924	9452.41
907.237	9327.89
907.551	9314.56
907.864	9262.81
908.177	9266.65
908.491	9232.98
908.804	9217.38
909.117	9121.34
909.43	9070.27
909.743	9085.86
910.056	9072.76
910.368	9062.13
910.681	9001.8
910.994	9022.59
911.307	8914.79
911.619	8831.41
911.932	8846.77
912.244	8736.49
912.557	8776.72
912.869	8770.84
913.181	8722.26
913.494	8707.12
913.806	8611.07
914.118	8607.46
914.43	8609.04
914.742	8563.16
915.054	8546.44
915.366	8588.47
915.678	8466.9
915.99	8437.97
916.302	8407.01
916.613	8435.03
916.925	8343.51
917.236	8322.04
917.548	8339.22
917.859	8299.89
918.171	8214.93
918.482	8214.93
918.794	8189.16
919.105	8145.55
919.416	8007.47
919.727	8095.61
920.038	8042.05
920.349	7966.8
920.66	7987.36
920.971	7899.91
921.282	7872.79
921.593	7776.07
921.903	7759.8
922.214	7781.26
922.525	7821.26
922.835	7691.1
923.146	7657.88
923.456	7674.15
923.767	7589.86
924.077	7586.69
924.387	7607.03
924.697	7560.71
925.008	7456.98
925.318	7488.62
925.628	7457.88
925.938	7406.13
926.248	7334.04
926.558	7356.64
926.867	7414.04
927.177	7347.6
927.487	7230.77
927.796	7197.78
928.106	7199.36
928.416	7184.67
928.725	7143.77
929.034	7131.79
929.344	7126.14
929.653	7150.55
929.962	7033.49
930.271	7064.9
930.581	7028.52
930.89	6995.3
931.199	6932.93
931.508	6984
931.817	6917.33
932.125	6896.99
932.434	6872.36
932.743	6821.74
933.051	6798.01
933.36	6793.49
933.669	6749.43
933.977	6762.31
934.286	6712.82
934.594	6645.93
934.902	6583.33
935.21	6607.28
935.519	6581.75
935.827	6522.09
936.135	6519.38
936.443	6476.67
936.751	6489.09
937.059	6523.9
937.367	6367.29
937.674	6376.1
937.982	6406.16
938.29	6348.53
938.597	6372.94
938.905	6297.01
939.213	6284.13
939.52	6210.68
939.827	6262.89
940.135	6174.98
940.442	6143.12
940.749	6158.03
941.056	6149.22
941.363	6112.38
941.67	6036.9
941.977	6024.93
942.284	5958.71
942.591	6006.85
942.898	5961.65
943.205	5934.53
943.511	5878.72
943.818	5892.27
944.125	5850.24
944.431	5816.34
944.738	5836.46
945.044	5839.17
945.35	5840.75
945.657	5723.01
945.963	5757.81
946.269	5720.98
946.575	5667.87
946.881	5687.76
947.187	5663.81
947.493	5652.73
947.799	5618.38
948.105	5603.92
948.41	5579.97
948.716	5524.37
949.022	5494.54
949.327	5548.1
949.633	5444.38
949.938	5458.16
950.244	5449.57
950.549	5414.77
950.854	5396.69
951.16	5406.41
951.465	5342.91
951.77	5304.49
952.075	5287.09
952.38	5306.08
952.685	5277.15
952.99	5179.98
953.294	5230.14
953.599	5166.87
953.904	5106.53
954.209	5142.69
954.513	5141.33
954.818	5045.07
955.122	5032.18
955.426	5010.94
955.731	4971.17
956.035	4994.44
956.339	4949.93
956.643	4950.15
956.948	4947.67
957.252	4862.47
957.556	4913.77
957.86	4881.45
958.163	4866.31
958.467	4864.05
958.771	4791.74
959.075	4763.49
959.378	4799.65
959.682	4758.29
959.985	4760.1
960.289	4708.12
960.592	4630.16
960.896	4681.68
961.199	4652.76
961.502	4656.6
961.805	4614.34
962.108	4570.95
962.411	4560.11
962.714	4570.05
963.017	4511.52
963.32	4509.03
963.623	4482.37
963.926	4488.7
964.228	4455.25
964.531	4443.95
964.833	4432.2
965.136	4412.09
965.438	4341.81
965.741	4367.12
966.043	4339.09
966.345	4320.79
966.648	4319.66
966.95	4294.8
967.252	4285.76
967.554	4236.5
967.856	4251.87
968.158	4208.93
968.46	4228.59
968.761	4206.44
969.063	4156.05
969.365	4178.42
969.666	4145.2
969.968	4122.38
970.269	4112.43
970.571	4096.39
970.872	4071.31
971.174	4006.22
971.475	4025.66
971.776	4017.75
972.077	3978.65
972.378	3970.52
972.679	3940.91
972.98	3941.37
973.281	3927.13
973.582	3929.84
973.883	3883.97
974.183	3899.11
974.484	3846.23
974.785	3843.06
975.085	3813.91
975.386	3834.25
975.686	3784.31
975.986	3818.2
976.287	3774.14
976.587	3764.19
976.887	3721.94
977.187	3707.02
977.487	3709.28
977.787	3681.26
978.087	3648.04
978.387	3665.21
978.687	3671.32
978.987	3613.46
979.286	3608.94
979.586	3582.5
979.885	3569.62
980.185	3554.48
980.484	3580.47
980.784	3544.77
981.083	3491.89
981.382	3520.59
981.682	3484.88
981.981	3471.32
982.28	3444.43
982.579	3415.73
982.878	3459.8
983.177	3448.72
983.475	3429.97
983.774	3368.27
984.073	3375.5
984.372	3404.2
984.67	3383.19
984.969	3347.93
985.267	3326.01
985.566	3305.45
985.864	3291.44
986.162	3303.64
986.461	3242.4
986.759	3209.18
987.057	3253.47
987.355	3197.66
987.653	3198.33
987.951	3221.38
988.249	3166.24
988.547	3170.76
988.844	3145
989.142	3115.85
989.44	3120.6
989.737	3098
990.035	3068.62
990.332	3063.65
990.63	3042.63
990.927	3045.34
991.224	3042.18
991.521	2985.68
991.819	3022.29
992.116	3009.19
992.413	2945.01
992.71	2959.7
993.006	2946.14
993.303	2913.37
993.6	2913.37
993.897	2887.61
994.193	2855.07
994.49	2860.94
994.787	2822.3
995.083	2833.37
995.379	2839.25
995.676	2838.57
995.972	2825.24
996.268	2793.15
996.565	2746.37
996.861	2741.62
997.157	2733.26
997.453	2711.57
997.749	2749.53
998.044	2676.09
998.34	2694.17
998.636	2659.82
998.932	2654.85
999.227	2652.36
999.523	2655.07
999.818	2639.48
1000.114	2644.22
1000.409	2594.96
1000.704	2555.87
1001	2592.93
1001.295	2558.35
1001.59	2527.39
1001.885	2512.93
1002.18	2479.03
1002.475	2525.58
1002.77	2517.45
1003.065	2459.14
1003.359	2441.07
1003.654	2479.71
1003.949	2396.32
1004.243	2415.98
1004.538	2411.91
1004.832	2410.11
1005.127	2372.59
1005.421	2364.23
1005.715	2348.19
1006.009	2346.83
1006.304	2340.73
1006.598	2360.62
1006.892	2339.37
1007.186	2282.88
1007.48	2286.27
1007.773	2245.36
1008.067	2248.98
1008.361	2246.27
1008.655	2232.48
1008.948	2189.32
1009.242	2182.54
1009.535	2202.88
1009.829	2192.94
1010.122	2193.16
1010.415	2177.12
1010.708	2128.98
1011.001	2119.27
1011.295	2103.22
1011.588	2068.65
1011.881	2065.26
1012.173	2074.52
1012.466	2076.33
1012.759	2065.03
1013.052	2062.54
1013.344	2040.4
1013.637	2018.93
1013.93	2002.43
1014.222	1969.67
1014.514	1995.43
1014.807	1943.68
1015.099	1964.02
1015.391	1997.24
1015.683	1933.51
1015.976	1944.13
1016.268	1924.92
1016.56	1906.16
1016.851	1896.45
1017.143	1909.33
1017.435	1857.35
1017.727	1857.8
1018.018	1831.14
1018.31	1860.06
1018.602	1838.82
1018.893	1832.27
1019.185	1799.5
1019.476	1796.79
1019.767	1780.07
1020.058	1782.1
1020.35	1740.07
1020.641	1738.49
1020.932	1727.41
1021.223	1727.41
1021.514	1710.46
1021.804	1650.13
1022.095	1688.77
1022.386	1655.1
1022.677	1672.72
1022.967	1642.22
1023.258	1631.37
1023.548	1621.43
1023.839	1629.79
1024.129	1585.27
1024.419	1574.2
1024.709	1604.48
1025	1571.94
1025.29	1592.5
1025.58	1541.2
1025.87	1558.38
1026.16	1536.91
1026.449	1538.26
1026.739	1505.72
1027.029	1518.15
1027.319	1530.81
1027.608	1508.21
1027.898	1478.83
1028.187	1471.6
1028.477	1489.9
1028.766	1464.14
1029.055	1433.63
1029.344	1448.55
1029.634	1446.97
1029.923	1421.66
1030.212	1403.58
1030.501	1402.9
1030.79	1389.12
1031.078	1362.22
1031.367	1334.88
1031.656	1368.78
1031.945	1326.97
1032.233	1336.46
1032.522	1326.52
1032.81	1300.53
1033.099	1335.78
1033.387	1285.62
1033.675	1274.77
1033.963	1264.83
1034.251	1279.51
1034.54	1258.27
1034.828	1243.13
1035.116	1239.97
1035.403	1241.1
1035.691	1216.01
1035.979	1231.61
1036.267	1230.93
1036.554	1216.47
1036.842	1193.41
1037.129	1195
1037.417	1171.72
1037.704	1161.33
1037.992	1164.26
1038.279	1136.24
1038.566	1149.12
1038.853	1149.12
1039.14	1149.12
