Data from aluminium_macbook_case_FLMS001491_061.txt Node
Date: Tue Feb 07 10:44:01 GMT 2017
User: dcchb
Spectrometer: FLMS00149
Trigger mode: 0
Integration Time (sec): 2.000000E-2
Scans to average: 10
Electric dark correction enabled: true
Nonlinearity correction enabled: false
Boxcar width: 0
XAxis mode: Wavelengths
Number of Pixels in Spectrum: 2048
>>>>>Begin Spectral Data<<<<<
341.393	-8.53
341.776	-8.53
342.16	-8.53
342.543	-49.43
342.927	-68.19
343.31	-68.42
343.693	-64.8
344.077	-77
344.46	-54.86
344.843	-59.15
345.226	-51.02
345.61	-36.78
345.993	-23.9
346.376	-5.82
346.759	-4.01
347.142	40.96
347.525	38.7
347.908	68.08
348.291	80.05
348.674	97.46
349.057	120.51
349.44	140.17
349.823	152.14
350.206	174.97
350.588	232.14
350.971	256.09
351.354	273.95
351.737	266.26
352.119	311.91
352.502	304.91
352.884	325.02
353.267	334.74
353.65	343.78
354.032	364.79
354.414	375.19
354.797	331.8
355.179	385.36
355.562	389.42
355.944	372.25
356.326	388.52
356.709	387.62
357.091	400.05
357.473	419.93
357.855	394.17
358.238	414.51
358.62	395.75
359.002	384.45
359.384	430.78
359.766	414.51
360.148	430.55
360.53	435.53
360.912	436.43
361.294	413.6
361.676	417.45
362.057	426.26
362.439	411.8
362.821	407.5
363.203	407.96
363.584	405.24
363.966	397.11
364.348	418.8
364.729	377
365.111	391.91
365.493	423.77
365.874	433.27
366.256	425.13
366.637	418.12
367.019	441.85
367.4	434.17
367.781	438.01
368.163	425.13
368.544	445.69
368.925	440.95
369.306	436.88
369.688	428.75
370.069	439.37
370.45	440.5
370.831	440.72
371.212	453.38
371.593	463.1
371.974	460.38
372.355	446.6
372.736	451.12
373.117	474.85
373.498	459.03
373.879	475.07
374.26	450.44
374.641	442.76
375.021	473.49
375.402	476.88
375.783	499.93
376.163	527.5
376.544	519.82
376.925	494.73
377.305	504.22
377.686	523.88
378.066	504.22
378.447	530.89
378.827	518.91
379.208	538.12
379.588	535.64
379.968	551.91
380.349	550.32
380.729	533.83
381.109	562.53
381.489	571.79
381.87	566.14
382.25	570.89
382.63	565.92
383.01	573.6
383.39	593.26
383.77	591.91
384.15	614.5
384.53	607.27
384.91	607.05
385.29	615.86
385.67	630.32
386.049	636.88
386.429	634.62
386.809	655.41
387.189	654.95
387.568	663.54
387.948	679.13
388.328	696.54
388.707	703.77
389.087	687.95
389.466	700.38
389.846	708.96
390.225	724.33
390.605	714.84
390.984	715.52
391.363	728.85
391.743	744.22
392.122	766.36
392.501	760.94
392.881	779.7
393.26	786.7
393.639	807.72
394.018	814.5
394.397	836.19
394.776	837.77
395.155	828.28
395.534	852.92
395.913	843.88
396.292	856.76
396.671	901.28
397.05	884.1
397.429	893.82
397.808	892.91
398.186	906.47
398.565	915.06
398.944	893.59
399.323	962.07
399.701	950.99
400.08	964.55
400.458	958
400.837	971.33
401.215	981.95
401.594	1005.23
401.972	1019.46
402.351	1023.31
402.729	1027.6
403.107	1047.94
403.486	1077.77
403.864	1087.94
404.242	1056.07
404.62	1109.18
404.999	1115.06
405.377	1125.45
405.755	1145.34
406.133	1165.9
406.511	1182.62
406.889	1223.08
407.267	1204.32
407.645	1222.62
408.023	1225.11
408.401	1251.55
408.779	1306.24
409.156	1303.07
409.534	1320.93
409.912	1329.97
410.29	1355.28
410.667	1371.09
411.045	1398.66
411.422	1439.11
411.8	1435.27
412.178	1469.62
412.555	1489.73
412.933	1508.04
413.31	1503.29
413.687	1546.91
414.065	1549.39
414.442	1567.25
414.819	1598.88
415.197	1628.04
415.574	1648.83
415.951	1667.58
416.328	1679.33
416.705	1689.28
417.082	1706.23
417.46	1720.92
417.837	1747.58
418.214	1730.86
418.591	1803.62
418.967	1793
419.344	1837.3
419.721	1880.91
420.098	1868.03
420.475	1923.17
420.852	1914.58
421.228	1908.71
421.605	1950.51
421.982	1964.52
422.358	1967.24
422.735	2032.77
423.111	2046.1
423.488	2065.54
423.864	2091.53
424.241	2113.9
424.617	2161.13
424.994	2178.3
425.37	2175.14
425.746	2188.02
426.123	2283.84
426.499	2238.42
426.875	2299.21
427.251	2327.9
427.627	2359.09
428.003	2402.25
428.379	2435.7
428.756	2441.57
429.132	2479.31
429.507	2516.15
429.883	2552.08
430.259	2617.16
430.635	2616.26
431.011	2654.9
431.387	2715.24
431.763	2760.44
432.138	2797.27
432.514	2796.37
432.89	2852.18
433.265	2950.04
433.641	2948
434.016	3028.9
434.392	3051.5
434.767	3103.7
435.143	3115.91
435.518	3154.55
435.894	3169.24
436.269	3218.05
436.644	3261.21
437.02	3346.64
437.395	3392.28
437.77	3427.31
438.145	3450.14
438.52	3436.35
438.895	3496.69
439.271	3535.1
439.646	3618.49
440.021	3599.96
440.395	3638.83
440.77	3654.88
441.145	3665.95
441.52	3745.04
441.895	3735.33
442.27	3817.36
442.645	3815.78
443.019	3868.2
443.394	3895.77
443.769	3915.43
444.143	3888.77
444.518	4011.7
444.892	4023.45
445.267	4035.43
445.641	4050.35
446.016	4129.44
446.39	4154.52
446.764	4204.47
447.139	4128.99
447.513	4253.5
447.887	4254.86
448.262	4273.62
448.636	4344.58
449.01	4356.78
449.384	4392.26
449.758	4484.46
450.132	4533.72
450.506	4523.33
450.88	4569.65
451.254	4658.01
451.628	4691.68
452.002	4734.62
452.376	4787.05
452.75	4817.78
453.123	4838.8
453.497	4970.1
453.871	4993.6
454.244	5060.94
454.618	5090.32
454.992	5159.24
455.365	5236.08
455.739	5360.82
456.112	5420.25
456.486	5448.95
456.859	5466.81
457.232	5665.22
457.606	5581.6
457.979	5748.38
458.352	5800.36
458.725	5907.7
459.099	5979.33
459.472	6055.49
459.845	6150.18
460.218	6168.48
460.591	6279.89
460.964	6265.65
461.337	6398.76
461.71	6534.57
462.083	6643.5
462.456	6640.11
462.829	6682.37
463.201	6830.84
463.574	6884.17
463.947	6928.91
464.32	7111.51
464.692	7154.67
465.065	7244.84
465.438	7351.28
465.81	7385.4
466.183	7608.44
466.555	7714.66
466.928	7766.41
467.3	7823.58
467.672	7897.48
468.045	8100.86
468.417	8080.52
468.789	8200.29
469.161	8320.97
469.534	8453.85
469.906	8645.93
470.278	8723.89
470.65	8876.66
471.022	8969.31
471.394	9141.29
471.766	9273.94
472.138	9405.23
472.51	9559.13
472.882	9760.48
473.253	9871.89
473.625	10001.38
473.997	10247.24
474.369	10260.8
474.74	10469.39
475.112	10639.32
475.484	10858.53
475.855	10988.47
476.227	11156.37
476.598	11459.87
476.97	11472.75
477.341	11760.65
477.713	11971.72
478.084	12065.73
478.455	12437.02
478.827	12497.13
479.198	12955.42
479.569	12843.79
479.94	13204.68
480.311	13372.59
480.682	13694.84
481.053	13975.51
481.424	14189.29
481.795	14351.09
482.166	14546.57
482.537	14751.98
482.908	15128.92
483.279	15326.89
483.65	15616.6
484.021	15921.22
484.391	16120.31
484.762	16289.12
485.133	16465.39
485.503	16716.91
485.874	16989.67
486.244	17320.73
486.615	17583.55
486.985	17745.35
487.356	18073.93
487.726	18292.46
488.097	18663.29
488.467	18680.7
488.837	19153
489.207	19318.64
489.578	19547.11
489.948	19778.97
490.318	19962.24
490.688	20211.5
491.058	20465.06
491.428	20590.02
491.798	20900.75
492.168	21346.39
492.538	21464.12
492.908	21698.92
493.278	22046.48
493.648	22060.49
494.017	22412.57
494.387	22636.98
494.757	22888.72
495.126	23054.82
495.496	23093.91
495.866	23345.21
496.235	23712.88
496.605	23837.4
496.974	24046.88
497.344	24252.07
497.713	24480.77
498.082	24586.98
498.452	24862.23
498.821	24958.04
499.19	25010.92
499.559	25193.07
499.928	25498.6
500.298	25564.58
500.667	25937.45
501.036	25772.03
501.405	26179.26
501.774	26277.56
502.143	26488.85
502.512	26690.65
502.88	26881.84
503.249	26964.32
503.618	27280.7
503.987	27386
504.356	27468.26
504.724	27742.15
505.093	27821.92
505.462	28147.56
505.83	28315.47
506.199	28519.53
506.567	28925.4
506.936	28944.83
507.304	29305.95
507.672	29338.95
508.041	29592.95
508.409	29824.36
508.777	29983.45
509.145	30412.82
509.514	30380.27
509.882	30545.92
510.25	30783.88
510.618	30994.27
510.986	30954.27
511.354	31413.92
511.722	31618.89
512.09	31954.7
512.458	31874.02
512.826	32104.07
513.193	32342.93
513.561	32509.94
513.929	32849.14
514.297	33299.29
514.664	33349.24
515.032	33504.49
515.4	33822.44
515.767	33895.66
516.135	34164.58
516.502	34031.7
516.869	34957.33
517.237	34948.29
517.604	34889.53
517.972	35379.69
518.339	35654.26
518.706	35692.9
519.073	35888.6
519.44	36221.93
519.808	36668.02
520.175	36699.88
520.542	37058.52
520.909	37279.3
521.276	37379.86
521.643	37866.18
522.009	38290.8
522.376	38398.59
522.743	38742.09
523.11	38949.54
523.477	39373.71
523.843	39519.02
524.21	39961.72
524.577	40202.39
524.943	40456.39
525.31	40525.54
525.676	40876.72
526.043	41255.69
526.409	41242.81
526.776	41699.98
527.142	41885.96
527.508	42149.46
527.874	42538.37
528.241	42757.35
528.607	42909.66
528.973	43306.71
529.339	43309.43
529.705	43699.7
530.071	44152.12
530.437	44247.03
530.803	44555.27
531.169	44808.6
531.535	44882.72
531.901	45088.59
532.267	45328.36
532.632	45616.26
532.998	45825.29
533.364	46094.44
533.73	46212.17
534.095	46601.99
534.461	46519.06
534.826	46800.41
535.192	46894.87
535.557	47193.84
535.923	47153.62
536.288	47430.67
536.653	47652.59
537.019	47441.52
537.384	47789.76
537.749	47860.94
538.114	48060.94
538.479	48035.18
538.845	48291.67
539.21	48178.45
539.575	48355.17
539.94	48665.44
540.305	48778.89
540.67	48816.85
541.034	48929.84
541.399	49191.98
541.764	49269.95
542.129	49487.34
542.494	49498.19
542.858	49636.04
543.223	49726.66
543.587	49919.65
543.952	50106.54
544.316	50268.79
544.681	50260.88
545.045	50532.97
545.41	50650.7
545.774	50660.87
546.138	50863.58
546.503	50988.55
546.867	50997.59
547.231	51322.1
547.595	51451.81
547.959	51374.07
548.324	51556.89
548.688	51671.24
549.052	51777.23
549.416	51913.72
549.779	51942.42
550.143	51943.32
550.507	52221.28
550.871	52236.88
551.235	52296.76
551.599	52500.6
551.962	52581.72
552.326	52705.79
552.689	52791.44
553.053	52702.63
553.417	52834.37
553.78	53202.73
554.143	53049.74
554.507	53162.73
554.87	53402.04
555.234	53709.6
555.597	53510.97
555.96	53703.05
556.323	53864.63
556.686	53855.59
557.05	54164.06
557.413	54258.29
557.776	54383.71
558.139	54541.67
558.502	54587.77
558.865	54679.52
559.228	54947.31
559.59	55048.55
559.953	55082.45
560.316	55442.67
560.679	55332.16
561.041	55630.01
561.404	55724.47
561.767	55920.39
562.129	55798.36
562.492	56063.89
562.854	56131.91
563.217	56112.93
563.579	56256.43
563.941	56363.32
564.304	56541.85
564.666	56682.18
565.028	56674.72
565.39	56797.21
565.753	56898.67
566.115	56928.96
566.477	57099.57
566.839	57114.71
567.201	57322.17
567.563	57292.79
567.925	57462.27
568.287	57462.5
568.648	57540.92
569.01	57705.43
569.372	57823.85
569.734	57845.09
570.095	58020.9
570.457	58153.1
570.819	58206.89
571.18	58190.16
571.542	58291.41
571.903	58390.84
572.265	58481.68
572.626	58590.15
572.987	58613.66
573.349	58725.29
573.71	58779.08
574.071	58870.6
574.432	58954.89
574.794	59143.81
575.155	59149.69
575.516	59051.39
575.877	59233.75
576.238	59271.49
576.599	59413.64
576.96	59389.23
577.32	59377.25
577.681	59504.48
578.042	59562.33
578.403	59615.89
578.763	59618.15
579.124	59626.29
579.485	59739.05
579.845	59677.58
580.206	59656.34
580.566	59599.39
580.927	59634.19
581.287	59704.25
581.648	59592.61
582.008	59733.85
582.368	59677.58
582.728	59799.16
583.089	59768.2
583.449	59702.67
583.809	59743.57
584.169	59799.84
584.529	59712.16
584.889	59910.35
585.249	59793.74
585.609	59726.4
585.969	59901.31
586.329	59832.61
586.688	59794.42
587.048	59821.08
587.408	59778.15
587.768	59801.2
588.127	59870.35
588.487	59829.9
588.846	59988.08
589.206	59836.22
589.565	59911.25
589.925	60060.17
590.284	59900.85
590.643	60042.77
591.003	60123.22
591.362	60194.41
591.721	60118.7
592.08	60157.12
592.44	60179.27
592.799	60134.97
593.158	60111.24
593.517	60142.43
593.876	60165.71
594.235	60091.58
594.593	60180.4
594.952	60198.47
595.311	60011.36
595.67	60115.54
596.029	60201.86
596.387	60201.19
596.746	60166.84
597.104	60078.25
597.463	60039.61
597.822	60164.12
598.18	60109.21
598.538	60045.94
598.897	60180.85
599.255	60008.65
599.613	60361.41
599.972	60193.73
600.33	60210.22
600.688	60148.08
601.046	60206.16
601.404	60273.5
601.762	60278.7
602.12	60421.74
602.478	60326.61
602.836	60400.95
603.194	60259.04
603.552	60307.4
603.91	60298.81
604.268	60443.66
604.625	60405.93
604.983	60449.31
605.341	60461.07
605.698	60547.62
606.056	60607.05
606.413	60576.99
606.771	60684.11
607.128	60716.88
607.485	60641.17
607.843	60712.36
608.2	60794.84
608.557	60892.01
608.914	60856.54
609.272	60963.88
609.629	60988.28
609.986	61074.61
610.343	60968.17
610.7	61082.52
611.057	61127.04
611.414	61053.59
611.771	60986.93
612.127	61087.49
612.484	61054.27
612.841	61034.84
613.198	61021.05
613.554	60950.09
613.911	61082.74
614.267	61042.29
614.624	61075.51
614.98	61048.39
615.337	61167.71
615.693	61123.2
616.05	61069.86
616.406	61185.79
616.762	61044.33
617.118	61074.61
617.475	61048.85
617.831	61189.63
618.187	61221.27
618.543	61296.75
618.899	61364.77
619.255	61237.32
619.611	61258.78
619.967	61337.88
620.323	61381.27
620.678	61277.09
621.034	61318.67
621.39	61233.47
621.746	61245.45
622.101	61505.78
622.457	61310.31
622.812	61385.56
623.168	61464.88
623.523	61502.39
623.879	61541.72
624.234	61413.58
624.589	61487.93
624.945	61572
625.3	61562.73
625.655	61512.79
626.01	61564.77
626.365	61572.9
626.72	61543.97
627.075	61494.71
627.43	61498.55
627.785	61459.46
628.14	61525.9
628.495	61558.44
628.85	61488.84
629.205	61375.62
629.559	61530.19
629.914	61349.86
630.269	61426.69
630.623	61322.29
630.978	61191.89
631.332	61288.84
631.687	61327.03
632.041	61183.31
632.396	61207.49
632.75	61033.03
633.104	61108.51
633.459	60913.26
633.813	60930.43
634.167	60923.43
634.521	60948.96
634.875	60965.23
635.229	60827.61
635.583	60788.51
635.937	60764.56
636.291	60725.92
636.645	60737.44
636.999	60668.97
637.352	60698.8
637.706	60585.81
638.06	60636.2
638.413	60599.59
638.767	60528.86
639.121	60549.42
639.474	60439.82
639.828	60439.15
640.181	60453.61
640.534	60462.42
640.888	60376.55
641.241	60276.44
641.594	60329.77
641.947	60422.2
642.301	60309.43
642.654	60434.17
643.007	60406.15
643.36	60360.96
643.713	60346.94
644.066	60455.42
644.419	60274.18
644.771	60136.1
645.124	59887.75
645.477	59847.3
645.83	59667.87
646.182	59611.37
646.535	59497.7
646.888	59544.25
647.24	59401.21
647.593	59520.07
647.945	59407.76
648.298	59265.39
648.65	59272.4
649.002	59143.81
649.355	59197.37
649.707	59223.81
650.059	59292.06
650.411	59532.05
650.763	59548.55
651.115	59875.09
651.467	59660.41
651.819	59602.56
652.171	59585.83
652.523	59485.72
652.875	59433.52
653.227	59277.37
653.578	59432.62
653.93	59379.51
654.282	59268.78
654.633	59178.39
654.985	59211.15
655.337	59158.95
655.688	59161.89
656.039	59186.52
656.391	59003.7
656.742	59062.01
657.094	59089.35
657.445	59090.25
657.796	59046.64
658.147	59016.58
658.498	58946.53
658.849	59069.24
659.2	58945.4
659.551	58979.52
659.902	58997.83
660.253	58880.09
660.604	58988.79
660.955	58873.31
661.306	59007.09
661.656	58898.17
662.007	58970.71
662.358	58938.85
662.708	58976.36
663.059	58939.52
663.409	58850.26
663.76	58950.14
664.11	58916.25
664.461	58978.84
664.811	59001.44
665.161	59032.85
665.511	58949.92
665.862	58949.47
666.212	59061.55
666.562	59008.67
666.912	58932.07
667.262	58838.74
667.612	58852.75
667.962	58852.52
668.312	58866.53
668.662	58918.96
669.011	58801.22
669.361	58719.64
669.711	58725.97
670.06	58614.56
670.41	58544.51
670.76	58563.94
671.109	58629.48
671.459	58509.7
671.808	58508.57
672.157	58450.27
672.507	58378.41
672.856	58251.18
673.205	58357.84
673.554	58364.17
673.904	58230.62
674.253	58305.42
674.602	58240.11
674.951	57877.86
675.3	57737.3
675.649	58140
675.998	58053.45
676.346	58078.76
676.695	58130.73
677.044	57892.77
677.393	58041.92
677.741	58044.18
678.09	57887.57
678.438	57839.21
678.787	57945.65
679.135	57890.96
679.484	57772.32
679.832	57854.58
680.181	57695.49
680.529	57761.02
680.877	57679.22
681.225	57721.25
681.573	57836.05
681.922	57641.93
682.27	57549.05
682.618	57633.57
682.966	57558.77
683.314	57629.05
683.661	57507.92
684.009	57404.87
684.357	57417.53
684.705	57430.18
685.053	57447.81
685.4	57404.87
685.748	57276.52
686.095	57253.01
686.443	57204.43
686.79	57121.49
687.138	57171.43
687.485	57122.85
687.832	57028.39
688.18	57067.03
688.527	56879.01
688.874	56875.85
689.221	56827.04
689.568	56739.58
689.915	56565.35
690.262	56625.01
690.609	56538.68
690.956	56480.83
691.303	56364.22
691.65	56289.88
691.997	56262.08
692.344	56060.05
692.69	56049.66
693.037	55986.83
693.383	55762.21
693.73	55856.21
694.077	55690.12
694.423	55514.98
694.769	55476.34
695.116	55377.81
695.462	55375.32
695.808	55187.76
696.155	55164.03
696.501	54967.42
696.847	55001.1
697.193	54748.67
697.539	54864.15
697.885	54643.59
698.231	54588.23
698.577	54516.14
698.923	54439.76
699.269	54269.14
699.614	54114.79
699.96	54107.11
700.306	54103.72
700.651	53983.27
700.997	53922.25
701.342	53826.44
701.688	53729.04
702.033	53714.35
702.379	53642.71
702.724	53630.74
703.069	53695.82
703.415	53286.11
703.76	53280.46
704.105	53445.66
704.45	53306.68
704.795	53087.93
705.14	53034.37
705.485	53049.51
705.83	52875.5
706.175	52871.43
706.52	52814.49
706.865	52769.74
707.209	52762.51
707.554	52694.26
707.899	52846.12
708.243	52603.42
708.588	52557.32
708.932	52395.29
709.277	52372.24
709.621	52368.4
709.966	52079.37
710.31	52294.05
710.654	51985.58
710.998	52004.11
711.342	52030.33
711.687	51835.3
712.031	51668.98
712.375	51530.45
712.719	51634.86
713.063	51458.59
713.407	51598.7
713.75	51387.41
714.094	51412.04
714.438	51233.51
714.782	51261.53
715.125	50996.23
715.469	51036.45
715.812	50877.81
716.156	50615.22
716.499	50655.22
716.843	50616.8
717.186	50382.46
717.53	50546.07
717.873	50488.22
718.216	50382.01
718.559	50113.77
718.902	49891.85
719.246	49936.14
719.589	49855.69
719.932	49665.19
720.275	49499.55
720.617	49529.38
720.96	49384.52
721.303	49370.28
721.646	49267.01
721.989	49045.09
722.331	49179.1
722.674	49027.47
723.016	49004.87
723.359	48866.57
723.701	48884.19
724.044	48623.64
724.386	48444.21
724.729	48635.16
725.071	48408.95
725.413	48421.16
725.755	48321.5
726.097	48152.24
726.439	47994.05
726.782	48125.12
727.124	48427.71
727.465	48102.07
727.807	48102.75
728.149	47992.92
728.491	48058.91
728.833	47971.68
729.175	47849.87
729.516	47949.08
729.858	47855.07
730.199	47805.81
730.541	47711.34
730.882	47726.94
731.224	47779.59
731.565	47467.06
731.906	47545.7
732.248	47633.61
732.589	47241.3
732.93	47262.99
733.271	47351.58
733.612	47371.92
733.953	47323.11
734.294	47199.04
734.635	47036.33
734.976	47193.84
735.317	46968.99
735.658	46966.96
735.999	46848.77
736.339	46704.82
736.68	46731.71
737.021	46549.34
737.361	46492.39
737.702	46616.91
738.042	46407.88
738.383	46144.15
738.723	46288.1
739.063	46136.92
739.404	46222.12
739.744	46026.42
740.084	45868.91
740.424	45863.94
740.764	45704.17
741.104	45763.37
741.444	45423.04
741.784	45346.89
742.124	45412.87
742.464	45342.59
742.804	45136.04
743.143	44944.64
743.483	45063.05
743.823	44879.55
744.162	44764.3
744.502	44800.01
744.841	44558.43
745.181	44666.45
745.52	44463.97
745.86	44441.6
746.199	44210.19
746.538	44080.93
746.877	44121.16
747.216	44172.45
747.556	43866.93
747.895	43842.75
748.234	43647.27
748.573	43568.4
748.911	43569.31
749.25	43443.66
749.589	43400.27
749.928	43350.33
750.267	43308.97
750.605	43232.37
750.944	43073.05
751.283	43031.02
751.621	43052.94
751.96	42704.47
752.298	42919.38
752.636	42770.68
752.975	42502.67
753.313	42436.23
753.651	42593.96
753.989	42349.45
754.327	42345.61
754.666	42195.33
755.004	42128.89
755.342	42193.3
755.679	41975.45
756.017	41933.64
756.355	42099.29
756.693	41715.8
757.031	41946.52
757.368	41617.27
757.706	41558.29
758.044	41454.56
758.381	41446.88
758.719	41381.57
759.056	41281.68
759.394	41184.28
759.731	41062.48
760.068	41056.38
760.405	40999.88
760.743	40711.75
761.08	40867.23
761.417	40517.41
761.754	40667.24
762.091	40359.67
762.428	40325.32
762.765	40036.07
763.102	40177.31
763.438	39923.98
763.775	39615.29
764.112	39649.41
764.449	39691.89
764.785	39278.8
765.122	39064.57
765.458	39063.21
765.795	39090.55
766.131	38915.64
766.467	38762.2
766.804	38411.7
767.14	38297.81
767.476	38186.4
767.812	38109.34
768.148	38166.74
768.485	37744.37
768.821	37635
769.157	37512.06
769.492	37428.22
769.828	37333.76
770.164	36971.51
770.5	36880.22
770.836	36793.21
771.171	36557.74
771.507	36436.61
771.842	36077.53
772.178	36179.67
772.513	35946.68
772.849	35880.24
773.184	35565.9
773.519	35604.32
773.855	35461.27
774.19	35468.5
774.525	35038.68
774.86	35189.64
775.195	34946.48
775.53	34761.63
775.865	34689.31
776.2	34351.02
776.535	34134.53
776.87	34086.17
777.205	34017.02
777.539	33883.46
777.874	33853.4
778.209	33725.72
778.543	33555.56
778.878	33390.59
779.212	33319.18
779.547	33083.71
779.881	33180.2
780.215	33088.23
780.55	33052.75
780.884	32795.8
781.218	32786.09
781.552	32774.11
781.886	32586.54
782.22	32464.29
782.554	32351.3
782.888	32201.7
783.222	31925.54
783.556	31866.11
783.889	31796.51
784.223	31596.74
784.557	31676.51
784.89	31747.7
785.224	31429.29
785.557	31374.37
785.891	31335.5
786.224	31321.27
786.558	31204.89
786.891	30849.87
787.224	30954.5
787.557	30837.21
787.891	30874.5
788.224	30691
788.557	30636.31
788.89	30694.16
789.223	30639.25
789.556	30313.84
789.888	30194.74
790.221	30084.01
790.554	29787.75
790.887	29903.68
791.219	29703.91
791.552	29687.64
791.884	29449.45
792.217	29318.61
792.549	29333.75
792.882	29136.69
793.214	28942.57
793.546	28986.41
793.879	28803.82
794.211	28600.21
794.543	28700.09
794.875	28542.81
795.207	28676.59
795.539	28416.03
795.871	28375.13
796.203	27991.64
796.535	27959.77
796.867	27864.41
797.198	27823.96
797.53	27720.68
797.862	27507.13
798.193	27698.31
798.525	27337.64
798.856	27411.09
799.188	26973.81
799.519	26908.05
799.85	26842.29
800.182	26812.46
800.513	26868.05
800.844	26567.72
801.175	26682.97
801.506	26559.13
801.837	26434.39
802.168	26274.39
802.499	26189.65
802.83	26042.08
803.161	25925.7
803.491	25929.54
803.822	25780.85
804.153	25625.15
804.483	25390.58
804.814	25375.21
805.145	25323.46
805.475	25308.77
805.805	25197.36
806.136	25225.38
806.466	25211.15
806.796	25138.6
807.126	24900.87
807.457	24767.77
807.787	24794.21
808.117	24701.1
808.447	24767.99
808.777	24645.06
809.107	24594.66
809.436	24488.9
809.766	24413.65
810.096	24502.46
810.426	24285.29
810.755	24349.47
811.085	24344.28
811.414	24148.57
811.744	24076.03
812.073	24050.72
812.403	24010.05
812.732	23875.59
813.061	23824.74
813.39	23734.57
813.719	23693.44
814.049	23910.39
814.378	23793.78
814.707	23636.95
815.036	23576.39
815.365	23556.05
815.693	23424.75
816.022	23372.55
816.351	23362.38
816.68	23343.85
817.008	23476.05
817.337	23243.29
817.665	23209.62
817.994	23357.63
818.322	23274.02
818.651	23099.79
818.979	23047.59
819.307	23144.53
819.636	23054.59
819.964	22944.31
820.292	22982.5
820.62	22934.82
820.948	22828.83
821.276	22780.25
821.604	22808.04
821.932	22826.57
822.259	22885.78
822.587	22840.13
822.915	22758.1
823.243	22893.47
823.57	22750.87
823.898	22831.55
824.225	22725.79
824.553	22680.36
824.88	22798.1
825.207	22772.34
825.535	22712.23
825.862	22698.22
826.189	22612.8
826.516	22706.58
826.843	22719.91
827.17	22714.26
827.497	22860.7
827.824	22584.32
828.151	22657.77
828.478	22554.27
828.805	22498.67
829.131	22478.11
829.458	22302.52
829.785	22370.54
830.111	22405.12
830.438	22516.98
830.764	22467.49
831.09	22514.49
831.417	22280.6
831.743	22372.8
832.069	22314.95
832.395	22295.06
832.722	22290.32
833.048	22140.49
833.374	22312.69
833.7	22026.82
834.026	22088.06
834.351	22133.94
834.677	22129.64
835.003	22104.79
835.329	22136.42
835.654	21953.38
835.98	21886.71
836.306	21880.84
836.631	21735.53
836.956	21813.95
837.282	21752.03
837.607	21659.37
837.932	21639.49
838.258	21600.39
838.583	21622.09
838.908	21519.72
839.233	21613.73
839.558	21487.4
839.883	21338.48
840.208	21326.05
840.533	21324.69
840.858	21336.44
841.182	21369.44
841.507	21311.81
841.832	21106.17
842.156	21141.2
842.481	21183.91
842.805	21044.47
843.13	20994.98
843.454	21016.68
843.778	21034.98
844.103	20977.13
844.427	20947.3
844.751	20872.05
845.075	20917.92
845.399	20885.61
845.723	20847.19
846.047	20865.04
846.371	20644.26
846.695	20701.43
847.019	20477.26
847.343	20439.52
847.666	20329.01
847.99	20373.98
848.313	20318.17
848.637	20162.92
848.96	20202.24
849.284	20136.48
849.607	19982.81
849.931	20042.69
850.254	19881.79
850.577	19880.66
850.9	19656.49
851.223	19667.56
851.546	19712.31
851.869	19526.55
852.192	19684.06
852.515	19470.5
852.838	19384.86
853.161	19371.75
853.483	19233.45
853.806	19144.64
854.129	19124.07
854.451	19114.13
854.774	19065.77
855.096	18974.7
855.419	18877.53
855.741	18931.31
856.063	18749.39
856.385	18758.89
856.708	18604.99
857.03	18578.1
857.352	18575.16
857.674	18491.77
857.996	18385.79
858.318	18315.96
858.64	18294.04
858.961	18336.52
859.283	18294.04
859.605	18163.19
859.926	18160.71
860.248	18070.09
860.57	17869.64
860.891	18001.17
861.212	17932.69
861.534	17838.23
861.855	17715.07
862.176	17796.42
862.498	17787.39
862.819	17762.98
863.14	17629.65
863.461	17527.51
863.782	17546.26
864.103	17593.27
864.424	17447.51
864.745	17531.12
865.065	17366.61
865.386	17348.07
865.707	17331.8
866.027	17307.62
866.348	17236.44
866.668	17250
866.989	17068.08
867.309	17029.44
867.63	17141.53
867.95	17042.77
868.27	16992.6
868.59	16930.01
868.91	16965.94
869.23	16842.78
869.55	16832.38
869.87	16951.93
870.19	16817.69
870.51	16785.6
870.83	16758.26
871.15	16615.89
871.469	16660.41
871.789	16691.82
872.109	16585.16
872.428	16573.63
872.748	16605.27
873.067	16663.35
873.386	16652.27
873.706	16561.43
874.025	16452.51
874.344	16479.62
874.663	16474.65
874.982	16403.24
875.301	16371.38
875.62	16348.55
875.939	16334.54
876.258	16346.07
876.577	16301.1
876.896	16262.68
877.214	16222.23
877.533	16361.89
877.852	16209.57
878.17	16243.47
878.489	16252.74
878.807	16283.02
879.125	16178.16
879.444	16213.87
879.762	16233.98
880.08	16212.06
880.398	16084.15
880.716	16125.73
881.034	16089.8
881.352	16106.75
881.67	16097.71
881.988	16077.83
882.306	16113.31
882.624	16007.77
882.941	16012.29
883.259	16074.66
883.577	15917.83
883.894	15985.62
884.212	15863.59
884.529	15842.58
884.846	15826.76
885.164	15816.14
885.481	15748.57
885.798	15854.33
886.115	15764.84
886.432	15813.43
886.75	15655.92
887.067	15712.19
887.383	15627.22
887.7	15579.08
888.017	15667.67
888.334	15630.38
888.651	15541.34
888.967	15542.47
889.284	15458.86
889.6	15420.22
889.917	15276.04
890.233	15383.38
890.55	15303.16
890.866	15310.84
891.182	15240.33
891.498	15171.86
891.815	15199.88
892.131	15198.75
892.447	15098.42
892.763	15121.01
893.079	15038.98
893.395	14987.46
893.71	14948.82
894.026	14832.43
894.342	14786.56
894.657	14674.47
894.973	14780.91
895.289	14657.3
895.604	14653.91
895.92	14553.8
896.235	14454.14
896.55	14460.69
896.865	14408.94
897.181	14377.08
897.496	14333.69
897.811	14249.63
898.126	14159.01
898.441	14133.24
898.756	14086.69
899.071	14001.04
899.386	14083.98
899.7	13890.09
900.015	13899.13
900.33	13753.59
900.644	13742.97
900.959	13774.16
901.273	13604.44
901.588	13597.44
901.902	13577.1
902.216	13482.19
902.531	13382.08
902.845	13418.69
903.159	13306.15
903.473	13229.31
903.787	13187.73
904.101	13090.56
904.415	13080.84
904.729	13012.37
905.042	12907.51
905.356	12924.69
905.67	12949.09
905.984	12862.77
906.297	12852.15
906.611	12742.32
906.924	12690.57
907.237	12646.96
907.551	12667.52
907.864	12588.43
908.177	12582.32
908.491	12554.75
908.804	12420.52
909.117	12296.91
909.43	12307.3
909.743	12197.93
910.056	12269.79
910.368	12144.37
910.681	12079.29
910.994	11988.89
911.307	11980.53
911.619	11950.93
911.932	11988.44
912.244	11838.62
912.557	11861.44
912.869	11730.82
913.181	11694.89
913.494	11641.56
913.806	11658.96
914.118	11592.52
914.43	11517.27
914.742	11551.84
915.054	11489.92
915.366	11494.22
915.678	11461.22
915.99	11385.75
916.302	11320.66
916.613	11339.65
916.925	11286.99
917.236	11265.52
917.548	11179.2
917.859	11247.44
918.171	11168.8
918.482	11020.33
918.794	11015.81
919.105	11018.52
919.416	10997.28
919.727	10973.33
920.038	10901.92
920.349	10935.59
920.66	10809.26
920.971	10847
921.282	10755.48
921.593	10677.29
921.903	10657.86
922.214	10634.81
922.525	10616.5
922.835	10566.78
923.146	10539.89
923.456	10526.33
923.767	10470.97
924.077	10440.46
924.387	10475.71
924.697	10316.4
925.008	10317.07
925.318	10246.79
925.628	10310.07
925.938	10197.98
926.248	10166.12
926.558	10152.56
926.867	10130.86
927.177	10042.96
927.487	10030.53
927.796	9916.86
928.106	9967.48
928.416	9886.8
928.725	9875.28
929.034	9747.6
929.344	9788.05
929.653	9744.66
929.962	9669.86
930.271	9658.33
930.581	9531.56
930.89	9574.49
931.199	9432.58
931.508	9399.58
931.817	9465.12
932.125	9402.52
932.434	9336.76
932.743	9275.52
933.051	9213.15
933.36	9246.14
933.669	9092.02
933.977	9113.72
934.286	9129.76
934.594	9071.23
934.902	8970.67
935.21	8997.79
935.519	8959.37
935.827	8946.49
936.135	8803.21
936.443	8717.12
936.751	8788.53
937.059	8707.17
937.367	8659.94
937.674	8660.62
937.982	8558.25
938.29	8524.58
938.597	8569.77
938.905	8427.63
939.213	8381.76
939.52	8380.63
939.827	8360.51
940.135	8252.27
940.442	8254.75
940.749	8253.85
941.056	8242.33
941.363	8080.75
941.67	8152.38
941.977	8100.18
942.284	8026.29
942.591	7991.48
942.898	7953.97
943.205	7933.86
943.511	7884.37
943.818	7789.91
944.125	7830.13
944.431	7811.83
944.738	7716.69
945.044	7701.77
945.35	7669.91
945.657	7575
945.963	7600.31
946.269	7511.5
946.575	7503.81
946.881	7424.27
947.187	7487.09
947.493	7390.14
947.799	7351.28
948.105	7348.11
948.41	7275.57
948.716	7285.97
949.022	7299.98
949.327	7189.02
949.633	7149.92
949.938	7220.43
950.244	7138.4
950.549	7104.5
950.854	7025.63
951.16	7031.06
951.465	6996.03
951.77	7002.36
952.075	6969.82
952.38	6926.2
952.685	6848.46
952.99	6808.69
953.294	6828.58
953.599	6775.25
953.904	6758.75
954.209	6685.3
954.513	6722.37
954.818	6670.84
955.122	6655.47
955.426	6647.79
955.731	6570.51
956.035	6537.96
956.339	6548.13
956.643	6542.26
956.948	6491.19
957.252	6523.95
957.556	6416.16
957.86	6414.58
958.163	6407.12
958.467	6376.16
958.771	6385.2
959.075	6338.19
959.378	6302.49
959.682	6312.43
959.985	6237.63
960.289	6251.64
960.592	6254.13
960.896	6215.03
961.199	6178.43
961.502	6217.07
961.805	6147.69
962.108	6080.8
962.411	6055.49
962.714	6062.27
963.017	5997.86
963.32	6000.58
963.623	5952.67
963.926	5971.2
964.228	5929.39
964.531	5906.57
964.833	5868.6
965.136	5855.04
965.438	5810.98
965.741	5834.71
966.043	5802.39
966.345	5751.32
966.648	5762.39
966.95	5773.24
967.252	5732.79
967.554	5680.81
967.856	5670.42
968.158	5572.79
968.46	5578.21
968.761	5604.43
969.063	5519.69
969.365	5531.66
969.666	5529.63
969.968	5493.92
970.269	5484.88
970.571	5408.28
970.872	5416.19
971.174	5402.4
971.475	5394.72
971.776	5355.62
972.077	5302.29
972.378	5257.32
972.679	5279.24
972.98	5276.3
973.281	5262.29
973.582	5183.87
973.883	5194.5
974.183	5154.05
974.484	5145.91
974.785	5052.58
975.085	5074.27
975.386	5061.62
975.686	5036.53
975.986	5007.38
976.287	5028.85
976.587	4937.33
976.887	4910.89
977.187	4975.52
977.487	4901.17
977.787	4839.48
978.087	4860.95
978.387	4803.09
978.687	4805.58
978.987	4791.79
979.286	4733.49
979.586	4774.85
979.885	4688.75
980.185	4652.59
980.484	4669.31
980.784	4606.26
981.083	4615.08
981.382	4585.25
981.682	4604.46
981.981	4554.74
982.28	4492.82
982.579	4479.03
982.878	4513.16
983.177	4450.79
983.475	4433.16
983.774	4408.98
984.073	4381.41
984.372	4352.03
984.67	4399.26
984.969	4342.09
985.267	4323.11
985.566	4291.92
985.864	4215.54
986.162	4268.42
986.461	4197.01
986.759	4273.39
987.057	4202.66
987.355	4190.45
987.653	4157.69
987.951	4081.31
988.249	4108.42
988.547	4056.67
988.844	4053.96
989.142	4040.4
989.44	3964.7
989.737	3995.88
990.035	3993.85
990.332	3911.59
990.63	3936
990.927	3919.28
991.224	3905.72
991.521	3830.92
991.819	3847.64
992.116	3852.38
992.413	3802.89
992.71	3769.9
993.006	3776.23
993.303	3782.56
993.6	3758.38
993.897	3696.46
994.193	3699.39
994.49	3710.02
994.787	3671.15
995.083	3640.86
995.379	3600.19
995.676	3622.33
995.972	3626.4
996.268	3559.51
996.565	3537.59
996.861	3489.91
997.157	3493.98
997.453	3496.91
997.749	3480.64
998.044	3478.61
998.34	3440.19
998.636	3463.92
998.932	3427.76
999.227	3431.38
999.523	3360.19
999.818	3369.01
1000.114	3319.52
1000.409	3329.01
1000.704	3305.28
1001	3265.96
1001.295	3259.63
1001.59	3250.37
1001.885	3227.99
1002.18	3211.72
1002.475	3217.15
1002.77	3206.75
1003.065	3189.35
1003.359	3134.89
1003.654	3149.35
1003.949	3152.06
1004.243	3113.87
1004.538	3059.41
1004.832	3107.09
1005.127	3087.43
1005.421	3036.13
1005.715	3024.38
1006.009	2950.26
1006.304	2978.06
1006.598	2977.83
1006.892	2960.88
1007.186	2941.9
1007.48	2964.72
1007.773	2943.03
1008.067	2908.23
1008.361	2858.29
1008.655	2875.46
1008.948	2854.44
1009.242	2833.43
1009.535	2806.99
1009.829	2794.11
1010.122	2782.81
1010.415	2750.04
1010.708	2751.4
1011.001	2757.95
1011.295	2729.7
1011.588	2683.6
1011.881	2682.7
1012.173	2679.76
1012.466	2657.84
1012.759	2654.22
1013.052	2638.18
1013.344	2615.35
1013.637	2639.08
1013.93	2569.48
1014.222	2529.03
1014.514	2521.8
1014.807	2531.74
1015.099	2526.77
1015.391	2476.83
1015.683	2455.13
1015.976	2469.37
1016.268	2449.94
1016.56	2420.33
1016.851	2390.95
1017.143	2385.76
1017.435	2403.16
1017.727	2390.05
1018.018	2360.22
1018.31	2365.42
1018.602	2330.16
1018.893	2261.69
1019.185	2296.04
1019.476	2278.41
1019.767	2232.31
1020.058	2270.51
1020.35	2242.26
1020.641	2221.02
1020.932	2192.32
1021.223	2139.89
1021.514	2185.76
1021.804	2137.63
1022.095	2165.2
1022.386	2099.44
1022.677	2104.18
1022.967	2091.75
1023.258	2048.14
1023.548	2031.64
1023.839	2033.9
1024.129	2017.18
1024.419	1991.19
1024.709	2014.69
1025	1967.24
1025.29	1968.37
1025.58	1947.8
1025.87	1905.32
1026.16	1909.16
1026.449	1926.11
1026.739	1885.2
1027.029	1880.69
1027.319	1866.67
1027.608	1845.66
1027.898	1841.82
1028.187	1826
1028.477	1809.73
1028.766	1789.84
1029.055	1790.74
1029.344	1766.56
1029.634	1740.8
1029.923	1755.72
1030.212	1703.51
1030.501	1706.45
1030.79	1701.48
1031.078	1687.92
1031.367	1631.43
1031.656	1665.32
1031.945	1640.24
1032.233	1637.98
1032.522	1628.04
1032.81	1585.55
1033.099	1605.66
1033.387	1590.52
1033.675	1604.31
1033.963	1540.58
1034.251	1563.86
1034.54	1543.97
1034.828	1550.52
1035.116	1500.13
1035.403	1529.06
1035.691	1500.36
1035.979	1499.9
1036.267	1479.11
1036.554	1472.79
1036.842	1476.18
1037.129	1472.56
1037.417	1387.36
1037.704	1414.71
1037.992	1371.77
1038.279	1376.52
1038.566	1371.09
1038.853	1371.09
1039.14	1371.09
