Data from aluminium_macbook_case_FLMS001491_079.txt Node
Date: Tue Feb 07 10:44:12 GMT 2017
User: dcchb
Spectrometer: FLMS00149
Trigger mode: 0
Integration Time (sec): 2.000000E-2
Scans to average: 10
Electric dark correction enabled: true
Nonlinearity correction enabled: false
Boxcar width: 0
XAxis mode: Wavelengths
Number of Pixels in Spectrum: 2048
>>>>>Begin Spectral Data<<<<<
341.393	-27.15
341.776	-27.15
342.16	-27.15
342.543	-70.08
342.927	-75.51
343.31	-71.89
343.693	-61.72
344.077	-65.56
344.46	-48.84
344.843	-73.02
345.226	-46.81
345.61	-22.63
345.993	-28.28
346.376	9.01
346.759	13.76
347.142	33.87
347.525	46.07
347.908	65.73
348.291	64.38
348.674	84.04
349.057	101.89
349.44	119.29
349.823	146.41
350.206	159.97
350.588	242.9
350.971	242
351.354	287.65
351.737	293.75
352.119	319.51
352.502	284.94
352.884	340.08
353.267	329.68
353.65	330.81
354.032	353.18
354.414	365.39
354.797	383.69
355.179	374.65
355.562	394.99
355.944	411.49
356.326	404.25
356.709	405.38
357.091	406.97
357.473	412.39
357.855	427.98
358.238	401.54
358.62	413.07
359.002	408.1
359.384	427.08
359.766	434.31
360.148	428.89
360.53	424.82
360.912	422.33
361.294	451.94
361.676	419.4
362.057	413.52
362.439	420.53
362.821	417.81
363.203	418.27
363.584	431.15
363.966	434.31
364.348	410.36
364.729	434.76
365.111	429.11
365.493	431.82
365.874	425.5
366.256	424.14
366.637	423.24
367.019	416.68
367.4	425.95
367.781	440.64
368.163	432.73
368.544	451.71
368.925	441.32
369.306	422.11
369.688	440.41
370.069	450.36
370.45	453.75
370.831	455.55
371.212	451.49
371.593	466.85
371.974	468.21
372.355	466.85
372.736	486.29
373.117	457.13
373.498	474.08
373.879	463.24
374.26	471.82
374.641	488.32
375.021	451.26
375.402	494.87
375.783	504.59
376.163	538.26
376.544	524.7
376.925	505.04
377.305	501.65
377.686	521.09
378.066	538.04
378.447	552.95
378.827	566.51
379.208	548.66
379.588	548.66
379.968	545.27
380.349	547.98
380.729	590.01
381.109	594.98
381.489	619.16
381.87	564.25
382.25	586.4
382.63	583.46
383.01	593.4
383.39	587.53
383.77	616.23
384.15	613.06
384.53	628.66
384.91	637.02
385.29	641.08
385.67	664.59
386.049	658.71
386.429	661.88
386.809	676.56
387.189	673.4
387.568	685.6
387.948	677.92
388.328	724.7
388.707	697.81
389.087	710.46
389.466	726.05
389.846	735.32
390.225	741.42
390.605	757.69
390.984	756.34
391.363	761.53
391.743	761.08
392.122	778.71
392.501	814.41
392.881	841.31
393.26	820.97
393.639	821.42
394.018	848.31
394.397	830.01
394.776	887.41
395.155	862.77
395.534	876.78
395.913	889.89
396.292	917.24
396.671	929.66
397.05	894.64
397.429	924.92
397.808	933.96
398.186	934.86
398.565	938.7
398.944	960.62
399.323	978.03
399.701	1011.47
400.08	1005.14
400.458	1017.8
400.837	1023.9
401.215	1044.46
401.594	1032.71
401.972	1058.47
402.351	1065.71
402.729	1106.61
403.107	1076.78
403.486	1108.42
403.864	1124.46
404.242	1119.94
404.62	1133.05
404.999	1161.75
405.377	1202.2
405.755	1170.34
406.133	1192.71
406.511	1230.45
406.889	1222.09
407.267	1287.4
407.645	1280.39
408.023	1288.3
408.401	1317.9
408.779	1340.28
409.156	1374.4
409.534	1377.34
409.912	1382.31
410.29	1417.79
410.667	1428.41
411.045	1452.59
411.422	1452.59
411.8	1461.63
412.178	1527.62
412.555	1556.09
412.933	1539.37
413.31	1571.91
413.687	1602.42
414.065	1627.95
414.442	1649.65
414.819	1673.15
415.197	1670.89
415.574	1721.96
415.951	1734.16
416.328	1764.45
416.705	1718.8
417.082	1803.77
417.46	1826.82
417.837	1776.65
418.214	1832.92
418.591	1876.76
418.967	1874.05
419.344	1905.01
419.721	1940.94
420.098	1961.05
420.475	1960.82
420.852	1982.07
421.228	2010.99
421.605	2055.28
421.982	2044.66
422.358	2064.32
422.735	2092.35
423.111	2126.02
423.488	2179.12
423.864	2165.56
424.241	2188.16
424.617	2238.78
424.994	2284.43
425.37	2297.54
425.746	2292.57
426.123	2329.63
426.499	2370.98
426.875	2414.82
427.251	2438.33
427.627	2461.83
428.003	2508.15
428.379	2538.21
428.756	2570.3
429.132	2603.97
429.507	2616.85
429.883	2694.36
430.259	2717.19
430.635	2768.49
431.011	2739.56
431.387	2845.32
431.763	2879.22
432.138	2930.74
432.514	2955.83
432.89	2980.91
433.265	3030.63
433.641	3087.12
434.016	3153.56
434.392	3181.58
434.767	3266.78
435.143	3225.65
435.518	3261.81
435.894	3321.69
436.269	3340.45
436.644	3445.98
437.02	3460.45
437.395	3433.78
437.77	3506.09
438.145	3538.41
438.52	3637.39
438.895	3669.03
439.271	3636.71
439.646	3756.26
440.021	3812.98
440.395	3811.62
440.77	3773.43
441.145	3854.11
441.52	3908.34
441.895	3936.14
442.27	3939.53
442.645	3966.2
443.019	4055.01
443.394	4028.34
443.769	4100.2
444.143	4088.45
444.518	4161.44
444.892	4143.14
445.267	4208.45
445.641	4233.08
446.016	4253.19
446.39	4304.94
446.764	4352.85
447.139	4355.56
447.513	4420.19
447.887	4413.64
448.262	4463.13
448.636	4458.84
449.01	4551.49
449.384	4631.49
449.758	4622.45
450.132	4743.12
450.506	4756.23
450.88	4767.08
451.254	4790.58
451.628	4905.61
452.002	4963.46
452.376	4979.5
452.75	5019.95
453.123	5078.03
453.497	5152.38
453.871	5188.54
454.244	5261.75
454.618	5294.75
454.992	5385.37
455.365	5360.73
455.739	5553.05
456.112	5654.96
456.486	5681.4
456.859	5732.25
457.232	5805.24
457.606	5855.64
457.979	5921.4
458.352	6122.52
458.725	6118
459.099	6225.57
459.472	6320.48
459.845	6390.76
460.218	6418.33
460.591	6506.24
460.964	6536.98
461.337	6704.43
461.71	6791.21
462.083	6911.65
462.456	6956.62
462.829	6917.98
463.201	7088.6
463.574	7161.14
463.947	7274.81
464.32	7395.03
464.692	7428.03
465.065	7541.92
465.438	7622.37
465.81	7770.61
466.183	7866.88
466.555	8041.57
466.928	8104.62
467.3	8069.14
467.672	8237.72
468.045	8480.65
468.417	8467.55
468.789	8531.5
469.161	8702.12
469.534	8827.08
469.906	9067.3
470.278	9141.65
470.65	9214.42
471.022	9382.78
471.394	9541.87
471.766	9709.09
472.138	9769.66
472.51	9950.22
472.882	10121.29
473.253	10262.98
473.625	10357.44
473.997	10590.65
474.369	10640.37
474.74	10809.63
475.112	11026.8
475.484	11224.08
475.855	11413.23
476.227	11562.83
476.598	11948.58
476.97	12026.55
477.341	12290.95
477.713	12514.9
478.084	12508.12
478.455	12925.73
478.827	12996.01
479.198	13472.39
479.569	13456.79
479.94	13828.31
480.311	13940.17
480.682	14252.25
481.053	14555.75
481.424	14815.85
481.795	14945.79
482.166	15172
482.537	15388.27
482.908	15711.2
483.279	15845.2
483.65	16192.54
484.021	16489.93
484.391	16668.23
484.762	16815.12
485.133	17013.08
485.503	17291.04
485.874	17670.24
486.244	17843.12
486.615	18194.75
486.985	18522.42
487.356	18860.49
487.726	19007.16
488.097	19379.8
488.467	19517.88
488.837	19823.86
489.207	20058.65
489.578	20396.72
489.948	20589.71
490.318	20937.27
490.688	20919.2
491.058	21234.22
491.428	21615.22
491.798	21816.8
492.168	22200.29
492.538	22313.74
492.908	22613.61
493.278	22917.79
493.648	22907.17
494.017	23294.5
494.387	23508.96
494.757	23580.82
495.126	23899.91
495.496	23892
495.866	24106.46
496.235	24413.57
496.605	24778.53
496.974	24932.88
497.344	25136.71
497.713	25264.84
498.082	25500.32
498.452	25799.29
498.821	25952.06
499.19	26093.52
499.559	26348.43
499.928	26536.9
500.298	26750
500.667	26907.29
501.036	26927.4
501.405	27217.34
501.774	27312.02
502.143	27671.11
502.512	27754.04
502.88	27867.26
503.249	27995.62
503.618	28212.56
503.987	28389.06
504.356	28607.13
504.724	28830.85
505.093	28899.1
505.462	29078.76
505.83	29234.68
506.199	29468.12
506.567	29849.36
506.936	29768.23
507.304	30310.14
507.672	30317.59
508.041	30727.07
508.409	30918.93
508.777	31062.21
509.145	31419.48
509.514	31419.94
509.882	31777.22
510.25	31869.42
510.618	32142.86
510.986	32327.71
511.354	32728.38
511.722	32863.74
512.09	33199.55
512.458	33138.76
512.826	33515.25
513.193	33697.16
513.561	33780.78
513.929	34260.77
514.297	34428.22
514.664	34719.74
515.032	34784.59
515.4	34997.24
515.767	35270.68
516.135	35429.55
516.502	35409.89
516.869	36048.29
517.237	36242.41
517.604	36150.89
517.972	36481.5
518.339	36783.19
518.706	37003.74
519.073	37141.82
519.44	37454.35
519.808	37670.17
520.175	37953.1
520.542	38415.91
520.909	38638.05
521.276	38777.48
521.643	39198.94
522.009	39325.94
522.376	39852.94
522.743	40005.7
523.11	40473.71
523.477	40933.36
523.843	41126.35
524.21	41439.11
524.577	41679.55
524.943	41853.33
525.31	42156.15
525.676	42491.96
526.043	42773.99
526.409	42815.57
526.776	43397.47
527.142	43477.92
527.508	43726.96
527.874	44015.09
528.241	44132.82
528.607	44448.97
528.973	44664.56
529.339	44859.58
529.705	45137.32
530.071	45422.73
530.437	45822.95
530.803	45771.2
531.169	46104.52
531.535	46034.47
531.901	46302.03
532.267	46566.66
532.632	46925.52
532.998	46955.12
533.364	47198.28
533.73	47368.22
534.095	47692.96
534.461	47923.46
534.826	48137.46
535.192	48292.04
535.557	48553.27
535.923	48560.95
536.288	48773.15
536.653	49019.7
537.019	48940.38
537.384	49098.12
537.749	49254.95
538.114	49407.03
538.479	49543.53
538.845	49728.83
539.21	49612.23
539.575	49851.54
539.94	50001.37
540.305	50202.04
540.67	50153.68
541.034	50374.01
541.399	50580.34
541.764	50582.6
542.129	50705.98
542.494	50869.59
542.858	50954.79
543.223	50939.2
543.587	51244.73
543.952	51221.45
544.316	51357.72
544.681	51282.92
545.045	51664.15
545.41	51750.25
545.774	51867.53
546.138	51905.95
546.503	52074.99
546.867	52063.69
547.231	52378.93
547.595	52392.27
547.959	52514.52
548.324	52594.07
548.688	52753.84
549.052	52832.93
549.416	52867.96
549.779	53058.69
550.143	53135.75
550.507	53275.63
550.871	53378.91
551.235	53403.09
551.599	53717.66
551.962	53727.15
552.326	53761.95
552.689	53952.9
553.053	53882.85
553.417	54010.3
553.78	54370.07
554.143	54304.31
554.507	54487.13
554.87	54510.85
555.234	54710.85
555.597	54565.99
555.96	54810.28
556.323	54895.93
556.686	54923.5
557.05	55074.23
557.413	55216.37
557.776	55316.48
558.139	55448.68
558.502	55503.37
558.865	55665.85
559.228	55806.41
559.59	55819.3
559.953	55945.62
560.316	56168.66
560.679	56232.62
561.041	56405.27
561.404	56531.37
561.767	56717.8
562.129	56717.58
562.492	57030.11
562.854	57000.51
563.217	57024.46
563.579	57177.68
563.941	57358.01
564.304	57485.47
564.666	57610.89
565.028	57640.26
565.39	57666.48
565.753	57840.26
566.115	57976.75
566.477	58111.21
566.839	58116.64
567.201	58273.69
567.563	58275.28
567.925	58481.37
568.287	58476.63
568.648	58501.48
569.01	58645.89
569.372	58827.35
569.734	58761.36
570.095	58855.6
570.457	58943.96
570.819	59032.54
571.18	59033.22
571.542	59228.7
571.903	59258.3
572.265	59358.64
572.626	59418.07
572.987	59440.67
573.349	59545.07
573.71	59688.8
574.071	59744.39
574.432	59744.16
574.794	59933.76
575.155	59912.75
575.516	59803.82
575.877	59905.97
576.238	60065.51
576.599	60104.15
576.96	60104.38
577.32	60216.02
577.681	60275.22
578.042	60346.63
578.403	60428.89
578.763	60361.55
579.124	60477.7
579.485	60482.22
579.845	60534.43
580.206	60537.82
580.566	60509.34
580.927	60583.24
581.287	60604.03
581.648	60545.05
582.008	60660.75
582.368	60576.46
582.728	60709.11
583.089	60624.37
583.449	60587.98
583.809	60638.38
584.169	60628.21
584.529	60588.21
584.889	60734.42
585.249	60567.19
585.609	60592.73
585.969	60727.64
586.329	60610.13
586.688	60605.61
587.048	60650.81
587.408	60617.36
587.768	60663.69
588.127	60652.61
588.487	60606.06
588.846	60800.86
589.206	60626.63
589.565	60702.33
589.925	60798.83
590.284	60715.44
590.643	60815.77
591.003	60839.5
591.362	60940.74
591.721	60828.2
592.08	60860.74
592.44	60839.95
592.799	60869.78
593.158	60848.32
593.517	60922.89
593.876	60949.56
594.235	60886.28
594.593	60894.19
594.952	61006.05
595.311	60859.16
595.67	60945.26
596.029	61045.82
596.387	61019.61
596.746	61085.82
597.104	60901.42
597.463	60918.82
597.822	61063.68
598.18	60934.87
598.538	60889.9
598.897	61097.8
599.255	60921.31
599.613	61174.86
599.972	60973.51
600.33	61078.37
600.688	61003.34
601.046	61040.63
601.404	61081.76
601.762	61043.79
602.12	61179.15
602.478	61213.73
602.836	61205.82
603.194	61098.25
603.552	61128.99
603.91	61067.52
604.268	61188.65
604.625	61162.43
604.983	61286.5
605.341	61188.19
605.698	61369.43
606.056	61346.83
606.413	61326.49
606.771	61422.99
607.128	61486.49
607.485	61438.36
607.843	61416.44
608.2	61592.93
608.557	61646.71
608.914	61521.07
609.272	61648.97
609.629	61632.25
609.986	61798.57
610.343	61653.27
610.7	61789.53
611.057	61740.04
611.414	61758.35
611.771	61773.04
612.127	61854.39
612.484	61847.16
612.841	61854.62
613.198	61795.64
613.554	61779.82
613.911	61959.92
614.267	61894.62
614.624	61880.83
614.98	61905.46
615.337	62049.41
615.693	61959.02
616.05	61874.05
616.406	62024.78
616.762	61939.59
617.118	61980.94
617.475	61966.48
617.831	62013.03
618.187	62002.86
618.543	62048.74
618.899	62090.54
619.255	62100.03
619.611	62091.45
619.967	62105.68
620.323	62133.03
620.678	62064.33
621.034	62075.85
621.39	62069.98
621.746	62028.4
622.101	62250.76
622.457	62123.54
622.812	62132.58
623.168	62194.49
623.523	62184.78
623.879	62273.59
624.234	62126.7
624.589	62246.24
624.945	62289.41
625.3	62309.97
625.655	62310.65
626.01	62291.67
626.365	62350.2
626.72	62199.01
627.075	62273.81
627.43	62222.06
627.785	62190.43
628.14	62229.52
628.495	62274.72
628.85	62193.82
629.205	62147.04
629.559	62291.22
629.914	62127.38
630.269	62094.16
630.623	62085.12
630.978	62031.34
631.332	62080.15
631.687	62103.42
632.041	61985.01
632.396	62029.3
632.75	61925.35
633.104	61879.93
633.459	61807.16
633.813	61768.52
634.167	61766.71
634.521	61643.77
634.875	61759.7
635.229	61634.51
635.583	61539.37
635.937	61555.19
636.291	61501.18
636.645	61504.34
636.999	61450.11
637.352	61485.36
637.706	61329.21
638.06	61466.15
638.413	61348.19
638.767	61397.23
639.121	61364.01
639.474	61232.26
639.828	61277
640.181	61279.72
640.534	61303.9
640.888	61182.09
641.241	61101.19
641.594	61129.44
641.947	61200.62
642.301	61120.17
642.654	61178.02
643.007	61088.53
643.36	61115.88
643.713	61097.12
644.066	61201.75
644.419	60951.14
644.771	60840.86
645.124	60725.83
645.477	60623.91
645.83	60488.32
646.182	60335.56
646.535	60215.34
646.888	60294.21
647.24	60183.7
647.593	60220.99
647.945	60164.27
648.298	60071.16
648.65	60009.02
649.002	59961.56
649.355	60056.47
649.707	59962.91
650.059	60021.22
650.411	60277.26
650.763	60288.78
651.115	60538.49
651.467	60399.06
651.819	60395.22
652.171	60318.39
652.523	60235.45
652.875	60242.23
653.227	60173.98
653.578	60333.98
653.93	60192.29
654.282	60128.79
654.633	60022.35
654.985	60048.79
655.337	60112.74
655.688	60054.89
656.039	60098.05
656.391	59876.14
656.742	59917.04
657.094	59906.19
657.445	60037.49
657.796	59985.06
658.147	59877.27
658.498	59905.97
658.849	59917.04
659.2	59896.7
659.551	59861.9
659.902	59931.28
660.253	59793.88
660.604	59880.43
660.955	59755.69
661.306	59869.36
661.656	59810.38
662.007	59790.72
662.358	59804.05
662.708	59856.03
663.059	59754.78
663.409	59632.08
663.76	59802.47
664.11	59793.2
664.461	59823.71
664.811	59809.02
665.161	59836.82
665.511	59688.8
665.862	59723.83
666.212	59754.11
666.562	59809.02
666.912	59705.29
667.262	59704.62
667.612	59654
667.962	59628.23
668.312	59589.59
668.662	59703.26
669.011	59620.78
669.361	59578.29
669.711	59525.19
670.06	59419.88
670.41	59291.75
670.76	59351.63
671.109	59395.02
671.459	59297.85
671.808	59246.55
672.157	59374.91
672.507	59165.42
672.856	59081.36
673.205	59207.91
673.554	59235.93
673.904	59139.89
674.253	59207.23
674.602	59118.19
674.951	58760.01
675.3	58587.13
675.649	58948.48
675.998	58939.89
676.346	59008.36
676.695	59024.86
677.044	58833.91
677.393	58903.96
677.741	58911.42
678.09	58878.2
678.438	58820.35
678.787	58884.53
679.135	58795.26
679.484	58670.97
679.832	58792.1
680.181	58715.94
680.529	58755.04
680.877	58652.89
681.225	58665.32
681.573	58770.86
681.922	58539.45
682.27	58532.22
682.618	58614.48
682.966	58460.13
683.314	58595.49
683.661	58475.5
684.009	58318.21
684.357	58315.5
684.705	58321.6
685.053	58342.17
685.4	58254.03
685.748	58077.77
686.095	58108.5
686.443	58022.85
686.79	57949.18
687.138	57992.12
687.485	57982.63
687.832	57947.37
688.18	57879.35
688.527	57796.19
688.874	57713.48
689.221	57631.68
689.568	57598.23
689.915	57398.69
690.262	57470.78
690.609	57367.5
690.956	57259.26
691.303	57262.65
691.65	57060.84
691.997	57030.79
692.344	56786.73
692.69	56819.49
693.037	56795.09
693.383	56607.3
693.73	56727.29
694.077	56440.52
694.423	56486.17
694.769	56391.26
695.116	56247.31
695.462	56245.05
695.808	56102.9
696.155	56156.24
696.501	55942.46
696.847	55951.27
697.193	55754.66
697.539	55853.87
697.885	55688.68
698.231	55536.59
698.577	55611.62
698.923	55497.72
699.269	55380.21
699.614	55257.28
699.96	55194.68
700.306	55281.46
700.651	55188.13
700.997	55103.83
701.342	55014.8
701.688	54963.5
702.033	54862.03
702.379	54820.23
702.724	54780.45
703.069	54885.31
703.415	54566.9
703.76	54578.88
704.105	54609.61
704.45	54486.67
704.795	54289.17
705.14	54331.88
705.485	54269.96
705.83	54169.39
706.175	54169.17
706.52	54069.06
706.865	53910.64
707.209	53907.93
707.554	53813.25
707.899	53947.93
708.243	53766.02
708.588	53642.18
708.932	53421.62
709.277	53501.16
709.621	53349.3
709.966	53120.83
710.31	53159.03
710.654	52997.9
710.998	53102.3
711.342	53081.74
711.687	52965.58
712.031	52719.04
712.375	52570.57
712.719	52666.16
713.063	52515.2
713.407	52641.07
713.75	52337.8
714.094	52262.55
714.438	52205.15
714.782	52208.54
715.125	52067.98
715.469	52046.96
715.812	51768.33
716.156	51735.56
716.499	51709.8
716.843	51664.38
717.186	51471.84
717.53	51583.25
717.873	51510.71
718.216	51449.92
718.559	51244.5
718.902	51058.29
719.246	51138.06
719.589	50967.45
719.932	50810.61
720.275	50909.37
720.617	50728.81
720.96	50746.89
721.303	50709.6
721.646	50658.3
721.989	50332.66
722.331	50530.85
722.674	50409.95
723.016	50475.71
723.359	50403.39
723.701	50494.92
724.044	50241.14
724.386	50115.04
724.729	50237.29
725.071	50025.55
725.413	50014.25
725.755	50040.69
726.097	49866.23
726.439	49735.39
726.782	49767.02
727.124	49899
727.465	49663.98
727.807	49635.05
728.149	49611.1
728.491	49512.12
728.833	49623.3
729.175	49451.1
729.516	49355.06
729.858	49321.16
730.199	49332.91
730.541	49175.18
730.882	49266.25
731.224	49305.57
731.565	49021.73
731.906	49000.04
732.248	49027.61
732.589	48756.43
732.93	48618.13
733.271	48661.52
733.612	48657.22
733.953	48730.22
734.294	48475.53
734.635	48434.86
734.976	48489.32
735.317	48301.75
735.658	48180.63
735.999	48048.2
736.339	47991.25
736.68	48093.4
737.021	47718.04
737.361	47657.02
737.702	47877.58
738.042	47791.94
738.383	47577.03
738.723	47609.12
739.063	47456.8
739.404	47253.64
739.744	47245.06
740.084	46928.68
740.424	47097.26
740.764	46804.39
741.104	46959.19
741.444	46780.89
741.784	46694.79
742.124	46647.11
742.464	46582.93
742.804	46452.54
743.143	46361.24
743.483	46434.68
743.823	46147.68
744.162	46130.96
744.502	46082.83
744.841	45996.5
745.181	46002.38
745.52	45890.29
745.86	45958.76
746.199	45840.35
746.538	45779.56
746.877	45784.98
747.216	45672.9
747.556	45516.52
747.895	45491.88
748.234	45373.92
748.573	45284.66
748.911	45239.69
749.25	45239.91
749.589	45082.18
749.928	45227.48
750.267	45185
750.605	45015.74
750.944	44866.36
751.283	44926.7
751.621	44839.92
751.96	44678.12
752.298	44516.32
752.636	44593.15
752.975	44505.24
753.313	44358.13
753.651	44479.71
753.989	44097.57
754.327	44220.28
754.666	43981.19
755.004	43953.39
755.342	43898.93
755.679	43925.14
756.017	43621.2
756.355	43808.76
756.693	43430.69
757.031	43523.12
757.368	43115.45
757.706	43161.32
758.044	43104.15
758.381	43180.08
758.719	42953.42
759.056	43036.81
759.394	42728.79
759.731	42446.09
760.068	42364.28
760.405	42170.61
760.743	42141.46
761.08	42141.46
761.417	41848.14
761.754	41825.09
762.091	41697.63
762.428	41525.89
762.765	41224.42
763.102	41096.52
763.438	41030.98
763.775	40975.17
764.112	40681.61
764.449	40814.04
764.785	40546.02
765.122	40318.23
765.458	40034.4
765.795	40085.02
766.131	39968.86
766.467	39865.82
766.804	39620.62
767.14	39391.03
767.476	39320.29
767.812	39090.7
768.148	39155.78
768.485	38900.87
768.821	38768.22
769.157	38743.59
769.492	38557.83
769.828	38449.36
770.164	38058.86
770.5	38122.13
770.836	38017.28
771.171	37730.51
771.507	37767.34
771.842	37412.55
772.178	37374.36
772.513	37243.06
772.849	37311.76
773.184	37075.83
773.519	37085.32
773.855	36672.23
774.19	36738.44
774.525	36589.29
774.86	36553.81
775.195	36456.41
775.53	36289.64
775.865	36149.3
776.2	35873.38
776.535	35765.13
776.87	35777.79
777.205	35617.57
777.539	35531.47
777.874	35533.73
778.209	35217.8
778.543	35100.97
778.878	35034.3
779.212	34937.58
779.547	34751.37
779.881	34726.06
780.215	34636.12
780.55	34664.82
780.884	34495.11
781.218	34405.17
781.552	34380.08
781.886	34176.7
782.22	34059.87
782.554	33897.61
782.888	33470.96
783.222	33389.6
783.556	33276.16
783.889	33364.97
784.223	33083.17
784.557	33085.88
784.89	33048.37
785.224	32789.39
785.557	32667.14
785.891	32502.17
786.224	32477.99
786.558	32444.99
786.891	32074.16
787.224	32005.23
787.557	31952.8
787.891	31795.75
788.224	31825.8
788.557	31753.94
788.89	31635.98
789.223	31541.74
789.556	31247.29
789.888	31089.78
790.221	31081.64
790.554	30756
790.887	30821.99
791.219	30810.91
791.552	30503.8
791.884	30429.23
792.217	30243.7
792.549	30158.95
792.882	29878.96
793.214	29885.29
793.546	29803.26
793.879	29568.01
794.211	29438.97
794.543	29445.75
794.875	29261.8
795.207	29383.38
795.539	29034.46
795.871	29020.9
796.203	28731.42
796.535	28706.11
796.867	28697.3
797.198	28443.97
797.53	28597.86
797.862	28336.18
798.193	28355.84
798.525	28043.75
798.856	28016.18
799.188	27751.78
799.519	27686.7
799.85	27526.25
800.182	27698.23
800.513	27611.68
800.844	27251.91
801.175	27572.35
801.506	27502.07
801.837	27173.72
802.168	27157.22
802.499	27017.79
802.83	27014.63
803.161	26843.33
803.491	26871.58
803.822	26903.22
804.153	26652.6
804.483	26581.65
804.814	26450.8
805.145	26505.72
805.475	26459.62
805.805	26468.65
806.136	26267.53
806.466	26303.01
806.796	26296.46
807.126	26258.49
807.457	26026.41
807.787	26019.85
808.117	26047.87
808.447	25924.71
808.777	26050.36
809.107	25866.18
809.436	25844.26
809.766	25749.8
810.096	25642.46
810.426	25504.84
810.755	25558.62
811.085	25588.45
811.414	25520.88
811.744	25289.25
812.073	25242.02
812.403	25322.92
812.732	25093.32
813.061	25131.51
813.39	25090.61
813.719	24875.7
814.049	25076.15
814.378	24846.55
814.707	24811.75
815.036	24715.48
815.365	24558.2
815.693	24338.99
816.022	24477.52
816.351	24306
816.68	24150.52
817.008	24314.13
817.337	24057.42
817.665	24019
817.994	24034.37
818.322	24050.41
818.651	23907.14
818.979	23808.39
819.307	23851.1
819.636	23736.97
819.964	23623.76
820.292	23597.09
820.62	23520.03
820.948	23529.3
821.276	23531.1
821.604	23414.72
821.932	23467.83
822.259	23543.99
822.587	23382.18
822.915	23281.85
823.243	23384.22
823.57	23232.13
823.898	23374.5
824.225	23223.77
824.553	23224.9
824.88	23280.04
825.207	23285.01
825.535	23224.67
825.862	23265.35
826.189	23164.79
826.516	23175.63
826.843	23273.48
827.17	23143.32
827.497	23270.55
827.824	23124.11
828.151	23190.1
828.478	23101.06
828.805	23360.04
829.131	23149.87
829.458	23166.37
829.785	22981.29
830.111	23113.94
830.438	23140.61
830.764	23056.77
831.09	23014.28
831.417	22879.14
831.743	23085.69
832.069	23048.63
832.395	22936.32
832.722	23089.08
833.048	22933.61
833.374	22988.52
833.7	22900.16
834.026	22878.24
834.351	22828.3
834.677	22835.76
835.003	22989.2
835.329	22957.11
835.654	22885.92
835.98	22742.65
836.306	22916.66
836.631	22792.14
836.956	22873.72
837.282	22852.7
837.607	22767.06
837.932	22687.51
838.258	22685.93
838.583	22726.15
838.908	22611.13
839.233	22771.12
839.558	22723.89
839.883	22638.02
840.208	22547.63
840.533	22562.99
840.858	22576.78
841.182	22533.62
841.507	22587.85
841.832	22436.44
842.156	22395.32
842.481	22328.2
842.805	22325.94
843.13	22267.41
843.454	22245.26
843.778	22135.43
844.103	22089.56
844.427	22018.38
844.751	22154.42
845.075	22047.53
845.399	21933.18
845.723	21807.31
846.047	21903.35
846.371	21715.56
846.695	21658.39
847.019	21485.96
847.343	21372.07
847.666	21329.81
847.99	21161.45
848.313	21218.17
848.637	20956.03
848.96	21082.81
849.284	20876.48
849.607	20852.3
849.931	20699.54
850.254	20631.97
850.577	20521.01
850.9	20298.65
851.223	20301.81
851.546	20123.96
851.869	20133
852.192	20142.94
852.515	20007.58
852.838	19898.88
853.161	19962.61
853.483	19729.17
853.806	19692.56
854.129	19703.86
854.451	19697.76
854.774	19458.67
855.096	19426.13
855.419	19423.19
855.741	19300.93
856.063	19136.42
856.385	19091.67
856.708	19023.2
857.03	19068.17
857.352	19089.41
857.674	18907.72
857.996	18815.97
858.318	18785.47
858.64	18601.97
858.961	18789.99
859.283	18513.84
859.605	18494.4
859.926	18511.8
860.248	18602.65
860.57	18330.56
860.891	18350.22
861.212	18228.64
861.534	18293.28
861.855	18149.55
862.176	18198.36
862.498	18186.61
862.819	18129.44
863.14	18038.14
863.461	18091.7
863.782	17988.2
864.103	17970.35
864.424	17908.43
864.745	17927.18
865.065	17896.68
865.386	17870.69
865.707	17812.38
866.027	17905.04
866.348	17750.69
866.668	17841.08
866.989	17726.51
867.309	17573.75
867.63	17729.68
867.95	17691.26
868.27	17690.81
868.59	17646.97
868.91	17650.81
869.23	17582.11
869.55	17553.18
869.87	17641.99
870.19	17583.69
870.51	17643.12
870.83	17509.57
871.15	17481.32
871.469	17495.1
871.789	17523.35
872.109	17558.61
872.428	17379.4
872.748	17571.26
873.067	17362.68
873.386	17463.47
873.706	17488.33
874.025	17371.04
874.344	17324.71
874.663	17376.24
874.982	17357.48
875.301	17325.39
875.62	17347.99
875.939	17351.83
876.258	17205.85
876.577	17260.99
876.896	17205.4
877.214	17208.56
877.533	17202.46
877.852	17202.91
878.17	17169.69
878.489	17166.53
878.807	17104.61
879.125	17006.76
879.444	17061.44
879.762	16989.13
880.08	17067.55
880.398	16916.36
880.716	16969.02
881.034	16835.24
881.352	16957.94
881.67	16924.5
881.988	16947.55
882.306	16806.76
882.624	16746.65
882.941	16763.37
883.259	16616.94
883.577	16570.38
883.894	16572.42
884.212	16542.14
884.529	16477.73
884.846	16437.96
885.164	16449.03
885.481	16404.96
885.798	16421.69
886.115	16237.28
886.432	16268.02
886.75	16204.29
887.067	16238.64
887.383	16038.19
887.7	16136.95
888.017	16052.21
888.334	16041.81
888.651	15987.8
888.967	15964.75
889.284	15830.97
889.6	15841.82
889.917	15740.57
890.233	15688.82
890.55	15643.63
890.866	15710.75
891.182	15555.27
891.498	15569.96
891.815	15450.41
892.131	15358.44
892.447	15386.01
892.763	15325.44
893.079	15270.98
893.395	15165.45
893.71	15260.36
894.026	15137.43
894.342	15036.41
894.657	14990.09
894.973	14925.23
895.289	14897.43
895.604	14897.89
895.92	14731.79
896.235	14688.85
896.55	14776.31
896.865	14817.89
897.181	14610.21
897.496	14586.71
897.811	14521.4
898.126	14460.61
898.441	14439.59
898.756	14392.59
899.071	14253.61
899.386	14331.12
899.7	14111.24
900.015	14179.49
900.33	14052.26
900.644	14165.7
900.959	14080.05
901.273	13999.15
901.588	13920.74
901.902	13945.37
902.216	13869.44
902.531	13871.92
902.845	13892.71
903.159	13704.92
903.473	13670.35
903.787	13619.95
904.101	13597.58
904.415	13597.35
904.729	13528.88
905.042	13416.79
905.356	13485.72
905.67	13451.14
905.984	13414.08
906.297	13425.38
906.611	13192.39
906.924	13273.97
907.237	13221.09
907.551	13131.83
907.864	13195.78
908.177	13059.06
908.491	13134.77
908.804	12948.56
909.117	12970.7
909.43	12934.09
909.743	12862.46
910.056	12838.73
910.368	12779.07
910.681	12728.22
910.994	12741.33
911.307	12691.16
911.619	12587.66
911.932	12572.97
912.244	12510.6
912.557	12529.13
912.869	12425.18
913.181	12424.05
913.494	12398.74
913.806	12411.17
914.118	12262.02
914.43	12153.1
914.742	12219.54
915.054	12080.56
915.366	12056.15
915.678	12012.09
915.99	11944.97
916.302	11977.28
916.613	11916.95
916.925	11920.34
917.236	11834.01
917.548	11725.54
917.859	11794.01
918.171	11724.41
918.482	11624.3
918.794	11551.76
919.105	11599.21
919.416	11521.48
919.727	11373.46
920.038	11351.99
920.349	11316.74
920.66	11277.19
920.971	11235.38
921.282	11176.63
921.593	11086.46
921.903	11011.66
922.214	11029.74
922.525	10969.4
922.835	10980.7
923.146	10920.81
923.456	10838.1
923.767	10754.04
924.077	10782.29
924.387	10748.62
924.697	10650.09
925.008	10683.08
925.318	10524.21
925.628	10522.41
925.938	10499.81
926.248	10378.46
926.558	10349.08
926.867	10349.3
927.177	10330.32
927.487	10210.55
927.796	10107.05
928.106	10122.42
928.416	10147.73
928.725	10011.69
929.034	10037.9
929.344	9964.68
929.653	9873.61
929.962	9835.42
930.271	9834.74
930.581	9752.48
930.89	9681.07
931.199	9659.15
931.508	9631.58
931.817	9672.49
932.125	9650.79
932.434	9565.82
932.743	9462.32
933.051	9421.64
933.36	9320.86
933.669	9310.69
933.977	9248.54
934.286	9244.47
934.594	9201.76
934.902	9144.36
935.21	9121.31
935.519	9089.22
935.827	9091.48
936.135	8951.37
936.443	8877.93
936.751	8874.99
937.059	8846.74
937.367	8861.43
937.674	8738.73
937.982	8769.46
938.29	8785.28
938.597	8719.06
938.905	8591.84
939.213	8626.19
939.52	8601.55
939.827	8519.3
940.135	8490.37
940.442	8461.22
940.749	8513.87
941.056	8414.44
941.363	8319.53
941.67	8313.43
941.977	8350.49
942.284	8271.62
942.591	8302.35
942.898	8185.75
943.205	8186.42
943.511	8131.51
943.818	8175.58
944.125	8116.82
944.431	8105.07
944.738	8022.13
945.044	7999.31
945.35	7944.17
945.657	7902.81
945.963	7895.58
946.269	7860.78
946.575	7918.86
946.881	7802.7
947.187	7816.72
947.493	7774
947.799	7746.89
948.105	7738.07
948.41	7674.8
948.716	7618.3
949.022	7600.9
949.327	7563.16
949.633	7510.73
949.938	7520.23
950.244	7528.14
950.549	7429.83
950.854	7396.16
951.16	7401.81
951.465	7401.36
951.77	7308.93
952.075	7245.2
952.38	7247.46
952.685	7302.83
952.99	7156.39
953.294	7122.5
953.599	7176.28
953.904	7124.3
954.209	7070.97
954.513	7134.7
954.818	7004.76
955.122	7056.06
955.426	6969.28
955.731	6939
956.035	6886.8
956.339	6880.02
956.643	6901.03
956.948	6768.16
957.252	6830.3
957.556	6810.64
957.86	6718.44
958.163	6741.72
958.467	6682.96
958.771	6667.37
959.075	6663.3
959.378	6571.55
959.682	6581.95
959.985	6564.32
960.289	6516.18
960.592	6516.18
960.896	6449.75
961.199	6438.45
961.502	6352.8
961.805	6316.87
962.108	6334.04
962.411	6337.88
962.714	6264.21
963.017	6201.39
963.32	6230.99
963.623	6208.17
963.926	6161.39
964.228	6145.57
964.531	6117.55
964.833	6061.51
965.136	5994.39
965.438	5984.67
965.741	5994.84
966.043	5938.35
966.345	5929.53
966.648	5913.71
966.95	5883.21
967.252	5833.94
967.554	5768.86
967.856	5784.45
968.158	5692.48
968.46	5693.61
968.761	5737.45
969.063	5695.42
969.365	5651.35
969.666	5644.57
969.968	5556.44
970.269	5535.87
970.571	5553.27
970.872	5543.55
971.174	5487.74
971.475	5487.96
971.776	5432.6
972.077	5408.87
972.378	5424.46
972.679	5339.27
972.98	5326.61
973.281	5336.78
973.582	5282.77
973.883	5251.36
974.183	5226.95
974.484	5186.73
974.785	5209.55
975.085	5165.03
975.386	5176.11
975.686	5099.95
975.986	5098.14
976.287	5087.75
976.587	4981.99
976.887	5014.53
977.187	5027.41
977.487	4981.08
977.787	4946.28
978.087	4932.27
978.387	4903.35
978.687	4921.88
978.987	4836.91
979.286	4859.05
979.586	4890.46
979.885	4805.04
980.185	4760.75
980.484	4707.19
980.784	4729.11
981.083	4731.15
981.382	4699.06
981.682	4662.67
981.981	4614.09
982.28	4633.07
982.579	4567.76
982.878	4594.65
983.177	4525.73
983.475	4546.97
983.774	4520.98
984.073	4461.55
984.372	4446.63
984.67	4426.52
984.969	4434.43
985.267	4440.76
985.566	4405.96
985.864	4358.05
986.162	4376.81
986.461	4332.51
986.759	4306.75
987.057	4325.28
987.355	4287.09
987.653	4278.73
987.951	4262.23
988.249	4223.36
988.547	4225.17
988.844	4148.79
989.142	4159.64
989.44	4159.18
989.737	4152.63
990.035	4116.7
990.332	4108.56
990.63	4084.61
990.927	4071.5
991.224	4020.88
991.521	4043.93
991.819	4047.1
992.116	4033.76
992.413	4009.13
992.71	3960.55
993.006	3970.49
993.303	3935.24
993.6	3931.85
993.897	3959.19
994.193	3902.02
994.49	3863.37
994.787	3843.71
995.083	3815.92
995.379	3780.89
995.676	3800.78
995.972	3804.39
996.268	3776.6
996.565	3746.99
996.861	3708.12
997.157	3713.32
997.453	3685.52
997.749	3650.27
998.044	3619.99
998.34	3616.83
998.636	3598.52
998.932	3592.87
999.227	3559.65
999.523	3525.53
999.818	3509.94
1000.114	3523.49
1000.409	3501.12
1000.704	3507.22
1001	3457.06
1001.295	3404.63
1001.59	3428.13
1001.885	3434.46
1002.18	3348.81
1002.475	3358.98
1002.77	3338.64
1003.065	3328.02
1003.359	3279.66
1003.654	3303.16
1003.949	3234.46
1004.243	3249.83
1004.538	3223.39
1004.832	3183.84
1005.127	3241.92
1005.421	3161.7
1005.715	3134.8
1006.009	3151.98
1006.304	3107.69
1006.598	3086.67
1006.892	3096.16
1007.186	3048.71
1007.48	3052.77
1007.773	3038.08
1008.067	2959.67
1008.361	2983.17
1008.655	2941.36
1008.948	2960.57
1009.242	2947.46
1009.535	2903.17
1009.829	2885.77
1010.122	2893.45
1010.415	2870.18
1010.708	2820.91
1011.001	2793.57
1011.295	2786.11
1011.588	2759.67
1011.881	2768.71
1012.173	2700.47
1012.466	2715.61
1012.759	2690.97
1013.052	2709.51
1013.344	2652.11
1013.637	2689.17
1013.93	2633.35
1014.222	2623.18
1014.514	2577.31
1014.807	2584.54
1015.099	2556.51
1015.391	2552.9
1015.683	2526.23
1015.976	2502.05
1016.268	2475.39
1016.56	2475.39
1016.851	2441.26
1017.143	2463.18
1017.435	2449.4
1017.727	2414.15
1018.018	2446.46
1018.31	2389.29
1018.602	2351.1
1018.893	2338.44
1019.185	2349.51
1019.476	2342.74
1019.767	2286.01
1020.058	2297.54
1020.35	2238.56
1020.641	2237.88
1020.932	2197.43
1021.223	2192.23
1021.514	2169.41
1021.804	2150.2
1022.095	2148.84
1022.386	2140.03
1022.677	2112.91
1022.967	2143.19
1023.258	2087.6
1023.548	2105.45
1023.839	2065.91
1024.129	2125.34
1024.419	2014.61
1024.709	2050.77
1025	2018.9
1025.29	2014.61
1025.58	1989.3
1025.87	1953.82
1026.16	1949.98
1026.449	1948.62
1026.739	1910.88
1027.029	1957.43
1027.319	1912.24
1027.608	1890.54
1027.898	1848.06
1028.187	1864.78
1028.477	1868.17
1028.766	1826.59
1029.055	1817.78
1029.344	1809.19
1029.634	1827.04
1029.923	1792.92
1030.212	1766.03
1030.501	1764.45
1030.79	1740.26
1031.078	1711.57
1031.367	1716.99
1031.656	1710.44
1031.945	1695.07
1032.233	1684.22
1032.522	1646.26
1032.81	1660.72
1033.099	1618.69
1033.387	1657.78
1033.675	1591.79
1033.963	1617.78
1034.251	1592.47
1034.54	1601.06
1034.828	1564.68
1035.116	1569.2
1035.403	1540.5
1035.691	1541.63
1035.979	1559.03
1036.267	1516.09
1036.554	1495.98
1036.842	1477.45
1037.129	1481.51
1037.417	1484.23
1037.704	1460.95
1037.992	1443.32
1038.279	1439.03
1038.566	1450.78
1038.853	1450.78
1039.14	1450.78
