Data from aluminium_macbook_case_FLMS001491_008.txt Node
Date: Tue Feb 07 10:43:07 GMT 2017
User: dcchb
Spectrometer: FLMS00149
Trigger mode: 0
Integration Time (sec): 2.000000E-2
Scans to average: 10
Electric dark correction enabled: true
Nonlinearity correction enabled: false
Boxcar width: 0
XAxis mode: Wavelengths
Number of Pixels in Spectrum: 2048
>>>>>Begin Spectral Data<<<<<
341.393	2.64
341.776	2.64
342.16	2.64
342.543	-57.24
342.927	-61.54
343.31	-83.01
343.693	-54.76
344.077	-45.27
344.46	-64.48
344.843	-52.95
345.226	-37.81
345.61	-31.03
345.993	-16.12
346.376	-11.6
346.759	5.35
347.142	16.2
347.525	39.7
347.908	44.45
348.291	74.28
348.674	93.03
349.057	123.99
349.44	137.78
349.823	146.14
350.206	170.77
350.588	253.71
350.971	267.49
351.354	265.01
351.737	288.96
352.119	290.09
352.502	302.97
352.884	335.51
353.267	345.91
353.65	334.38
354.032	351.33
354.414	356.98
354.797	349.07
355.179	379.13
355.562	393.59
355.944	374.61
356.326	381.84
356.709	410.77
357.091	394.27
357.473	407.83
357.855	415.29
358.238	396.76
358.62	441.5
359.002	420.26
359.384	432.01
359.766	432.91
360.148	420.48
360.53	424.1
360.912	418.68
361.294	422.74
361.676	416.64
362.057	432.46
362.439	436.3
362.821	441.05
363.203	439.24
363.584	425.68
363.966	435.4
364.348	415.29
364.729	424.1
365.111	412.8
365.493	412.12
365.874	418.45
366.256	427.26
366.637	439.24
367.019	413.03
367.4	433.14
367.781	417.77
368.163	447.15
368.544	425.23
368.925	439.24
369.306	446.92
369.688	448.05
370.069	452.35
370.45	446.47
370.831	453.48
371.212	461.16
371.593	438.11
371.974	453.7
372.355	465.45
372.736	456.64
373.117	459.13
373.498	469.3
373.879	478.33
374.26	470.88
374.641	435.85
375.021	481.5
375.402	498.67
375.783	481.05
376.163	512.46
376.544	530.08
376.925	539.58
377.305	501.61
377.686	507.94
378.066	519.69
378.447	523.53
378.827	528.96
379.208	547.94
379.588	557.2
379.968	567.15
380.349	536.41
380.729	557.65
381.109	541.16
381.489	574.15
381.87	602.85
382.25	583.64
382.63	602.63
383.01	585.45
383.39	622.96
383.77	611.44
384.15	592.68
384.53	619.12
384.91	634.94
385.29	652.12
385.67	659.57
386.049	668.61
386.429	668.61
386.809	656.64
387.189	659.8
387.568	660.7
387.948	698.22
388.328	677.88
388.707	671.1
389.087	699.8
389.466	731.21
389.846	723.07
390.225	730.53
390.605	717.42
390.984	752.23
391.363	782.28
391.743	796.97
392.122	811.66
392.501	792.45
392.881	824.31
393.26	803.3
393.639	842.39
394.018	842.39
394.397	855.95
394.776	883.07
395.155	868.16
395.534	895.73
395.913	881.26
396.292	880.13
396.671	902.73
397.05	917.19
397.429	918.78
397.808	914.93
398.186	923.97
398.565	950.64
398.944	971.2
399.323	982.5
399.701	972.56
400.08	987.25
400.458	1002.84
400.837	1037.19
401.215	1045.78
401.594	1006.91
401.972	1055.27
402.351	1065.44
402.729	1073.8
403.107	1094.36
403.486	1116.06
403.864	1098.43
404.242	1133.23
404.62	1128.49
404.999	1152.89
405.377	1206.23
405.755	1175.94
406.133	1196.06
406.511	1193.8
406.889	1243.29
407.267	1250.52
407.645	1296.17
408.023	1297.52
408.401	1334.58
408.779	1326.67
409.156	1360.12
409.534	1358.09
409.912	1367.8
410.29	1429.27
410.667	1452.55
411.045	1455.48
411.422	1490.06
411.8	1465.88
412.178	1525.31
412.555	1562.6
412.933	1552.88
413.31	1594.46
413.687	1614.8
414.065	1606.89
414.442	1634.69
414.819	1665.87
415.197	1690.51
415.574	1709.71
415.951	1741.35
416.328	1732.09
416.705	1790.84
417.082	1789.26
417.46	1792.88
417.837	1831.07
418.214	1834.23
418.591	1859.09
418.967	1888.47
419.344	1905.64
419.721	1941.57
420.098	1932.99
420.475	1955.58
420.852	1995.36
421.228	1998.07
421.605	2024.06
421.982	2064.51
422.358	2068.58
422.735	2118.97
423.111	2092.76
423.488	2163.71
423.864	2162.36
424.241	2217.5
424.617	2236.93
424.994	2281
425.37	2273.54
425.746	2312.64
426.123	2337.72
426.499	2351.51
426.875	2396.7
427.251	2445.29
427.627	2479.64
428.003	2491.16
428.379	2554.89
428.756	2558.96
429.132	2610.71
429.507	2644.15
429.883	2676.92
430.259	2754.43
430.635	2763.92
431.011	2779.29
431.387	2836.92
431.763	2920.08
432.138	2900.87
432.514	2981.32
432.89	2989.91
433.265	3069.23
433.641	3111.49
434.016	3184.93
434.392	3202.11
434.767	3255.44
435.143	3227.64
435.518	3274.19
435.894	3340.41
436.269	3415.21
436.644	3404.59
437.02	3413.17
437.395	3481.42
437.77	3548.31
438.145	3617.69
438.52	3678.25
438.895	3688.65
439.271	3653.17
439.646	3770.68
440.021	3802.77
440.395	3867.17
440.77	3790.56
441.145	3862.88
441.52	3960.05
441.895	3946.72
442.27	3961.41
442.645	3998.69
443.019	4067.17
443.394	4057.68
443.769	4112.36
444.143	4019.03
444.518	4206.6
444.892	4153.04
445.267	4218.8
445.641	4228.07
446.016	4294.73
446.39	4333.37
446.764	4361.4
447.139	4356.88
447.513	4449.98
447.887	4475.29
448.262	4515.97
448.636	4512.35
449.01	4600.26
449.384	4680.71
449.758	4604.55
450.132	4772.69
450.506	4769.75
450.88	4842.29
451.254	4783.53
451.628	4893.13
452.002	4957.09
452.376	4995.5
452.75	5056.52
453.123	5077.54
453.497	5185.1
453.871	5167.25
454.244	5356.17
454.618	5365.21
454.992	5494.7
455.365	5486.79
455.739	5618.99
456.112	5688.14
456.486	5740.12
456.859	5808.36
457.232	5950.51
457.606	5895.82
457.979	6004.97
458.352	6171.52
458.725	6173.1
459.099	6229.14
459.472	6412.64
459.845	6496.26
460.218	6498.06
460.591	6522.92
460.964	6602.24
461.337	6834.55
461.71	6896.02
462.083	7006.98
462.456	6985.06
462.829	7048.33
463.201	7135.56
463.574	7199.97
463.947	7301.88
464.32	7511.82
464.692	7511.6
465.065	7622.1
465.438	7642.21
465.81	7907.52
466.183	7986.39
466.555	8134.63
466.928	8206.72
467.3	8195.19
467.672	8359.48
468.045	8551.79
468.417	8586.6
468.789	8733.03
469.161	8863.88
469.534	8997.66
469.906	9147.26
470.278	9257.09
470.65	9370.76
471.022	9534.37
471.394	9690.97
471.766	9785.43
472.138	9889.16
472.51	10108.59
472.882	10306.1
473.253	10422.71
473.625	10570.5
473.997	10775.47
474.369	10839.64
474.74	10982.24
475.112	11149.24
475.484	11384.71
475.855	11577.03
476.227	11735.21
476.598	12077.58
476.97	12281.64
477.341	12518.92
477.713	12707.39
478.084	12760.27
478.455	13202.97
478.827	13294.95
479.198	13650.64
479.569	13685.22
479.94	14136.51
480.311	14252.44
480.682	14632.99
481.053	14857.17
481.424	15125.86
481.795	15294.22
482.166	15538.05
482.537	15693.98
482.908	16050.35
483.279	16254.19
483.65	16464.81
484.021	16834.06
484.391	17017.79
484.762	17137.78
485.133	17304.11
485.503	17611.44
485.874	18046.01
486.244	18185.44
486.615	18513.79
486.985	18752.66
487.356	19149.93
487.726	19409.36
488.097	19834.66
488.467	19736.81
488.837	20326.4
489.207	20624.47
489.578	20829.21
489.948	21101.97
490.318	21388.29
490.688	21439.59
491.058	21840.94
491.428	22171.55
491.798	22397.53
492.168	22783.74
492.538	22843.17
492.908	23098.31
493.278	23454.91
493.648	23398.64
494.017	23792.3
494.387	23818.29
494.757	24007.89
495.126	24417.82
495.496	24412.62
495.866	24663.69
496.235	24866.39
496.605	25225.03
496.974	25291.69
497.344	25503.44
497.713	25779.82
498.082	26005.35
498.452	26368.28
498.821	26496.41
499.19	26573.02
499.559	26934.59
499.928	27168.03
500.298	27333.22
500.667	27659.09
501.036	27525.08
501.405	27880.55
501.774	28077.16
502.143	28351.73
502.512	28403.02
502.88	28596.47
503.249	28711.26
503.618	29013.63
503.987	29109.45
504.356	29126.85
504.724	29451.36
505.093	29589.21
505.462	29568.87
505.83	29832.37
506.199	30072.13
506.567	30484.1
506.936	30505.34
507.304	30892
507.672	31111.2
508.041	31214.7
508.409	31464.19
508.777	31936.04
509.145	32053.55
509.514	32072.08
509.882	32501
510.25	32596.36
510.618	32975.11
510.986	33005.39
511.354	33338.26
511.722	33632.27
512.09	34006.04
512.458	34017.11
512.826	34441.06
513.193	34568.51
513.561	34627.04
513.929	35000.37
514.297	35318.32
514.664	35454.14
515.032	35678.77
515.4	35903.84
515.767	36027.46
516.135	36307.22
516.502	36153.33
516.869	36900.43
517.237	36964.16
517.604	36859.3
517.972	37285.95
518.339	37625.83
518.706	37636.23
519.073	37906.96
519.44	38181.52
519.808	38730.44
520.175	38611.57
520.542	39073.93
520.909	39547.36
521.276	39573.58
521.643	40055.37
522.009	40349.15
522.376	40622.36
522.743	40851.51
523.11	41455.34
523.477	41849.22
523.843	42100.97
524.21	42457.57
524.577	42638.13
524.943	42917.67
525.31	43161.28
525.676	43550.2
526.043	43834.93
526.409	43975.95
526.776	44393.11
527.142	44519.21
527.508	44710.17
527.874	44987.45
528.241	45330.49
528.607	45478.06
528.973	45732.51
529.339	45801.66
529.705	46040.75
530.071	46331.14
530.437	46476
530.803	46563.22
531.169	46981.74
531.535	47002.08
531.901	47200.95
532.267	47346.93
532.632	47738.34
532.998	47823.98
533.364	48116.86
533.73	48267.36
534.095	48705.54
534.461	48808.14
534.826	49095.36
535.192	49222.36
535.557	49502.36
535.923	49528.8
536.288	49829.35
536.653	49936.47
537.019	49981.89
537.384	50200.19
537.749	50356.8
538.114	50300.98
538.479	50447.64
538.845	50757.69
539.21	50670.24
539.575	50883.79
539.94	51009.89
540.305	51182.99
540.67	51077.23
541.034	51153.39
541.399	51343.66
541.764	51414.62
542.129	51585.92
542.494	51544.79
542.858	51694.16
543.223	51792.01
543.587	51940.94
543.952	51928.28
544.316	52074.27
544.681	51988.17
545.045	52244.43
545.41	52357.42
545.774	52415.95
546.138	52561.03
546.503	52692.78
546.867	52715.61
547.231	53023.85
547.595	53063.62
547.959	53288.7
548.324	53316.04
548.688	53462.25
549.052	53632.87
549.416	53632.42
549.779	53792.87
550.143	53853.65
550.507	54083.25
550.871	54183.82
551.235	54200.31
551.599	54511.94
551.962	54499.06
552.326	54609.57
552.689	54738.38
553.053	54663.8
553.417	54814.31
553.78	55096.33
554.143	55015.88
554.507	55161.19
554.87	55177.46
555.234	55429.66
555.597	55381.52
555.96	55390.79
556.323	55508.07
556.686	55528.19
557.05	55738.58
557.413	55769.08
557.776	55814.96
558.139	56005.69
558.502	55992.13
558.865	56108.96
559.228	56281.16
559.59	56440.03
559.953	56484.77
560.316	56807.48
560.679	56812.22
561.041	57045.66
561.404	57114.13
561.767	57302.15
562.129	57302.15
562.492	57589.38
562.854	57553.67
563.217	57614.23
563.579	57801.35
563.941	57916.37
564.304	58038.18
564.666	58227.1
565.028	58271.84
565.39	58360.88
565.753	58507.32
566.115	58643.13
566.477	58728.33
566.839	58736.01
567.201	59018.04
567.563	58940.98
567.925	59079.51
568.287	59143.69
568.648	59159.96
569.01	59317.01
569.372	59388.65
569.734	59309.33
570.095	59518.36
570.457	59520.62
570.819	59583.45
571.18	59573.96
571.542	59674.07
571.903	59783.22
572.265	59779.37
572.626	59853.95
572.987	59865.47
573.349	59941.18
573.71	60041.51
574.071	60069.76
574.432	60160.38
574.794	60332.58
575.155	60302.07
575.516	60223.43
575.877	60438.34
576.238	60462.29
576.599	60627.49
576.96	60594.95
577.32	60689.63
577.681	60815.51
578.042	60834.94
578.403	60884.88
578.763	60914.94
579.124	60957.2
579.485	61029.74
579.845	61125.78
580.206	61122.84
580.566	61124.88
580.927	61202.61
581.287	61194.48
581.648	61136.17
582.008	61304.31
582.368	61236.06
582.728	61329.62
583.089	61253.69
583.449	61256.62
583.809	61220.24
584.169	61238.09
584.529	61155.16
584.889	61344.76
585.249	61209.39
585.609	61150.19
585.969	61197.64
586.329	61102.28
586.688	61151.09
587.048	61166.68
587.408	61131.88
587.768	61095.27
588.127	61036.97
588.487	60974.15
588.846	61265.89
589.206	61022.51
589.565	61108.15
589.925	61142.5
590.284	61108.61
590.643	61127.59
591.003	61225.66
591.362	61295.04
591.721	61310.18
592.08	61253.91
592.44	61350.63
592.799	61383.17
593.158	61353.34
593.517	61364.42
593.876	61397.64
594.235	61410.97
594.593	61427.24
594.952	61478.09
595.311	61464.08
595.67	61568.48
596.029	61709.27
596.387	61617.52
596.746	61663.84
597.104	61571.42
597.463	61548.59
597.822	61685.77
598.18	61590.17
598.538	61588.14
598.897	61678.08
599.255	61514.7
599.613	61843.95
599.972	61611.42
600.33	61654.13
600.688	61578.88
601.046	61670.85
601.404	61639.89
601.762	61722.37
602.12	61726.67
602.478	61700.23
602.836	61734.13
603.194	61628.14
603.552	61617.74
603.91	61543.17
604.268	61651.19
604.625	61584.52
604.983	61671.3
605.341	61571.19
605.698	61682.83
606.056	61726.22
606.413	61638.99
606.771	61785.65
607.128	61807.8
607.485	61746.78
607.843	61799.89
608.2	61958.53
608.557	62027.68
608.914	62001.01
609.272	62076.04
609.629	62103.61
609.986	62186.32
610.343	62127.56
610.7	62367.78
611.057	62254.79
611.414	62264.05
611.771	62316.93
612.127	62429.25
612.484	62455.24
612.841	62495.91
613.198	62437.84
613.554	62482.81
613.911	62545.63
614.267	62533.65
614.624	62484.61
614.98	62540.21
615.337	62628.34
615.693	62536.59
616.05	62532.97
616.406	62697.49
616.762	62563.03
617.118	62574.78
617.475	62475.35
617.831	62531.39
618.187	62605.06
618.543	62614.78
618.899	62671.73
619.255	62569.81
619.611	62577.72
619.967	62691.39
620.323	62665.63
620.678	62610.03
621.034	62471.73
621.39	62517.83
621.746	62466.31
622.101	62679.19
622.457	62470.38
622.812	62583.37
623.168	62604.84
623.523	62610.03
623.879	62690.94
624.234	62501.11
624.589	62541.56
624.945	62626.08
625.3	62713.76
625.655	62713.08
626.01	62749.24
626.365	62693.42
626.72	62705.17
627.075	62666.53
627.43	62696.81
627.785	62617.04
628.14	62675.57
628.495	62762.12
628.85	62731.16
629.205	62680.09
629.559	62851.84
629.914	62703.59
630.269	62735.23
630.623	62635.34
630.978	62531.17
631.332	62719.86
631.687	62757.38
632.041	62653.2
632.396	62690.26
632.75	62496.82
633.104	62573.2
633.459	62469.25
633.813	62387.44
634.167	62352.87
634.521	62381.57
634.875	62397.61
635.229	62295.24
635.583	62216.82
635.937	62241.68
636.291	62177.73
636.645	62147
636.999	62047.79
637.352	62099.99
637.706	61909.49
638.06	61999.88
638.413	61886.44
638.767	61839.21
639.121	61895.03
639.474	61743.62
639.828	61751.3
640.181	61708.14
640.534	61701.81
640.888	61593.56
641.241	61489.16
641.594	61544.75
641.947	61603.28
642.301	61530.29
642.654	61592.89
643.007	61530.51
643.36	61568.93
643.713	61576.84
644.066	61578.65
644.419	61442.83
644.771	61302.95
645.124	61096.85
645.477	61111.99
645.83	60910.64
646.182	60895.96
646.535	60831.78
646.888	60759.69
647.24	60683.76
647.593	60830.42
647.945	60822.74
648.298	60744.55
648.65	60703.64
649.002	60626.58
649.355	60715.62
649.707	60680.82
650.059	60698.67
650.411	60985.9
650.763	61018.21
651.115	61225.44
651.467	61147.25
651.819	61087.59
652.171	60992.9
652.523	60979.34
652.875	60935.5
653.227	60867.26
653.578	61036.74
653.93	60878.33
654.282	60753.81
654.633	60682.4
654.985	60718.78
655.337	60735.28
655.688	60655.96
656.039	60693.47
656.391	60427.27
656.742	60442.41
657.094	60415.74
657.445	60525.8
657.796	60372.58
658.147	60413.03
658.498	60335.97
658.849	60429.98
659.2	60302.75
659.551	60252.81
659.902	60324.67
660.253	60293.94
660.604	60285.35
660.955	60234.5
661.306	60286.48
661.656	60249.19
662.007	60237.67
662.358	60227.27
662.708	60319.02
663.059	60198.8
663.409	60095.98
663.76	60340.26
664.11	60258.68
664.461	60261.85
664.811	60337.78
665.161	60237.22
665.511	60231.11
665.862	60212.81
666.212	60317.21
666.562	60331.68
666.912	60267.05
667.262	60218.68
667.612	60250.77
667.962	60310.21
668.312	60151.34
668.662	60317.89
669.011	60258.68
669.361	60248.06
669.711	60208.74
670.06	60203.32
670.41	60154.73
670.76	60165.81
671.109	60133.49
671.459	60110.21
671.808	60075.19
672.157	60089.42
672.507	59923.33
672.856	59887.62
673.205	59959.26
673.554	60017.79
673.904	59877.45
674.253	59959.93
674.602	59851.69
674.951	59504.13
675.3	59337.8
675.649	59717.68
675.998	59646.95
676.346	59624.58
676.695	59715.65
677.044	59496.44
677.393	59503
677.741	59549.55
678.09	59498.93
678.438	59337.35
678.787	59399.05
679.135	59355.2
679.484	59213.74
679.832	59267.52
680.181	59102.56
680.529	59202.21
680.877	59047.64
681.225	59038.15
681.573	59214.19
681.922	59085.38
682.27	58964.71
682.618	58989.79
682.966	58917.7
683.314	58940.3
683.661	58839.74
684.009	58796.12
684.357	58850.36
684.705	58780.53
685.053	58793.64
685.4	58725.16
685.748	58599.97
686.095	58624.83
686.443	58503.48
686.79	58527.43
687.138	58637.48
687.485	58503.48
687.832	58497.15
688.18	58541.67
688.527	58393.87
688.874	58317.49
689.221	58285.85
689.568	58280.88
689.915	58166.08
690.262	58231.62
690.609	58117.95
690.956	58046.09
691.303	57970.61
691.65	57825.98
691.997	57894.23
692.344	57729.26
692.69	57714.12
693.037	57653.78
693.383	57433.45
693.73	57543.73
694.077	57287.46
694.423	57390.96
694.769	57259.67
695.116	57153.45
695.462	57124.08
695.808	56959.11
696.155	57014.48
696.501	56747.82
696.847	56786.91
697.193	56569.97
697.539	56617.42
697.885	56438.9
698.231	56299.47
698.577	56297.21
698.923	56187.83
699.269	56001.39
699.614	56007.27
699.96	55909.65
700.306	55909.42
700.651	55785.36
700.997	55650.9
701.342	55567.06
701.688	55510.33
702.033	55353.28
702.379	55307.85
702.724	55294.75
703.069	55343.56
703.415	55051.82
703.76	55061.08
704.105	54994.64
704.45	54821.31
704.795	54729.34
705.14	54752.84
705.485	54679.85
705.83	54618.61
706.175	54608.66
706.52	54543.58
706.865	54427.42
707.209	54385.84
707.554	54326.64
707.899	54419.29
708.243	54318.73
708.588	54189.24
708.932	54078.51
709.277	54036.93
709.621	54093.42
709.966	53938.4
710.31	53964.84
710.654	53655.02
710.998	53782.47
711.342	53826.99
711.687	53696.82
712.031	53565.3
712.375	53485.75
712.719	53579.76
713.063	53509.71
713.407	53653.43
713.75	53385.42
714.094	53297.51
714.438	53186.1
714.782	53274.23
715.125	53113.79
715.469	53048.7
715.812	52973.9
716.156	52811.42
716.499	52747.24
716.843	52813.46
717.186	52516.29
717.53	52723.29
717.873	52547.25
718.216	52484.65
718.559	52432.22
718.902	52013.7
719.246	52094.83
719.589	52041.05
719.932	51874.95
720.275	51855.06
720.617	51827.04
720.96	51600.15
721.303	51625.01
721.646	51610.32
721.989	51311.8
722.331	51401.74
722.674	51290.78
723.016	51301.41
723.359	51131.69
723.701	51186.15
724.044	50895.54
724.386	50637.02
724.729	50847.18
725.071	50632.95
725.413	50710.23
725.755	50656.9
726.097	50524.48
726.439	50388.21
726.782	50324.48
727.124	50464.59
727.465	50279.06
727.807	50125.62
728.149	50047.43
728.491	50001.55
728.833	50009.24
729.175	50003.59
729.516	49987.54
729.858	49872.74
730.199	49930.59
730.541	49748.9
730.882	49711.16
731.224	49753.2
731.565	49556.37
731.906	49599.53
732.248	49652.18
732.589	49348.01
732.93	49358.41
733.271	49549.14
733.612	49450.15
733.953	49536.71
734.294	49336.94
734.635	49318.86
734.976	49268.24
735.317	49180.33
735.658	49166.77
735.999	49146.43
736.339	49171.07
736.68	49272.53
737.021	49037.96
737.361	48879.32
737.702	49056.72
738.042	48862.6
738.383	48947.34
738.723	48712.32
739.063	48799.32
739.404	48787.57
739.744	48536.96
740.084	48326.12
740.424	48355.27
740.764	48170.64
741.104	48331.09
741.444	48055.61
741.784	48067.82
742.124	48040.7
742.464	47823.53
742.804	47789.41
743.143	47623.54
743.483	47557.1
743.823	47367.27
744.162	47328.18
744.502	47390.1
744.841	47133.61
745.181	47236.65
745.52	46957.56
745.86	46985.81
746.199	46824.23
746.538	46804.35
746.877	46767.06
747.216	46597.8
747.556	46465.83
747.895	46465.15
748.234	46268.09
748.573	46140.41
748.911	46097.47
749.25	46030.81
749.589	45712.17
749.928	45902.9
750.267	45819.06
750.605	45663.59
750.944	45654.32
751.283	45454.78
751.621	45509.69
751.96	45227.67
752.298	45163.26
752.636	45226.31
752.975	45050.27
753.313	44782.71
753.651	44989.93
753.989	44840.56
754.327	44630.39
754.666	44488.48
755.004	44647.57
755.342	44460
755.679	44377.97
756.017	44244.42
756.355	44342.27
756.693	44225.43
757.031	44285.32
757.368	43960.81
757.706	43858.21
758.044	43718.1
758.381	43849.85
758.719	43756.74
759.056	43655.73
759.394	43559.24
759.731	43359.02
760.068	43180.94
760.405	43149.08
760.743	42879.03
761.08	43142.52
761.417	42967.61
761.754	42917.44
762.091	42755.87
762.428	42677.45
762.765	42417.57
763.102	42527.17
763.438	42378.25
763.775	42006.51
764.112	42121.31
764.449	42107.3
764.785	41910.47
765.122	41755.67
765.458	41486.52
765.795	41500.76
766.131	41375.11
766.467	41121.33
766.804	40872.75
767.14	40874.56
767.476	40765.86
767.812	40630.27
768.148	40545.53
768.485	40272.09
768.821	40100.57
769.157	39971.99
769.492	39796.85
769.828	39772.67
770.164	39347.82
770.5	39320.7
770.836	39244.77
771.171	38940.37
771.507	38836.2
771.842	38579.25
772.178	38531.35
772.513	38529.76
772.849	38188.3
773.184	38039.61
773.519	38018.59
773.855	37785.83
774.19	37668.09
774.525	37468.32
774.86	37403.24
775.195	37266.29
775.53	36997.6
775.865	36922.35
776.2	36714.67
776.535	36312.87
776.87	36332.53
777.205	36142.71
777.539	36079.21
777.874	36157.62
778.209	35797.18
778.543	35794.24
778.878	35362.39
779.212	35464.31
779.547	35201.49
779.881	35306.8
780.215	35015.28
780.55	35245.78
780.884	34989.07
781.218	34742.07
781.552	34827.71
781.886	34679.7
782.22	34528.74
782.554	34289.88
782.888	34023.44
783.222	33908.87
783.556	33762.66
783.889	33658.93
784.223	33587.97
784.557	33610.8
784.89	33699.16
785.224	33341.2
785.557	33180.53
785.891	33276.79
786.224	33049.91
786.558	33059.85
786.891	32838.84
787.224	32583.71
787.557	32570.82
787.891	32618.96
788.224	32582.35
788.557	32594.78
788.89	32416.48
789.223	32440.66
789.556	32077.96
789.888	31964.96
790.221	31869.15
790.554	31628.02
790.887	31773.56
791.219	31521.81
791.552	31460.12
791.884	31342.61
792.217	31278.88
792.549	31125.66
792.882	30940.36
793.214	30979.91
793.546	30923.86
793.879	30648.84
794.211	30506.02
794.543	30611.1
794.875	30486.13
795.207	30394.61
795.539	30266.48
795.871	30091.57
796.203	30000.27
796.535	29697.68
796.867	29725.25
797.198	29653.16
797.53	29618.13
797.862	29347.41
798.193	29386.73
798.525	29217.24
798.856	29122.33
799.188	28865.16
799.519	28612.96
799.85	28586.97
800.182	28461.33
800.513	28576.35
800.844	28191.28
801.175	28309.92
801.506	28299.75
801.837	28062.69
802.168	27976.37
802.499	27871.29
802.83	27716.71
803.161	27657.73
803.491	27529.15
803.822	27482.6
804.153	27333.9
804.483	27205.77
804.814	27023.17
805.145	26989.28
805.475	27022.5
805.805	26821.15
806.136	26927.81
806.466	26859.56
806.796	26709.51
807.126	26603.07
807.457	26490.98
807.787	26560.36
808.117	26338.67
808.447	26244.89
808.777	26286.47
809.107	26092.8
809.436	26044.67
809.766	26112.46
810.096	25919.7
810.426	25905.91
810.755	25770.78
811.085	25791.57
811.414	25782.75
811.744	25446.49
812.073	25492.59
812.403	25476.32
812.732	25246.27
813.061	25380.73
813.39	25283.11
813.719	25193.84
814.049	25327.4
814.378	25162.21
814.707	25113.85
815.036	24983
815.365	25093.28
815.693	24885.15
816.022	24825.27
816.351	24857.35
816.68	24719.96
817.008	24718.6
817.337	24590.7
817.665	24575.78
817.994	24555.89
818.322	24554.76
818.651	24409.23
818.979	24420.08
819.307	24535.33
819.636	24330.36
819.964	24225.51
820.292	24318.39
820.62	24355.9
820.948	24241.78
821.276	24388.21
821.604	24330.59
821.932	24348.44
822.259	24418.04
822.587	24249.24
822.915	24248.56
823.243	24316.8
823.57	24133.76
823.898	24215.34
824.225	24042.01
824.553	24115.68
824.88	24149.58
825.207	24172.63
825.535	24104.15
825.862	24199.97
826.189	24105.51
826.516	24137.83
826.843	24250.59
827.17	24256.01
827.497	24221.89
827.824	24115
828.151	24211.04
828.478	24057.6
828.805	24116.58
829.131	23945.74
829.458	23976.93
829.785	23820.09
830.111	23760.43
830.438	23993.65
830.764	24005.17
831.09	23955.01
831.417	23721.11
831.743	23873.88
832.069	23766.08
832.395	23666.88
832.722	23819.42
833.048	23657.61
833.374	23659.87
833.7	23551.4
834.026	23514.57
834.351	23460.78
834.677	23488.8
835.003	23517.73
835.329	23323.16
835.654	23438.41
835.98	23231.41
836.306	23360.9
836.631	23179.88
836.956	23333.78
837.282	23250.62
837.607	23162.48
837.932	22991.42
838.258	23109.83
838.583	22969.04
838.908	22860.35
839.233	22968.59
839.558	22933.79
839.883	22766.34
840.208	22691.99
840.533	22693.12
840.858	22721.82
841.182	22725.21
841.507	22712.55
841.832	22552.1
842.156	22468.72
842.481	22636.62
842.805	22350.98
843.13	22494.71
843.454	22414.26
843.778	22280.25
844.103	22244.77
844.427	22210.19
844.751	22302.62
845.075	22138.56
845.399	22152.12
845.723	22063.76
846.047	22249.06
846.371	21875.51
846.695	21929.07
847.019	21833.25
847.343	21756.87
847.666	21579.93
847.99	21650.43
848.313	21562.75
848.637	21399.82
848.96	21446.15
849.284	21531.11
849.607	21272.82
849.931	21233.04
850.254	21083.67
850.577	20944.69
850.9	20855.88
851.223	20787.86
851.546	20638.48
851.869	20614.53
852.192	20742.66
852.515	20603.68
852.838	20465.83
853.161	20548.99
853.483	20476
853.806	20414.53
854.129	20384.25
854.451	20253.86
854.774	20327.08
855.096	20199.17
855.419	20092.96
855.741	20049.57
856.063	19997.82
856.385	19881.21
856.708	19721.67
857.03	19775.68
857.352	19705.85
857.674	19525.97
857.996	19617.49
858.318	19448.91
858.64	19542.01
858.961	19463.6
859.283	19400.32
859.605	19319.87
859.926	19213.66
860.248	19194.45
860.57	19137.05
860.891	19112.65
861.212	19022.71
861.534	18945.42
861.855	18976.61
862.176	18914.23
862.498	19012.54
862.819	18948.81
863.14	18742.49
863.461	18764.18
863.782	18612.32
864.103	18617.29
864.424	18489.61
864.745	18490.97
865.065	18475.6
865.386	18362.38
865.707	18361.93
866.027	18377.75
866.348	18281.03
866.668	18351.54
866.989	18300.24
867.309	18031.55
867.63	18163.97
867.95	18118.32
868.27	18016.4
868.59	18067.02
868.91	18000.59
869.23	17972.11
869.55	17902.28
869.87	17921.72
870.19	17898.44
870.51	17921.72
870.83	17748.62
871.15	17755.17
871.469	17793.81
871.789	17717.88
872.109	17801.95
872.428	17608.51
872.748	17736.41
873.067	17703.42
873.386	17746.58
873.706	17520.6
874.025	17404.22
874.344	17533.25
874.663	17625.45
874.982	17460.26
875.301	17508.17
875.62	17460.71
875.939	17407.83
876.258	17407.16
876.577	17317.44
876.896	17335.07
877.214	17297.33
877.533	17246.71
877.852	17385.01
878.17	17410.32
878.489	17319.47
878.807	17312.24
879.125	17300.27
879.444	17149.08
879.762	17209.19
880.08	17160.38
880.398	17147.5
880.716	17105.47
881.034	17083.55
881.352	17054.17
881.67	17096.65
881.988	17104.79
882.306	17050.33
882.624	17054.4
882.941	16921.29
883.259	17020.05
883.577	16881.07
883.894	16869.77
884.212	16850.79
884.529	16792.71
884.846	16812.14
885.164	16822.31
885.481	16741.41
885.798	16808.3
886.115	16634.52
886.432	16654.18
886.75	16661.41
887.067	16681.52
887.383	16482.21
887.7	16790.9
888.017	16584.58
888.334	16528.76
888.651	16623.67
888.967	16459.38
889.284	16384.13
889.6	16327.18
889.917	16179.16
890.233	16304.81
890.55	16206.51
890.866	16295.77
891.182	16092.61
891.498	16142.33
891.815	16092.61
892.131	16098.26
892.447	16014.42
892.763	15910.02
893.079	15914.54
893.395	15869.12
893.71	15856.46
894.026	15768.33
894.342	15767.2
894.657	15609.91
894.973	15637.03
895.289	15583.93
895.604	15510.71
895.92	15466.87
896.235	15361.11
896.55	15293.76
896.865	15315.46
897.181	15230.72
897.496	15256.7
897.811	15149.59
898.126	15080.66
898.441	15014.9
898.756	15012.87
899.071	14925.19
899.386	14839.09
899.7	14693.1
900.015	14642.26
900.33	14601.13
900.644	14522.94
900.959	14619.66
901.273	14545.54
901.588	14436.16
901.902	14334.92
902.216	14249.05
902.531	14209.27
902.845	14278.88
903.159	14159.33
903.473	14098.77
903.787	14063.51
904.101	13920.47
904.415	13958.66
904.729	13892.67
905.042	13826.68
905.356	13802.28
905.67	13723.86
905.984	13740.81
906.297	13711.89
906.611	13560.25
906.924	13529.74
907.237	13485.22
907.551	13377.2
907.864	13345.34
908.177	13278.9
908.491	13307.38
908.804	13151.9
909.117	13192.58
909.43	12972.02
909.743	12991.9
910.056	13035.97
910.368	12848.41
910.681	12785.13
910.994	12774.28
911.307	12760.95
911.619	12692.7
911.932	12661.29
912.244	12710.78
912.557	12684.79
912.869	12453.61
913.181	12493.84
913.494	12483.44
913.806	12374.97
914.118	12419.49
914.43	12300.4
914.742	12351.02
915.054	12194.41
915.366	12180.4
915.678	12140.85
915.99	12141.76
916.302	12095.66
916.613	11967.3
916.925	11967.52
917.236	11897.47
917.548	11900.63
917.859	11878.26
918.171	11769.11
918.482	11710.36
918.794	11666.74
919.105	11690.24
919.416	11638.04
919.727	11693.18
920.038	11599.85
920.349	11563.92
920.66	11486.41
920.971	11416.58
921.282	11485.96
921.593	11412.74
921.903	11273.53
922.214	11257.94
922.525	11261.33
922.835	11201.44
923.146	11134.1
923.456	11112.63
923.767	11045.51
924.077	11022.46
924.387	11012.97
924.697	10958.74
925.008	10926.42
925.318	10914.22
925.628	10885.74
925.938	10916.7
926.248	10765.07
926.558	10737.27
926.867	10780.89
927.177	10723.04
927.487	10609.82
927.796	10549.71
928.106	10575.47
928.416	10420.22
928.725	10507.68
929.034	10447.56
929.344	10425.64
929.653	10428.58
929.962	10206.89
930.271	10263.84
930.581	10199.21
930.89	10209.15
931.199	10106.33
931.508	10081.7
931.817	10072.43
932.125	9954.47
932.434	10035.37
932.743	9850.07
933.051	9847.13
933.36	9821.14
933.669	9735.72
933.977	9664.53
934.286	9717.87
934.594	9686.45
934.902	9498.44
935.21	9525.1
935.519	9523.97
935.827	9494.14
936.135	9415.5
936.443	9309.29
936.751	9326.24
937.059	9313.36
937.367	9155.39
937.674	9146.13
937.982	9149.07
938.29	9079.69
938.597	9037.88
938.905	8928.73
939.213	8902.29
939.52	8892.58
939.827	8915.4
940.135	8870.88
940.442	8701.85
940.749	8761.51
941.056	8764.9
941.363	8650.78
941.67	8638.8
941.977	8593.15
942.284	8557.9
942.591	8503.66
942.898	8403.78
943.205	8446.03
943.511	8365.81
943.818	8341.63
944.125	8230.67
944.431	8236.1
944.738	8198.58
945.044	8186.83
945.35	8135.31
945.657	8072.03
945.963	8012.83
946.269	8000.62
946.575	7955.43
946.881	7944.58
947.187	7970.57
947.493	7887.18
947.799	7855.99
948.105	7812.38
948.41	7742.55
948.716	7712.04
949.022	7709.11
949.327	7705.72
949.633	7568.32
949.938	7606.06
950.244	7584.59
950.549	7497.13
950.854	7462.33
951.16	7379.85
951.465	7404.93
951.77	7356.8
952.075	7345.95
952.38	7326.06
952.685	7359.06
952.99	7204.94
953.294	7259.17
953.599	7248.33
953.904	7190.7
954.209	7082.46
954.513	7140.76
954.818	7079.29
955.122	7064.83
955.426	7054.21
955.731	7054.21
956.035	7022.12
956.339	6962.68
956.643	6912.52
956.948	6899.41
957.252	6825.96
957.556	6851.5
957.86	6855.57
958.163	6825.29
958.467	6755.46
958.771	6718.62
959.075	6768.11
959.378	6673.43
959.682	6588
959.985	6624.61
960.289	6594.78
960.592	6599.98
960.896	6540.55
961.199	6574.45
961.502	6552.98
961.805	6500.78
962.108	6471.17
962.411	6438.63
962.714	6388.46
963.017	6435.01
963.32	6430.49
963.623	6342.81
963.926	6358.63
964.228	6258.97
964.531	6282.93
964.833	6223.95
965.136	6227.56
965.438	6199.31
965.741	6179.65
966.043	6114.57
966.345	6072.76
966.648	6110.5
966.95	6130.62
967.252	6038.19
967.554	6044.74
967.856	5994.57
968.158	6027.12
968.46	5973.33
968.761	5949.6
969.063	5904.18
969.365	5890.85
969.666	5886.1
969.968	5793.45
970.269	5750.96
970.571	5733.79
970.872	5763.85
971.174	5706.9
971.475	5670.97
971.776	5688.82
972.077	5668.25
972.378	5621.7
972.679	5662.83
972.98	5621.25
973.281	5577.86
973.582	5574.92
973.883	5494.02
974.183	5420.35
974.484	5420.13
974.785	5433.01
975.085	5430.07
975.386	5417.19
975.686	5353.23
975.986	5299.23
976.287	5330.41
976.587	5256.97
976.887	5197.53
977.187	5171.09
977.487	5199.34
977.787	5169.51
978.087	5160.7
978.387	5110.53
978.687	5119.34
978.987	5022.4
979.286	5046.58
979.586	5017.42
979.885	5035.05
980.185	4974.26
980.484	4934.49
980.784	4942.62
981.083	4892
981.382	4899.91
981.682	4857.65
981.981	4822.4
982.28	4830.08
982.579	4743.31
982.878	4722.29
983.177	4733.14
983.475	4741.73
983.774	4680.03
984.073	4641.16
984.372	4583.54
984.67	4601.16
984.969	4514.61
985.267	4593.48
985.566	4539.25
985.864	4477.55
986.162	4443.65
986.461	4426.25
986.759	4470.55
987.057	4410.21
987.355	4409.76
987.653	4358.46
987.951	4332.02
988.249	4330.44
988.547	4345.8
988.844	4245.69
989.142	4293.38
989.44	4196.88
989.737	4245.24
990.035	4194.17
990.332	4186.49
990.63	4100.61
990.927	4182.64
991.224	4112.82
991.521	4089.09
991.819	4078.69
992.116	4025.81
992.413	4040.73
992.71	3958.7
993.006	3956.21
993.303	3966.38
993.6	3967.96
993.897	3919.37
994.193	3930
994.49	3915.08
994.787	3872.37
995.083	3841.41
995.379	3832.37
995.676	3783.11
995.972	3795.08
996.268	3753.28
996.565	3753.95
996.861	3742.88
997.157	3718.02
997.453	3730.9
997.749	3684.13
998.044	3671.7
998.34	3664.69
998.636	3664.92
998.932	3581.53
999.227	3622.43
999.523	3570.68
999.818	3544.24
1000.114	3549.21
1000.409	3499.05
1000.704	3513.51
1001	3472.15
1001.295	3479.84
1001.59	3485.26
1001.885	3423.34
1002.18	3403.23
1002.475	3397.81
1002.77	3353.74
1003.065	3344.47
1003.359	3360.74
1003.654	3333.85
1003.949	3280.97
1004.243	3290.46
1004.538	3280.75
1004.832	3271.26
1005.127	3240.52
1005.421	3216.12
1005.715	3209.79
1006.009	3175.44
1006.304	3138.38
1006.598	3148.55
1006.892	3124.37
1007.186	3148.55
1007.48	3161.88
1007.773	3109
1008.067	3062
1008.361	3053.63
1008.655	3061.09
1008.948	3010.47
1009.242	2990.81
1009.535	2972.28
1009.829	2956.46
1010.122	2952.39
1010.415	2929.57
1010.708	2929.12
1011.001	2886.63
1011.295	2881.66
1011.588	2889.34
1011.881	2871.04
1012.173	2824.04
1012.466	2838.95
1012.759	2798.73
1013.052	2794.43
1013.344	2750.82
1013.637	2748.78
1013.93	2717.15
1014.222	2696.58
1014.514	2703.59
1014.807	2695
1015.099	2680.76
1015.391	2675.34
1015.683	2640.99
1015.976	2605.06
1016.268	2605.96
1016.56	2570.94
1016.851	2554.44
1017.143	2573.42
1017.435	2555.79
1017.727	2477.38
1018.018	2486.42
1018.31	2483.48
1018.602	2471.73
1018.893	2431.5
1019.185	2435.8
1019.476	2429.7
1019.767	2386.08
1020.058	2388.57
1020.35	2391.96
1020.641	2362.13
1020.932	2349.92
1021.223	2326.87
1021.514	2295.69
1021.804	2288.68
1022.095	2248.01
1022.386	2265.18
1022.677	2267.89
1022.967	2220.66
1023.258	2222.92
1023.548	2226.54
1023.839	2154.9
1024.129	2167.56
1024.419	2122.36
1024.709	2114.45
1025	2097.5
1025.29	2074
1025.58	2063.6
1025.87	2059.76
1026.16	2055.47
1026.449	2044.17
1026.739	1998.07
1027.029	2024.96
1027.319	1947
1027.608	1965.3
1027.898	1973.44
1028.187	1904.96
1028.477	1925.3
1028.766	1917.62
1029.055	1868.58
1029.344	1867.9
1029.634	1835.81
1029.923	1857.51
1030.212	1832.65
1030.501	1799.66
1030.79	1797.4
1031.078	1768.02
1031.367	1774.57
1031.656	1747.91
1031.945	1756.72
1032.233	1748.13
1032.522	1699.55
1032.81	1738.41
1033.099	1696.61
1033.387	1684.86
1033.675	1690.05
1033.963	1631.07
1034.251	1654.35
1034.54	1615.48
1034.828	1575.93
1035.116	1606.67
1035.403	1593.11
1035.691	1571.19
1035.979	1562.6
1036.267	1545.65
1036.554	1539.55
1036.842	1535.03
1037.129	1522.83
1037.417	1500.68
1037.704	1510.4
1037.992	1474.24
1038.279	1455.03
1038.566	1445.32
1038.853	1445.32
1039.14	1445.32
