Data from aluminium_surface_pro_back_FLMS001491_00092.txt Node
Date: Wed Feb 08 15:34:47 GMT 2017
User: dcchb
Spectrometer: FLMS00149
Trigger mode: 0
Integration Time (sec): 2.000000E-2
Scans to average: 10
Electric dark correction enabled: true
Nonlinearity correction enabled: false
Boxcar width: 0
XAxis mode: Wavelengths
Number of Pixels in Spectrum: 2048
>>>>>Begin Spectral Data<<<<<
341.393	-8.01
341.776	-8.01
342.16	-8.01
342.543	-65.18
342.927	-69.48
343.31	-66.31
343.693	-67.22
344.077	-66.31
344.46	-69.7
344.843	-67.22
345.226	-34.22
345.61	-43.49
345.993	-29.02
346.376	3.29
346.759	8.26
347.142	16.62
347.525	50.07
347.908	60.01
348.291	78.54
348.674	88.03
349.057	138.65
349.44	147.47
349.823	127.36
350.206	165.09
350.588	201.03
350.971	231.08
351.354	240.35
351.737	255.49
352.119	274.47
352.502	286.45
352.884	295.71
353.267	304.98
353.65	322.6
354.032	325.32
354.414	351.76
354.797	330.74
355.179	335.94
355.562	353.79
355.944	354.47
356.326	362.6
356.709	356.95
357.091	383.62
357.473	366.9
357.855	373.9
358.238	389.5
358.62	354.92
359.002	365.32
359.384	373.9
359.766	379.33
360.148	378.87
360.53	375.03
360.912	361.02
361.294	359.21
361.676	385.65
362.057	369.61
362.439	358.99
362.821	376.61
363.203	365.99
363.584	334.13
363.966	372.55
364.348	355.37
364.729	356.05
365.111	358.31
365.493	356.73
365.874	362.6
366.256	361.25
366.637	357.86
367.019	376.16
367.4	379.55
367.781	340.01
368.163	380
368.544	360.57
368.925	361.7
369.306	364.86
369.688	368.93
370.069	359.44
370.45	375.03
370.831	364.86
371.212	373.68
371.593	361.93
371.974	365.99
372.355	382.26
372.736	370.74
373.117	369.83
373.498	369.38
373.879	388.59
374.26	375.71
374.641	378.42
375.021	385.65
375.402	393.11
375.783	396.95
376.163	425.43
376.544	426.33
376.925	405.77
377.305	386.33
377.686	422.71
378.066	415.94
378.447	425.65
378.827	429.04
379.208	412.09
379.588	444.41
379.968	424.3
380.349	432.66
380.729	401.7
381.109	432.21
381.489	433.11
381.87	445.31
382.25	442.6
382.63	440.57
383.01	469.95
383.39	463.39
383.77	457.52
384.15	466.78
384.53	481.24
384.91	489.15
385.29	496.39
385.67	470.17
386.049	493.9
386.429	489.15
386.809	502.03
387.189	509.27
387.568	507.68
387.948	518.53
388.328	522.15
388.707	528.47
389.087	516.72
389.466	537.51
389.846	554.46
390.225	542.49
390.605	549.94
390.984	529.83
391.363	546.1
391.743	568.02
392.122	569.6
392.501	565.76
392.881	576.38
393.26	578.87
393.639	606.66
394.018	585.87
394.397	612.54
394.776	591.98
395.155	621.13
395.534	638.98
395.913	634.46
396.292	616.61
396.671	625.2
397.05	664.29
397.429	654.35
397.808	663.84
398.186	666.78
398.565	674.69
398.944	680.79
399.323	696.15
399.701	699.54
400.08	703.61
400.458	706.78
400.837	721.92
401.215	734.57
401.594	731.41
401.972	740.45
402.351	759.2
402.729	762.59
403.107	749.49
403.486	763.72
403.864	765.3
404.242	805.3
404.62	793.55
404.999	827.68
405.377	831.52
405.755	839.43
406.133	853.89
406.511	839.88
406.889	849.14
407.267	881.01
407.645	874.45
408.023	888.92
408.401	901.35
408.779	879.65
409.156	918.07
409.534	936.6
409.912	949.71
410.29	986.54
410.667	969.59
411.045	1010.5
411.422	1006.43
411.8	1011.4
412.178	1036.26
412.555	1059.99
412.933	1066.09
413.31	1067.9
413.687	1071.51
414.065	1089.36
414.442	1109.93
414.819	1147.67
415.197	1147.67
415.574	1149.25
415.951	1156.71
416.328	1175.92
416.705	1210.26
417.082	1177.5
417.46	1196.48
417.837	1219.76
418.214	1215.69
418.591	1223.15
418.967	1244.61
419.344	1258.4
419.721	1290.71
420.098	1274.22
420.475	1322.8
420.852	1295.46
421.228	1316.48
421.605	1311.96
421.982	1379.07
422.358	1353.76
422.735	1386.98
423.111	1408.45
423.488	1412.75
423.864	1429.92
424.241	1466.53
424.617	1480.31
424.994	1471.05
425.37	1484.61
425.746	1527.77
426.123	1508.56
426.499	1535.45
426.875	1572.29
427.251	1574.55
427.627	1644.38
428.003	1610.48
428.379	1653.87
428.756	1678.28
429.132	1676.02
429.507	1693.19
429.883	1726.86
430.259	1767.54
430.635	1780.42
431.011	1752.62
431.387	1817.71
431.763	1844.15
432.138	1874.65
432.514	1877.14
432.89	1896.57
433.265	1950.13
433.641	1968.66
434.016	1978.15
434.392	2017.48
434.767	2065.16
435.143	2046.18
435.518	2073.52
435.894	2123.69
436.269	2146.96
436.644	2201.2
437.02	2165.72
437.395	2172.5
437.77	2199.17
438.145	2262.21
438.52	2253.63
438.895	2266.51
439.271	2293.17
439.646	2357.81
440.021	2336.56
440.395	2397.13
440.77	2379.27
441.145	2404.81
441.52	2404.36
441.895	2433.96
442.27	2446.62
442.645	2479.84
443.019	2519.38
443.394	2489.55
443.769	2515.09
444.143	2515.77
444.518	2616.33
444.892	2555.54
445.267	2595.09
445.641	2659.49
446.016	2645.48
446.39	2685.71
446.764	2677.12
447.139	2655.65
447.513	2725.48
447.887	2744.01
448.262	2756.89
448.636	2770.45
449.01	2785.59
449.384	2817.91
449.758	2848.64
450.132	2867.17
450.506	2922.54
450.88	2916.43
451.254	2956.21
451.628	2993.72
452.002	3044.79
452.376	3066.94
452.75	3078.01
453.123	3095.64
453.497	3146.71
453.871	3148.52
454.244	3254.96
454.618	3240.27
454.992	3285.69
455.365	3269.19
455.739	3381.51
456.112	3405.01
456.486	3416.31
456.859	3476.65
457.232	3526.59
457.606	3534.27
457.979	3607.94
458.352	3662.86
458.725	3725.23
459.099	3725.45
459.472	3854.72
459.845	3864.88
460.218	3912.11
460.591	3920.7
460.964	3924.09
461.337	4019
461.71	4090.42
462.083	4153.46
462.456	4144.2
462.829	4195.95
463.201	4266.68
463.574	4284.31
463.947	4321.37
464.32	4471.2
464.692	4470.97
465.065	4514.81
465.438	4595.03
465.81	4664.19
466.183	4683.39
466.555	4781.47
466.928	4845.65
467.3	4852.65
467.672	4919.32
468.045	5101.24
468.417	5024.4
468.789	5139.65
469.161	5193.89
469.534	5206.32
469.906	5366.31
470.278	5411.06
470.65	5482.69
471.022	5558.4
471.394	5703.93
471.766	5708.23
472.138	5752.74
472.51	5906.41
472.882	5950.48
473.253	6060.76
473.625	6147.08
473.997	6237.25
474.369	6326.97
474.74	6420.75
475.112	6522.44
475.484	6661.19
475.855	6741.87
476.227	6785.03
476.598	6973.28
476.97	7079.26
477.341	7227.28
477.713	7346.83
478.084	7359.48
478.455	7563.77
478.827	7707.5
479.198	7851.45
479.569	7859.13
479.94	8141.61
480.311	8235.16
480.682	8398.78
481.053	8554.25
481.424	8730.29
481.795	8798.54
482.166	8932.32
482.537	9081.24
482.908	9245.53
483.279	9376.38
483.65	9556.49
484.021	9705.18
484.391	9815.69
484.762	9918.06
485.133	9972.29
485.503	10162.57
485.874	10355.56
486.244	10546.97
486.615	10735.66
486.985	10888.65
487.356	11003.23
487.726	11112.15
488.097	11298.36
488.467	11328.42
488.837	11618.58
489.207	11799.36
489.578	11888.63
489.948	12051.79
490.318	12200.48
490.688	12275.96
491.058	12515.28
491.428	12671.43
491.798	12796.63
492.168	13115.94
492.538	13108.26
492.908	13317.97
493.278	13515.93
493.648	13457.85
494.017	13672.76
494.387	13762.03
494.757	13870.27
495.126	14095.12
495.496	14104.16
495.866	14305.06
496.235	14450.37
496.605	14533.53
496.974	14652.4
497.344	14802
497.713	14828.21
498.082	15098.94
498.452	15196.56
498.821	15327.86
499.19	15362.44
499.559	15590
499.928	15738.24
500.298	15744.57
500.667	15969.42
501.036	15965.81
501.405	16161.74
501.774	16155.63
502.143	16318.12
502.512	16328.74
502.88	16567.38
503.249	16610.31
503.618	16768.73
503.987	16769.18
504.356	16892.11
504.724	17040.36
505.093	17004.88
505.462	17223.86
505.83	17364.87
506.199	17530.74
506.567	17695.71
506.936	17812.54
507.304	17897.74
507.672	17976.6
508.041	18137.73
508.409	18249.14
508.777	18441.68
509.145	18648.22
509.514	18648
509.882	18794.89
510.25	18810.48
510.618	19063.58
510.986	19081.89
511.354	19335.66
511.722	19501.99
512.09	19602.78
512.458	19580.18
512.826	19738.14
513.193	19898.36
513.561	20037.79
513.929	20149.88
514.297	20427.61
514.664	20591.9
515.032	20659.02
515.4	20784.44
515.767	21018.33
516.135	21148.05
516.502	21000.7
516.869	21522.95
517.237	21491.54
517.604	21569.73
517.972	21812.43
518.339	21988.48
518.706	22119.32
519.073	22166.1
519.44	22441.8
519.808	22787.1
520.175	22795.91
520.542	23079.52
520.909	23198.16
521.276	23104.38
521.643	23422.34
522.009	23551.82
522.376	23721.31
522.743	24007.86
523.11	24287.4
523.477	24454.17
523.843	24574.85
524.21	24950.66
524.577	25144.78
524.943	25205.79
525.31	25378.67
525.676	25637.65
526.043	25687.14
526.409	26020.69
526.776	26225.2
527.142	26316.72
527.508	26514.91
527.874	26757.84
528.241	26804.39
528.607	26979.08
528.973	27272.18
529.339	27279.86
529.705	27631.04
530.071	27747.19
530.437	27845.04
530.803	28149.44
531.169	28183.79
531.535	28232.61
531.901	28367.74
532.267	28580.62
532.632	28756.66
532.998	28797.34
533.364	28858.8
533.73	28993.72
534.095	29199.13
534.461	29410.43
534.826	29626.24
535.192	29674.15
535.557	29847.93
535.923	29938.32
536.288	30080.01
536.653	30218.32
537.019	30287.47
537.384	30329.95
537.749	30520.45
538.114	30667.57
538.479	30737.4
538.845	30769.71
539.21	30844.29
539.575	31058.29
539.94	31195.47
540.305	31448.57
540.67	31322.69
541.034	31508.45
541.399	31631.84
541.764	31718.62
542.129	31828.67
542.494	31934.65
542.858	32100.53
543.223	32273.85
543.587	32301.42
543.952	32281.31
544.316	32422.55
544.681	32463
545.045	32719.72
545.41	32875.42
545.774	32909.09
546.138	33029.09
546.503	33074.51
546.867	33213.72
547.231	33412.81
547.595	33550.21
547.959	33653.25
548.324	33688.51
548.688	33726.47
549.052	33873.13
549.416	34032.23
549.779	34154.48
550.143	34136.18
550.507	34385.44
550.871	34541.37
551.235	34561.25
551.599	34930.28
551.962	34899.32
552.326	34987.46
552.689	35222.25
553.053	35163.27
553.417	35148.36
553.78	35725.97
554.143	35498.85
554.507	35648.46
554.87	35865.17
555.234	36249.8
555.597	35992.4
555.96	36289.79
556.323	36429.23
556.686	36504.7
557.05	36825.83
557.413	36889.1
557.776	37051.58
558.139	37221.07
558.502	37311.24
558.865	37398.24
559.228	37671.45
559.59	37829.19
559.953	37937.89
560.316	38421.04
560.679	38348.27
561.041	38662.39
561.404	38824.64
561.767	38965.43
562.129	38872.78
562.492	39312.99
562.854	39412.65
563.217	39414.23
563.579	39615.58
563.941	40070.49
564.304	40150.26
564.666	40289.24
565.028	40419.63
565.39	40638.61
565.753	40832.73
566.115	40855.1
566.477	41164.92
566.839	41310.45
567.201	41555.64
567.563	41686.49
567.925	41894.84
568.287	41990.44
568.648	42009.42
569.01	42239.24
569.372	42515.85
569.734	42438.33
570.095	42773.24
570.457	43063.85
570.819	43045.77
571.18	43107.02
571.542	43530.73
571.903	43485.54
572.265	43565.54
572.626	43827.22
572.987	43912.64
573.349	44104.28
573.71	44201.9
574.071	44418.85
574.432	44566.64
574.794	44807.76
575.155	44857.48
575.516	44698.39
575.877	45094.31
576.238	45179.73
576.599	45293.4
576.96	45346.05
577.32	45482.32
577.681	45543.56
578.042	45668.98
578.403	45767.06
578.763	45745.14
579.124	45873.72
579.485	45970.67
579.845	46169.53
580.206	45999.82
580.566	46067.39
580.927	46109.42
581.287	46426.25
581.648	46220.61
582.008	46477.78
582.368	46295.18
582.728	46547.15
583.089	46411.56
583.449	46499.7
583.809	46611.56
584.169	46604.33
584.529	46485.23
584.889	46999.34
585.249	46578.34
585.609	46683.65
585.969	46828.27
586.329	46739.46
586.688	46767.03
587.048	46807.71
587.408	46692.68
587.768	46750.76
588.127	46657.66
588.487	46630.09
588.846	46960.47
589.206	46670.09
589.565	46812.23
589.925	46934.26
590.284	46819.91
590.643	46886.58
591.003	46859.46
591.362	46991.89
591.721	46982.39
592.08	46945.79
592.44	47042.28
592.799	46990.76
593.158	46881.61
593.517	47018.78
593.876	46907.37
594.235	47031.21
594.593	46939.46
594.952	47146.91
595.311	47018.1
595.67	47108.27
596.029	47250.18
596.387	47353.91
596.746	47379.9
597.104	47268.49
597.463	47249.28
597.822	47321.59
598.18	47252.22
598.538	47189.85
598.897	47446.56
599.255	47150.53
599.613	47638.42
599.972	47448.6
600.33	47530.18
600.688	47404.53
601.046	47628.03
601.404	47757.29
601.762	47619.67
602.12	47837.74
602.478	47809.49
602.836	47870.73
603.194	47655.6
603.552	47810.85
603.91	47690.62
604.268	47963.39
604.625	47875.7
604.983	48021.01
605.341	47865.99
605.698	48133.78
606.056	48082.7
606.413	48144.4
606.771	48258.29
607.128	48244.96
607.485	48155.7
607.843	48339.65
608.2	48393.2
608.557	48576.03
608.914	48424.84
609.272	48501
609.629	48537.38
609.986	48689.24
610.343	48496.03
610.7	48830.48
611.057	48650.37
611.414	48709.58
611.771	48693.54
612.127	48870.48
612.484	48940.31
612.841	49016.47
613.198	48844.04
613.554	48896.69
613.911	49103.47
614.267	49099.63
614.624	48998.16
614.98	48957.26
615.337	49378.94
615.693	49278.15
616.05	49203.58
616.406	49489.67
616.762	49289.23
617.118	49343.46
617.475	49374.2
617.831	49398.83
618.187	49415.55
618.543	49609.22
618.899	49698.48
619.255	49660.74
619.611	49568.77
619.967	49798.82
620.323	49801.76
620.678	49760.17
621.034	49585.26
621.39	49581.65
621.746	49470.46
622.101	49987.51
622.457	49679.72
622.812	49738.93
623.168	49801.98
623.523	49770.57
623.879	49914.52
624.234	49631.14
624.589	49813.05
624.945	49921.98
625.3	49922.88
625.655	49817.57
626.01	50033.61
626.365	49876.56
626.72	49848.08
627.075	49878.14
627.43	49855.54
627.785	49769.89
628.14	49882.88
628.495	49789.55
628.85	49804.92
629.205	49661.42
629.559	49796.56
629.914	49611.25
630.269	49774.41
630.623	49627.07
630.978	49592.5
631.332	49783
631.687	49677.46
632.041	49648.77
632.396	49559.28
632.75	49509.33
633.104	49550.01
633.459	49321.09
633.813	49324.25
634.167	49418.04
634.521	49385.04
634.875	49346.85
635.229	49264.82
635.583	49058.5
635.937	49012.17
636.291	49008.78
636.645	48970.59
636.999	48854.66
637.352	48851.72
637.706	48659.64
638.06	48795.91
638.413	48682.91
638.767	48542.58
639.121	48574.44
639.474	48418.29
639.828	48383.94
640.181	48425.75
640.534	48349.82
640.888	48403.83
641.241	48123.38
641.594	48183.27
641.947	48340.78
642.301	48185.53
642.654	48056.04
643.007	48135.13
643.36	48021.46
643.713	48124.06
644.066	48196.83
644.419	47912.54
644.771	47628.71
645.124	47266.23
645.477	47233.46
645.83	47088.38
646.182	46760.93
646.535	46851.1
646.888	46708.28
647.24	46653.36
647.593	46787.37
647.945	46512.12
648.298	46599.13
648.65	46500.37
649.002	46343.09
649.355	46482.07
649.707	46306.71
650.059	46451.79
650.411	46877.99
650.763	46893.13
651.115	47230.3
651.467	47109.85
651.819	47117.53
652.171	46904.43
652.523	46967.25
652.875	46889.97
653.227	46801.61
653.578	46989.63
653.93	46815.85
654.282	46581.28
654.633	46577.21
654.985	46631.9
655.337	46592.57
655.688	46624.66
656.039	46803.64
656.391	46357.55
656.742	46514.84
657.094	46549.19
657.445	46609.98
657.796	46600.94
658.147	46508.51
658.498	46399.36
658.849	46549.86
659.2	46510.77
659.551	46272.81
659.902	46455.18
660.253	46324.78
660.604	46442.75
660.955	46234.84
661.306	46379.02
661.656	46188.07
662.007	46259.7
662.358	46162.08
662.708	46242.75
663.059	46342.64
663.409	45928.64
663.76	46231.91
664.11	46122.98
664.461	46236.88
664.811	46157.33
665.161	46129.99
665.511	45881.41
665.862	46050.67
666.212	46138.8
666.562	46099.93
666.912	45981.52
667.262	46004.57
667.612	45813.61
667.962	45813.61
668.312	45775.87
668.662	45848.87
669.011	45764.57
669.361	45576.33
669.711	45467.63
670.06	45488.42
670.41	45356.45
670.76	45296.11
671.109	45481.87
671.459	45334.75
671.808	45379.95
672.157	45348.31
672.507	45113.74
672.856	44969.34
673.205	45135.21
673.554	45224.47
673.904	45010.92
674.253	45166.85
674.602	45122.33
674.951	44339.07
675.3	44151.73
675.649	44843.24
675.998	44705.17
676.346	44896.8
676.695	45000.53
677.044	44591.05
677.393	44777.25
677.741	44788.33
678.09	44721.21
678.438	44700.42
678.787	44652.96
679.135	44706.52
679.484	44353.31
679.832	44633.08
680.181	44339.98
680.529	44511.5
680.877	44247.1
681.225	44382.91
681.573	44530.26
681.922	44279.87
682.27	44118.52
682.618	44166.2
682.966	44169.14
683.314	44165.29
683.661	43981.12
684.009	43895.47
684.357	43731.18
684.705	43743.16
685.053	43688.47
685.4	43776.15
685.748	43428.36
686.095	43490.28
686.443	43265.43
686.79	43057.98
687.138	43369.61
687.485	43129.16
687.832	42962.39
688.18	43078.09
688.527	42766.69
688.874	42573.24
689.221	42652.56
689.568	42582.96
689.915	42523.53
690.262	42413.02
690.609	42326.92
690.956	42202.41
691.303	42111.11
691.65	41979.59
691.997	42024.78
692.344	41662.31
692.69	41670.22
693.037	41582.76
693.383	41336.89
693.73	41645.13
694.077	41305.48
694.423	41213.51
694.769	41220.06
695.116	41050.8
695.462	40998.37
695.808	40868.43
696.155	40793.86
696.501	40627.99
696.847	40369.69
697.193	40282.46
697.539	40483.36
697.885	40163.82
698.231	40085.4
698.577	39924.95
698.923	39986.19
699.269	39666.43
699.614	39644.51
699.96	39348.47
700.306	39435.93
700.651	39290.62
700.997	39102.15
701.342	39046.33
701.688	39003.4
702.033	38897.41
702.379	38785.1
702.724	38750.75
703.069	38750.97
703.415	38379.46
703.76	38335.39
704.105	38439.79
704.45	38278.89
704.795	38031.67
705.14	37955.06
705.485	37998.22
705.83	37827.16
706.175	37773.6
706.52	37712.36
706.865	37416.32
707.209	37633.04
707.554	37328.64
707.899	37344.46
708.243	37094.97
708.588	37041.64
708.932	36823.34
709.277	36822.66
709.621	36882.1
709.966	36653.85
710.31	36833.73
710.654	36380.41
710.998	36425.84
711.342	36453.63
711.687	36422.67
712.031	36312.84
712.375	36112.4
712.719	36147.88
713.063	36013.87
713.407	36170.02
713.75	35910.14
714.094	35872.18
714.438	35697.04
714.782	35706.53
715.125	35582.24
715.469	35733.65
715.812	35482.58
716.156	35202.14
716.499	35364.85
716.843	35235.36
717.186	35005.53
717.53	35153.33
717.873	35206.43
718.216	35123.5
718.559	35008.92
718.902	34816.16
719.246	34732.77
719.589	34619.56
719.932	34503.4
720.275	34457.3
720.617	34350.41
720.96	34289.85
721.303	34409.84
721.646	34393.35
721.989	33980.7
722.331	34195.39
722.674	33992.91
723.016	34087.14
723.359	33881.27
723.701	33938.9
724.044	33906.35
724.386	33666.81
724.729	33685.34
725.071	33479.25
725.413	33516.76
725.755	33509.98
726.097	33351.11
726.439	33156.32
726.782	33272.92
727.124	33317.22
727.465	33003.78
727.807	32963.78
728.149	33062.76
728.491	32841.75
728.833	32885.82
729.175	32802.2
729.516	32728.08
729.858	32670.45
730.199	32799.04
730.541	32543.45
730.882	32480.85
731.224	32576.45
731.565	32432.04
731.906	32442.21
732.248	32433.4
732.589	32265.72
732.93	32146.85
733.271	32158.6
733.612	32095.1
733.953	32182.33
734.294	31928.78
734.635	31886.52
734.976	31994.77
735.317	31818.27
735.658	31888.78
735.999	31810.82
736.339	31810.82
736.68	31914.77
737.021	31793.19
737.361	31491.73
737.702	31749.12
738.042	31771.5
738.383	31483.59
738.723	31556.81
739.063	31507.55
739.404	31465.51
739.744	31419.87
740.084	31365.86
740.424	31374.22
740.764	31227.1
741.104	31362.92
741.444	31023.49
741.784	30993.66
742.124	31025.3
742.464	30949.6
742.804	30859.43
743.143	30741.69
743.483	30617.85
743.823	30517.74
744.162	30496.5
744.502	30635.93
744.841	30478.65
745.181	30596.38
745.52	30339.44
745.86	30301.48
746.199	30219.45
746.538	30196.17
746.877	30210.63
747.216	30101.71
747.556	30012.45
747.895	30042.5
748.234	29879.12
748.573	29888.15
748.911	29874.37
749.25	29803.64
749.589	29548.05
749.928	29576.3
750.267	29593.7
750.605	29536.98
750.944	29494.27
751.283	29397.09
751.621	29382.86
751.96	29167.04
752.298	29221.96
752.636	29268.28
752.975	29027.39
753.313	28845.7
753.651	28982.19
753.989	28717.79
754.327	28725.93
754.666	28638.92
755.004	28704.46
755.342	28687.06
755.679	28584.23
756.017	28464.24
756.355	28471.02
756.693	28211.59
757.031	28181.08
757.368	28164.36
757.706	28133.17
758.044	28092.95
758.381	28001.2
758.719	27960.3
759.056	27903.35
759.394	27663.35
759.731	27534.32
760.068	27671.26
760.405	27455.9
760.743	27312.4
761.08	27469.01
761.417	27312.63
761.754	27244.38
762.091	27213.87
762.428	26997.84
762.765	26826.77
763.102	26997.61
763.438	26781.34
763.775	26668.13
764.112	26706.77
764.449	26716.71
764.785	26537.73
765.122	26479.88
765.458	26320.56
765.795	26240.57
766.131	26249.38
766.467	26147.24
766.804	26063.17
767.14	25846.23
767.476	25923.06
767.812	25743.41
768.148	25707.25
768.485	25486.01
768.821	25434.26
769.157	25387.48
769.492	25269.07
769.828	25199.92
770.164	24918.57
770.5	24908.85
770.836	24867.04
771.171	24753.15
771.507	24713.6
771.842	24551.57
772.178	24437
772.513	24422.76
772.849	24266.16
773.184	24134.63
773.519	24260.51
773.855	24095.31
774.19	23990.46
774.525	23928.31
774.86	23838.82
775.195	23845.38
775.53	23674.08
775.865	23481.77
776.2	23383.69
776.535	23204.94
776.87	23216.92
777.205	23130.82
777.539	22986.19
777.874	23094.44
778.209	22920.65
778.543	22696.25
778.878	22584.17
779.212	22725.18
779.547	22520.66
779.881	22597.05
780.215	22479.99
780.55	22402.93
780.884	22357.73
781.218	22214.91
781.552	22115.03
781.886	22078.87
782.22	21915.48
782.554	21839.33
782.888	21626.68
783.222	21656.28
783.556	21400.24
783.889	21432.56
784.223	21270.75
784.557	21241.6
784.89	21230.08
785.224	21136.52
785.557	21034.38
785.891	20939.69
786.224	20874.83
786.558	20854.72
786.891	20732.69
787.224	20651.79
787.557	20659.47
787.891	20612.92
788.224	20625.12
788.557	20464.22
788.89	20374.51
789.223	20323.43
789.556	20242.76
789.888	20144
790.221	20026.72
790.554	19919.6
790.887	19903.33
791.219	19780.4
791.552	19807.29
791.884	19594.87
792.217	19652.72
792.549	19556.45
792.882	19353.74
793.214	19370.47
793.546	19467.41
793.879	19369.56
794.211	19152.39
794.543	19150.36
794.875	19149.23
795.207	19118.49
795.539	18941.78
795.871	18902.91
796.203	18796.47
796.535	18696.13
796.867	18595.57
797.198	18508.79
797.53	18539.75
797.862	18360.1
798.193	18443.48
798.525	18240.78
798.856	18401.45
799.188	18104.96
799.519	18105.87
799.85	17961.46
800.182	18031.74
800.513	17887.11
800.844	17760.79
801.175	17873.33
801.506	17909.26
801.837	17700
802.168	17705.88
802.499	17609.83
802.83	17590.63
803.161	17520.8
803.491	17526.45
803.822	17472.21
804.153	17357.64
804.483	17228.15
804.814	17135.27
805.145	17105.44
805.475	17110.64
805.805	17084.88
806.136	17027.93
806.466	16990.19
806.796	16867.48
807.126	16767.6
807.457	16785.9
807.787	16722.63
808.117	16605.11
808.447	16617.54
808.777	16701.38
809.107	16563.76
809.436	16508.17
809.766	16550.2
810.096	16388.62
810.426	16385.68
810.755	16358.12
811.085	16309.53
811.414	16231.34
811.744	16169.87
812.073	16108.18
812.403	16187.95
812.732	16021.17
813.061	15974.4
813.39	15964
813.719	15851.91
814.049	15926.26
814.378	15849.43
814.707	15868.41
815.036	15745.25
815.365	15659.83
815.693	15511.13
816.022	15586.84
816.351	15578.02
816.68	15481.98
817.008	15574.86
817.337	15353.4
817.665	15446.27
817.994	15388.42
818.322	15457.57
818.651	15271.59
818.979	15162.67
819.307	15235.88
819.636	15202.67
819.964	15107.3
820.292	15148.43
820.62	15061.88
820.948	14998.6
821.276	15058.26
821.604	15056
821.932	15075.44
822.259	14961.54
822.587	15018.94
822.915	15016.68
823.243	14999.05
823.57	15039.51
823.898	14985.95
824.225	14912.28
824.553	14888.1
824.88	14928.32
825.207	15037.92
825.535	14978.26
825.862	14982.33
826.189	14922.67
826.516	14907.76
826.843	14957.47
827.17	14890.58
827.497	14976
827.824	14903.69
828.151	14914.54
828.478	14797.93
828.805	14900.3
829.131	14829.34
829.458	14846.06
829.785	14764.26
830.111	14777.37
830.438	14832.05
830.764	14821.43
831.09	14862.34
831.417	14695.11
831.743	14838.38
832.069	14793.86
832.395	14768.33
832.722	14762.68
833.048	14685.39
833.374	14680.19
833.7	14679.29
834.026	14711.83
834.351	14730.81
834.677	14625.05
835.003	14693.3
835.329	14724.03
835.654	14703.24
835.98	14522.23
836.306	14628.9
836.631	14484.72
836.956	14552.74
837.282	14450.14
837.607	14507.54
837.932	14522.68
838.258	14512.06
838.583	14522.46
838.908	14265.51
839.233	14432.29
839.558	14314.1
839.883	14373.53
840.208	14239.53
840.533	14370.6
840.858	14298.06
841.182	14303.48
841.507	14235.91
841.832	14216.02
842.156	14194.78
842.481	14112.07
842.805	14170.83
843.13	14073.43
843.454	14068.91
843.778	14034.11
844.103	13998.86
844.427	13929.7
844.751	13896.71
845.075	13849.25
845.399	13868.91
845.723	13766.32
846.047	13768.13
846.371	13678.86
846.695	13709.82
847.019	13598.19
847.343	13471.86
847.666	13449.04
847.99	13463.5
848.313	13461.02
848.637	13413.33
848.96	13405.42
849.284	13340.79
849.607	13194.58
849.931	13231.64
850.254	13122.04
850.577	13036.62
850.9	12912.78
851.223	12853.8
851.546	12842.95
851.869	12790.07
852.192	12899.45
852.515	12739.23
852.838	12713.47
853.161	12788.94
853.483	12689.06
853.806	12618.78
854.129	12615.16
854.451	12575.39
854.774	12547.37
855.096	12419.46
855.419	12386.02
855.741	12429.4
856.063	12262.4
856.385	12379.69
856.708	12198.9
857.03	12289.07
857.352	12250.88
857.674	12091.11
857.996	12127.72
858.318	12075.74
858.64	12070.32
858.961	12031
859.283	11979.25
859.605	11901.74
859.926	11965.01
860.248	11972.69
860.57	11935.86
860.891	11930.66
861.212	11847.05
861.534	11786.03
861.855	11752.81
862.176	11754.17
862.498	11706.71
862.819	11704.45
863.14	11720.95
863.461	11693.6
863.782	11600.05
864.103	11583.33
864.424	11626.26
864.745	11721.85
865.065	11604.12
865.386	11535.64
865.707	11463.55
866.027	11576.09
866.348	11461.07
866.668	11517.79
866.989	11517.34
867.309	11490.9
867.63	11430.79
867.95	11522.76
868.27	11367.29
868.59	11372.03
868.91	11344.91
869.23	11356.66
869.55	11282.99
869.87	11336.55
870.19	11282.99
870.51	11307.63
870.83	11219.95
871.15	11210.68
871.469	11233.05
871.789	11235.09
872.109	11205.48
872.428	11105.82
872.748	11164.13
873.067	11145.82
873.386	11187.4
873.706	11110.57
874.025	11129.1
874.344	11023.34
874.663	11104.92
874.982	11035.54
875.301	11066.95
875.62	11083
875.939	11025.83
876.258	11025.83
876.577	10998.03
876.896	11014.53
877.214	10944.7
877.533	10988.31
877.852	10970.01
878.17	11024.7
878.489	10927.07
878.807	10980.18
879.125	10953.06
879.444	10887.07
879.762	10923
880.08	10864.7
880.398	10844.59
880.716	10784.48
881.034	10849.79
881.352	10862.44
881.67	10821.09
881.988	10782.44
882.306	10741.54
882.624	10751.93
882.941	10711.26
883.259	10647.76
883.577	10716.91
883.894	10633.75
884.212	10670.13
884.529	10686.4
884.846	10628.55
885.164	10577.25
885.481	10591.49
885.798	10583.35
886.115	10455.9
886.432	10475.33
886.75	10382.23
887.067	10492.96
887.383	10473.3
887.7	10464.94
888.017	10339.97
888.334	10410.7
888.651	10317.82
888.967	10383.81
889.284	10298.16
889.6	10261.33
889.917	10182.91
890.233	10217.71
890.55	10139.97
890.866	10150.37
891.182	10130.93
891.498	10106.53
891.815	10105.62
892.131	10065.4
892.447	10023.59
892.763	10009.13
893.079	10016.13
893.395	9925.52
893.71	9905.18
894.026	9913.76
894.342	9877.38
894.657	9852.3
894.973	9807.33
895.289	9886.87
895.604	9777.5
895.92	9784.5
896.235	9713.54
896.55	9706.76
896.865	9692.98
897.181	9599.2
897.496	9672.64
897.811	9564.85
898.126	9541.8
898.441	9454.57
898.756	9447.34
899.071	9521.46
899.386	9393.33
899.7	9346.32
900.015	9314.91
900.33	9307.23
900.644	9318.98
900.959	9336.38
901.273	9211.64
901.588	9222.26
901.902	9134.35
902.216	9111.07
902.531	9074.69
902.845	9074.24
903.159	9032.21
903.473	9002.83
903.787	8959.89
904.101	8892.77
904.415	8952.66
904.729	8927.35
905.042	8822.27
905.356	8842.38
905.67	8814.58
905.984	8809.16
906.297	8751.99
906.611	8709.5
906.924	8683.51
907.237	8706.79
907.551	8663.4
907.864	8616.85
908.177	8596.51
908.491	8583.18
908.804	8555.16
909.117	8496.17
909.43	8415.73
909.743	8495.5
910.056	8446.01
910.368	8401.49
910.681	8389.29
910.994	8315.39
911.307	8272.68
911.619	8205.79
911.932	8244.2
912.244	8165.11
912.557	8154.94
912.869	8146.13
913.181	8062.97
913.494	8056.86
913.806	8060.25
914.118	7998.79
914.43	7951.78
914.742	7941.61
915.054	7891.67
915.366	7876.08
915.678	7734.61
915.99	7801.73
916.302	7744.56
916.613	7706.37
916.925	7687.83
917.236	7723.77
917.548	7618.23
917.859	7637.21
918.171	7577.1
918.482	7515.18
918.794	7491.46
919.105	7480.38
919.416	7376.66
919.727	7428.41
920.038	7416.2
920.349	7335.75
920.66	7299.14
920.971	7298.24
921.282	7326.04
921.593	7268.64
921.903	7199.71
922.214	7198.58
922.525	7204.23
922.835	7154.06
923.146	7139.15
923.456	7088.3
923.767	7063.22
924.077	7090.79
924.387	7019.83
924.697	6987.74
925.008	6945.93
925.318	6905.03
925.628	6901.64
925.938	6899.15
926.248	6820.29
926.558	6795.88
926.867	6819.61
927.177	6813.96
927.487	6743.23
927.796	6731.93
928.106	6703.23
928.416	6644.92
928.725	6646.05
929.034	6560.63
929.344	6595.66
929.653	6612.16
929.962	6542.78
930.271	6535.55
930.581	6452.61
930.89	6425.49
931.199	6372.39
931.508	6392.5
931.817	6466.85
932.125	6359.06
932.434	6385.04
932.743	6289.68
933.051	6296.01
933.36	6198.16
933.669	6147.99
933.977	6195.44
934.286	6159.06
934.594	6158.84
934.902	6143.02
935.21	6090.81
935.519	6103.24
935.827	6090.36
936.135	6013.3
936.443	6002.91
936.751	5970.59
937.059	5969.91
937.367	5922.91
937.674	5928.56
937.982	5938.73
938.29	5912.51
938.597	5920.88
938.905	5798.84
939.213	5788.45
939.52	5790.48
939.827	5783.03
940.135	5727.43
940.442	5680.43
940.749	5618.06
941.056	5739.64
941.363	5605.63
941.67	5633.2
941.977	5541
942.284	5558.63
942.591	5549.81
942.898	5481.56
943.205	5508.46
943.511	5474.56
943.818	5456.48
944.125	5394.11
944.431	5358.86
944.738	5380.1
945.044	5390.95
945.35	5333.09
945.657	5316.15
945.963	5317.95
946.269	5305.75
946.575	5256.26
946.881	5217.39
947.187	5244.28
947.493	5194.79
947.799	5151.4
948.105	5123.61
948.41	5155.7
948.716	5131.29
949.022	5115.7
949.327	5056.27
949.633	4986.66
949.938	5060.11
950.244	5063.5
950.549	4949.6
950.854	4992.31
951.16	4971.97
951.465	4890.62
951.77	4932.2
952.075	4908.25
952.38	4866.44
952.685	4842.94
952.99	4798.65
953.294	4791.41
953.599	4779.21
953.904	4803.84
954.209	4768.59
954.513	4743.73
954.818	4700.34
955.122	4668.48
955.426	4677.97
955.731	4644.98
956.035	4599.1
956.339	4614.02
956.643	4622.6
956.948	4543.06
957.252	4523.62
957.556	4536.28
957.86	4476.39
958.163	4532.44
958.467	4496.96
958.771	4452.21
959.075	4436.62
959.378	4396.85
959.682	4416.28
959.985	4371.76
960.289	4336.51
960.592	4311.88
960.896	4324.99
961.199	4315.95
961.502	4335.61
961.805	4263.07
962.108	4274.37
962.411	4200.24
962.714	4236.4
963.017	4214.71
963.32	4192.11
963.623	4131.32
963.926	4160.24
964.228	4132.22
964.531	4150.07
964.833	4122.5
965.136	4059.91
965.438	4074.6
965.741	4063.98
966.043	4019.91
966.345	4025.33
966.648	3990.08
966.95	4004.54
967.252	3964.09
967.554	3938.55
967.856	3921.83
968.158	3895.62
968.46	3861.04
968.761	3878.22
969.063	3867.14
969.365	3851.1
969.666	3847.48
969.968	3822.17
970.269	3827.82
970.571	3790.76
970.872	3829.63
971.174	3764.55
971.475	3727.49
971.776	3699.69
972.077	3714.61
972.378	3718.9
972.679	3635.74
972.98	3697.43
973.281	3653.36
973.582	3646.36
973.883	3602.74
974.183	3592.12
974.484	3608.39
974.785	3560.71
975.085	3561.16
975.386	3554.84
975.686	3510.77
975.986	3547.83
976.287	3512.58
976.587	3433.71
976.887	3459.92
977.187	3459.92
977.487	3417.44
977.787	3408.17
978.087	3391.45
978.387	3396.65
978.687	3398.46
978.987	3343.54
979.286	3330.66
979.586	3357.55
979.885	3292.92
980.185	3328.85
980.484	3281.4
980.784	3284.56
981.083	3245.01
981.382	3219.7
981.682	3242.08
981.981	3203.21
982.28	3144.9
982.579	3174.73
982.878	3168.41
983.177	3176.09
983.475	3120.95
983.774	3116.43
984.073	3106.26
984.372	3120.5
984.67	3134.06
984.969	3079.14
985.267	3036.43
985.566	3017.67
985.864	3026.26
986.162	2999.82
986.461	3014.96
986.759	3000.05
987.057	2978.13
987.355	2974.96
987.653	2922.08
987.951	2931.12
988.249	2914.17
988.547	2908.07
988.844	2917.11
989.142	2915.08
989.44	2887.96
989.737	2844.57
990.035	2882.54
990.332	2832.82
990.63	2858.81
990.927	2787.17
991.224	2780.39
991.521	2785.36
991.819	2784.01
992.116	2768.42
992.413	2739.72
992.71	2729.32
993.006	2734.74
993.303	2735.65
993.6	2706.72
993.897	2700.62
994.193	2661.3
994.49	2681.86
994.787	2678.93
995.083	2639.83
995.379	2636.22
995.676	2624.01
995.972	2601.64
996.268	2584.47
996.565	2580.17
996.861	2564.81
997.157	2581.3
997.453	2554.86
997.749	2557.12
998.044	2521.19
998.34	2506.05
998.636	2498.14
998.932	2483.9
999.227	2442.32
999.523	2491.81
999.818	2452.27
1000.114	2431.02
1000.409	2438.03
1000.704	2421.76
1001	2378.14
1001.295	2374.53
1001.59	2362.1
1001.885	2353.29
1002.18	2350.35
1002.475	2354.87
1002.77	2329.56
1003.065	2313.51
1003.359	2293.85
1003.654	2298.15
1003.949	2263.8
1004.243	2280.97
1004.538	2270.12
1004.832	2259.28
1005.127	2236.45
1005.421	2203.46
1005.715	2181.54
1006.009	2169.79
1006.304	2181.54
1006.598	2177.02
1006.892	2140.41
1007.186	2144.25
1007.48	2118.72
1007.773	2134.76
1008.067	2129.11
1008.361	2107.42
1008.655	2073.29
1008.948	2103.35
1009.242	2066.51
1009.535	2069.23
1009.829	2027.42
1010.122	2019.06
1010.415	2003.92
1010.708	1993.75
1011.001	1987.19
1011.295	1993.52
1011.588	1972.5
1011.881	1969.34
1012.173	1957.82
1012.466	1938.61
1012.759	1925.5
1013.052	1960.08
1013.344	1922.11
1013.637	1873.98
1013.93	1897.25
1014.222	1895.67
1014.514	1848.21
1014.807	1872.85
1015.099	1842.11
1015.391	1835.33
1015.683	1821.1
1015.976	1806.86
1016.268	1801.89
1016.56	1825.84
1016.851	1779.06
1017.143	1762.34
1017.435	1734.32
1017.727	1720.08
1018.018	1753.98
1018.31	1712.62
1018.602	1703.36
1018.893	1732.74
1019.185	1701.55
1019.476	1667.2
1019.767	1681.89
1020.058	1664.04
1020.35	1630.14
1020.641	1649.8
1020.932	1600.31
1021.223	1644.6
1021.514	1585.62
1021.804	1574.32
1022.095	1572.52
1022.386	1600.31
1022.677	1573.65
1022.967	1535.45
1023.258	1509.24
1023.548	1516.02
1023.839	1496.58
1024.129	1506.08
1024.419	1502.91
1024.709	1460.65
1025	1475.12
1025.29	1439.86
1025.58	1419.3
1025.87	1420.88
1026.16	1457.26
1026.449	1435.34
1026.739	1391.95
1027.029	1408.68
1027.319	1391.05
1027.608	1367.55
1027.898	1371.16
1028.187	1402.12
1028.477	1347.89
1028.766	1330.71
1029.055	1322.58
1029.344	1339.98
1029.634	1322.13
1029.923	1302.24
1030.212	1324.61
1030.501	1269.92
1030.79	1285.74
1031.078	1285.97
1031.367	1251.17
1031.656	1262.47
1031.945	1227.21
1032.233	1258.63
1032.522	1229.93
1032.81	1232.64
1033.099	1208.46
1033.387	1198.74
1033.675	1203.49
1033.963	1177.72
1034.251	1212.98
1034.54	1176.14
1034.828	1182.47
1035.116	1172.98
1035.403	1151.51
1035.691	1149.02
1035.979	1163.71
1036.267	1112.64
1036.554	1118.97
1036.842	1114.22
1037.129	1118.29
1037.417	1102.47
1037.704	1103.83
1037.992	1100.66
1038.279	1106.31
1038.566	1075.81
1038.853	1075.81
1039.14	1075.81
