Data from aluminium_macbook_case_FLMS001491_013.txt Node
Date: Tue Feb 07 10:43:16 GMT 2017
User: dcchb
Spectrometer: FLMS00149
Trigger mode: 0
Integration Time (sec): 2.000000E-2
Scans to average: 10
Electric dark correction enabled: true
Nonlinearity correction enabled: false
Boxcar width: 0
XAxis mode: Wavelengths
Number of Pixels in Spectrum: 2048
>>>>>Begin Spectral Data<<<<<
341.393	-5.89
341.776	-5.89
342.16	-5.89
342.543	-77.75
342.927	-75.94
343.31	-77.07
343.693	-73.68
344.077	-64.65
344.46	-48.37
344.843	-57.19
345.226	-52.22
345.61	-33.91
345.993	-26.91
346.376	-0.24
346.759	7.44
347.142	37.05
347.525	48.35
347.908	50.15
348.291	74.56
348.674	96.03
349.057	120.66
349.44	132.86
349.823	124.28
350.206	190.94
350.588	262.13
350.971	272.52
351.354	263.26
351.737	301.22
352.119	308.68
352.502	296.02
352.884	312.07
353.267	350.94
353.65	346.42
354.032	362.01
354.414	342.12
354.797	382.35
355.179	373.99
355.562	395.23
355.944	417.83
356.326	420.99
356.709	380.09
357.091	402.91
357.473	399.52
357.855	412.63
358.238	417.83
358.62	415.57
359.002	425.29
359.384	395.91
359.766	431.16
360.148	422.8
360.53	408.56
360.912	400.65
361.294	405.4
361.676	414.66
362.057	423.7
362.439	446.75
362.821	422.35
363.203	420.54
363.584	410.6
363.966	429.13
364.348	402.91
364.729	430.26
365.111	427.32
365.493	425.74
365.874	410.6
366.256	414.89
366.637	418.96
367.019	432.74
367.4	404.5
367.781	408.34
368.163	424.16
368.544	440.88
368.925	441.56
369.306	455.34
369.688	446.3
370.069	431.39
370.45	450.6
370.831	441.33
371.212	447.43
371.593	442.46
371.974	439.75
372.355	446.53
372.736	466.87
373.117	458.96
373.498	477.71
373.879	463.48
374.26	463.93
374.641	463.02
375.021	460.09
375.402	489.01
375.783	503.02
376.163	512.29
376.544	528.79
376.925	515
377.305	521.33
377.686	541.44
378.066	502.12
378.447	493.31
378.827	510.03
379.208	519.29
379.588	533.08
379.968	540.99
380.349	562
380.729	559.52
381.109	566.3
381.489	572.85
381.87	579.86
382.25	594.09
382.63	562.23
383.01	588.22
383.39	584.15
383.77	597.26
384.15	594.09
384.53	622.12
384.91	646.3
385.29	618.95
385.67	651.27
386.049	630.03
386.429	638.39
386.809	667.09
387.189	665.51
387.568	654.88
387.948	690.59
388.328	674.09
388.707	682.23
389.087	721.1
389.466	687.43
389.846	716.8
390.225	727.2
390.605	740.53
390.984	739.63
391.363	756.35
391.743	764.71
392.122	761.32
392.501	764.71
392.881	802.22
393.26	805.61
393.639	796.8
394.018	834.09
394.397	819.85
394.776	848.33
395.155	820.76
395.534	853.52
395.913	843.58
396.292	867.76
396.671	899.4
397.05	889.23
397.429	898.72
397.808	899.62
398.186	923.13
398.565	914.99
398.944	937.59
399.323	932.62
399.701	944.37
400.08	978.27
400.458	966.74
400.837	989.11
401.215	1006.06
401.594	1028.66
401.972	1030.92
402.351	1039.28
402.729	1052.39
403.107	1064.82
403.486	1076.79
403.864	1079.05
404.242	1068.21
404.62	1082.44
404.999	1131.93
405.377	1112.27
405.755	1141.42
406.133	1167.19
406.511	1175.1
406.889	1183.23
407.267	1211.71
407.645	1200.86
408.023	1265.04
408.401	1256
408.779	1301.42
409.156	1312.49
409.534	1305.49
409.912	1321.08
410.29	1324.92
410.667	1375.54
411.045	1413.06
411.422	1406.5
411.8	1424.58
412.178	1464.35
412.555	1508.87
412.933	1512.94
413.31	1515.43
413.687	1539.61
414.065	1545.48
414.442	1605.37
414.819	1599.94
415.197	1595.2
415.574	1625.48
415.951	1657.8
416.328	1670.45
416.705	1697.12
417.082	1683.33
417.46	1742.31
417.837	1745.25
418.214	1764.23
418.591	1818.47
418.967	1817.79
419.344	1847.85
419.721	1871.8
420.098	1874.06
420.475	1903.89
420.852	1908.86
421.228	1907.05
421.605	1944.34
421.982	1967.84
422.358	1969.65
422.735	2011.68
423.111	2029.99
423.488	2048.75
423.864	2085.58
424.241	2131.46
424.617	2119.03
424.994	2147.05
425.37	2171
425.746	2193.37
426.123	2222.53
426.499	2231.34
426.875	2339.59
427.251	2337.33
427.627	2343.43
428.003	2385.01
428.379	2418.68
428.756	2473.59
429.132	2517.89
429.507	2538.68
429.883	2559.69
430.259	2597.21
430.635	2660.93
431.011	2639.46
431.387	2738.67
431.763	2772.79
432.138	2835.39
432.514	2820.48
432.89	2841.27
433.265	2949.51
433.641	2996.29
434.016	3010.3
434.392	3074.26
434.767	3128.27
435.143	3131.43
435.518	3184.99
435.894	3158.77
436.269	3235.83
436.644	3301.59
437.02	3355.83
437.395	3316.51
437.77	3392.67
438.145	3437.41
438.52	3498.88
438.895	3527.35
439.271	3531.87
439.646	3603.51
440.021	3627.24
440.395	3643.51
440.77	3647.8
441.145	3659.78
441.52	3762.37
441.895	3735.93
442.27	3788.36
442.645	3795.14
443.019	3850.73
443.394	3862.94
443.769	3976.83
444.143	3918.3
444.518	3980.9
444.892	3976.83
445.267	4033.78
445.641	4131.18
446.016	4158.29
446.39	4157.39
446.764	4187.67
447.139	4217.73
447.513	4262.02
447.887	4234.22
448.262	4248.46
448.636	4342.92
449.01	4394.9
449.384	4422.92
449.758	4476.25
450.132	4498.85
450.506	4549.7
450.88	4551.96
451.254	4626.3
451.628	4712.18
452.002	4752.4
452.376	4797.37
452.75	4859.97
453.123	4891.16
453.497	4965.96
453.871	4975
454.244	5079.85
454.618	5131.83
454.992	5179.96
455.365	5260.64
455.739	5385.38
456.112	5432.61
456.486	5443.91
456.859	5525.72
457.232	5668.76
457.606	5600.29
457.979	5667.63
458.352	5849.78
458.725	5894.75
459.099	5934.97
459.472	6103.33
459.845	6148.75
460.218	6189.88
460.591	6229.65
460.964	6288.63
461.337	6414.28
461.71	6529.53
462.083	6604.78
462.456	6644.56
462.829	6692.24
463.201	6775.17
463.574	6874.38
463.947	6924.55
464.32	7131.55
464.692	7159.8
465.065	7216.29
465.438	7399.79
465.81	7479.56
466.183	7485.44
466.555	7731.99
466.928	7745.54
467.3	7712.55
467.672	7902.15
468.045	8045.88
468.417	8171.52
468.789	8231.41
469.161	8334.91
469.534	8502.14
469.906	8638.63
470.278	8729.47
470.65	8831.62
471.022	9018.96
471.394	9185.73
471.766	9308.44
472.138	9456.46
472.51	9574.2
472.882	9748.66
473.253	9888.31
473.625	10010.34
473.997	10227.29
474.369	10270.22
474.74	10450.33
475.112	10576.66
475.484	10792.24
475.855	11022.29
476.227	11041.73
476.598	11398.78
476.97	11494.6
477.341	11738.21
477.713	11946.56
478.084	12110.85
478.455	12393.78
478.827	12491.86
479.198	12892.08
479.569	12855.92
479.94	13273.76
480.311	13500.65
480.682	13728.21
481.053	14039.84
481.424	14219.05
481.795	14390.57
482.166	14753.5
482.537	14807.73
482.908	15231
483.279	15251.11
483.65	15623.53
484.021	15854.26
484.391	16145.1
484.762	16280.69
485.133	16456.05
485.503	16672.54
485.874	17084.73
486.244	17192.08
486.615	17449.7
486.985	17692.4
487.356	18119.96
487.726	18153.41
488.097	18611.93
488.467	18706.16
488.837	19055.3
489.207	19400.15
489.578	19563.54
489.948	19804.89
490.318	20174.37
490.688	20235.16
491.058	20596.73
491.428	20845.09
491.798	21080.56
492.168	21570.04
492.538	21485.52
492.908	21762.58
493.278	22152.4
493.648	22089.8
494.017	22505.61
494.387	22666.73
494.757	22839.84
495.126	23093.84
495.496	23129.32
495.866	23337.23
496.235	23581.06
496.605	23752.13
496.974	23948.51
497.344	24161.61
497.713	24423.75
498.082	24508.04
498.452	24811.99
498.821	24880.24
499.19	25122.04
499.559	25426.66
499.928	25617.62
500.298	25680.89
500.667	26011.96
501.036	26062.58
501.405	26313.19
501.774	26479.74
502.143	26710.24
502.512	26851.26
502.88	27121.76
503.249	27262.32
503.618	27371.24
503.987	27478.36
504.356	27656.66
504.724	27968.06
505.093	28021.62
505.462	28103.88
505.83	28399.69
506.199	28630.65
506.567	29008.94
506.936	28958.32
507.304	29244.64
507.672	29473.56
508.041	29527.12
508.409	29906.32
508.777	30036.26
509.145	30197.84
509.514	30204.39
509.882	30552.4
510.25	30782.45
510.618	30934.09
510.986	31115.33
511.354	31542.89
511.722	31844.8
512.09	32244.56
512.458	32010.67
512.826	32356.88
513.193	32698.79
513.561	32774.94
513.929	33064.88
514.297	33419.45
514.664	33696.05
515.032	33869.38
515.4	34034.57
515.767	34201.12
516.135	34456.71
516.502	34346.2
516.869	34808.11
517.237	35110.48
517.604	34968.78
517.972	35449
518.339	35684.7
518.706	35677.92
519.073	35968.08
519.44	36236.1
519.808	36557.22
520.175	36671.34
520.542	37129.41
520.909	37568.26
521.276	37502.28
521.643	37950.17
522.009	38216.61
522.376	38492.76
522.743	38795.35
523.11	39241.89
523.477	39687.08
523.843	39776.79
524.21	40126.16
524.577	40444.35
524.943	40651.57
525.31	40907.61
525.676	41345.11
526.043	41624.65
526.409	41716.63
526.776	42205.88
527.142	42313.22
527.508	42675.47
527.874	42738.52
528.241	43071.4
528.607	43327.43
528.973	43635.9
529.339	43527.65
529.705	44023.69
530.071	44285.15
530.437	44423
530.803	44642.88
531.169	44813.95
531.535	44951.35
531.901	44931.01
532.267	45415.51
532.632	45696.19
532.998	45801.95
533.364	46004.65
533.73	46163.29
534.095	46460.23
534.461	46682.6
534.826	46930.96
535.192	47134.79
535.557	47459.3
535.923	47453.88
536.288	47706.08
536.653	47951.04
537.019	47851.61
537.384	48094.77
537.749	48236.68
538.114	48372.27
538.479	48486.39
538.845	48693.39
539.21	48660.4
539.575	48819.95
539.94	49038.02
540.305	49375.41
540.67	49086.15
541.034	49262.42
541.399	49480.94
541.764	49555.07
542.129	49660.83
542.494	49656.99
542.858	49925.68
543.223	49942.85
543.587	50190.53
543.952	50113.92
544.316	50336.29
544.681	50393.69
545.045	50547.81
545.41	50679.78
545.774	50844.3
546.138	50871.87
546.503	51005.42
546.867	50988.25
547.231	51446.54
547.595	51482.02
547.959	51572.19
548.324	51689.47
548.688	51821.45
549.052	52005.62
549.416	52064.83
549.779	52142.57
550.143	52241.55
550.507	52523.12
550.871	52568.1
551.235	52551.82
551.599	52903.23
551.962	52960.18
552.326	52966.5
552.689	53178.02
553.053	53118.14
553.417	53156.55
553.78	53621.63
554.143	53465.7
554.507	53584.79
554.87	53740.27
555.234	53925.57
555.597	53778.23
555.96	53880.6
556.323	54099.58
556.686	54130.99
557.05	54323.98
557.413	54440.81
557.776	54465.67
558.139	54663.41
558.502	54652.56
558.865	54805.55
559.228	54981.37
559.59	55068.82
559.953	55145.43
560.316	55430.62
560.679	55575.02
561.041	55664.74
561.404	55814.79
561.767	55949.48
562.129	55940.21
562.492	56264.95
562.854	56208.45
563.217	56339.07
563.579	56462.23
563.941	56707.42
564.304	56919.62
564.666	57004.36
565.028	56952.61
565.39	57131.14
565.753	57215.43
566.115	57353.96
566.477	57398.48
566.839	57507.63
567.201	57655.65
567.563	57661.29
567.925	57763.89
568.287	57807.28
568.648	57865.58
569.01	58026.48
569.372	58068.97
569.734	58098.12
570.095	58294.72
570.457	58288.62
570.819	58386.25
571.18	58390.09
571.542	58560.93
571.903	58569.29
572.265	58597.99
572.626	58659.01
572.987	58736.29
573.349	58841.38
573.71	58935.84
574.071	58977.42
574.432	59026.46
574.794	59219.9
575.155	59206.34
575.516	59162.05
575.877	59286.56
576.238	59337.86
576.599	59477.29
576.96	59480
577.32	59479.55
577.681	59643.39
578.042	59711.18
578.403	59729.49
578.763	59742.37
579.124	59752.54
579.485	59931.29
579.845	59989.82
580.206	59937.84
580.566	59963.61
580.927	59972.42
581.287	60088.12
581.648	59999.54
582.008	60072.3
582.368	60032.53
582.728	60086.32
583.089	60034.34
583.449	60030.05
583.809	60023.04
584.169	60096.94
584.529	59988.24
584.889	60148.91
585.249	59992.31
585.609	59918.18
585.969	60090.38
586.329	60030.05
586.688	60042.25
587.048	60004.96
587.408	59924.51
587.768	59948.47
588.127	59955.92
588.487	59969.26
588.846	60106.65
589.206	59937.17
589.565	59991.85
589.925	60053.55
590.284	60032.76
590.643	60071.17
591.003	60081.57
591.362	60197.95
591.721	60106.43
592.08	60135.58
592.44	60249.02
592.799	60265.29
593.158	60276.14
593.517	60301.23
593.876	60322.69
594.235	60267.55
594.593	60302.81
594.952	60361.79
595.311	60317.27
595.67	60324.95
596.029	60493.54
596.387	60459.41
596.746	60556.13
597.104	60371.51
597.463	60373.54
597.822	60476.36
598.18	60410.83
598.538	60353.88
598.897	60457.61
599.255	60327.21
599.613	60585.06
599.972	60442.01
600.33	60567.88
600.688	60409.02
601.046	60478.85
601.404	60530.15
601.762	60509.13
602.12	60667.32
602.478	60592.52
602.836	60621.44
603.194	60513.65
603.552	60542.12
603.91	60467.32
604.268	60645.85
604.625	60536.02
604.983	60600.88
605.341	60492.86
605.698	60681.1
606.056	60645.62
606.413	60675.68
606.771	60714.55
607.128	60801.1
607.485	60696.92
607.843	60725.85
608.2	60922.9
608.557	60987.08
608.914	60768.33
609.272	60988.89
609.629	61027.76
609.986	61141.88
610.343	61098.49
610.7	61273.63
611.057	61182.11
611.414	61137.59
611.771	61207.87
612.127	61264.59
612.484	61227.08
612.841	61355.43
613.198	61233.4
613.554	61280.63
613.911	61343.91
614.267	61408.31
614.624	61327.64
614.98	61418.94
615.337	61510.23
615.693	61438.82
616.05	61384.81
616.406	61485.37
616.762	61387.75
617.118	61403.57
617.475	61364.7
617.831	61454.87
618.187	61496
618.543	61520.63
618.899	61599.72
619.255	61597.24
619.611	61504.13
619.967	61597.69
620.323	61671.13
620.678	61519.5
621.034	61481.31
621.39	61503.68
621.746	61435.43
622.101	61620.06
622.457	61460.52
622.812	61552.72
623.168	61481.08
623.523	61549.55
623.879	61656.9
624.234	61507.07
624.589	61563.56
624.945	61585.49
625.3	61603.34
625.655	61543
626.01	61517.24
626.365	61658.48
626.72	61586.84
627.075	61572.6
627.43	61570.12
627.785	61575.99
628.14	61580.51
628.495	61599.72
628.85	61609.44
629.205	61505.49
629.559	61611.02
629.914	61557.24
630.269	61584.58
630.623	61459.84
630.978	61462.55
631.332	61537.35
631.687	61588.65
632.041	61492.38
632.396	61476.34
632.75	61366.51
633.104	61374.19
633.459	61277.24
633.813	61230.92
634.167	61294.19
634.521	61210.58
634.875	61243.8
635.229	61162.9
635.583	61046.06
635.937	61037.7
636.291	61016.91
636.645	61018.04
636.999	60905.5
637.352	60952.96
637.706	60866.86
638.06	60962.9
638.413	60887.2
638.767	60773.76
639.121	60827.99
639.474	60635.68
639.828	60747.32
640.181	60682.23
640.534	60637.71
640.888	60524.27
641.241	60494.44
641.594	60480.2
641.947	60590.94
642.301	60483.59
642.654	60483.14
643.007	60387.78
643.36	60402.47
643.713	60288.57
644.066	60408.79
644.419	60256.03
644.771	60101.23
645.124	59962.93
645.477	59840.45
645.83	59684.74
646.182	59724.29
646.535	59628.7
646.888	59736.04
647.24	59593.22
647.593	59696.27
647.945	59620.79
648.298	59420.57
648.65	59422.83
649.002	59375.37
649.355	59485.2
649.707	59388.03
650.059	59531.08
650.411	59778.98
650.763	59804.74
651.115	60008.58
651.467	59877.51
651.819	59915.47
652.171	59799.54
652.523	59845.87
652.875	59791.63
653.227	59600.45
653.578	59830.96
653.93	59706.89
654.282	59631.19
654.633	59605.88
654.985	59659.89
655.337	59590.96
655.688	59603.84
656.039	59627.8
656.391	59415.37
656.742	59400.46
657.094	59499.44
657.445	59477.74
657.796	59397.07
658.147	59360.23
658.498	59305.55
658.849	59355.94
659.2	59255.38
659.551	59185.32
659.902	59285.88
660.253	59215.6
660.604	59248.15
660.955	59082.5
661.306	59207.02
661.656	59091.54
662.007	59103.06
662.358	59068.26
662.708	59036.17
663.059	59020.35
663.409	58877.76
663.76	59015.84
664.11	59027.81
664.461	59042.05
664.811	59058.77
665.161	59029.39
665.511	58989.85
665.862	59008.15
666.212	59067.36
666.562	59086.34
666.912	59095.38
667.262	59088.15
667.612	59014.48
667.962	59096.74
668.312	59046.12
668.662	59079.11
669.011	59065.55
669.361	59035.04
669.711	58932.9
670.06	58913.24
670.41	58887.25
670.76	58897.42
671.109	59002.95
671.459	58936.29
671.808	58802.73
672.157	58852.45
672.507	58789.4
672.856	58748.05
673.205	58701.04
673.554	58760.93
673.904	58717.09
674.253	58803.64
674.602	58699.01
674.951	58277.78
675.3	58151.68
675.649	58626.24
675.998	58526.81
676.346	58577.43
676.695	58609.07
677.044	58342.18
677.393	58423.08
677.741	58458.11
678.09	58346.02
678.438	58247.27
678.787	58384.67
679.135	58289.3
679.484	58109.42
679.832	58235.29
680.181	58093.83
680.529	58144.45
680.877	58008.4
681.225	57987.16
681.573	58129.76
681.922	57906.71
682.27	57786.94
682.618	57778.81
682.966	57747.39
683.314	57717.79
683.661	57609.77
684.009	57488.19
684.357	57436.67
684.705	57399.38
685.053	57427.4
685.4	57419.49
685.748	57321.19
686.095	57340.85
686.443	57274.64
686.79	57152.16
687.138	57236.45
687.485	57258.82
687.832	57142.66
688.18	57177.01
688.527	57064.7
688.874	57131.59
689.221	56998.04
689.568	57014.08
689.915	56849.11
690.262	56845.27
690.609	56838.94
690.956	56822.9
691.303	56739.74
691.65	56604.37
691.997	56523.7
692.344	56394.21
692.69	56387.43
693.037	56395.79
693.383	56170.26
693.73	56291.16
694.077	56066.99
694.423	56043.26
694.769	55943.83
695.116	55829.48
695.462	55782.02
695.808	55700.89
696.155	55638.97
696.501	55549.49
696.847	55500.9
697.193	55343.62
697.539	55453.9
697.885	55220.68
698.231	55072.66
698.577	55040.35
698.923	54942.04
699.269	54909.73
699.614	54698.21
699.96	54599.91
700.306	54658.44
700.651	54397.65
700.997	54278.11
701.342	54257.54
701.688	54305.68
702.033	54057.77
702.379	54118.11
702.724	54048.51
703.069	53980.04
703.415	53753.37
703.76	53666.15
704.105	53679.25
704.45	53446.49
704.795	53340.28
705.14	53213.28
705.485	53273.16
705.83	53093.05
706.175	53248.76
706.52	53029.78
706.865	52933.96
707.209	52791.82
707.554	52689.67
707.899	52825.72
708.243	52549.56
708.588	52615.55
708.932	52460.98
709.277	52474.31
709.621	52467.98
709.966	52300.76
710.31	52354.77
710.654	52024.38
710.998	52165.85
711.342	52186.18
711.687	52187.31
712.031	52015.34
712.375	51860.77
712.719	51960.2
713.063	51971.73
713.407	51953.87
713.75	51698.29
714.094	51587.56
714.438	51528.57
714.782	51701.23
715.125	51466.88
715.469	51493.1
715.812	51258.75
716.156	51224.85
716.499	51138.53
716.843	51186.66
717.186	50986.89
717.53	51058.76
717.873	51002.26
718.216	50937.63
718.559	50703.06
718.902	50546
719.246	50574.7
719.589	50423.07
719.932	50256.74
720.275	50300.36
720.617	50208.16
720.96	50147.82
721.303	50135.39
721.646	50044.77
721.989	49710.77
722.331	50002.51
722.674	49709.87
723.016	49837.55
723.359	49686.36
723.701	49621.51
724.044	49266.26
724.386	49121.63
724.729	49322.3
725.071	49196.21
725.413	49111.46
725.755	48988.08
726.097	48803.22
726.439	48562.1
726.782	48678.93
727.124	48830.57
727.465	48519.84
727.807	48371.6
728.149	48363.69
728.491	48116.23
728.833	48334.99
729.175	48186.97
729.516	48120.3
729.858	48075.56
730.199	48045.73
730.541	47877.37
730.882	47796.47
731.224	47914.88
731.565	47598.73
731.906	47751.72
732.248	47784.04
732.589	47615.01
732.93	47493.2
733.271	47572.29
733.612	47655.91
733.953	47596.7
734.294	47391.73
734.635	47315.13
734.976	47358.06
735.317	47182.93
735.658	47185.64
735.999	47267.44
736.339	47161.68
736.68	47119.65
737.021	47012.54
737.361	46812.77
737.702	47288.01
738.042	46922.37
738.383	47009.6
738.723	46878.53
739.063	46824.29
739.404	46791.98
739.744	46604.18
740.084	46432.21
740.424	46569.16
740.764	46390.4
741.104	46493.45
741.444	46302.95
741.784	46162.16
742.124	46123.52
742.464	46056.18
742.804	46028.15
743.143	45838.1
743.483	45864.77
743.823	45689.18
744.162	45619.58
744.502	45573.02
744.841	45483.54
745.181	45589.97
745.52	45287.16
745.86	45238.34
746.199	45019.82
746.538	44989.54
746.877	45005.58
747.216	44878.35
747.556	44807.62
747.895	44775.76
748.234	44515.43
748.573	44466.39
748.911	44479.27
749.25	44424.13
749.589	44057.81
749.928	44207.19
750.267	44100.75
750.605	43954.31
750.944	43864.82
751.283	43524.27
751.621	43602.23
751.96	43304.84
752.298	43349.81
752.636	43224.39
752.975	43158.85
753.313	42865.98
753.651	43232.07
753.989	42906.2
754.327	42725.19
754.666	42603.16
755.004	42447.01
755.342	42560.45
755.679	42345.09
756.017	42122.72
756.355	42331.98
756.693	42116.39
757.031	42221.7
757.368	41998.43
757.706	41929.96
758.044	41851.54
758.381	41759.57
758.719	41509.18
759.056	41603.41
759.394	41586.69
759.731	41171.33
760.068	41207.94
760.405	41024.44
760.743	40957.78
761.08	41140.15
761.417	40908.74
761.754	40857.44
762.091	40828.06
762.428	40539.94
762.765	40289.32
763.102	40661.52
763.438	40215.65
763.775	40061.08
764.112	40087.52
764.449	40102.89
764.785	39932.04
765.122	39668.32
765.458	39492.28
765.795	39422.45
766.131	39466.07
766.467	39193.53
766.804	39157.15
767.14	38984.5
767.476	38970.26
767.812	38783.15
768.148	38719.65
768.485	38418.41
768.821	38251.18
769.157	38151.75
769.492	38059.32
769.828	38064.52
770.164	37657.75
770.5	37694.14
770.836	37690.52
771.171	37430.41
771.507	37340.02
771.842	37069.07
772.178	36827.72
772.513	36938.45
772.849	36730.77
773.184	36624.33
773.519	36521.74
773.855	36261.63
774.19	36006.72
774.525	35816.67
774.86	35984.12
775.195	35827.97
775.53	35493.74
775.865	35424.59
776.2	35024.6
776.535	34814.66
776.87	35027.54
777.205	34758.39
777.539	34619.64
777.874	34541
778.209	34324.73
778.543	34264.4
778.878	34008.81
779.212	33929.49
779.547	33781.92
779.881	33634.13
780.215	33536.51
780.55	33418.32
780.884	33204.54
781.218	33082.51
781.552	33084.09
781.886	33013.36
782.22	32696.08
782.554	32574.72
782.888	32381.28
783.222	32255.41
783.556	32115.53
783.889	32084.79
784.223	31862.88
784.557	31858.58
784.89	31987.62
785.224	31795.53
785.557	31529.78
785.891	31508.31
786.224	31459.72
786.558	31451.59
786.891	31146.06
787.224	31012.5
787.557	31071.03
787.891	30888.44
788.224	30973.41
788.557	30952.17
788.89	30734.77
789.223	30691.16
789.556	30577.26
789.888	30490.48
790.221	30309.47
790.554	30119.42
790.887	30084.17
791.219	29977.5
791.552	29912.65
791.884	29810.5
792.217	29732.09
792.549	29619.55
792.882	29481.02
793.214	29334.58
793.546	29503.39
793.879	29164.42
794.211	29107.24
794.543	29120.35
794.875	28918.1
795.207	29042.39
795.539	28855.95
795.871	28902.28
796.203	28605.79
796.535	28391.78
796.867	28470.88
797.198	28344.78
797.53	28352.91
797.862	28149.3
798.193	28197.21
798.525	27933.04
798.856	27901.4
799.188	27542.99
799.519	27582.99
799.85	27476.1
800.182	27413.5
800.513	27486.49
800.844	27027.98
801.175	27172.83
801.506	27060.07
801.837	26990.69
802.168	26964.7
802.499	26817.13
802.83	26671.37
803.161	26450.36
803.491	26338.73
803.822	26377.6
804.153	26282.91
804.483	25971.05
804.814	25951.39
805.145	25904.16
805.475	25839.53
805.805	25694.68
806.136	25724.73
806.466	25621.69
806.796	25651.06
807.126	25226.89
807.457	25297.17
807.787	25234.8
808.117	25071.64
808.447	25051.3
808.777	25045.43
809.107	24989.39
809.436	24836.62
809.766	24908.03
810.096	24664.87
810.426	24629.85
810.755	24523.86
811.085	24532.67
811.414	24404.09
811.744	24270.76
812.073	24180.59
812.403	24270.53
812.732	24088.84
813.061	24121.39
813.39	23969.53
813.719	23930.66
814.049	24019.92
814.378	23969.75
814.707	24000.26
815.036	23791
815.365	23719.81
815.693	23549.2
816.022	23628.74
816.351	23513.94
816.68	23359.82
817.008	23539.71
817.337	23311.46
817.665	23337
817.994	23286.61
818.322	23402.53
818.651	23214.97
818.979	23215.65
819.307	23362.99
819.636	23307.17
819.964	23183.33
820.292	23253.61
820.62	23083.67
820.948	23044.35
821.276	23223.56
821.604	23173.84
821.932	23151.47
822.259	23186.49
822.587	23105.37
822.915	23160.05
823.243	23062.43
823.57	23053.62
823.898	23000.51
824.225	22986.5
824.553	22951.7
824.88	22974.97
825.207	23124.35
825.535	23109.21
825.862	23038.93
826.189	22947.18
826.516	23046.84
826.843	23174.07
827.17	23129.1
827.497	23084.58
827.824	23085.71
828.151	23159.83
828.478	23076.67
828.805	23069.44
829.131	22982.43
829.458	22878.93
829.785	22748.54
830.111	22919.61
830.438	22941.08
830.764	22797.8
831.09	22936.33
831.417	22753.74
831.743	22927.97
832.069	22817.24
832.395	22656.11
832.722	22803.68
833.048	22655.44
833.374	22752.38
833.7	22488.43
834.026	22618.6
834.351	22704.25
834.677	22573.63
835.003	22577.7
835.329	22581.09
835.654	22483.69
835.98	22307.2
836.306	22349.91
836.631	22282.11
836.956	22363.69
837.282	22255.67
837.607	22162.34
837.932	22062.23
838.258	22090.25
838.583	21996.02
838.908	21885.51
839.233	21948.11
839.558	21956.02
839.883	21753.54
840.208	21579.08
840.533	21676.7
840.858	21676.03
841.182	21653.88
841.507	21701.79
841.832	21539.08
842.156	21438.29
842.481	21535.46
842.805	21383.83
843.13	21347.9
843.454	21290.05
843.778	21173.67
844.103	21278.52
844.427	21127.34
844.751	21087.79
845.075	21197.62
845.399	21171.86
845.723	21028.13
846.047	20950.85
846.371	20683.06
846.695	20812.32
847.019	20628.6
847.343	20544.76
847.666	20392.22
847.99	20454.82
848.313	20414.59
848.637	20241.04
848.96	20390.86
849.284	20248.04
849.607	20123.3
849.931	20034.04
850.254	19929.86
850.577	19933.02
850.9	19806.02
851.223	19910.2
851.546	19850.31
851.869	19467.95
852.192	19741.84
852.515	19597.44
852.838	19487.84
853.161	19513.15
853.483	19489.87
853.806	19289.65
854.129	19274.51
854.451	19288.52
854.774	19178.92
855.096	19177.11
855.419	19131.69
855.741	19052.82
856.063	18940.28
856.385	18962.43
856.708	18850.34
857.03	18904.57
857.352	18778.7
857.674	18762.43
857.996	18735.54
858.318	18580.97
858.64	18637.69
858.961	18558.59
859.283	18517.24
859.605	18409.22
859.926	18571.7
860.248	18380.97
860.57	18390.01
860.891	18307.53
861.212	18177.59
861.534	18114.09
861.855	18119.74
862.176	18155.21
862.498	18162.67
862.819	18035.22
863.14	17989.12
863.461	17985.28
863.782	17906.86
864.103	17882.45
864.424	17850.59
864.745	17804.49
865.065	17737.82
865.386	17667.09
865.707	17612.18
866.027	17669.35
866.348	17642.46
866.668	17613.76
866.989	17434.56
867.309	17432.52
867.63	17438.4
867.95	17398.62
868.27	17311.62
868.59	17313.65
868.91	17326.31
869.23	17270.27
869.55	17169.48
869.87	17162.47
870.19	17226.88
870.51	17301.9
870.83	17249.25
871.15	16962.7
871.469	17115.47
871.789	17034.34
872.109	17050.84
872.428	16832.99
872.748	16888.36
873.067	16853.55
873.386	16835.02
873.706	16910.5
874.025	16797.06
874.344	16682.26
874.663	16769.71
874.982	16689.94
875.301	16624.86
875.62	16591.64
875.939	16560.91
876.258	16571.08
876.577	16548.7
876.896	16579.66
877.214	16466.45
877.533	16489.95
877.852	16445.2
878.17	16419.22
878.489	16473.9
878.807	16464.41
879.125	16420.35
879.444	16380.12
879.762	16281.59
880.08	16321.59
880.398	16270.97
880.716	16399.1
881.034	16191.2
881.352	16267.58
881.67	16076.63
881.988	16146
882.306	16241.37
882.624	16071.88
882.941	16059
883.259	16010.86
883.577	15993.24
883.894	16052.22
884.212	15990.75
884.529	15967.48
884.846	15922.96
885.164	15903.52
885.481	15765.22
885.798	15860.13
886.115	15729.52
886.432	15804.09
886.75	15718.67
887.067	15720.93
887.383	15655.85
887.7	15747.82
888.017	15597.54
888.334	15639.12
888.651	15635.51
888.967	15623.98
889.284	15506.02
889.6	15605.23
889.917	15444.78
890.233	15442.74
890.55	15432.35
890.866	15450.43
891.182	15472.35
891.498	15213.6
891.815	15322.07
892.131	15347.83
892.447	15231.9
892.763	15186.93
893.079	15187.38
893.395	15166.59
893.71	15099.7
894.026	15021.06
894.342	14974.51
894.657	14942.64
894.973	14842.53
895.289	14868.3
895.604	14793.95
895.92	14732.03
896.235	14774.06
896.55	14667.17
896.865	14640.73
897.181	14567.29
897.496	14579.72
897.811	14470.79
898.126	14369.55
898.441	14361.19
898.756	14318.71
899.071	14218.6
899.386	14321.19
899.7	14212.04
900.015	14064.7
900.33	14014.76
900.644	14035.78
900.959	14010.46
901.273	13969.79
901.588	13908.55
901.902	13853.63
902.216	13765.05
902.531	13728.89
902.845	13664.94
903.159	13522.12
903.473	13480.99
903.787	13487.09
904.101	13432.18
904.415	13424.94
904.729	13344.27
905.042	13191.73
905.356	13189.02
905.67	13110.83
905.984	13120.54
906.297	13153.31
906.611	13006.2
906.924	12971.62
907.237	12949.25
907.551	12836.26
907.864	12782.93
908.177	12784.06
908.491	12725.75
908.804	12680.33
909.117	12499.54
909.43	12484.86
909.743	12503.39
910.056	12473.1
910.368	12361.47
910.681	12286.44
910.994	12235.6
911.307	12296.61
911.619	12088.71
911.932	12113.11
912.244	12057.97
912.557	12027.01
912.869	11988.6
913.181	11844.65
913.494	11869.28
913.806	11822.27
914.118	11775.27
914.43	11724.42
914.742	11703.86
915.054	11589.51
915.366	11595.84
915.678	11600.58
915.99	11538.89
916.302	11409.4
916.613	11387.48
916.925	11373.02
917.236	11313.13
917.548	11281.95
917.859	11264.55
918.171	11161.5
918.482	11116.76
918.794	11091.22
919.105	11075.85
919.416	11032.69
919.727	11076.08
920.038	11021.62
920.349	10900.49
920.66	10844.9
920.971	10832.47
921.282	10866.37
921.593	10803.77
921.903	10740.49
922.214	10711.79
922.525	10672.93
922.835	10591.35
923.146	10531.46
923.456	10547.28
923.767	10541.18
924.077	10470.22
924.387	10412.14
924.697	10401.07
925.008	10389.54
925.318	10281.98
925.628	10246.72
925.938	10224.58
926.248	10145.71
926.558	10142.32
926.867	10111.36
927.177	10089.89
927.487	10072.72
927.796	9941.19
928.106	9938.93
928.416	9940.52
928.725	9854.87
929.034	9850.57
929.344	9867.07
929.653	9828.43
929.962	9730.35
930.271	9638.15
930.581	9636.79
930.89	9652.84
931.199	9555.44
931.508	9529.23
931.817	9496.91
932.125	9538.72
932.434	9419.63
932.743	9365.16
933.051	9328.33
933.36	9306.41
933.669	9254.21
933.977	9230.25
934.286	9139.63
934.594	9248.33
934.902	9093.08
935.21	9087.43
935.519	9072.29
935.827	9018.73
936.135	9062.57
936.443	8913.42
936.751	8874.78
937.059	8905.74
937.367	8811.96
937.674	8761.56
937.982	8758.17
938.29	8679.98
938.597	8681.79
938.905	8519.08
939.213	8568.57
939.52	8508.01
939.827	8559.53
940.135	8446.09
940.442	8381.01
940.749	8303.04
941.056	8365.42
941.363	8268.24
941.67	8279.32
941.977	8244.51
942.284	8103.5
942.591	8129.72
942.898	8111.86
943.205	8082.26
943.511	8067.34
943.818	8002.94
944.125	7979.21
944.431	7939.44
944.738	7897.86
945.044	7836.16
945.35	7783.96
945.657	7790.06
945.963	7713.91
946.269	7651.54
946.575	7724.75
946.881	7610.63
947.187	7546
947.493	7559.34
947.799	7482.95
948.105	7427.36
948.41	7421.94
948.716	7361.83
949.022	7347.82
949.327	7319.57
949.633	7209.51
949.938	7249.51
950.244	7213.36
950.549	7120.7
950.854	7134.71
951.16	7075.96
951.465	7083.87
951.77	6992.12
952.075	6995.96
952.38	6979.92
952.685	6931.1
952.99	6871.67
953.294	6818.56
953.599	6879.58
953.904	6828.51
954.209	6816.08
954.513	6809.52
954.818	6743.54
955.122	6678.68
955.426	6709.41
955.731	6604.11
956.035	6624.22
956.339	6609.53
956.643	6597.1
956.948	6543.99
957.252	6463.77
957.556	6500.15
957.86	6457.22
958.163	6467.84
958.467	6405.47
958.771	6394.39
959.075	6370.44
959.378	6318.46
959.682	6313.04
959.985	6282.31
960.289	6275.08
960.592	6235.53
960.896	6179.94
961.199	6159.82
961.502	6238.01
961.805	6121.86
962.108	6078.24
962.411	6046.61
962.714	6108.98
963.017	6035.08
963.32	6065.14
963.623	6010
963.926	5968.87
964.228	5951.69
964.531	5946.5
964.833	5888.64
965.136	5890.68
965.438	5850.23
965.741	5872.15
966.043	5779.95
966.345	5795.09
966.648	5746.28
966.95	5747.18
967.252	5715.77
967.554	5654.75
967.856	5711.47
968.158	5612.27
968.46	5630.35
968.761	5661.53
969.063	5544.02
969.365	5567.98
969.666	5548.99
969.968	5513.97
970.269	5519.84
970.571	5487.98
970.872	5457.92
971.174	5418.37
971.475	5419.28
971.776	5365.27
972.077	5356.23
972.378	5357.81
972.679	5354.42
972.98	5324.14
973.281	5270.13
973.582	5285.04
973.883	5200.53
974.183	5245.72
974.484	5146.07
974.785	5157.82
975.085	5146.07
975.386	5130.47
975.686	5064.71
975.986	5098.61
976.287	5099.51
976.587	4992.62
976.887	5051.38
977.187	5015
977.487	4952.17
977.787	4918.5
978.087	4932.29
978.387	4837.82
978.687	4849.35
978.987	4802.57
979.286	4764.15
979.586	4774.1
979.885	4808.45
980.185	4737.26
980.484	4736.36
980.784	4699.07
981.083	4676.25
981.382	4723.25
981.682	4626.08
981.981	4632.41
982.28	4588.34
982.579	4588.34
982.878	4574.55
983.177	4519.42
983.475	4560.09
983.774	4475.8
984.073	4477.83
984.372	4436.48
984.67	4455.01
984.969	4412.53
985.267	4400.32
985.566	4366.42
985.864	4326.2
986.162	4315.13
986.461	4285.52
986.759	4260.89
987.057	4233.32
987.355	4233.55
987.653	4206.88
987.951	4233.55
988.249	4216.6
988.547	4195.58
988.844	4102.7
989.142	4092.31
989.44	4084.85
989.737	4034.91
990.035	4005.08
990.332	4008.24
990.63	3986.77
990.927	3945.87
991.224	3967.34
991.521	3900.67
991.819	3908.58
992.116	3914.91
992.413	3856.16
992.71	3847.34
993.006	3840.79
993.303	3803.5
993.6	3802.37
993.897	3793.33
994.193	3748.81
994.49	3683.28
994.787	3715.37
995.083	3675.82
995.379	3667.46
995.676	3655.03
995.972	3641.02
996.268	3622.94
996.565	3603.51
996.861	3589.72
997.157	3551.3
997.453	3551.08
997.749	3499.33
998.044	3495.71
998.34	3516.5
998.636	3439.9
998.932	3507.01
999.227	3403.96
999.523	3419.56
999.818	3361.48
1000.114	3340.24
1000.409	3331.88
1000.704	3354.02
1001	3334.81
1001.295	3300.01
1001.59	3277.41
1001.885	3281.26
1002.18	3242.16
1002.475	3228.38
1002.77	3243.06
1003.065	3169.17
1003.359	3136.4
1003.654	3192.9
1003.949	3169.17
1004.243	3126.23
1004.538	3095.05
1004.832	3127.36
1005.127	3089.85
1005.421	3090.53
1005.715	3047.14
1006.009	3046.23
1006.304	3029.96
1006.598	2978.89
1006.892	2949.06
1007.186	2931.21
1007.48	2962.62
1007.773	2942.96
1008.067	2921.72
1008.361	2869.29
1008.655	2863.19
1008.948	2871.55
1009.242	2809.18
1009.535	2838.1
1009.829	2794.71
1010.122	2797.65
1010.415	2787.26
1010.708	2726.02
1011.001	2731.44
1011.295	2724.21
1011.588	2729.63
1011.881	2709.07
1012.173	2656.41
1012.466	2679.92
1012.759	2638.56
1013.052	2662.97
1013.344	2578
1013.637	2625.68
1013.93	2585.23
1014.222	2585
1014.514	2569.41
1014.807	2497.77
1015.099	2530.77
1015.391	2526.93
1015.683	2543.65
1015.976	2515.4
1016.268	2484.89
1016.56	2453.03
1016.851	2464.78
1017.143	2436.08
1017.435	2407.38
1017.727	2355.86
1018.018	2418.45
1018.31	2387.95
1018.602	2333.03
1018.893	2299.59
1019.185	2299.13
1019.476	2297.55
1019.767	2283.99
1020.058	2291.23
1020.35	2258.46
1020.641	2245.58
1020.932	2204.45
1021.223	2197.67
1021.514	2182.98
1021.804	2165.8
1022.095	2172.81
1022.386	2142.75
1022.677	2107.5
1022.967	2125.35
1023.258	2091.23
1023.548	2088.97
1023.839	2034.73
1024.129	2042.42
1024.419	2039.71
1024.709	2021.63
1025	1968.52
1025.29	1980.5
1025.58	1996.09
1025.87	1945.02
1026.16	1923.33
1026.449	1961.74
1026.739	1925.13
1027.029	1905.02
1027.319	1909.54
1027.608	1878.58
1027.898	1844.23
1028.187	1888.52
1028.477	1829.09
1028.766	1834.97
1029.055	1811.46
1029.344	1792.03
1029.634	1778.92
1029.923	1797.45
1030.212	1758.81
1030.501	1749.54
1030.79	1753.16
1031.078	1748.19
1031.367	1722.65
1031.656	1699.38
1031.945	1684.24
1032.233	1681.3
1032.522	1650.79
1032.81	1632.03
1033.099	1622.54
1033.387	1626.84
1033.675	1595.2
1033.963	1571.47
1034.251	1583
1034.54	1585.71
1034.828	1580.74
1035.116	1549.55
1035.403	1563.56
1035.691	1534.41
1035.979	1533.96
1036.267	1520.85
1036.554	1483.56
1036.842	1477.46
1037.129	1472.04
1037.417	1476.33
1037.704	1432.04
1037.992	1411.93
1038.279	1437.91
1038.566	1414.41
1038.853	1414.41
1039.14	1414.41
