Data from aluminium_surface_pro_back_FLMS001491_00033.txt Node
Date: Wed Feb 08 15:33:58 GMT 2017
User: dcchb
Spectrometer: FLMS00149
Trigger mode: 0
Integration Time (sec): 2.000000E-2
Scans to average: 10
Electric dark correction enabled: true
Nonlinearity correction enabled: false
Boxcar width: 0
XAxis mode: Wavelengths
Number of Pixels in Spectrum: 2048
>>>>>Begin Spectral Data<<<<<
341.393	-10.76
341.776	-10.76
342.16	-10.76
342.543	-47.37
342.927	-58.9
343.31	-76.07
343.693	-66.13
344.077	-64.32
344.46	-39.24
344.843	-75.85
345.226	-47.15
345.61	-37.88
345.993	-14.83
346.376	8.67
346.759	2.8
347.142	9.12
347.525	50.93
347.908	54.09
348.291	71.04
348.674	92.06
349.057	132.74
349.44	132.96
349.823	145.17
350.206	174.09
350.588	215.9
350.971	236.24
351.354	245.05
351.737	277.14
352.119	276.24
352.502	285.05
352.884	295.22
353.267	311.49
353.65	324.37
354.032	328.89
354.414	332.05
354.797	334.99
355.179	347.87
355.562	353.75
355.944	351.71
356.326	361.21
356.709	373.18
357.091	379.96
357.473	363.24
357.855	386.29
358.238	374.76
358.62	371.15
359.002	397.36
359.384	367.98
359.766	384.93
360.148	367.98
360.53	372.5
360.912	373.86
361.294	364.14
361.676	379.51
362.057	365.95
362.439	356.69
362.821	361.21
363.203	379.74
363.584	389.91
363.966	383.58
364.348	384.48
364.729	379.28
365.111	378.15
365.493	381.54
365.874	366.63
366.256	370.02
366.637	369.79
367.019	348.1
367.4	367.98
367.781	352.84
368.163	358.49
368.544	369.11
368.925	364.59
369.306	381.09
369.688	381.09
370.069	373.41
370.45	363.01
370.831	388.32
371.212	386.52
371.593	365.27
371.974	372.5
372.355	351.71
372.736	364.37
373.117	366.18
373.498	373.18
373.879	389.68
374.26	373.63
374.641	375.44
375.021	374.99
375.402	375.89
375.783	392.39
376.163	424.93
376.544	421.09
376.925	416.34
377.305	423.35
377.686	402.11
378.066	414.54
378.447	385.61
378.827	439.17
379.208	440.53
379.588	424.25
379.968	411.6
380.349	440.53
380.729	422.45
381.109	431.03
381.489	437.36
381.87	429.9
382.25	441.88
382.63	465.61
383.01	460.41
383.39	471.94
383.77	452.28
384.15	474.2
384.53	463.8
384.91	461.32
385.29	479.85
385.67	473.74
386.049	509.68
386.429	498.83
386.809	499.05
387.189	502.44
387.568	508.55
387.948	510.35
388.328	511.03
388.707	515.1
389.087	525.04
389.466	522.78
389.846	531.37
390.225	520.75
390.605	550.8
390.984	537.92
391.363	571.82
391.743	579.96
392.122	560.52
392.501	574.98
392.881	583.8
393.26	589.67
393.639	615.21
394.018	593.74
394.397	596.45
394.776	622.22
395.155	655.21
395.534	615.44
395.913	645.94
396.292	625.38
396.671	654.76
397.05	645.04
397.429	637.36
397.808	669.67
398.186	676.9
398.565	682.1
398.944	690.01
399.323	668.99
399.701	679.61
400.08	715.55
400.458	711.7
400.837	726.17
401.215	716.45
401.594	715.09
401.972	726.62
402.351	740.18
402.729	756
403.107	753.06
403.486	773.17
403.864	767.75
404.242	771.59
404.62	760.52
404.999	806.62
405.377	817.01
405.755	846.16
406.133	854.07
406.511	849.78
406.889	848.65
407.267	891.13
407.645	902.21
408.023	913.51
408.401	889.1
408.779	899.95
409.156	908.31
409.534	936.78
409.912	959.16
410.29	968.42
410.667	970
411.045	978.14
411.422	1006.16
411.8	987.86
412.178	1012.71
412.555	1020.85
412.933	1108.53
413.31	1061.53
413.687	1087.51
414.065	1086.16
414.442	1103.11
414.819	1123.67
415.197	1112.37
415.574	1141.98
415.951	1171.81
416.328	1156.21
416.705	1175.2
417.082	1160.05
417.46	1201.86
417.837	1229.43
418.214	1231.92
418.591	1244.12
418.967	1247.51
419.344	1259.03
419.721	1291.35
420.098	1294.51
420.475	1278.7
420.852	1307.17
421.228	1317.79
421.605	1325.02
421.982	1364.12
422.358	1388.52
422.735	1375.19
423.111	1384.23
423.488	1400.5
423.864	1422.65
424.241	1455.87
424.617	1449.31
424.994	1441.4
425.37	1462.42
425.746	1509.42
426.123	1470.1
426.499	1518.91
426.875	1544.9
427.251	1584
427.627	1586.26
428.003	1605.01
428.379	1631.45
428.756	1656.99
429.132	1673.49
429.507	1683.66
429.883	1711.23
430.259	1778.34
430.635	1755.07
431.011	1747.61
431.387	1813.37
431.763	1832.35
432.138	1865.57
432.514	1905.57
432.89	1894.5
433.265	1920.03
433.641	1982.86
434.016	1955.51
434.392	1981.95
434.767	2012.01
435.143	2042.97
435.518	2071.22
435.894	2082.06
436.269	2092.91
436.644	2121.38
437.02	2176.75
437.395	2198.45
437.77	2231.44
438.145	2266.92
438.52	2294.04
438.895	2297.2
439.271	2267.6
439.646	2361.15
440.021	2354.6
440.395	2350.98
440.77	2351.44
441.145	2400.02
441.52	2440.7
441.895	2435.5
442.27	2453.58
442.645	2454.03
443.019	2489.96
443.394	2529.28
443.769	2534.26
444.143	2552.56
444.518	2590.75
444.892	2549.4
445.267	2583.97
445.641	2682.05
446.016	2623.29
446.39	2640.92
446.764	2684.76
447.139	2681.14
447.513	2740.8
447.887	2755.72
448.262	2764.98
448.636	2777.41
449.01	2800.92
449.384	2822.16
449.758	2864.19
450.132	2905.09
450.506	2889.5
450.88	2915.71
451.254	2922.04
451.628	3014.24
452.002	3017.41
452.376	3039.1
452.75	3088.14
453.123	3102.83
453.497	3165.65
453.871	3152.77
454.244	3277.29
454.618	3227.34
454.992	3336.27
455.365	3337.62
455.739	3390.5
456.112	3419.88
456.486	3448.58
456.859	3495.36
457.232	3568.58
457.606	3562.02
457.979	3639.54
458.352	3704.39
458.725	3779.65
459.099	3783.71
459.472	3810.15
459.845	3875.92
460.218	3903.94
460.591	3921.56
460.964	3984.61
461.337	4038.17
461.71	4145.29
462.083	4197.26
462.456	4200.88
462.829	4189.81
463.201	4334.66
463.574	4305.96
463.947	4387.54
464.32	4505.5
464.692	4507.08
465.065	4546.63
465.438	4616.23
465.81	4646.97
466.183	4716.12
466.555	4835.66
466.928	4901.65
467.3	4895.55
467.672	4961.99
468.045	5060.06
468.417	5081.31
468.789	5152.04
469.161	5222.55
469.534	5349.77
469.906	5411.24
470.278	5488.3
470.65	5494.4
471.022	5612.14
471.394	5657.56
471.766	5766.26
472.138	5864.34
472.51	5994.28
472.882	5988.4
473.253	6139.81
473.625	6212.12
473.997	6323.08
474.369	6363.08
474.74	6451.44
475.112	6559.46
475.484	6727.82
475.855	6840.58
476.227	6812.56
476.598	7045.55
476.97	7082.84
477.341	7345.88
477.713	7405.31
478.084	7474.69
478.455	7677.85
478.827	7721.24
479.198	7826.32
479.569	7906.77
479.94	8227.21
480.311	8196.25
480.682	8428.56
481.053	8577.94
481.424	8763.24
481.795	8885.5
482.166	9021.77
482.537	9091.6
482.908	9272.16
483.279	9395.32
483.65	9570.23
484.021	9759.15
484.391	9891.12
484.762	10017.67
485.133	10141.06
485.503	10194.84
485.874	10500.83
486.244	10522.52
486.615	10779.91
486.985	10880.48
487.356	11121.37
487.726	11137.42
488.097	11401.82
488.467	11531.08
488.837	11757.06
489.207	11885.65
489.578	12029.15
489.948	12155.92
490.318	12273.43
490.688	12331.51
491.058	12516.82
491.428	12725.63
491.798	12916.58
492.168	13181.21
492.538	13191.38
492.908	13328.77
493.278	13540.75
493.648	13549.78
494.017	13775.77
494.387	13839.49
494.757	13940.51
495.126	14144.12
495.496	14145.93
495.866	14333.04
496.235	14434.06
496.605	14572.36
496.974	14720.38
497.344	14793.37
497.713	14924.21
498.082	15076.3
498.452	15274.94
498.821	15299.34
499.19	15414.82
499.559	15561.26
499.928	15694.14
500.298	15738.2
500.667	15885.32
501.036	15869.72
501.405	16051.64
501.774	16139.1
502.143	16349.71
502.512	16437.84
502.88	16600.78
503.249	16642.13
503.618	16729.36
503.987	16825.41
504.356	16927.55
504.724	17099.3
505.093	17158.73
505.462	17280.31
505.83	17360.53
506.199	17684.59
506.567	17757.36
506.936	17817.24
507.304	18123.68
507.672	18141.98
508.041	18236.89
508.409	18391.47
508.777	18605.92
509.145	18644.11
509.514	18730.44
509.882	18853.37
510.25	18963.88
510.618	19173.37
510.986	19226.7
511.354	19425.79
511.722	19574.49
512.09	19705.56
512.458	19706.69
512.826	19780.81
513.193	20038.88
513.561	20098.99
513.929	20352.32
514.297	20536.95
514.664	20654.91
515.032	20776.49
515.4	20941.91
515.767	20972.87
516.135	21222.58
516.502	21133.09
516.869	21550.7
517.237	21711.38
517.604	21732.62
517.972	21900.98
518.339	22150.46
518.706	22216.68
519.073	22338.25
519.44	22547.51
519.808	22904.79
520.175	22808.07
520.542	23269.98
520.909	23306.59
521.276	23363.09
521.643	23656.64
522.009	23906.35
522.376	23884.43
522.743	24244.65
523.11	24394.47
523.477	24641.47
523.843	24745.2
524.21	24980.44
524.577	25211.85
524.943	25401
525.31	25536.14
525.676	25806.86
526.043	25977.48
526.409	26068.55
526.776	26450.69
527.142	26427.86
527.508	26671.93
527.874	26931.81
528.241	27094.97
528.607	27161.86
528.973	27334.28
529.339	27343.77
529.705	27789.18
530.071	27885.68
530.437	28073.47
530.803	28392.33
531.169	28471.43
531.535	28463.74
531.901	28648.82
532.267	28829.16
532.632	28957.29
532.998	29070.73
533.364	29223.27
533.73	29319.09
534.095	29661.68
534.461	29791.17
534.826	29992.97
535.192	30003.36
535.557	30386.4
535.923	30359.96
536.288	30564.48
536.653	30525.61
537.019	30425.05
537.384	30737.36
537.749	31031.81
538.114	31032.72
538.479	30948.88
538.845	31270.22
539.21	31341.86
539.575	31397.23
539.94	31538.24
540.305	31746.59
540.67	31662.3
541.034	31850.09
541.399	31918.57
541.764	32041.28
542.129	32191.33
542.494	32297.09
542.858	32523.75
543.223	32444.2
543.587	32695.5
543.952	32735.27
544.316	32737.3
544.681	32882.16
545.045	33171.87
545.41	33330.73
545.774	33296.61
546.138	33456.38
546.503	33521.69
546.867	33488.92
547.231	33882.36
547.595	33943.83
547.959	34088.91
548.324	34079.19
548.688	34104.5
549.052	34344.72
549.416	34490.03
549.779	34458.39
550.143	34539.06
550.507	34842.56
550.871	34999.39
551.235	35060.86
551.599	35365.93
551.962	35304.24
552.326	35389.44
552.689	35730.44
553.053	35677.56
553.417	35756.66
553.78	36206.36
554.143	36184.9
554.507	36207.49
554.87	36317.32
555.234	36837.08
555.597	36664.21
555.96	36789.63
556.323	37127.7
556.686	37017.42
557.05	37331.76
557.413	37496.73
557.776	37697.4
558.139	37918.86
558.502	37884.06
558.865	38023.72
559.228	38347.1
559.59	38397.04
559.953	38559.97
560.316	39020.3
560.679	38860.98
561.041	39187.98
561.404	39340.97
561.767	39453.28
562.129	39562.43
562.492	39839.49
562.854	39950.67
563.217	39912.03
563.579	40292.81
563.941	40432.24
564.304	40579.58
564.666	41003.75
565.028	41172.79
565.39	41133.92
565.753	41379.34
566.115	41538.65
566.477	41732.55
566.839	41920.11
567.201	42063.61
567.563	42225.64
567.925	42644.84
568.287	42516.48
568.648	42719.41
569.01	43105.84
569.372	43331.83
569.734	43286.18
570.095	43581.76
570.457	43712.16
570.819	43975.43
571.18	43848.42
571.542	44275.3
571.903	44418.35
572.265	44625.13
572.626	44698.34
572.987	44831.45
573.349	45196.18
573.71	45124.55
574.071	45264.43
574.432	45501.26
574.794	45795.04
575.155	45686.57
575.516	45776.28
575.877	45936.96
576.238	46026.22
576.599	46218.53
576.96	46103.05
577.32	46270.28
577.681	46226.89
578.042	46482.7
578.403	46447.23
578.763	46718.18
579.124	46728.12
579.485	46822.58
579.845	47003.82
580.206	46870.26
580.566	46849.7
580.927	47018.28
581.287	47150.48
581.648	47122.24
582.008	47327.43
582.368	47337.82
582.728	47348.44
583.089	47396.58
583.449	47353.87
583.809	47383.47
584.169	47537.82
584.529	47459.18
584.889	47851.48
585.249	47563.81
585.609	47574.88
585.969	47686.29
586.329	47571.26
586.688	47774.87
587.048	47499.63
587.408	47512.06
587.768	47601.77
588.127	47505.28
588.487	47554.31
588.846	47838.15
589.206	47551.15
589.565	47589.12
589.925	47739.62
590.284	47641.77
590.643	47720.86
591.003	47759.96
591.362	47931.48
591.721	47894.87
592.08	47879.05
592.44	47876.11
592.799	47916.56
593.158	47809.9
593.517	47867.98
593.876	48054.87
594.235	47932.38
594.593	47946.39
594.952	48130.57
595.311	47976.9
595.67	48018.48
596.029	48306.16
596.387	48257.8
596.746	48227.29
597.104	48093.74
597.463	48106.62
597.822	48197.01
598.18	48082.89
598.538	48049.89
598.897	48438.81
599.255	47969.22
599.613	48607.85
599.972	48297.57
600.33	48464.35
600.688	48318.14
601.046	48488.98
601.404	48575.3
601.762	48465.93
602.12	48706.83
602.478	48613.95
602.836	48613.5
603.194	48539.37
603.552	48560.16
603.91	48634.74
604.268	48756.77
604.625	48683.32
604.983	48835.64
605.341	48608.98
605.698	48787.28
606.056	48896.2
606.413	48798.8
606.771	48878.12
607.128	48893.71
607.485	48650.1
607.843	48854.39
608.2	48991.34
608.557	49244.67
608.914	48919.48
609.272	49155.85
609.629	49238.34
609.986	49349.07
610.343	49148.17
610.7	49229.52
611.057	49201.5
611.414	49304.78
611.771	49283.99
612.127	49570.98
612.484	49359.69
612.841	49454.15
613.198	49444.89
613.554	49365.34
613.911	49696.63
614.267	49722.39
614.624	49782.5
614.98	49791.77
615.337	50013.01
615.693	49995.15
616.05	49971.88
616.406	50161.48
616.762	49982.27
617.118	49913.57
617.475	49947.47
617.831	50071.99
618.187	50094.81
618.543	50159.67
618.899	50193.12
619.255	50236.96
619.611	50201.7
619.967	50370.29
620.323	50478.76
620.678	50325.54
621.034	50215.49
621.39	50255.94
621.746	50288.48
622.101	50566.21
622.457	50248.93
622.812	50387.91
623.168	50384.07
623.523	50373.45
623.879	50374.81
624.234	50276.28
624.589	50318.76
624.945	50265.66
625.3	50425.88
625.655	50255.03
626.01	50283.73
626.365	50286.67
626.72	50231.31
627.075	50355.37
627.43	50306.78
627.785	50192.44
628.14	50320.34
628.495	50341.59
628.85	50205.32
629.205	50224.07
629.559	50372.77
629.914	50175.26
630.269	50304.3
630.623	50157.64
630.978	50135.94
631.332	50237.86
631.687	50177.07
632.041	50093.23
632.396	50196.96
632.75	50012.33
633.104	50049.16
633.459	49822.28
633.813	49718.78
634.167	49677.2
634.521	49797.19
634.875	49792.67
635.229	49682.39
635.583	49510.87
635.937	49506.58
636.291	49526.24
636.645	49502.51
636.999	49343.19
637.352	49544.32
637.706	49414.83
638.06	49482.17
638.413	49333.25
638.767	49312.91
639.121	49276.3
639.474	49018.23
639.828	49010.32
640.181	48992.69
640.534	49049.64
640.888	48887.39
641.241	48755.19
641.594	48658.69
641.947	48765.13
642.301	48582.31
642.654	48655.08
643.007	48582.76
643.36	48513.16
643.713	48517.45
644.066	48547.06
644.419	48253.73
644.771	48085.6
645.124	47701.66
645.477	47552.05
645.83	47391.38
646.182	47183.25
646.535	47156.36
646.888	47128.79
647.24	46873.65
647.593	47158.17
647.945	47080.43
648.298	46899.64
648.65	46797.27
649.002	46732.87
649.355	46854.67
649.707	46774.45
650.059	46894.67
650.411	47345.05
650.763	47290.14
651.115	47721.54
651.467	47564.03
651.819	47340.53
652.171	47333.3
652.523	47237.71
652.875	47370.14
653.227	47045.63
653.578	47389.8
653.93	47259.63
654.282	47041.56
654.633	47004.27
654.985	47068.9
655.337	46954.56
655.688	47037.27
656.039	47140.09
656.391	46801.57
656.742	46915.24
657.094	46811.06
657.445	46989.13
657.796	46806.31
658.147	46734.9
658.498	46823.03
658.849	46825.52
659.2	46775.35
659.551	46667.33
659.902	46722.25
660.253	46668.91
660.604	46614.45
660.955	46411.52
661.306	46670.95
661.656	46559.31
662.007	46498.52
662.358	46464.17
662.708	46458.75
663.059	46524.96
663.409	46243.16
663.76	46594.11
664.11	46454.91
664.461	46589.37
664.811	46504.4
665.161	46414.01
665.511	46411.75
665.862	46492.42
666.212	46483.83
666.562	46488.81
666.912	46369.49
667.262	46455.81
667.612	46306.21
667.962	46317.51
668.312	46223.73
668.662	46443.16
669.011	46237.97
669.361	46164.97
669.711	46069.83
670.06	46065.77
670.41	46159.77
670.76	45999.78
671.109	46121.58
671.459	46113.67
671.808	45876.62
672.157	46083.17
672.507	45790.97
672.856	45797.3
673.205	45979.67
673.554	45988.48
673.904	45822.61
674.253	46084.3
674.602	45873.91
674.951	45294.49
675.3	45136.75
675.649	45656.51
675.998	45675.72
676.346	45618.09
676.695	45849.95
677.044	45392.11
677.393	45498.78
677.741	45640.24
678.09	45362.96
678.438	45347.82
678.787	45332.68
679.135	45425.11
679.484	44990.54
679.832	45358.67
680.181	45023.31
680.529	45069.63
680.877	45073.93
681.225	44889.53
681.573	45148.05
681.922	44799.36
682.27	44721.17
682.618	44828.28
682.966	44724.78
683.314	44657.67
683.661	44692.24
684.009	44286.6
684.357	44425.81
684.705	44278.24
685.053	44166.83
685.4	44047.97
685.748	43904.02
686.095	43896.56
686.443	43655.89
686.79	43667.64
687.138	43726.39
687.485	43532.95
687.832	43537.7
688.18	43529.11
688.527	43279.17
688.874	43139.06
689.221	43184.94
689.568	43069.69
689.915	43035.79
690.262	43042.57
690.609	42913.98
690.956	42757.38
691.303	42734.1
691.65	42591.06
691.997	42482.36
692.344	42162.82
692.69	42268.13
693.037	42225.64
693.383	41947.68
693.73	42123.95
694.077	41913.56
694.423	41864.97
694.769	41854.35
695.116	41705.43
695.462	41622.95
695.808	41607.58
696.155	41556.05
696.501	41293.24
696.847	41063.86
697.193	41007.82
697.539	41051.21
697.885	40705.23
698.231	40651.22
698.577	40506.82
698.923	40494.39
699.269	40405.35
699.614	40127.39
699.96	40003.33
700.306	40021.63
700.651	39874.06
700.997	39833.84
701.342	39708.19
701.688	39639.72
702.033	39540.51
702.379	39336.9
702.724	39244.7
703.069	39372.16
703.415	38772.62
703.76	38875.9
704.105	38832.06
704.45	38713.87
704.795	38590.93
705.14	38369.7
705.485	38407.21
705.83	38272.75
706.175	38273.43
706.52	38194.79
706.865	37960.89
707.209	37868.92
707.554	37779.88
707.899	37870.05
708.243	37711.64
708.588	37708.25
708.932	37424.19
709.277	37352.32
709.621	37371.98
709.966	37206.79
710.31	37191.2
710.654	36823.07
710.998	37047.25
711.342	37101.26
711.687	36817.42
712.031	36798.89
712.375	36709.18
712.719	36692.23
713.063	36524.32
713.407	36587.82
713.75	36426.02
714.094	36375.4
714.438	36284.1
714.782	36286.81
715.125	36028.29
715.469	36167.5
715.812	35981.29
716.156	35854.51
716.499	35728.41
716.843	35723.67
717.186	35499.49
717.53	35772.48
717.873	35711.69
718.216	35514.18
718.559	35422.66
718.902	35137.47
719.246	35369.55
719.589	35125.94
719.932	35050.91
720.275	34972.05
720.617	34985.83
720.96	34869.68
721.303	34938.6
721.646	34781.09
721.989	34704.93
722.331	34793.07
722.674	34610.93
723.016	34634.88
723.359	34475.34
723.701	34530.7
724.044	34249.13
724.386	34022.02
724.729	34310.6
725.071	34149.7
725.413	33980.66
725.755	33884.84
726.097	33819.53
726.439	33723.94
726.782	33637.39
727.124	33793.55
727.465	33582.93
727.807	33537.73
728.149	33425.87
728.491	33261.36
728.833	33471.97
729.175	33323.28
729.516	33237.18
729.858	33043.06
730.199	33140.46
730.541	33052.1
730.882	33077.86
731.224	32959.67
731.565	32820.46
731.906	32890.29
732.248	32883.97
732.589	32688.72
732.93	32624.31
733.271	32631.77
733.612	32597.19
733.953	32501.15
734.294	32495.95
734.635	32363.08
734.976	32448.72
735.317	32144.32
735.658	32247.82
735.999	32254.15
736.339	32034.95
736.68	32111.1
737.021	31901.17
737.361	31890.09
737.702	32022.75
738.042	31810.32
738.383	31696.2
738.723	31839.93
739.063	31692.36
739.404	31713.83
739.744	31618.69
740.084	31542.31
740.424	31592.93
740.764	31462.99
741.104	31558.13
741.444	31296.89
741.784	31188.42
742.124	31343.22
742.464	31362.2
742.804	31149.77
743.143	31179.6
743.483	31044.69
743.823	30884.02
744.162	30852.15
744.502	30887.63
744.841	30821.42
745.181	30945.71
745.52	30834.75
745.86	30791.37
746.199	30657.36
746.538	30639.05
746.877	30774.64
747.216	30657.81
747.556	30439.74
747.895	30510.47
748.234	30411.04
748.573	30280.19
748.911	30288.33
749.25	30212.17
749.589	30074.77
749.928	30113.19
750.267	30034.1
750.605	29948.45
750.944	29889.47
751.283	29674.11
751.621	29674.33
751.96	29531.96
752.298	29650.38
752.636	29472.08
752.975	29389.82
753.313	29182.59
753.651	29472.08
753.989	29213.1
754.327	29111.41
754.666	29018.3
755.004	28990.28
755.342	29012.2
755.679	29017.4
756.017	28830.74
756.355	28810.17
756.693	28588.94
757.031	28743.74
757.368	28612.21
757.706	28563.18
758.044	28396.63
758.381	28489.96
758.719	28289.06
759.056	28364.99
759.394	28155.05
759.731	27997.09
760.068	27915.73
760.405	27824.44
760.743	27775.4
761.08	27732.01
761.417	27680.49
761.754	27506.25
762.091	27484.79
762.428	27326.15
762.765	27241.4
763.102	27267.84
763.438	27202.76
763.775	27002.99
764.112	26925.7
764.449	27032.14
764.785	26786.95
765.122	26639.61
765.458	26494.08
765.795	26558.93
766.131	26586.96
766.467	26309.22
766.804	26274.42
767.14	26072.39
767.476	26137.48
767.812	25912.17
768.148	26021.1
768.485	25837.15
768.821	25627.43
769.157	25692.06
769.492	25581.56
769.828	25505.63
770.164	25295.01
770.5	25212.76
770.836	25288.23
771.171	25052.08
771.507	25015.7
771.842	24800.34
772.178	24698.87
772.513	24723.73
772.849	24578.87
773.184	24513.79
773.519	24475.37
773.855	24370.29
774.19	24246.23
774.525	24201.93
774.86	24121.71
775.195	23983.18
775.53	23961.49
775.865	23656.86
776.2	23558.11
776.535	23464.1
776.87	23474.27
777.205	23404.22
777.539	23312.47
777.874	23223.65
778.209	23007.16
778.543	23072.92
778.878	22908.63
779.212	22888.97
779.547	22731.24
779.881	22721.07
780.215	22607.17
780.55	22671.13
780.884	22521.53
781.218	22447.86
781.552	22490.11
781.886	22291.7
782.22	22064.82
782.554	22042.22
782.888	21907.08
783.222	21867.08
783.556	21749.57
783.889	21531.72
784.223	21492.18
784.557	21509.12
784.89	21483.81
785.224	21369.47
785.557	21138.06
785.891	21171.28
786.224	21165.4
786.558	21147.1
786.891	20915.02
787.224	20885.64
787.557	20746.66
787.891	20799.31
788.224	20735.36
788.557	20686.55
788.89	20615.59
789.223	20637.73
789.556	20337.63
789.888	20328.82
790.221	20222.15
790.554	20112.1
790.887	20118.88
791.219	20143.74
791.552	20095.38
791.884	19894.93
792.217	19881.37
792.549	19796.17
792.882	19753.01
793.214	19491.55
793.546	19582.85
793.879	19453.36
794.211	19361.16
794.543	19367.03
794.875	19338.11
795.207	19340.37
795.539	19074.84
795.871	19161.39
796.203	18983.99
796.535	18926.82
796.867	18860.38
797.198	18771.12
797.53	18804.11
797.862	18593.27
798.193	18654.51
798.525	18463.78
798.856	18618.58
799.188	18275.76
799.519	18291.13
799.85	18159.38
800.182	18210.91
800.513	18268.53
800.844	17984.02
801.175	18125.48
801.506	18095.43
801.837	17971.14
802.168	17865.6
802.499	17901.76
802.83	17796.23
803.161	17717.36
803.491	17642.56
803.822	17620.86
804.153	17485.05
804.483	17372.06
804.814	17322.57
805.145	17316.47
805.475	17362.11
805.805	17198.05
806.136	17259.07
806.466	17287.54
806.796	17129.8
807.126	16940.43
807.457	16968.68
807.787	16931.84
808.117	16825.18
808.447	16793.99
808.777	16912.86
809.107	16809.59
809.436	16734.79
809.766	16670.83
810.096	16660.66
810.426	16621.34
810.755	16593.55
811.085	16439.65
811.414	16467.67
811.744	16318.75
812.073	16353.78
812.403	16231.75
812.732	16250.73
813.061	16243.27
813.39	16067.68
813.719	16090.28
814.049	16166.21
814.378	16051.87
814.707	15903.85
815.036	15927.12
815.365	15803.74
815.693	15794.47
816.022	15771.65
816.351	15733.91
816.68	15517.64
817.008	15604.19
817.337	15562.61
817.665	15580.92
817.994	15533.01
818.322	15518.55
818.651	15414.14
818.979	15350.42
819.307	15379.34
819.636	15407.36
819.964	15283.75
820.292	15295.05
820.62	15252.79
820.948	15214.83
821.276	15221.83
821.604	15223.41
821.932	15168.05
822.259	15259.12
822.587	15255.5
822.915	15135.73
823.243	15241.04
823.57	15142.74
823.898	15206.92
824.225	15138.67
824.553	15072.91
824.88	15189.52
825.207	15265.67
825.535	15079.91
825.862	15106.35
826.189	15123.98
826.516	15189.97
826.843	15159.69
827.17	15213.7
827.497	15164.88
827.824	15130.31
828.151	15140.03
828.478	15144.32
828.805	15160.59
829.131	15017.99
829.458	15091.67
829.785	15007.37
830.111	14994.94
830.438	15151.1
830.764	15064.55
831.09	15163.53
831.417	15100.7
831.743	15104.77
832.069	14996.3
832.395	15049.86
832.722	15019.8
833.048	14962.18
833.374	15065
833.7	14843.99
834.026	14987.04
834.351	14955.17
834.677	15001.27
835.003	15027.26
835.329	14888.51
835.654	14954.72
835.98	14875.4
836.306	14889.41
836.631	14832.24
836.956	14824.33
837.282	14900.26
837.607	14783.88
837.932	14781.17
838.258	14749.75
838.583	14732.8
838.908	14757.44
839.233	14758.79
839.558	14678.12
839.883	14637.21
840.208	14657.33
840.533	14594.5
840.858	14642.19
841.182	14578.01
841.507	14579.81
841.832	14503.88
842.156	14517.44
842.481	14520.38
842.805	14413.49
843.13	14406.71
843.454	14399.93
843.778	14377.79
844.103	14277.9
844.427	14259.37
844.751	14366.94
845.075	14222.99
845.399	14326.71
845.723	14150.9
846.047	14204.46
846.371	14032.48
846.695	14016.21
847.019	13920.85
847.343	13862.77
847.666	13780.29
847.99	13716.11
848.313	13763.79
848.637	13636.34
848.96	13603.12
849.284	13528.99
849.607	13378.26
849.931	13374.42
850.254	13321.09
850.577	13290.58
850.9	13124.94
851.223	13179.63
851.546	13116.8
851.869	13068.44
852.192	13111.15
852.515	12937.82
852.838	12989.35
853.161	12972.63
853.483	12855.11
853.806	12792.29
854.129	12789.35
854.451	12727.89
854.774	12732.63
855.096	12681.56
855.419	12651.73
855.741	12612.18
856.063	12566.76
856.385	12519.53
856.708	12418.06
857.03	12441.57
857.352	12353.88
857.674	12406.76
857.996	12375.13
858.318	12274.79
858.64	12275.92
858.961	12207.45
859.283	12271.4
859.605	12239.99
859.926	12121.57
860.248	12138.97
860.57	12030.28
860.891	12160.44
861.212	12024.18
861.534	12023.27
861.855	12045.64
862.176	12039.09
862.498	12077.96
862.819	11974.01
863.14	11997.74
863.461	11837.97
863.782	11882.71
864.103	11896.95
864.424	11899.88
864.745	11940.34
865.065	11834.58
865.386	11868.47
865.707	11697.4
866.027	11728.36
866.348	11704.18
866.668	11722.26
866.989	11754.58
867.309	11716.16
867.63	11668.25
867.95	11644.75
868.27	11551.19
868.59	11608.82
868.91	11636.61
869.23	11598.65
869.55	11483.4
869.87	11594.36
870.19	11507.13
870.51	11534.92
870.83	11541.7
871.15	11440.46
871.469	11411.08
871.789	11586.67
872.109	11482.49
872.428	11357.53
872.748	11437.52
873.067	11462.16
873.386	11407.24
873.706	11410.63
874.025	11378.99
874.344	11333.12
874.663	11334.02
874.982	11286.34
875.301	11335.15
875.62	11305.1
875.939	11201.37
876.258	11294.48
876.577	11183.97
876.896	11231.43
877.214	11162.28
877.533	11168.38
877.852	11176.29
878.17	11178.1
878.489	11196.4
878.807	11175.84
879.125	11162.05
879.444	11127.48
879.762	11143.97
880.08	11062.17
880.398	11020.59
880.716	11133.35
881.034	11002.51
881.352	11093.35
881.67	11033.01
881.988	10962.28
882.306	11004.54
882.624	10949.63
882.941	10996.63
883.259	10914.83
883.577	10927.48
883.894	10799.8
884.212	10860.36
884.529	10816.52
884.846	10758.45
885.164	10822.63
885.481	10729.97
885.798	10821.72
886.115	10713.48
886.432	10743.31
886.75	10695.85
887.067	10686.13
887.383	10670.54
887.7	10672.8
888.017	10614.72
888.334	10670.76
888.651	10516.19
888.967	10547.38
889.284	10552.12
889.6	10439.58
889.917	10419.47
890.233	10421.51
890.55	10380.6
890.866	10369.08
891.182	10299.02
891.498	10332.02
891.815	10311.23
892.131	10278.23
892.447	10245.24
892.763	10192.13
893.079	10191
893.395	10138.58
893.71	10032.82
894.026	10100.61
894.342	10108.07
894.657	10039.37
894.973	10107.16
895.289	10012.48
895.604	10024.68
895.92	9929.09
896.235	9928.86
896.55	9877.34
896.865	9844.57
897.181	9882.99
897.496	9898.58
897.811	9775.65
898.126	9792.6
898.441	9654.07
898.756	9704.01
899.071	9618.14
899.386	9598.25
899.7	9536.11
900.015	9566.61
900.33	9476.67
900.644	9405.94
900.959	9464.47
901.273	9417.69
901.588	9358.93
901.902	9314.64
902.216	9316.45
902.531	9274.87
902.845	9251.59
903.159	9169.79
903.473	9197.36
903.787	9100.64
904.101	9106.29
904.415	9131.82
904.729	9153.74
905.042	9054.99
905.356	9011.15
905.67	9087.3
905.984	9001.66
906.297	8924.14
906.611	8942.67
906.924	8910.81
907.237	8838.95
907.551	8817.71
907.864	8804.15
908.177	8801.21
908.491	8806.86
908.804	8711.27
909.117	8722.79
909.43	8665.39
909.743	8615.9
910.056	8636.69
910.368	8566.64
910.681	8511.73
910.994	8489.81
911.307	8436.7
911.619	8376.81
911.932	8426.53
912.244	8315.57
912.557	8217.95
912.869	8235.12
913.181	8233.99
913.494	8185.86
913.806	8125.75
914.118	8133.66
914.43	8090.27
914.742	8053.88
915.054	7988.58
915.366	8019.53
915.678	7949.71
915.99	7979.08
916.302	7862.7
916.613	7867.67
916.925	7874.68
917.236	7783.83
917.548	7729.6
917.859	7754.68
918.171	7668.58
918.482	7686.21
918.794	7644.86
919.105	7634.01
919.416	7535.25
919.727	7559.21
920.038	7530.73
920.349	7549.04
920.66	7519.21
920.971	7463.62
921.282	7509.94
921.593	7384.98
921.903	7369.61
922.214	7354.02
922.525	7357.63
922.835	7292.32
923.146	7244.41
923.456	7250.52
923.767	7212.32
924.077	7253.68
924.387	7157.86
924.697	7119.45
925.008	7108.82
925.318	7099.79
925.628	7057.3
925.938	6951.31
926.248	6948.83
926.558	6911.54
926.867	6892.11
927.177	6917.42
927.487	6877.64
927.796	6859.11
928.106	6843.75
928.416	6815.05
928.725	6774.82
929.034	6769.85
929.344	6755.61
929.653	6689.85
929.962	6675.62
930.271	6653.7
930.581	6608.95
930.89	6599.69
931.199	6537.99
931.508	6567.14
931.817	6540.03
932.125	6507.94
932.434	6494.38
932.743	6448.73
933.051	6410.99
933.36	6422.06
933.669	6337.32
933.977	6323.99
934.286	6291.67
934.594	6264.55
934.902	6217.1
935.21	6215.97
935.519	6217.32
935.827	6224.55
936.135	6083.09
936.443	6048.51
936.751	6074.95
937.059	6021.62
937.367	6062.52
937.674	5962.64
937.982	5990.21
938.29	5955.63
938.597	5962.64
938.905	5873.83
939.213	5884.45
939.52	5915.64
939.827	5885.13
940.135	5826.15
940.442	5802.42
940.749	5851.23
941.056	5787.05
941.363	5710.9
941.67	5679.48
941.977	5726.94
942.284	5667.28
942.591	5612.14
942.898	5593.84
943.205	5637
943.511	5547.74
943.818	5568.53
944.125	5540.05
944.431	5505.93
944.738	5474.74
945.044	5504.12
945.35	5437.46
945.657	5437.23
945.963	5351.36
946.269	5376.44
946.575	5389.1
946.881	5317.69
947.187	5330.11
947.493	5250.79
947.799	5228.42
948.105	5211.25
948.41	5185.26
948.716	5214.18
949.022	5189.1
949.327	5133.28
949.633	5092.38
949.938	5104.81
950.244	5150.68
950.549	5092.61
950.854	5066.17
951.16	5002.89
951.465	5019.16
951.77	4990.69
952.075	4963.57
952.38	4961.99
952.685	4911.82
952.99	4861.65
953.294	4858.71
953.599	4797.7
953.904	4852.84
954.209	4764.93
954.513	4779.62
954.818	4786.63
955.122	4793.41
955.426	4795.44
955.731	4724.25
956.035	4689.9
956.339	4719.06
956.643	4687.42
956.948	4621.88
957.252	4594.77
957.556	4660.3
957.86	4555.67
958.163	4563.58
958.467	4537.59
958.771	4552.51
959.075	4544.15
959.378	4452.4
959.682	4484.03
959.985	4464.6
960.289	4392.74
960.592	4408.56
960.896	4418.05
961.199	4350.03
961.502	4404.94
961.805	4390.7
962.108	4334.21
962.411	4288.11
962.714	4307.09
963.017	4308.45
963.32	4290.59
963.623	4254.44
963.926	4254.21
964.228	4195.45
964.531	4198.84
964.833	4167.43
965.136	4160.88
965.438	4154.33
965.741	4143.48
966.043	4135.12
966.345	4139.18
966.648	4098.73
966.95	4066.64
967.252	4027.78
967.554	4074.33
967.856	4037.04
968.158	3983.48
968.46	3955.69
968.761	3926.99
969.063	3903.71
969.365	3927.44
969.666	3956.36
969.968	3927.67
970.269	3893.77
970.571	3905.74
970.872	3895.58
971.174	3841.11
971.475	3824.84
971.776	3793.43
972.077	3807.89
972.378	3822.58
972.679	3777.84
972.98	3716.6
973.281	3712.76
973.582	3708.46
973.883	3746.88
974.183	3684.28
974.484	3658.75
974.785	3673.43
975.085	3643.38
975.386	3599.99
975.686	3643.38
975.986	3568.35
976.287	3608.8
976.587	3574.91
976.887	3528.13
977.187	3529.71
977.487	3526.55
977.787	3520.9
978.087	3488.13
978.387	3466.89
978.687	3519.09
978.987	3427.11
979.286	3399.77
979.586	3423.05
979.885	3387.34
980.185	3387.11
980.484	3371.97
980.784	3315.48
981.083	3341.24
981.382	3344.63
981.682	3310.28
981.981	3305.08
982.28	3278.64
982.579	3233.67
982.878	3265.54
983.177	3256.95
983.475	3243.16
983.774	3209.27
984.073	3243.62
984.372	3178.53
984.67	3166.78
984.969	3169.49
985.267	3169.49
985.566	3141.92
985.864	3126.78
986.162	3094.24
986.461	3055.6
986.759	3105.77
987.057	3021.25
987.355	3055.15
987.653	3061.7
987.951	3011.98
988.249	3014.24
988.547	2957.52
988.844	2953
989.142	2980.35
989.44	2942.83
989.737	2944.87
990.035	2927.69
990.332	2898.54
990.63	2872.78
990.927	2893.79
991.224	2850.86
991.521	2894.7
991.819	2845.89
992.116	2829.16
992.413	2852.44
992.71	2815.83
993.006	2828.71
993.303	2771.99
993.6	2806.79
993.897	2753.68
994.193	2739
994.49	2734.02
994.787	2713.23
995.083	2711.88
995.379	2682.5
995.676	2693.57
995.972	2657.64
996.268	2634.82
996.565	2660.35
996.861	2624.42
997.157	2599.79
997.453	2610.41
997.749	2608.38
998.044	2591.2
998.34	2570.64
998.636	2577.42
998.932	2538.32
999.227	2516.18
999.523	2502.39
999.818	2468.95
1000.114	2474.37
1000.409	2466.69
1000.704	2444.99
1001	2422.85
1001.295	2452.9
1001.59	2440.92
1001.885	2426.01
1002.18	2415.84
1002.475	2388.5
1002.77	2373.81
1003.065	2353.47
1003.359	2344.43
1003.654	2319.57
1003.949	2321.38
1004.243	2326.35
1004.538	2301.72
1004.832	2294.94
1005.127	2272.12
1005.421	2270.99
1005.715	2245.9
1006.009	2246.58
1006.304	2221.95
1006.598	2207.94
1006.892	2171.55
1007.186	2190.08
1007.48	2178.78
1007.773	2181.72
1008.067	2148.05
1008.361	2146.24
1008.655	2127.26
1008.948	2131.33
1009.242	2127.94
1009.535	2090.65
1009.829	2074.15
1010.122	2054.04
1010.415	2061.73
1010.708	2031.9
1011.001	2027.15
1011.295	2016.3
1011.588	2022.86
1011.881	2000.71
1012.173	1988.73
1012.466	1969.75
1012.759	1980.6
1013.052	1959.13
1013.344	1969.52
1013.637	1946.25
1013.93	1896.98
1014.222	1906.02
1014.514	1855.18
1014.807	1861.96
1015.099	1879.81
1015.391	1861.96
1015.683	1855.4
1015.976	1848.85
1016.268	1805.69
1016.56	1836.42
1016.851	1835.74
1017.143	1794.84
1017.435	1783.54
1017.727	1770.89
1018.018	1758.46
1018.31	1755.07
1018.602	1756.65
1018.893	1694.5
1019.185	1709.42
1019.476	1721.17
1019.767	1726.59
1020.058	1680.27
1020.35	1700.38
1020.641	1666.93
1020.932	1684.56
1021.223	1644.34
1021.514	1637.78
1021.804	1624.22
1022.095	1617.67
1022.386	1583.77
1022.677	1562.98
1022.967	1578.57
1023.258	1578.57
1023.548	1557.78
1023.839	1528.86
1024.129	1526.37
1024.419	1522.76
1024.709	1507.16
1025	1509.65
1025.29	1485.7
1025.58	1468.29
1025.87	1502.42
1026.16	1498.58
1026.449	1475.3
1026.739	1460.16
1027.029	1433.04
1027.319	1425.58
1027.608	1409.09
1027.898	1412.93
1028.187	1403.89
1028.477	1374.29
1028.766	1393.95
1029.055	1391.23
1029.344	1381.74
1029.634	1348.3
1029.923	1344.68
1030.212	1367.96
1030.501	1340.61
1030.79	1339.71
1031.078	1315.98
1031.367	1292.93
1031.656	1319.15
1031.945	1292.93
1032.233	1278.47
1032.522	1271.01
1032.81	1247.06
1033.099	1244.35
1033.387	1237.79
1033.675	1244.12
1033.963	1233.72
1034.251	1210.45
1034.54	1196.66
1034.828	1175.87
1035.116	1190.79
1035.403	1185.36
1035.691	1193.27
1035.979	1152.82
1036.267	1171.81
1036.554	1129.09
1036.842	1129.77
1037.129	1141.52
1037.417	1140.17
1037.704	1135.42
1037.992	1111.47
1038.279	1124.8
1038.566	1083.22
1038.853	1083.22
1039.14	1083.22
