Data from aluminium_surface_pro_back_FLMS001491_00014.txt Node
Date: Wed Feb 08 15:33:41 GMT 2017
User: dcchb
Spectrometer: FLMS00149
Trigger mode: 0
Integration Time (sec): 2.000000E-2
Scans to average: 10
Electric dark correction enabled: true
Nonlinearity correction enabled: false
Boxcar width: 0
XAxis mode: Wavelengths
Number of Pixels in Spectrum: 2048
>>>>>Begin Spectral Data<<<<<
341.393	-4.86
341.776	-4.86
342.16	-4.86
342.543	-80.11
342.927	-92.09
343.31	-47.8
343.693	-74.01
344.077	-77.4
344.46	-67.46
344.843	-46.44
345.226	-42.15
345.61	-32.43
345.993	-9.15
346.376	-6.89
346.759	1.47
347.142	14.58
347.525	27.91
347.908	58.42
348.291	90.51
348.674	98.87
349.057	111.97
349.44	115.14
349.823	143.84
350.206	171.41
350.588	211.86
350.971	239.43
351.354	247.56
351.737	280.78
352.119	268.81
352.502	279.2
352.884	290.95
353.267	312.42
353.65	313.33
354.032	323.49
354.414	330.27
354.797	344.96
355.179	339.09
355.562	352.42
355.944	354.45
356.326	358.97
356.709	354.45
357.091	383.83
357.473	376.83
357.855	376.83
358.238	383.15
358.62	367.79
359.002	365.3
359.384	383.61
359.766	363.72
360.148	375.92
360.53	379.31
360.912	357.62
361.294	361.46
361.676	370.05
362.057	384.06
362.439	369.37
362.821	355.58
363.203	380.67
363.584	370.5
363.966	375.7
364.348	366.66
364.729	358.52
365.111	375.92
365.493	358.07
365.874	386.77
366.256	362.36
366.637	350.61
367.019	381.12
367.4	357.84
367.781	354.91
368.163	376.15
368.544	358.75
368.925	379.99
369.306	379.54
369.688	358.52
370.069	368.24
370.45	364.62
370.831	369.14
371.212	364.85
371.593	391.74
371.974	365.08
372.355	363.27
372.736	372.08
373.117	403.04
373.498	393.1
373.879	374.79
374.26	365.53
374.641	389.26
375.021	354.68
375.402	407.56
375.783	389.71
376.163	422.93
376.544	420.44
376.925	406.43
377.305	405.3
377.686	414.34
378.066	417.96
378.447	422.7
378.827	446.2
379.208	426.54
379.588	442.36
379.968	431.74
380.349	427.67
380.729	423.83
381.109	434.23
381.489	460.67
381.87	460.21
382.25	462.93
382.63	467.45
383.01	463.15
383.39	463.6
383.77	461.12
384.15	462.02
384.53	467.9
384.91	474.9
385.29	488.24
385.67	495.47
386.049	505.18
386.429	506.09
386.809	497.95
387.189	488.91
387.568	517.16
387.948	502.47
388.328	531.62
388.707	538.63
389.087	532.53
389.466	537.27
389.846	555.58
390.225	554.9
390.605	565.3
390.984	541.57
391.363	571.62
391.743	578.85
392.122	570.49
392.501	580.21
392.881	578.85
393.26	601.45
393.639	602.13
394.018	619.76
394.397	606.2
394.776	636.71
395.155	629.47
395.534	631.06
395.913	643.94
396.292	641
396.671	643.94
397.05	683.26
397.429	669.7
397.808	663.37
398.186	696.82
398.565	685.52
398.944	680.32
399.323	689.36
399.701	706.54
400.08	709.25
400.458	720.55
400.837	730.49
401.215	719.64
401.594	722.58
401.972	771.39
402.351	786.31
402.729	770.04
403.107	799.87
403.486	800.77
403.864	789.7
404.242	798.28
404.62	816.14
404.999	805.29
405.377	831.73
405.755	855.91
406.133	863.82
406.511	876.47
406.889	864.27
407.267	884.84
407.645	897.94
408.023	926.87
408.401	939.75
408.779	933.87
409.156	930.26
409.534	956.47
409.912	981.1
410.29	1005.51
410.667	980.2
411.045	1045.06
411.422	1046.87
411.8	1043.25
412.178	1052.97
412.555	1058.84
412.933	1093.42
413.31	1120.76
413.687	1118.28
414.065	1122.34
414.442	1125.73
414.819	1156.69
415.197	1151.95
415.574	1160.08
415.951	1189.46
416.328	1209.35
416.705	1202.57
417.082	1220.65
417.46	1228.78
417.837	1229.46
418.214	1265.84
418.591	1277.14
418.967	1287.08
419.344	1283.47
419.721	1329.12
420.098	1305.62
420.475	1332.73
420.852	1356.69
421.228	1353.3
421.605	1372.73
421.982	1395.56
422.358	1413.41
422.735	1398.49
423.111	1415.67
423.488	1444.82
423.864	1464.03
424.241	1487.76
424.617	1500.64
424.994	1510.13
425.37	1505.16
425.746	1525.5
426.123	1536.12
426.499	1574.76
426.875	1593.29
427.251	1621.09
427.627	1666.51
428.003	1656.57
428.379	1690.46
428.756	1694.98
429.132	1731.59
429.507	1734.08
429.883	1773.4
430.259	1802.55
430.635	1828.31
431.011	1832.83
431.387	1866.5
431.763	1916.22
432.138	1917.8
432.514	1925.71
432.89	1923
433.265	1980.17
433.641	2020.17
434.016	1994.18
434.392	2045.48
434.767	2111.7
435.143	2113.05
435.518	2171.36
435.894	2145.14
436.269	2176.78
436.644	2236.21
437.02	2217.46
437.395	2259.49
437.77	2294.97
438.145	2308.98
438.52	2316.44
438.895	2374.97
439.271	2360.95
439.646	2420.61
440.021	2412.03
440.395	2439.82
440.77	2444.34
441.145	2456.55
441.52	2531.57
441.895	2528.86
442.27	2534.96
442.645	2567.05
443.019	2600.5
443.394	2613.83
443.769	2641.17
444.143	2616.54
444.518	2695.64
444.892	2683.21
445.267	2700.61
445.641	2751.23
446.016	2731.79
446.39	2783.99
446.764	2782.86
447.139	2753.49
447.513	2860.6
447.887	2854.5
448.262	2841.62
448.636	2869.87
449.01	2922.3
449.384	2967.04
449.758	2952.35
450.132	2969.07
450.506	2984.67
450.88	3003.2
451.254	3038.45
451.628	3096.3
452.002	3150.31
452.376	3123.87
452.75	3164.32
453.123	3244.77
453.497	3244.32
453.871	3290.87
454.244	3318.67
454.618	3348.05
454.992	3399.35
455.365	3380.82
455.739	3496.74
456.112	3566.8
456.486	3605.89
456.859	3657.64
457.232	3716.17
457.606	3677.98
457.979	3783.74
458.352	3868.71
458.725	3901.03
459.099	3896.28
459.472	3993
459.845	4010.4
460.218	4030.06
460.591	4125.2
460.964	4139.44
461.337	4193.9
461.71	4241.13
462.083	4367.91
462.456	4352.77
462.829	4339.66
463.201	4468.24
463.574	4459.43
463.947	4551.41
464.32	4666.43
464.692	4679.31
465.065	4747.56
465.438	4788.91
465.81	4845.41
466.183	4908.46
466.555	5024.84
466.928	5037.95
467.3	5039.98
467.672	5163.82
468.045	5281.33
468.417	5282.69
468.789	5370.14
469.161	5429.8
469.534	5468.67
469.906	5597.48
470.278	5648.55
470.65	5740.75
471.022	5797.93
471.394	5947.53
471.766	5994.08
472.138	6101.42
472.51	6187.75
472.882	6285.37
473.253	6350.68
473.625	6429.77
473.997	6539.83
474.369	6614.63
474.74	6709.09
475.112	6840.61
475.484	6986.6
475.855	7087.61
476.227	7157.21
476.598	7330.54
476.97	7411.22
477.341	7555.85
477.713	7672.45
478.084	7811.43
478.455	7922.16
478.827	8059.56
479.198	8248.26
479.569	8283.06
479.94	8490.51
480.311	8560.11
480.682	8857.06
481.053	8977.73
481.424	9126.88
481.795	9210.49
482.166	9374.33
482.537	9501.78
482.908	9697.94
483.279	9755.11
483.65	9912.62
484.021	10190.35
484.391	10249.56
484.762	10435.09
485.133	10469.89
485.503	10651.58
485.874	10941.97
486.244	10961.41
486.615	11178.35
486.985	11347.84
487.356	11502.86
487.726	11701.27
488.097	11881.16
488.467	11902.62
488.837	12167.48
489.207	12353.69
489.578	12500.12
489.948	12659.22
490.318	12871.41
490.688	12852.43
491.058	13072.09
491.428	13268.69
491.798	13381.46
492.168	13639.3
492.538	13732.63
492.908	13998.39
493.278	14169.91
493.648	14213.3
494.017	14362
494.387	14467.76
494.757	14605.15
495.126	14817.8
495.496	14792.04
495.866	14997.23
496.235	15109.32
496.605	15284
496.974	15382.08
497.344	15525.35
497.713	15656.2
498.082	15805.35
498.452	15935.29
498.821	16033.36
499.19	16118.79
499.559	16263.19
499.928	16507.02
500.298	16542.95
500.667	16630.41
501.036	16708.37
501.405	16824.08
501.774	16935.94
502.143	17155.59
502.512	17194.24
502.88	17440.56
503.249	17381.12
503.618	17558.75
503.987	17622.93
504.356	17758.74
504.724	17911.73
505.093	17970.04
505.462	18028.79
505.83	18229.46
506.199	18318.5
506.567	18541.55
506.936	18634.43
507.304	18816.12
507.672	18885.72
508.041	19026.96
508.409	19033.51
508.777	19251.81
509.145	19475.99
509.514	19525.93
509.882	19684.12
510.25	19816.77
510.618	19840.95
510.986	20030.09
511.354	20162.75
511.722	20424.21
512.09	20545.79
512.458	20571.1
512.826	20885.89
513.193	20983.06
513.561	21049.73
513.929	21148.94
514.297	21485.65
514.664	21584.86
515.032	21723.38
515.4	21948.91
515.767	22041.34
516.135	22167.89
516.502	22037.5
516.869	22466.87
517.237	22691.27
517.604	22688.1
517.972	22958.38
518.339	23110.92
518.706	23184.59
519.073	23280.18
519.44	23504.35
519.808	23700.05
520.175	23745.93
520.542	24011.01
520.909	24256.42
521.276	24396.08
521.643	24615.96
522.009	24766.47
522.376	24964.88
522.743	25151.54
523.11	25347.7
523.477	25702.94
523.843	25776.61
524.21	26090.95
524.577	26247.56
524.943	26517.16
525.31	26568.45
525.676	26760.31
526.043	27135.44
526.409	27229.91
526.776	27553.06
527.142	27617.92
527.508	27882.54
527.874	28144.23
528.241	28304.23
528.607	28308.07
528.973	28745.12
529.339	28649.08
529.705	29078.44
530.071	29312.11
530.437	29374.93
530.803	29565.44
531.169	29657.64
531.535	29681.14
531.901	29953.22
532.267	30002.71
532.632	30290.39
532.998	30220.11
533.364	30599.31
533.73	30671.17
534.095	30885.63
534.461	31044.95
534.826	31277.03
535.192	31397.03
535.557	31602.45
535.923	31646.29
536.288	31727.87
536.653	31922.21
537.019	31881.53
537.384	32094.18
537.749	32207.4
538.114	32314.97
538.479	32427.28
538.845	32572.59
539.21	32575.3
539.575	32712.25
539.94	32753.15
540.305	33074.72
540.67	32952.01
541.034	33161.05
541.399	33339.8
541.764	33222.06
542.129	33580.02
542.494	33537.76
542.858	33825.44
543.223	33865.21
543.587	34059.1
543.952	34002.83
544.316	34071.53
544.681	34078.54
545.045	34394.91
545.41	34535.02
545.774	34641.91
546.138	34641.01
546.503	34749.03
546.867	34847.56
547.231	35109.25
547.595	35308.79
547.959	35418.16
548.324	35454.55
548.688	35468.33
549.052	35598.5
549.416	35717.37
549.779	35823.13
550.143	36139.73
550.507	36161.42
550.871	36403.22
551.235	36278.03
551.599	36660.62
551.962	36694.06
552.326	36868.52
552.689	36939.71
553.053	36869.43
553.417	36993.26
553.78	37566.36
554.143	37448.85
554.507	37662.17
554.87	37624.43
555.234	38141.03
555.597	37910.3
555.96	38180.13
556.323	38366.56
556.686	38400.01
557.05	38612.88
557.413	38751.86
557.776	38834.8
558.139	39086.77
558.502	39131.97
558.865	39343.49
559.228	39680.88
559.59	39701.89
559.953	39817.6
560.316	40276.79
560.679	40223.91
561.041	40513.85
561.404	40636.33
561.767	40910.45
562.129	40907.51
562.492	41514.95
562.854	41435.63
563.217	41432.47
563.579	41627.04
563.941	41878.11
564.304	42021.61
564.666	42286.23
565.028	42387.93
565.39	42527.58
565.753	42673.34
566.115	42830.85
566.477	42894.35
566.839	43149.03
567.201	43312.19
567.563	43456.15
567.925	43927.55
568.287	43707.21
568.648	43870.6
569.01	44373.41
569.372	44573.63
569.734	44483.92
570.095	44666.51
570.457	44939.04
570.819	45131.58
571.18	45168.87
571.542	45303.33
571.903	45360.73
572.265	45567.95
572.626	45761.85
572.987	45839.81
573.349	45917.78
573.71	46148.73
574.071	46265.11
574.432	46558.66
574.794	46824.87
575.155	46710.75
575.516	46719.34
575.877	46830.75
576.238	46933.57
576.599	47125.2
576.96	47169.27
577.32	47211.98
577.681	47375.59
578.042	47471.63
578.403	47591.86
578.763	47677.5
579.124	47695.36
579.485	47824.84
579.845	47989.81
580.206	48006.53
580.566	47981
580.927	48087.89
581.287	48230.26
581.648	48142.58
582.008	48363.59
582.368	48289.92
582.728	48330.14
583.089	48317.49
583.449	48386.41
583.809	48449.91
584.169	48491.49
584.529	48438.16
584.889	48677.7
585.249	48478.84
585.609	48517.71
585.969	48717.02
586.329	48504.37
586.688	48699.85
587.048	48543.47
587.408	48426.18
587.768	48464.83
588.127	48450.59
588.487	48481.78
588.846	48916.79
589.206	48489.69
589.565	48666.18
589.925	48629.34
590.284	48596.8
590.643	48684.93
591.003	48801.09
591.362	48770.13
591.721	48841.77
592.08	48844.93
592.44	48821.65
592.799	48877.02
593.158	48779.4
593.517	48735.1
593.876	48839.51
594.235	48790.92
594.593	48872.95
594.952	48920.86
595.311	48802.45
595.67	48790.24
596.029	48997.92
596.387	49029.78
596.746	49172.15
597.104	49020.07
597.463	48943.01
597.822	49113.4
598.18	48957.47
598.538	48974.42
598.897	49298.25
599.255	49002.89
599.613	49477.23
599.972	49334.41
600.33	49314.07
600.688	49190.23
601.046	49311.36
601.404	49520.39
601.762	49452.82
602.12	49620.73
602.478	49613.27
602.836	49579.37
603.194	49497.34
603.552	49634.97
603.91	49593.61
604.268	49831.12
604.625	49634.97
604.983	49834.73
605.341	49627.73
605.698	49941.85
606.056	49916.31
606.413	49882.42
606.771	50083.77
607.128	50108.4
607.485	49895.98
607.843	50006.48
608.2	50184.33
608.557	50214.84
608.914	50240.6
609.272	50353.37
609.629	50365.79
609.986	50518.33
610.343	50358.34
610.7	50569.18
611.057	50376.64
611.414	50401.95
611.771	50446.92
612.127	50607.82
612.484	50466.58
612.841	50736.18
613.198	50464.32
613.554	50562.4
613.911	50804.43
614.267	50775.5
614.624	50680.81
614.98	50883.75
615.337	50903.18
615.693	50936.63
616.05	50952.45
616.406	51082.39
616.762	50969.17
617.118	50931.66
617.475	50860.24
617.831	50982.95
618.187	51053.69
618.543	51114.7
618.899	51254.58
619.255	51155.15
619.611	51215.72
619.967	51357.18
620.323	51328.03
620.678	51241.25
621.034	51195.83
621.39	51195.15
621.746	51140.92
622.101	51404.19
622.457	51333.45
622.812	51253.23
623.168	51402.83
623.523	51378.65
623.879	51515.14
624.234	51307.01
624.589	51368.25
624.945	51362.83
625.3	51515.82
625.655	51358.08
626.01	51474.92
626.365	51496.61
626.72	51376.39
627.075	51342.72
627.43	51456.16
627.785	51368.25
628.14	51439.89
628.495	51316.05
628.85	51284.19
629.205	51244.87
629.559	51332.55
629.914	51216.85
630.269	51220.01
630.623	51209.84
630.978	51121.03
631.332	51252.1
631.687	51230.18
632.041	51060.92
632.396	51208.71
632.75	51067.24
633.104	51213.68
633.459	50943.18
633.813	50983.18
634.167	50986.57
634.521	50944.54
634.875	51007.36
635.229	50907.93
635.583	50685.79
635.937	50725.56
636.291	50679.01
636.645	50886.91
636.999	50639.01
637.352	50677.88
637.706	50481.95
638.06	50631.1
638.413	50533.7
638.767	50324.21
639.121	50498.67
639.474	50293.03
639.828	50247.83
640.181	50240.15
640.534	50249.41
640.888	50147.49
641.241	50018.91
641.594	50197.21
641.947	50135.97
642.301	50033.15
642.654	50134.16
643.007	50090.55
643.36	50016.2
643.713	49968.29
644.066	49998.57
644.419	49889.42
644.771	49649.2
645.124	49115.43
645.477	49246.28
645.83	48874.53
646.182	48721.09
646.535	48695.78
646.888	48550.7
647.24	48556.8
647.593	48618.5
647.945	48643.81
648.298	48399.52
648.65	48271.39
649.002	48206.53
649.355	48360.2
649.707	48177.6
650.059	48286.08
650.411	48755.22
650.763	48869.56
651.115	49205.37
651.467	49036.56
651.819	49045.83
652.171	48834.31
652.523	48921.31
652.875	48823.69
653.227	48716.57
653.578	49009.45
653.93	48962.22
654.282	48717.93
654.633	48605.16
654.985	48690.58
655.337	48651.49
655.688	48570.59
656.039	48586.41
656.391	48308.9
656.742	48375.56
657.094	48380.76
657.445	48496.24
657.796	48367.65
658.147	48334.66
658.498	48352.29
658.849	48397.03
659.2	48316.36
659.551	48183.25
659.902	48425.05
660.253	48219.86
660.604	48263.02
660.955	48134.21
661.306	48255.12
661.656	48161.78
662.007	48133.54
662.358	48075.91
662.708	48065.74
663.059	48017.83
663.409	47780.33
663.76	48222.35
664.11	48064.39
664.461	48190.26
664.811	48013.77
665.161	48011.28
665.511	47823.26
665.862	48010.6
666.212	47951.17
666.562	47893.09
666.912	47800.66
667.262	47779.65
667.612	47833.43
667.962	47764.96
668.312	47712.08
668.662	47859.42
669.011	47679.31
669.361	47510.28
669.711	47554.79
670.06	47537.62
670.41	47302.6
670.76	47252.2
671.109	47442.03
671.459	47449.94
671.808	47235.03
672.157	47377.85
672.507	47097.86
672.856	47265.99
673.205	47262.6
673.554	47428.47
673.904	47298.76
674.253	47263.73
674.602	47141.7
674.951	46463.75
675.3	46440.47
675.649	47157.74
675.998	47013.34
676.346	47096.5
676.695	47076.62
677.044	46853.8
677.393	46954.81
677.741	47019.67
678.09	46884.08
678.438	46842.95
678.787	46994.81
679.135	46866.68
679.484	46592.79
679.832	46791.65
680.181	46592.79
680.529	46725.89
680.877	46456.74
681.225	46551.88
681.573	46604.31
681.922	46287.03
682.27	46169.52
682.618	46265.79
682.966	46137.43
683.314	46090.43
683.661	46018.79
684.009	45888.4
684.357	45726.14
684.705	45663.55
685.053	45704.45
685.4	45668.97
685.748	45538.8
686.095	45522.76
686.443	45335.87
686.79	45445.47
687.138	45559.82
687.485	45401.18
687.832	45112.6
688.18	45226.72
688.527	44857.24
688.874	44902.21
689.221	44798.03
689.568	44597.13
689.915	44634.42
690.262	44590.13
690.609	44440.98
690.956	44326.63
691.303	44233.3
691.65	44110.14
691.997	43963.7
692.344	43641.9
692.69	43735.91
693.037	43757.38
693.383	43428.12
693.73	43411.85
694.077	43250.95
694.423	43290.95
694.769	43109.94
695.116	43103.39
695.462	42772.55
695.808	42782.72
696.155	42902.71
696.501	42577.3
696.847	42678.09
697.193	42293.92
697.539	42459.79
697.885	42183.86
698.231	42076.52
698.577	41930.31
698.923	42023.19
699.269	41681.73
699.614	41632.46
699.96	41709.52
700.306	41548.85
700.651	41346.14
700.997	41184.11
701.342	41158.35
701.688	41118.81
702.033	40960.62
702.379	40919.72
702.724	40746.84
703.069	41018.7
703.415	40304.59
703.76	40522.44
704.105	40519.27
704.45	40294.42
704.795	40126.06
705.14	40060.98
705.485	40175.55
705.83	39751.38
706.175	39863.7
706.52	39804.04
706.865	39677.04
707.209	39620.31
707.554	39234.34
707.899	39379.87
708.243	39334.45
708.588	39141
708.932	39027.34
709.277	39002.93
709.621	38871.63
709.966	38705.08
710.31	38889.03
710.654	38397.97
710.998	38442.94
711.342	38465.32
711.687	38377.41
712.031	38138.55
712.375	38086.8
712.719	38230.97
713.063	38147.81
713.407	38136.06
713.75	38002.05
714.094	37943.97
714.438	37806.35
714.782	37816.29
715.125	37745.79
715.469	37642.29
715.812	37554.15
716.156	37353.48
716.499	37267.38
716.843	37343.99
717.186	37083.43
717.53	37210.89
717.873	37251.56
718.216	37055.86
718.559	36935.19
718.902	36661.52
719.246	36726.6
719.589	36401.64
719.932	36558.93
720.275	36413.17
720.617	36369.55
720.96	36269.89
721.303	36376.33
721.646	36315.54
721.989	36073.51
722.331	36188.09
722.674	36002.1
723.016	35956.68
723.359	35808.44
723.701	35992.39
724.044	35708.78
724.386	35549.91
724.729	35679.85
725.071	35522.79
725.413	35386.08
725.755	35350.14
726.097	35319.86
726.439	35102.69
726.782	35090.94
727.124	35185.85
727.465	35004.39
727.807	34947.67
728.149	34809.14
728.491	34714.45
728.833	34828.35
729.175	34608.24
729.516	34586.1
729.858	34580.67
730.199	34592.42
730.541	34281.92
730.882	34344.07
731.224	34355.59
731.565	34165.32
731.906	34161.93
732.248	34292.77
732.589	33962.84
732.93	33983.63
733.271	33966.45
733.612	34017.3
733.953	34005.09
734.294	33875.61
734.635	33698.89
734.976	33837.19
735.317	33676.97
735.658	33601.72
735.999	33574.6
736.339	33617.31
736.68	33644.2
737.021	33527.37
737.361	33371.89
737.702	33530.53
738.042	33460.02
738.383	33238.79
738.723	33381.38
739.063	33117.43
739.404	33022.07
739.744	33093.03
740.084	33005.35
740.424	32995.18
740.764	32863.88
741.104	32844.22
741.444	32654.4
741.784	32591.35
742.124	32814.39
742.464	32672.02
742.804	32538.69
743.143	32429.09
743.483	32361.3
743.823	32340.96
744.162	32176.44
744.502	32324.46
744.841	32134.41
745.181	32269.32
745.52	32158.82
745.86	32051.02
746.199	32032.72
746.538	32121.3
746.877	31992.72
747.216	31924.25
747.556	31833.85
747.895	31825.49
748.234	31623.24
748.573	31491.04
748.911	31659.39
749.25	31598.38
749.589	31331.72
749.928	31378.72
750.267	31474.77
750.605	31324.71
750.944	31280.42
751.283	31069.35
751.621	31252.62
751.96	30971.73
752.298	31063.7
752.636	31125.4
752.975	30851.96
753.313	30728.57
753.651	30869.58
753.989	30649.7
754.327	30558.86
754.666	30411.06
755.004	30357.73
755.342	30420.56
755.679	30333.78
756.017	30141.92
756.355	30235.02
756.693	30058.53
757.031	29994.58
757.368	29757.52
757.706	29719.78
758.044	29663.29
758.381	29728.82
758.719	29608.37
759.056	29567.47
759.394	29444.31
759.731	29176.97
760.068	29126.8
760.405	29050.2
760.743	28990.31
761.08	29089.52
761.417	28941.05
761.754	28820.37
762.091	28676.65
762.428	28609.98
762.765	28418.8
763.102	28497.89
763.438	28358.01
763.775	28212.03
764.112	28265.58
764.449	28228.07
764.785	28120.73
765.122	28019.49
765.458	27791.47
765.795	27725.71
766.131	27736.11
766.467	27693.4
766.804	27459.5
767.14	27421.09
767.476	27265.38
767.812	27248.21
768.148	27261.32
768.485	27064.49
768.821	26852.51
769.157	26859.07
769.492	26819.97
769.828	26793.31
770.164	26569.58
770.5	26578.62
770.836	26450.72
771.171	26065.64
771.507	26057.28
771.842	25893.9
772.178	26058.18
772.513	25891.18
772.849	25806.44
773.184	25608.93
773.519	25682.15
773.855	25499.1
774.19	25337.3
774.525	25334.14
774.86	25354.47
775.195	25191.09
775.53	25140.47
775.865	25009.85
776.2	24725.11
776.535	24605.12
776.87	24765.56
777.205	24427.04
777.539	24512.24
777.874	24409.41
778.209	24182.98
778.543	24198.35
778.878	24039.48
779.212	24071.8
779.547	23834.29
779.881	23954.06
780.215	23667.06
780.55	23825.93
780.884	23584.35
781.218	23506.84
781.552	23431.36
781.886	23475.65
782.22	23144.82
782.554	23223.23
782.888	23001.77
783.222	22879.74
783.556	22781.43
783.889	22834.54
784.223	22530.37
784.557	22632.51
784.89	22611.27
785.224	22389.58
785.557	22386.87
785.891	22429.13
786.224	22199.08
786.558	22153.2
786.891	21944.17
787.224	21896.49
787.557	21844.28
787.891	21715.47
788.224	21756.38
788.557	21666.21
788.89	21587.79
789.223	21594.35
789.556	21306.22
789.888	21344.86
790.221	21215.6
790.554	20984.65
790.887	21000.01
791.219	20866.91
791.552	20900.81
791.884	20763.63
792.217	20703.3
792.549	20671.89
792.882	20475.28
793.214	20378.33
793.546	20385.79
793.879	20299.24
794.211	20212.01
794.543	20220.37
794.875	20209.53
795.207	20181.73
795.539	19973.83
795.871	19968.4
796.203	19871.45
796.535	19790.1
796.867	19736.32
797.198	19614.29
797.53	19580.62
797.862	19457
798.193	19455.87
798.525	19422.65
798.856	19358.93
799.188	19231.25
799.519	19162.55
799.85	19032.61
800.182	19066.28
800.513	18967.3
800.844	18836.68
801.175	18929.11
801.506	18972.27
801.837	18835.78
802.168	18758.26
802.499	18704.25
802.83	18578.38
803.161	18439.63
803.491	18495.22
803.822	18491.6
804.153	18443.7
804.483	18174.1
804.814	18262.46
805.145	18142.91
805.475	18176.58
805.805	18059.07
806.136	18057.04
806.466	18018.17
806.796	18009.81
807.126	17834.67
807.457	17745.18
807.787	17770.04
808.117	17812.75
808.447	17686.2
808.777	17732.98
809.107	17697.73
809.436	17538.18
809.766	17483.95
810.096	17459.77
810.426	17386.32
810.755	17366.21
811.085	17225.42
811.414	17238.98
811.744	17099.55
812.073	16967.35
812.403	17140.23
812.732	17055.26
813.061	16951.08
813.39	16918.54
813.719	16881.25
814.049	16965.09
814.378	16887.35
814.707	16849.39
815.036	16734.81
815.365	16688.71
815.693	16500.24
816.022	16476.52
816.351	16460.47
816.68	16521.49
817.008	16460.7
817.337	16313.58
817.665	16354.03
817.994	16309.06
818.322	16314.49
818.651	16283.07
818.979	16122.63
819.307	16146.58
819.636	16130.54
819.964	16069.75
820.292	16121.72
820.62	16035.17
820.948	16023.19
821.276	16022.29
821.604	15963.08
821.932	15990.43
822.259	15990.88
822.587	16027.94
822.915	15970.09
823.243	16048.28
823.57	15993.36
823.898	15963.08
824.225	15882.18
824.553	15829.3
824.88	15955.63
825.207	15920.82
825.535	15890.32
825.862	16080.59
826.189	15896.87
826.516	16005.79
826.843	16150.87
827.17	16002.4
827.497	16042.63
827.824	16025.45
828.151	16011.44
828.478	15860.03
828.805	16016.64
829.131	15957.89
829.458	15883.31
829.785	15923.99
830.111	15883.99
830.438	15994.72
830.764	15931.22
831.09	15953.82
831.417	15844.44
831.743	15767.38
832.069	15785.69
832.395	15849.87
832.722	15854.16
833.048	15792.92
833.374	15849.19
833.7	15708.85
834.026	15826.36
834.351	15740.94
834.677	15813.26
835.003	15808.28
835.329	15808.06
835.654	15720.38
835.98	15684.9
836.306	15734.16
836.631	15631.57
836.956	15658.01
837.282	15566.94
837.607	15498.69
837.932	15549.99
838.258	15459.82
838.583	15507.73
838.908	15351.8
839.233	15466.37
839.558	15331.24
839.883	15312.7
840.208	15279.71
840.533	15206.72
840.858	15298.47
841.182	15242.2
841.507	15194.97
841.832	15060.96
842.156	15106.61
842.481	15080.17
842.805	15014.18
843.13	15045.14
843.454	14999.72
843.778	14934.64
844.103	14852.38
844.427	14903.68
844.751	14893.73
845.075	14775.32
845.399	14755.88
845.723	14737.35
846.047	14741.65
846.371	14588.43
846.695	14529.67
847.019	14505.72
847.343	14382.56
847.666	14382.79
847.99	14272.51
848.313	14329.68
848.637	14211.72
848.96	14296.01
849.284	14218.04
849.607	14104.15
849.931	14056.92
850.254	13912.06
850.577	13873.65
850.9	13817.6
851.223	13899.18
851.546	13830.03
851.869	13684.05
852.192	13780.32
852.515	13606.99
852.838	13596.59
853.161	13548.91
853.483	13545.29
853.806	13335.58
854.129	13374.68
854.451	13397.95
854.774	13279.31
855.096	13334
855.419	13272.53
855.741	13176.49
856.063	13117.06
856.385	13104.4
856.708	13152.31
857.03	13128.36
857.352	13048.36
857.674	12977.4
857.996	12989.83
858.318	12922.94
858.64	12831.19
858.961	12878.64
859.283	12806.1
859.605	12802.26
859.926	12809.95
860.248	12747.35
860.57	12711.42
860.891	12651.31
861.212	12550.07
861.534	12526.34
861.855	12568.14
862.176	12481.59
862.498	12518.88
862.819	12478.2
863.14	12333.8
863.461	12427.36
863.782	12386
864.103	12410.18
864.424	12430.52
864.745	12352.78
865.065	12221.03
865.386	12191.66
865.707	12174.48
866.027	12195.5
866.348	12195.72
866.668	12234.37
866.989	12148.49
867.309	12006.58
867.63	12209.96
867.95	12121.83
868.27	12043.86
868.59	12070.08
868.91	12076.18
869.23	11970.65
869.55	11921.38
869.87	12080.7
870.19	12054.03
870.51	12014.49
870.83	11996.18
871.15	11893.59
871.469	11959.12
871.789	11938.1
872.109	11897.88
872.428	11829.63
872.748	11835.06
873.067	11846.81
873.386	11873.7
873.706	11851.78
874.025	11751.22
874.344	11826.92
874.663	11845.23
874.982	11809.97
875.301	11718.45
875.62	11772.23
875.939	11712.8
876.258	11727.71
876.577	11694.72
876.896	11661.28
877.214	11564.33
877.533	11723.19
877.852	11622.41
878.17	11651.78
878.489	11739.69
878.807	11609.53
879.125	11646.13
879.444	11638.9
879.762	11555.06
880.08	11561.84
880.398	11597.32
880.716	11579.02
881.034	11505.57
881.352	11562.97
881.67	11539.47
881.988	11502.18
882.306	11435.29
882.624	11367.27
882.941	11309.65
883.259	11342.41
883.577	11285.01
883.894	11235.52
884.212	11318.46
884.529	11257.67
884.846	11245.92
885.164	11220.83
885.481	11182.42
885.798	11208.63
886.115	11134.06
886.432	11184
886.75	11095.64
887.067	11129.99
887.383	11040.73
887.7	11137.45
888.017	11023.33
888.334	11057
888.651	11064.45
888.967	10976.77
889.284	10970.45
889.6	10906.04
889.917	10910.11
890.233	10802.77
890.55	10836.44
890.866	10877.57
891.182	10850.45
891.498	10757.57
891.815	10702.66
892.131	10715.76
892.447	10620.62
892.763	10645.48
893.079	10605.94
893.395	10625.6
893.71	10584.69
894.026	10552.6
894.342	10523.23
894.657	10408.2
894.973	10450.91
895.289	10430.12
895.604	10412.72
895.92	10293.63
896.235	10209.79
896.55	10218.38
896.865	10250.01
897.181	10203.23
897.496	10172.05
897.811	10144.03
898.126	10118.04
898.441	10075.55
898.756	10025.61
899.071	9991.26
899.386	10033.75
899.7	9962.56
900.015	9918.04
900.33	9822.68
900.644	9765.96
900.959	9784.71
901.273	9778.16
901.588	9751.5
901.902	9743.59
902.216	9721.44
902.531	9643.7
902.845	9697.94
903.159	9600.99
903.473	9526.19
903.787	9518.28
904.101	9514.67
904.415	9520.54
904.729	9576.13
905.042	9427.89
905.356	9461.33
905.67	9385.18
905.984	9371.39
906.297	9345.63
906.611	9301.34
906.924	9273.09
907.237	9229.7
907.551	9175.46
907.864	9091.4
908.177	9080.33
908.491	9168.69
908.804	9085.52
909.117	9032.87
909.43	9033.32
909.743	8937.73
910.056	8976.83
910.368	8922.82
910.681	8877.39
910.994	8839.2
911.307	8784.29
911.619	8732.99
911.932	8785.87
912.244	8716.72
912.557	8668.59
912.869	8695.48
913.181	8629.04
913.494	8681.24
913.806	8533
914.118	8489.16
914.43	8520.34
914.742	8448.25
915.054	8354.92
915.366	8358.31
915.678	8349.27
915.99	8307.24
916.302	8307.01
916.613	8238.09
916.925	8256.17
917.236	8220.69
917.548	8221.59
917.859	8156.51
918.171	8156.06
918.482	8037.64
918.794	8008.49
919.105	8004.65
919.416	7961.71
919.727	7985.44
920.038	7929.85
920.349	7967.81
920.66	7902.96
920.971	7843.75
921.282	7787.03
921.593	7770.98
921.903	7716.52
922.214	7685.56
922.525	7666.35
922.835	7599.69
923.146	7594.26
923.456	7556.07
923.767	7556.52
924.077	7544.32
924.387	7535.96
924.697	7478.11
925.008	7458
925.318	7424.55
925.628	7371.44
925.938	7322.41
926.248	7296.19
926.558	7274.5
926.867	7296.42
927.177	7232.69
927.487	7206.93
927.796	7145.01
928.106	7141.62
928.416	7092.36
928.725	7098.91
929.034	7010.32
929.344	7060.94
929.653	7049.19
929.962	6935.98
930.271	6925.13
930.581	6912.7
930.89	6851.68
931.199	6824.57
931.508	6855.3
931.817	6779.14
932.125	6769.43
932.434	6706.83
932.743	6699.15
933.051	6685.13
933.36	6646.04
933.669	6595.42
933.977	6574.63
934.286	6592.26
934.594	6570.34
934.902	6530.79
935.21	6452.6
935.519	6520.17
935.827	6460.73
936.135	6422.77
936.443	6375.54
936.751	6400.17
937.059	6356.78
937.367	6312.26
937.674	6327.86
937.982	6325.14
938.29	6312.72
938.597	6255.54
938.905	6209.22
939.213	6167.86
939.52	6168.54
939.827	6141.19
940.135	6100.97
940.442	6085.6
940.749	6099.61
941.056	6048.77
941.363	6014.19
941.67	5958.37
941.977	5958.37
942.284	5905.49
942.591	5912.73
942.898	5850.81
943.205	5844.03
943.511	5867.98
943.818	5878.38
944.125	5782.11
944.431	5700.75
944.738	5714.76
945.044	5754.99
945.35	5695.33
945.657	5735.78
945.963	5679.29
946.269	5594.77
946.575	5583.47
946.881	5573.3
947.187	5564.49
947.493	5531.27
947.799	5511.15
948.105	5452.62
948.41	5460.53
948.716	5416.92
949.022	5395.45
949.327	5381.67
949.633	5362.23
949.938	5337.83
950.244	5342.8
950.549	5313.87
950.854	5262.35
951.16	5283.14
951.465	5242.91
951.77	5274.55
952.075	5169.24
952.38	5174.44
952.685	5182.58
952.99	5093.54
953.294	5100.54
953.599	5049.25
953.904	5013.31
954.209	5052.86
954.513	5014.44
954.818	4970.15
955.122	4997.72
955.426	4952.53
955.731	5018.96
956.035	4967.44
956.339	4900.78
956.643	4906.42
956.948	4865.97
957.252	4879.98
957.556	4865.52
957.86	4827.1
958.163	4814.45
958.467	4769.71
958.771	4737.62
959.075	4767.67
959.378	4725.64
959.682	4734.23
959.985	4684.51
960.289	4636.38
960.592	4587.34
960.896	4599.09
961.199	4603.83
961.502	4538.07
961.805	4550.5
962.108	4521.58
962.411	4531.52
962.714	4434.35
963.017	4450.84
963.32	4489.49
963.623	4401.58
963.926	4393.22
964.228	4383.95
964.531	4350.73
964.833	4380.11
965.136	4332.65
965.438	4303.73
965.741	4300.34
966.043	4305.31
966.345	4264.18
966.648	4244.07
966.95	4262.37
967.252	4196.16
967.554	4225.09
967.856	4182.6
968.158	4138.31
968.46	4153.45
968.761	4166.33
969.063	4148.03
969.365	4104.86
969.666	4097.41
969.968	4018.54
970.269	4053.57
970.571	3995.71
970.872	4080.23
971.174	3967.69
971.475	3986.45
971.776	3964.98
972.077	3905.55
972.378	3965.88
972.679	3911.2
972.98	3950.52
973.281	3894.93
973.582	3876.62
973.883	3838.43
974.183	3853.12
974.484	3823.97
974.785	3833.68
975.085	3754.82
975.386	3750.52
975.686	3766.57
975.986	3746.23
976.287	3689.73
976.587	3702.84
976.887	3682.05
977.187	3661.94
977.487	3651.77
977.787	3601.83
978.087	3662.16
978.387	3614.48
978.687	3555.5
978.987	3554.6
979.286	3519.57
979.586	3546.01
979.885	3504.65
980.185	3484.99
980.484	3478.89
980.784	3497.65
981.083	3474.15
981.382	3464.65
981.682	3445.67
981.981	3394.15
982.28	3425.79
982.579	3404.77
982.878	3384.66
983.177	3378.1
983.475	3381.72
983.774	3347.14
984.073	3323.42
984.372	3291.55
984.67	3283.87
984.969	3318.67
985.267	3260.82
985.566	3264.21
985.864	3250.65
986.162	3260.59
986.461	3202.51
986.759	3199.35
987.057	3180.37
987.355	3135.62
987.653	3158
987.951	3117.55
988.249	3147.15
988.547	3139.01
988.844	3106.92
989.142	3071.9
989.44	3053.59
989.737	3031.67
990.035	3030.54
990.332	3058.11
990.63	3036.42
990.927	3007.27
991.224	3026.93
991.521	2979.24
991.819	2990.32
992.116	2943.09
992.413	2937.21
992.71	2934.95
993.006	2929.53
993.303	2916.42
993.6	2898.34
993.897	2852.02
994.193	2895.63
994.49	2868.29
994.787	2823.77
995.083	2795.52
995.379	2777.67
995.676	2764.11
995.972	2782.86
996.268	2759.59
996.565	2769.53
996.861	2759.36
997.157	2727.5
997.453	2721.62
997.749	2697.44
998.044	2661.96
998.34	2663.77
998.636	2646.15
998.932	2602.53
999.227	2616.77
999.523	2611.12
999.818	2616.99
1000.114	2591.68
1000.409	2535.87
1000.704	2563.21
1001	2544.45
1001.295	2498.8
1001.59	2515.08
1001.885	2528.18
1002.18	2480.05
1002.475	2518.46
1002.77	2473.72
1003.065	2447.51
1003.359	2454.74
1003.654	2442.53
1003.949	2428.07
1004.243	2385.59
1004.538	2398.24
1004.832	2364.8
1005.127	2349.66
1005.421	2336.1
1005.715	2328.19
1006.009	2328.41
1006.304	2319.6
1006.598	2304.01
1006.892	2314.85
1007.186	2279.83
1007.48	2271.47
1007.773	2246.38
1008.067	2228.53
1008.361	2214.29
1008.655	2191.47
1008.948	2174.29
1009.242	2214.97
1009.535	2174.52
1009.829	2151.02
1010.122	2119.83
1010.415	2130.23
1010.708	2094.52
1011.001	2109.89
1011.295	2111.24
1011.588	2091.13
1011.881	2068.53
1012.173	2047.97
1012.466	2046.16
1012.759	2034.64
1013.052	2034.18
1013.344	2017.24
1013.637	2003.68
1013.93	1988.76
1014.222	1958.25
1014.514	1952.38
1014.807	1943.79
1015.099	1962.77
1015.391	1917.35
1015.683	1939.27
1015.976	1910.35
1016.268	1860.18
1016.56	1880.06
1016.851	1873.51
1017.143	1860.4
1017.435	1823.79
1017.727	1831.93
1018.018	1813.17
1018.31	1821.31
1018.602	1789.44
1018.893	1772.04
1019.185	1783.57
1019.476	1744.47
1019.767	1765.04
1020.058	1753.97
1020.35	1707.41
1020.641	1707.86
1020.932	1710.58
1021.223	1720.52
1021.514	1704.47
1021.804	1680.75
1022.095	1657.92
1022.386	1654.76
1022.677	1666.74
1022.967	1640.75
1023.258	1613.86
1023.548	1599.39
1023.839	1612.95
1024.129	1594.2
1024.419	1562.33
1024.709	1565.04
1025	1581.09
1025.29	1545.38
1025.58	1545.61
1025.87	1537.02
1026.16	1508.55
1026.449	1514.42
1026.739	1483.01
1027.029	1474.65
1027.319	1471.26
1027.608	1475.78
1027.898	1481.88
1028.187	1459.96
1028.477	1479.62
1028.766	1447.31
1029.055	1412.96
1029.344	1412.96
1029.634	1383.35
1029.923	1361.89
1030.212	1377.93
1030.501	1363.02
1030.79	1364.6
1031.078	1349.68
1031.367	1352.85
1031.656	1337.7
1031.945	1345.61
1032.233	1343.13
1032.522	1325.5
1032.81	1276.46
1033.099	1293.41
1033.387	1290.93
1033.675	1281.66
1033.963	1273.3
1034.251	1267.42
1034.54	1255.67
1034.828	1244.6
1035.116	1212.51
1035.403	1193.3
1035.691	1237.37
1035.979	1191.72
1036.267	1196.92
1036.554	1215.22
1036.842	1178.84
1037.129	1177.94
1037.417	1207.99
1037.704	1156.92
1037.992	1140.65
1038.279	1149.91
1038.566	1146.98
1038.853	1146.98
1039.14	1146.98
