Data from aluminium_macbook_case_FLMS001491_058.txt Node
Date: Tue Feb 07 10:43:50 GMT 2017
User: dcchb
Spectrometer: FLMS00149
Trigger mode: 0
Integration Time (sec): 2.000000E-2
Scans to average: 10
Electric dark correction enabled: true
Nonlinearity correction enabled: false
Boxcar width: 0
XAxis mode: Wavelengths
Number of Pixels in Spectrum: 2048
>>>>>Begin Spectral Data<<<<<
341.393	-23.83
341.776	-23.83
342.16	-23.83
342.543	-62.92
342.927	-50.27
343.31	-74.67
343.693	-76.26
344.077	-60.66
344.46	-52.07
344.843	-53.66
345.226	-29.25
345.61	-20.21
345.993	-24.51
346.376	-12.98
346.759	6.23
347.142	29.05
347.525	35.38
347.908	64.53
348.291	79
348.674	83.51
349.057	106.56
349.44	127.36
349.823	153.12
350.206	167.58
350.588	244.41
350.971	263.85
351.354	266.79
351.737	293.23
352.119	289.61
352.502	309.72
352.884	316.05
353.267	325.54
353.65	376.39
354.032	333.9
354.414	374.13
354.797	348.14
355.179	398.53
355.562	395.37
355.944	384.75
356.326	398.31
356.709	407.12
357.091	408.93
357.473	418.2
357.855	417.29
358.238	395.6
358.62	392.89
359.002	417.74
359.384	455.71
359.766	425.65
360.148	421.81
360.53	443.51
360.912	426.78
361.294	409.38
361.676	408.03
362.057	427.91
362.439	407.57
362.821	432.88
363.203	394.47
363.584	438.53
363.966	429.49
364.348	419.55
364.729	434.69
365.111	423.17
365.493	439.21
365.874	448.93
366.256	426.1
366.637	453.67
367.019	449.83
367.4	429.49
367.781	440.79
368.163	427.01
368.544	450.74
368.925	442.6
369.306	464.07
369.688	441.92
370.069	458.65
370.45	474.01
370.831	463.84
371.212	459.78
371.593	459.78
371.974	445.09
372.355	451.41
372.736	460.91
373.117	483.5
373.498	487.35
373.879	464.97
374.26	470.4
374.641	461.36
375.021	476.05
375.402	493.22
375.783	516.95
376.163	540.45
376.544	522.83
376.925	523.96
377.305	522.6
377.686	509.94
378.066	527.8
378.447	525.54
378.827	523.96
379.208	525.54
379.588	550.85
379.968	558.98
380.349	558.98
380.729	585.65
381.109	568.93
381.489	574.12
381.87	582.94
382.25	613.44
382.63	591.3
383.01	601.02
383.39	616.38
383.77	625.87
384.15	620.22
384.53	621.81
384.91	634.01
385.29	636.72
385.67	657.51
386.049	652.54
386.429	675.14
386.809	681.47
387.189	676.27
387.568	686.21
387.948	709.71
388.328	703.16
388.707	713.33
389.087	724.63
389.466	718.75
389.846	736.6
390.225	739.54
390.605	737.96
390.984	774.8
391.363	776.15
391.743	785.42
392.122	778.19
392.501	809.37
392.881	810.95
393.26	824.51
393.639	824.74
394.018	839.88
394.397	863.83
394.776	863.38
395.155	876.04
395.534	891.63
395.913	897.05
396.292	909.71
396.671	922.36
397.05	911.74
397.429	955.13
397.808	930.95
398.186	944.06
398.565	962.36
398.944	980.67
399.323	994.23
399.701	983.6
400.08	1007.11
400.458	1026.77
400.837	1053.88
401.215	1067.9
401.594	1048.91
401.972	1116.48
402.351	1097.05
402.729	1113.32
403.107	1115.8
403.486	1110.15
403.864	1128.46
404.242	1150.15
404.62	1170.04
404.999	1182.92
405.377	1184.05
405.755	1216.59
406.133	1221.79
406.511	1226.08
406.889	1283.26
407.267	1276.93
407.645	1301.79
408.023	1332.97
408.401	1346.31
408.779	1340.2
409.156	1402.35
409.534	1414.1
409.912	1407.55
410.29	1439.41
410.667	1479.18
411.045	1489.58
411.422	1492.29
411.8	1488.9
412.178	1566.41
412.555	1561.22
412.933	1571.84
413.31	1611.16
413.687	1643.47
414.065	1656.58
414.442	1669.69
414.819	1711.72
415.197	1726.41
415.574	1756.01
415.951	1814.99
416.328	1795.33
416.705	1807.76
417.082	1831.49
417.46	1864.71
417.837	1857.25
418.214	1871.26
418.591	1901.55
418.967	1928.21
419.344	1969.57
419.721	1975.67
420.098	1968.66
420.475	2018.61
420.852	2060.86
421.228	2028.77
421.605	2078.72
421.982	2106.29
422.358	2127.75
422.735	2151.26
423.111	2201.2
423.488	2224.02
423.864	2251.37
424.241	2275.1
424.617	2279.16
424.994	2301.76
425.37	2327.07
425.746	2365.49
426.123	2445.49
426.499	2364.81
426.875	2448.65
427.251	2492.26
427.627	2553.05
428.003	2576.33
428.379	2632.6
428.756	2634.41
429.132	2694.52
429.507	2689.77
429.883	2749.89
430.259	2815.19
430.635	2828.98
431.011	2881.63
431.387	2953.27
431.763	2979.94
432.138	3002.31
432.514	3047.05
432.89	3053.61
433.265	3160.95
433.641	3179.25
434.016	3208.18
434.392	3292.24
434.767	3369.76
435.143	3346.48
435.518	3403.2
435.894	3425.35
436.269	3475.52
436.644	3528.4
437.02	3569.75
437.395	3576.3
437.77	3617.89
438.145	3727.71
438.52	3765
438.895	3791.21
439.271	3766.58
439.646	3906.69
440.021	3893.81
440.395	3958.44
440.77	3939.68
441.145	3948.05
441.52	4086.8
441.895	4027.82
442.27	4130.19
442.645	4114.14
443.019	4184.65
443.394	4164.09
443.769	4267.81
444.143	4218.32
444.518	4316.17
444.892	4288.83
445.267	4354.59
445.641	4459.22
446.016	4428.03
446.39	4469.84
446.764	4539.44
447.139	4578.31
447.513	4584.41
447.887	4609.95
448.262	4626.45
448.636	4627.12
449.01	4748.02
449.384	4795.93
449.758	4842.03
450.132	4893.56
450.506	4934.23
450.88	4979.66
451.254	4974.91
451.628	5061.24
452.002	5127.22
452.376	5191.63
452.75	5210.61
453.123	5262.14
453.497	5357.05
453.871	5414
454.244	5572.41
454.618	5549.36
454.992	5658.96
455.365	5654.89
455.739	5809.01
456.112	5863.02
456.486	5890.37
456.859	6002.46
457.232	6158.84
457.606	6113.41
457.979	6195.9
458.352	6347.98
458.725	6366.51
459.099	6434.99
459.472	6605.15
459.845	6708.2
460.218	6740.97
460.591	6776.22
460.964	6792.94
461.337	6996.78
461.71	7075.2
462.083	7196.32
462.456	7206.49
462.829	7267.96
463.201	7405.58
463.574	7461.4
463.947	7586.59
464.32	7782.3
464.692	7812.35
465.065	7919.01
465.438	7994.27
465.81	8122.17
466.183	8173.02
466.555	8385.67
466.928	8416.18
467.3	8488.49
467.672	8654.81
468.045	8860.46
468.417	8927.8
468.789	9003.51
469.161	9138.64
469.534	9309.71
469.906	9502.93
470.278	9542.25
470.65	9591.74
471.022	9836.93
471.394	10026.53
471.766	10161.22
472.138	10277.82
472.51	10509.46
472.882	10619.73
473.253	10761.2
473.625	10934.08
473.997	11152.15
474.369	11234.63
474.74	11407.74
475.112	11596.43
475.484	11812.7
475.855	12043.43
476.227	12150.32
476.598	12489.29
476.97	12635.5
477.341	12975.38
477.713	13160.46
478.084	13190.29
478.455	13682.03
478.827	13630.96
479.198	14141.22
479.569	14141
479.94	14560.2
480.311	14607.88
480.682	14962.22
481.053	15392.49
481.424	15528.53
481.795	15783.89
482.166	15894.85
482.537	16135.52
482.908	16605.79
483.279	16699.8
483.65	17043.29
484.021	17503.17
484.391	17533.45
484.762	17845.08
485.133	17987.9
485.503	18296.37
485.874	18663.59
486.244	18855.45
486.615	19092.73
486.985	19491.14
487.356	19800.28
487.726	19946.95
488.097	20387.84
488.467	20470.78
488.837	20940.59
489.207	21209.29
489.578	21555.72
489.948	21706.22
490.318	21961.81
490.688	22093.11
491.058	22431.4
491.428	22795.01
491.798	22946.64
492.168	23426.63
492.538	23525.16
492.908	23652.84
493.278	24043.56
493.648	24079.95
494.017	24464.12
494.387	24638.35
494.757	24921.05
495.126	25181.39
495.496	25330.76
495.866	25655.95
496.235	25945.66
496.605	26105.43
496.974	26302.03
497.344	26509.94
497.713	26772.98
498.082	26892.53
498.452	27260.88
498.821	27390.59
499.19	27339.75
499.559	27779.51
499.928	28004.59
500.298	28235.77
500.667	28516.67
501.036	28503.56
501.405	28769.54
501.774	28846.6
502.143	29235.52
502.512	29276.19
502.88	29580.37
503.249	29629.63
503.618	29746.24
503.987	29932.45
504.356	30083.4
504.724	30246.56
505.093	30489.49
505.462	30701.92
505.83	30871.18
506.199	31157.5
506.567	31520.43
506.936	31686.3
507.304	32164.93
507.672	32339.39
508.041	32391.82
508.409	32516.56
508.777	32937.57
509.145	33191.12
509.514	33191.57
509.882	33616.42
510.25	33686.25
510.618	33983.87
510.986	34020.25
511.354	34399.22
511.722	34670.85
512.09	34960.56
512.458	34902.71
512.826	35496.59
513.193	35465.64
513.561	35717.83
513.929	36099.52
514.297	36298.83
514.664	36660.86
515.032	36695.43
515.4	36960.06
515.767	37156.21
516.135	37414.28
516.502	37204.12
516.869	37936.98
517.237	38026.02
517.604	38096.53
517.972	38499.45
518.339	38906.9
518.706	39025.54
519.073	39320
519.44	39660.78
519.808	39990.04
520.175	40013.76
520.542	40531.94
520.909	40795.44
521.276	40799.73
521.643	41283.79
522.009	41594.06
522.376	42015.97
522.743	42122.18
523.11	42727.82
523.477	42991.09
523.843	43225.66
524.21	43603.27
524.577	43973.21
524.943	44269.02
525.31	44436.7
525.676	44769.35
526.043	45038.26
526.409	45130.69
526.776	45675.08
527.142	45672.82
527.508	45951.91
527.874	46330.66
528.241	46446.36
528.607	46660.82
528.973	46916.41
529.339	46971.1
529.705	47338.32
530.071	47673.45
530.437	47811.3
530.803	48153.44
531.169	48376.93
531.535	48421.23
531.901	48674.78
532.267	48877.49
532.632	49142.79
532.998	49277.25
533.364	49534.19
533.73	49652.83
534.095	49974.41
534.461	49924.92
534.826	50265.02
535.192	50399.25
535.557	50675.86
535.923	50612.81
536.288	50907.94
536.653	50956.75
537.019	50941.16
537.384	51204.66
537.749	51364.65
538.114	51421.6
538.479	51461.82
538.845	51679.45
539.21	51630.63
539.575	51833.11
539.94	51868.82
540.305	52118.76
540.67	52041.92
541.034	52269.49
541.399	52344.06
541.764	52400.78
542.129	52495.24
542.494	52558.07
542.858	52757.84
543.223	52797.38
543.587	53005.97
543.952	53007.32
544.316	53146.98
544.681	53232.85
545.045	53414.54
545.41	53579.96
545.774	53638.26
546.138	53785.83
546.503	53809.33
546.867	53899.5
547.231	54148.53
547.595	54161.64
547.959	54244.58
548.324	54361.18
548.688	54373.39
549.052	54612.25
549.416	54580.16
549.779	54717.33
550.143	54801.62
550.507	55011.79
550.871	55123.65
551.235	55069.64
551.599	55401.16
551.962	55397.09
552.326	55447.03
552.689	55560.25
553.053	55521.83
553.417	55548.95
553.78	55957.53
554.143	55813.12
554.507	55958.66
554.87	55962.05
555.234	56293.11
555.597	56154.36
555.96	56298.08
556.323	56359.55
556.686	56405.65
557.05	56655.59
557.413	56687.68
557.776	56814.45
558.139	56943.71
558.502	57016.48
558.865	57050.38
559.228	57293.54
559.59	57404.49
559.953	57474.77
560.316	57735.56
560.679	57746.86
561.041	57900.98
561.404	58014.19
561.767	58161.76
562.129	58171.03
562.492	58467.52
562.854	58357.91
563.217	58438.82
563.579	58609.66
563.941	58777.11
564.304	58868.18
564.666	58961.74
565.028	59048.07
565.39	59185.92
565.753	59332.58
566.115	59358.34
566.477	59443.76
566.839	59511.78
567.201	59694.83
567.563	59695.96
567.925	59888.27
568.287	59848.05
568.648	59906.12
569.01	60036.51
569.372	60149.28
569.734	60014.37
570.095	60236.06
570.457	60379.56
570.819	60352.89
571.18	60365.77
571.542	60489.16
571.903	60573.22
572.265	60627.23
572.626	60697.29
572.987	60784.29
573.349	60907.9
573.71	60982.25
574.071	61028.8
574.432	61097.05
574.794	61257.05
575.155	61221.79
575.516	61190.38
575.877	61368.91
576.238	61368.01
576.599	61465.63
576.96	61505.85
577.32	61526.87
577.681	61596.47
578.042	61679.64
578.403	61637.15
578.763	61698.39
579.124	61766.64
579.485	61845.05
579.845	61916.92
580.206	61868.1
580.566	61805.73
580.927	61876.01
581.287	61957.37
581.648	61887.99
582.008	62000.3
582.368	62012.73
582.728	61980.42
583.089	61959.63
583.449	61955.33
583.809	62013.64
584.169	61980.64
584.529	61979.06
584.889	62117.82
585.249	61964.37
585.609	61930.48
585.969	62001.89
586.329	61936.13
586.688	61975.22
587.048	61978.38
587.408	61965.96
587.768	62023.13
588.127	61969.35
588.487	61948.33
588.846	62124.37
589.206	61989.68
589.565	62009.8
589.925	62120.98
590.284	62054.31
590.643	62120.3
591.003	62125.95
591.362	62172.05
591.721	62171.37
592.08	62214.31
592.44	62188.1
592.799	62231.49
593.158	62205.5
593.517	62232.84
593.876	62244.14
594.235	62145.61
594.593	62201.88
594.952	62256.57
595.311	62158.49
595.67	62222.67
596.029	62398.94
596.387	62349.22
596.746	62356
597.104	62332.95
597.463	62287.3
597.822	62445.72
598.18	62269.22
598.538	62387.41
598.897	62398.94
599.255	62267.64
599.613	62573.85
599.972	62406.85
600.33	62464.7
600.688	62378.15
601.046	62461.08
601.404	62520.07
601.762	62369.11
602.12	62528.88
602.478	62533.85
602.836	62531.14
603.194	62434.42
603.552	62454.08
603.91	62410.24
604.268	62556.22
604.625	62451.37
604.983	62573.85
605.341	62476.68
605.698	62631.93
606.056	62722.55
606.413	62750.79
606.771	62782.88
607.128	62777.91
607.485	62659.04
607.843	62660.85
608.2	62849.55
608.557	62901.07
608.914	62851.81
609.272	62958.25
609.629	62999.6
609.986	62999.6
610.343	62928.42
610.7	63081.18
611.057	63081.86
611.414	63071.01
611.771	63100.39
612.127	63169.99
612.484	63148.98
612.841	63182.42
613.198	63133.61
613.554	63148.98
613.911	63189.43
614.267	63186.04
614.624	63189.43
614.98	63182.19
615.337	63189.43
615.693	63184.23
616.05	63189.43
616.406	63189.43
616.762	63189.43
617.118	63188.97
617.475	63177.67
617.831	63189.43
618.187	63183.1
618.543	63189.43
618.899	63189.43
619.255	63189.43
619.611	63187.39
619.967	63189.43
620.323	63189.43
620.678	63189.43
621.034	63189.43
621.39	63189.43
621.746	63188.97
622.101	63189.43
622.457	63189.43
622.812	63189.43
623.168	63189.43
623.523	63189.43
623.879	63189.43
624.234	63189.43
624.589	63189.43
624.945	63189.43
625.3	63189.43
625.655	63189.43
626.01	63189.43
626.365	63189.43
626.72	63189.43
627.075	63189.43
627.43	63189.43
627.785	63189.43
628.14	63189.43
628.495	63189.43
628.85	63189.43
629.205	63189.43
629.559	63189.43
629.914	63189.43
630.269	63189.43
630.623	63189.43
630.978	63189.43
631.332	63189.43
631.687	63189.43
632.041	63189.43
632.396	63189.43
632.75	63188.52
633.104	63189.43
633.459	63162.31
633.813	63148.75
634.167	63137
634.521	63075.76
634.875	63087.28
635.229	63034.4
635.583	62964.57
635.937	62884.12
636.291	62884.35
636.645	62903.56
636.999	62852.94
637.352	62892.94
637.706	62695.43
638.06	62779.04
638.413	62727.07
638.767	62658.37
639.121	62706.5
639.474	62575.66
639.828	62570.23
640.181	62544.02
640.534	62601.64
640.888	62560.29
641.241	62457.92
641.594	62503.12
641.947	62488.43
642.301	62451.14
642.654	62449.56
643.007	62444.59
643.36	62459.5
643.713	62425.6
644.066	62441.88
644.419	62300.41
644.771	62143.58
645.124	61999.85
645.477	61979.74
645.83	61728
646.182	61636.47
646.535	61580.43
646.888	61587.89
647.24	61452.52
647.593	61555.12
647.945	61477.15
648.298	61412.07
648.65	61390.15
649.002	61266.09
649.355	61400.09
649.707	61410.49
650.059	61466.08
650.411	61744.27
650.763	61752.18
651.115	61990.14
651.467	61867.88
651.819	61854.77
652.171	61761.67
652.523	61709.24
652.875	61727.32
653.227	61549.02
653.578	61733.87
653.93	61611.16
654.282	61492.07
654.633	61492.3
654.985	61527.55
655.337	61469.7
655.688	61444.39
656.039	61474.44
656.391	61231.96
656.742	61296.59
657.094	61251.17
657.445	61363.94
657.796	61311.74
658.147	61189.25
658.498	61160.1
658.849	61176.6
659.2	61215.92
659.551	61177.73
659.902	61258.86
660.253	61153.32
660.604	61212.98
660.955	61077.62
661.306	61180.21
661.656	61144.73
662.007	61223.38
662.358	61143.15
662.708	61155.13
663.059	61141.34
663.409	61044.4
663.76	61162.59
664.11	61187.67
664.461	61204.85
664.811	61141.57
665.161	61146.99
665.511	61025.19
665.862	60989.71
666.212	61121.23
666.562	61092.76
666.912	61045.3
667.262	61019.54
667.612	61027.22
667.962	61003.95
668.312	60911.97
668.662	61060.67
669.011	60981.8
669.361	60864.06
669.711	60907.68
670.06	60870.84
670.41	60828.36
670.76	60830.39
671.109	60899.99
671.459	60795.59
671.808	60741.81
672.157	60798.08
672.507	60675.82
672.856	60672.43
673.205	60721.47
673.554	60721.24
673.904	60601.02
674.253	60705.65
674.602	60601.02
674.951	60150.86
675.3	60032.45
675.649	60379.78
675.998	60368.26
676.346	60370.07
676.695	60412.1
677.044	60279.67
677.393	60327.81
677.741	60298.43
678.09	60225.89
678.438	60128.72
678.787	60289.39
679.135	60247.81
679.484	60082.62
679.832	60193.57
680.181	60031.09
680.529	60101.82
680.877	60057.08
681.225	60021.83
681.573	60198.77
681.922	60017.08
682.27	59945.22
682.618	59999.91
682.966	59932.34
683.314	59921.04
683.661	59879.23
684.009	59761.72
684.357	59743.87
684.705	59676.75
685.053	59759.69
685.4	59686.47
685.748	59595.4
686.095	59585.68
686.443	59443.99
686.79	59399.92
687.138	59465.68
687.485	59482.4
687.832	59334.39
688.18	59380.94
688.527	59209.87
688.874	59162.64
689.221	59205.12
689.568	59086.26
689.915	59036.99
690.262	58974.4
690.609	58879.71
690.956	58873.38
691.303	58796.77
691.65	58677.68
691.997	58595.65
692.344	58511.58
692.69	58310.68
693.037	58320.4
693.383	58192.95
693.73	58268.43
694.077	58105.49
694.423	58110.01
694.769	57991.6
695.116	57969.22
695.462	57711.15
695.808	57723.58
696.155	57792.96
696.501	57604.94
696.847	57561.1
697.193	57338.05
697.539	57456.7
697.885	57188
698.231	57131.28
698.577	57198.62
698.923	57044.95
699.269	56892.64
699.614	56765.41
699.96	56697.39
700.306	56730.39
700.651	56633.21
700.997	56533.78
701.342	56519.09
701.688	56523.16
702.033	56441.81
702.379	56400.23
702.724	56355.03
703.069	56406.1
703.415	56114.81
703.76	56145.54
704.105	56078.65
704.45	56017.86
704.795	55936.96
705.14	55873.46
705.485	55863.74
705.83	55754.37
706.175	55759.56
706.52	55576.29
706.865	55639.34
707.209	55508.05
707.554	55461.72
707.899	55491.1
708.243	55434.38
708.588	55272.8
708.932	55157.32
709.277	55101.73
709.621	55082.75
709.966	54838.01
710.31	54946.93
710.654	54700.16
710.998	54798.91
711.342	54799.36
711.687	54640.72
712.031	54615.41
712.375	54460.84
712.719	54518.92
713.063	54464.68
713.407	54506.72
713.75	54236.44
714.094	54244.12
714.438	54024.24
714.782	54093.39
715.125	53966.39
715.469	53965.71
715.812	53800.29
716.156	53702.22
716.499	53669.45
716.843	53629.45
717.186	53457.48
717.53	53594.88
717.873	53454.77
718.216	53421.32
718.559	53212.51
718.902	53023.14
719.246	53171.84
719.589	52972.29
719.932	52814.56
720.275	52757.84
720.617	52777.27
720.96	52711.28
721.303	52656.37
721.646	52567.78
721.989	52400.78
722.331	52436.94
722.674	52356.49
723.016	52342.93
723.359	52234.91
723.701	52223.16
724.044	52130.96
724.386	51860.01
724.729	52110.62
725.071	51970.29
725.413	51906.78
725.755	51926.45
726.097	51799.9
726.439	51690.52
726.782	51603.29
727.124	51857.97
727.465	51672.21
727.807	51668.37
728.149	51658.66
728.491	51592.67
728.833	51608.94
729.175	51440.81
729.516	51368.72
729.858	51334.6
730.199	51329.62
730.541	51171.21
730.882	51186.58
731.224	51353.81
731.565	50991.33
731.906	51103.19
732.248	51168.5
732.589	50986.13
732.93	50837.89
733.271	50851.45
733.612	50723.77
733.953	50851.45
734.294	50545.24
734.635	50592.92
734.976	50618.68
735.317	50511.34
735.658	50464.79
735.999	50516.31
736.339	50303.21
736.68	50345.47
737.021	50119.26
737.361	49992.48
737.702	50184.12
738.042	49988.87
738.383	49870.68
738.723	49946.16
739.063	49758.82
739.404	49747.29
739.744	49541.88
740.084	49519.5
740.424	49526.96
740.764	49479.73
741.104	49560.18
741.444	49185.27
741.784	49113.19
742.124	49224.82
742.464	48983.25
742.804	48881.1
743.143	48689.24
743.483	48849.69
743.823	48613.31
744.162	48642.46
744.502	48630.94
744.841	48403.6
745.181	48329.25
745.52	48220.55
745.86	48142.36
746.199	48010.84
746.538	48091.52
746.877	47997.06
747.216	48028.02
747.556	47876.16
747.895	47828.7
748.234	47680.46
748.573	47734.47
748.911	47631.87
749.25	47606.11
749.589	47245.44
749.928	47425.77
750.267	47469.39
750.605	47329.05
750.944	47364.08
751.283	47152.56
751.621	47230.3
751.96	46884.77
752.298	46955.73
752.636	46999.12
752.975	46694.94
753.313	46714.38
753.651	46878.22
753.989	46754.38
754.327	46480.94
754.666	46337.44
755.004	46423.99
755.342	46500.83
755.679	46234.84
756.017	46065.13
756.355	46168.63
756.693	46066.94
757.031	45924.8
757.368	45777.91
757.706	45643.9
758.044	45528.87
758.381	45549.89
758.719	45358.93
759.056	45332.49
759.394	45205.49
759.731	44960.98
760.068	44899.06
760.405	44776.35
760.743	44527.32
761.08	44559.63
761.417	44391.05
761.754	44267.21
762.091	44159.64
762.428	44172.07
762.765	43834.45
763.102	43951.51
763.438	43726.44
763.775	43407.35
764.112	43536.84
764.449	43422.49
764.785	43184.3
765.122	42955.83
765.458	42803.07
765.795	42671.32
766.131	42529.86
766.467	42512.68
766.804	42187.94
767.14	41909.76
767.476	41856.65
767.812	41689.65
768.148	41573.5
768.485	41372.15
768.821	41136.9
769.157	41165.37
769.492	41081.98
769.828	40846.28
770.164	40464.37
770.5	40551.15
770.836	40347.09
771.171	40185.29
771.507	40127.21
771.842	39839.31
772.178	39815.8
772.513	39629.14
772.849	39616.49
773.184	39258.76
773.519	39117.97
773.855	39005.88
774.19	38763.18
774.525	38739.45
774.86	38643.4
775.195	38513.69
775.53	38452.9
775.865	38128.84
776.2	37947.6
776.535	37837.32
776.87	37821.51
777.205	37696.76
777.539	37549.42
777.874	37572.25
778.209	37183.56
778.543	37232.82
778.878	37124.57
779.212	36941.3
779.547	36894.75
779.881	37045.03
780.215	36784.7
780.55	36854.07
780.884	36537.02
781.218	36476
781.552	36358.72
781.886	36249.34
782.22	36055.22
782.554	36079.18
782.888	35656.14
783.222	35689.36
783.556	35506.31
783.889	35473.54
784.223	35232.65
784.557	35168.02
784.89	35259.76
785.224	34883.96
785.557	34793.11
785.891	34693.68
786.224	34455.04
786.558	34588.6
786.891	34151.55
787.224	34117.65
787.557	33970.08
787.891	33953.13
788.224	33828.39
788.557	33849.18
788.89	33732.12
789.223	33549.3
789.556	33346.59
789.888	33244.22
790.221	33286.71
790.554	32987.51
790.887	32742.09
791.219	32826.83
791.552	32597.01
791.884	32326.73
792.217	32329.22
792.549	32281.09
792.882	31882.45
793.214	31863.92
793.546	31823.02
793.879	31622.12
794.211	31529.02
794.543	31568.79
794.875	31372.64
795.207	31406.76
795.539	31230.94
795.871	31175.13
796.203	30838.19
796.535	30679.32
796.867	30518.65
797.198	30421.25
797.53	30355.49
797.862	30305.54
798.193	30158.43
798.525	29940.36
798.856	30014.25
799.188	29671.66
799.519	29597.54
799.85	29462.4
800.182	29414.95
800.513	29355.51
800.844	29133.15
801.175	29287.04
801.506	29227.38
801.837	29009.76
802.168	28982.42
802.499	28819.93
802.83	28635.53
803.161	28555.31
803.491	28545.37
803.822	28557.34
804.153	28374.75
804.483	28079.16
804.814	28025.38
805.145	28087.3
805.475	28061.08
805.805	27849.56
806.136	28020.41
806.466	27970.01
806.796	27895.66
807.126	27684.82
807.457	27670.36
807.787	27744.26
808.117	27609.57
808.447	27403.25
808.777	27607.76
809.107	27440.31
809.436	27405.51
809.766	27393.08
810.096	27330.93
810.426	27076.03
810.755	27198.28
811.085	27192.63
811.414	27138.62
811.744	26922.13
812.073	26922.36
812.403	26735.24
812.732	26779.99
813.061	26632.65
813.39	26562.14
813.719	26477.85
814.049	26645.3
814.378	26504.51
814.707	26418.87
815.036	26356.04
815.365	26223.39
815.693	26044.19
816.022	26046
816.351	25874.93
816.68	25755.38
817.008	25871.99
817.337	25673.12
817.665	25610.75
817.994	25717.87
818.322	25592.67
818.651	25530.08
818.979	25447.59
819.307	25578.21
819.636	25457.76
819.964	25178.9
820.292	25339.12
820.62	25142.52
820.948	25253.93
821.276	25321.95
821.604	25245.79
821.932	25130.99
822.259	25111.78
822.587	25108.17
822.915	25012.35
823.243	25145.23
823.57	24905.69
823.898	25088.73
824.225	24899.36
824.553	24845.8
824.88	24891.68
825.207	24862.75
825.535	24811.68
825.862	24920.38
826.189	24691.46
826.516	24789.53
826.843	24803.54
827.17	24666.82
827.497	24739.36
827.824	24664.11
828.151	24824.79
828.478	24678.35
828.805	24832.69
829.131	24735.75
829.458	24564.45
829.785	24507.28
830.111	24544.34
830.438	24596.09
830.764	24517.9
831.09	24611.91
831.417	24471.35
831.743	24565.58
832.069	24591.57
832.395	24438.81
832.722	24474.29
833.048	24364.91
833.374	24342.09
833.7	24385.47
834.026	24291.69
834.351	24392.93
834.677	24236.33
835.003	24263.67
835.329	24376.21
835.654	24347.96
835.98	24182.54
836.306	24248.98
836.631	24142.77
836.956	24253.95
837.282	24202.2
837.607	24160.85
837.932	24084.69
838.258	24065.71
838.583	24012.15
838.908	24020.96
839.233	23952.49
839.558	23983.23
839.883	23851.25
840.208	23911.59
840.533	23933.06
840.858	23916.56
841.182	23926.28
841.507	23909.78
841.832	23800.63
842.156	23902.78
842.481	23924.92
842.805	23941.19
843.13	23659.84
843.454	23644.93
843.778	23511.37
844.103	23610.81
844.427	23531.49
844.751	23526.29
845.075	23457.82
845.399	23370.81
845.723	23316.58
846.047	23396.57
846.371	23025.28
846.695	23101.89
847.019	23030.71
847.343	22907.32
847.666	22871.39
847.99	22673.66
848.313	22588.23
848.637	22525.41
848.96	22436.37
849.284	22374.23
849.607	22285.42
849.931	22233.21
850.254	22056.27
850.577	21923.84
850.9	21835.03
851.223	21889.5
851.546	21864.41
851.869	21619.9
852.192	21753.91
852.515	21449.28
852.838	21339.68
853.161	21376.06
853.483	21192.11
853.806	21087.48
854.129	21225.11
854.451	20925.68
854.774	20945.11
855.096	20896.3
855.419	20720.49
855.741	20709.87
856.063	20670.77
856.385	20498.35
856.708	20412.7
857.03	20360.04
857.352	20399.36
857.674	20327.28
857.996	20155.98
858.318	20071.01
858.64	20027.4
858.961	20018.13
859.283	19962.99
859.605	19817.23
859.926	19817.01
860.248	19768.19
860.57	19663.79
860.891	19596
861.212	19471.25
861.534	19502.67
861.855	19408.43
862.176	19473.74
862.498	19304.03
862.819	19337.25
863.14	19281.88
863.461	19125.27
863.782	19111.71
864.103	19221.99
864.424	19041.89
864.745	19091.6
865.065	18982.45
865.386	18947.2
865.707	18916.92
866.027	18941.1
866.348	18877.37
866.668	18813.19
866.989	18838.95
867.309	18616.59
867.63	18656.13
867.95	18671.73
868.27	18657.26
868.59	18658.85
868.91	18650.94
869.23	18629.92
869.55	18557.15
869.87	18716.7
870.19	18441.9
870.51	18552.63
870.83	18615.23
871.15	18441.45
871.469	18568.9
871.789	18572.97
872.109	18516.7
872.428	18482.13
872.748	18521.9
873.067	18525.52
873.386	18525.52
873.706	18468.12
874.025	18353.54
874.344	18369.36
874.663	18477.16
874.982	18366.2
875.301	18404.61
875.62	18307.89
875.939	18299.76
876.258	18408
876.577	18312.87
876.896	18295.01
877.214	18252.3
877.533	18323.26
877.852	18309.48
878.17	18325.97
878.489	18296.14
878.807	18203.72
879.125	18251.17
879.444	18207.11
879.762	18128.01
880.08	18109.26
880.398	18074.23
880.716	18120.78
881.034	17949.26
881.352	18071.74
881.67	17968.92
881.988	17976.6
882.306	17974.8
882.624	17921.69
882.941	17843.27
883.259	17749.94
883.577	17814.8
883.894	17697.97
884.212	17784.74
884.529	17725.31
884.846	17587.01
885.164	17574.35
885.481	17661.58
885.798	17653.9
886.115	17540.23
886.432	17572.55
886.75	17432.66
887.067	17490.74
887.383	17395.83
887.7	17315.38
888.017	17259.33
888.334	17304.76
888.651	17137.76
888.967	17120.35
889.284	16996.52
889.6	16936.86
889.917	16936.18
890.233	16862.73
890.55	16755.17
890.866	16867.71
891.182	16716.52
891.498	16669.52
891.815	16584.78
892.131	16551.33
892.447	16497.32
892.763	16520.37
893.079	16377.32
893.395	16305.24
893.71	16190.21
894.026	16227.27
894.342	16224.33
894.657	16057.78
894.973	16030.44
895.289	16016.66
895.604	15887.62
895.92	15736.89
896.235	15693.27
896.55	15836.32
896.865	15690.79
897.181	15635.42
897.496	15563.11
897.811	15496.44
898.126	15571.92
898.441	15316.56
898.756	15239.5
899.071	15282.21
899.386	15180.29
899.7	15230.24
900.015	15064.14
900.33	15005.83
900.644	14966.74
900.959	14922.22
901.273	14809.68
901.588	14861.21
901.902	14733.98
902.216	14694.66
902.531	14762.45
902.845	14619.18
903.159	14543.25
903.473	14485.4
903.787	14465.28
904.101	14447.2
904.415	14395.45
904.729	14392.07
905.042	14294.21
905.356	14220.09
905.67	14248.11
905.984	14227.55
906.297	14064.62
906.611	14004.05
906.924	13985.07
907.237	13981.68
907.551	13953.21
907.864	13905.3
908.177	13778.3
908.491	13806.54
908.804	13700.33
909.117	13658.3
909.43	13689.94
909.743	13601.58
910.056	13549.15
910.368	13570.39
910.681	13447.23
910.994	13510.05
911.307	13408.14
911.619	13242.26
911.932	13383.96
912.244	13230.97
912.557	13275.94
912.869	13190.06
913.181	13208.82
913.494	13150.52
913.806	13112.32
914.118	13105.55
914.43	12904.42
914.742	12948.26
915.054	12889.28
915.366	12800.47
915.678	12811.77
915.99	12790.98
916.302	12675.95
916.613	12729.06
916.925	12680.7
917.236	12625.56
917.548	12519.35
917.859	12547.82
918.171	12455.39
918.482	12440.25
918.794	12407.03
919.105	12351.44
919.416	12266.7
919.727	12238.9
920.038	12244.78
920.349	12168.17
920.66	12032.35
920.971	12119.81
921.282	12002.75
921.593	11890.89
921.903	11947.16
922.214	11829.42
922.525	11750.33
922.835	11705.81
923.146	11679.59
923.456	11640.05
923.767	11612.93
924.077	11563.89
924.387	11514.4
924.697	11464.68
925.008	11383.1
925.318	11431.69
925.628	11385.36
925.938	11275.76
926.248	11221.08
926.558	11118.93
926.867	11056.11
927.177	11089.1
927.487	10922.78
927.796	10862.89
928.106	10912.83
928.416	10824.7
928.725	10806.17
929.034	10733.18
929.344	10747.42
929.653	10676.46
929.962	10564.14
930.271	10553.07
930.581	10540.19
930.89	10451.38
931.199	10371.83
931.508	10309.46
931.817	10271.95
932.125	10260.65
932.434	10191.72
932.743	10129.35
933.051	10041.45
933.36	9996.93
933.669	9954.22
933.977	9901.79
934.286	9949.24
934.594	9896.59
934.902	9827.67
935.21	9758.97
935.519	9681
935.827	9732.53
936.135	9592.19
936.443	9556.49
936.751	9418.64
937.059	9502.7
937.367	9417.05
937.674	9414.79
937.982	9330.5
938.29	9276.49
938.597	9288.47
938.905	9150.17
939.213	9144.52
939.52	9079.44
939.827	9121.24
940.135	9132.99
940.442	9063.17
940.749	8963.51
941.056	8943.39
941.363	8877.86
941.67	8828.37
941.977	8814.36
942.284	8765.09
942.591	8742.72
942.898	8709.05
943.205	8644.65
943.511	8619.79
943.818	8566.68
944.125	8567.81
944.431	8500.02
944.738	8426.57
945.044	8455.5
945.35	8449.4
945.657	8331.66
945.963	8296.41
946.269	8260.02
946.575	8221.83
946.881	8278.55
947.187	8210.53
947.493	8165.79
947.799	8156.07
948.105	8060.48
948.41	8032.91
948.716	8077.88
949.022	8016.87
949.327	8027.26
949.633	7882.86
949.938	7923.31
950.244	7927.6
950.549	7859.36
950.854	7870.2
951.16	7856.19
951.465	7809.64
951.77	7728.06
952.075	7689.42
952.38	7663.2
952.685	7699.36
952.99	7655.52
953.294	7617.55
953.599	7540.95
953.904	7607.38
954.209	7520.83
954.513	7555.18
954.818	7528.97
955.122	7440.84
955.426	7406.49
955.731	7356.09
956.035	7359.71
956.339	7343.89
956.643	7327.39
956.948	7253.04
957.252	7187.28
957.556	7187.51
957.86	7237.9
958.163	7222.54
958.467	7124.69
958.771	7131.69
959.075	7146.15
959.378	7063.67
959.682	7025.93
959.985	7015.54
960.289	6911.81
960.592	6851.25
960.896	6911.58
961.199	6858.48
961.502	6831.81
961.805	6793.62
962.108	6767.41
962.411	6735.54
962.714	6702.55
963.017	6669.1
963.32	6656.45
963.623	6624.13
963.926	6668.65
964.228	6561.99
964.531	6577.81
964.833	6568.99
965.136	6489.9
965.438	6506.17
965.741	6404.93
966.043	6386.85
966.345	6351.6
966.648	6340.75
966.95	6320.41
967.252	6308.44
967.554	6191.6
967.856	6173.98
968.158	6141.89
968.46	6185.28
968.761	6125.84
969.063	6057.82
969.365	6052.62
969.666	6041.32
969.968	5980.99
970.269	5950.03
970.571	5982.79
970.872	5920.88
971.174	5908.45
971.475	5867.32
971.776	5873.64
972.077	5773.76
972.378	5794.78
972.679	5742.8
972.98	5747.32
973.281	5707.1
973.582	5703.48
973.883	5704.61
974.183	5592.75
974.484	5580.09
974.785	5555.46
975.085	5550.26
975.386	5541
975.686	5478.4
975.986	5432.98
976.287	5416.03
976.587	5350.95
976.887	5354.56
977.187	5341.23
977.487	5286.32
977.787	5287.67
978.087	5258.52
978.387	5231.4
978.687	5206.77
978.987	5175.81
979.286	5171.29
979.586	5129.26
979.885	5120.44
980.185	5101.46
980.484	5051.97
980.784	5025.53
981.083	5011.07
981.382	4923.84
981.682	4934.23
981.981	4929.04
982.28	4904.18
982.579	4824.63
982.878	4829.6
983.177	4835.25
983.475	4787.57
983.774	4772.21
984.073	4736.27
984.372	4664.86
984.67	4736.73
984.969	4717.07
985.267	4694.69
985.566	4644.07
985.864	4619.67
986.162	4614.92
986.461	4590.51
986.759	4575.15
987.057	4545.09
987.355	4527.92
987.653	4483.63
987.951	4521.82
988.249	4470.52
988.547	4473.91
988.844	4463.96
989.142	4347.36
989.44	4362.5
989.737	4389.39
990.035	4316.4
990.332	4329.96
990.63	4287.92
990.927	4280.92
991.224	4218.55
991.521	4254.7
991.819	4221.03
992.116	4233.69
992.413	4188.27
992.71	4157.08
993.006	4167.93
993.303	4136.74
993.6	4110.08
993.897	4126.8
994.193	4076.63
994.49	4030.08
994.787	4056.52
995.083	4022.85
995.379	3968.84
995.676	3974.03
995.972	3982.17
996.268	3977.88
996.565	3881.83
996.861	3909.63
997.157	3881.83
997.453	3876.41
997.749	3837.09
998.044	3857.88
998.34	3836.64
998.636	3808.61
998.932	3824.66
999.227	3763.42
999.523	3759.35
999.818	3741.5
1000.114	3699.46
1000.409	3671.44
1000.704	3638.45
1001	3668.73
1001.295	3629.18
1001.59	3616.76
1001.885	3604.78
1002.18	3581.28
1002.475	3603.2
1002.77	3566.14
1003.065	3502.41
1003.359	3496.31
1003.654	3486.36
1003.949	3481.17
1004.243	3459.7
1004.538	3431.45
1004.832	3417.89
1005.127	3421.05
1005.421	3370.21
1005.715	3336.99
1006.009	3316.65
1006.304	3315.29
1006.598	3317.33
1006.892	3282.98
1007.186	3264.22
1007.48	3254.73
1007.773	3226.93
1008.067	3208.18
1008.361	3164.56
1008.655	3164.34
1008.948	3133.6
1009.242	3169.99
1009.535	3093.15
1009.829	3097.22
1010.122	3057.45
1010.415	3037.79
1010.708	3012.93
1011.001	2969.77
1011.295	2968.18
1011.588	2964.79
1011.881	2935.42
1012.173	2934.74
1012.466	2923.44
1012.759	2912.37
1013.052	2887.06
1013.344	2876.66
1013.637	2810.9
1013.93	2810.22
1014.222	2810.45
1014.514	2779.72
1014.807	2751.02
1015.099	2693.16
1015.391	2705.14
1015.683	2703.78
1015.976	2668.76
1016.268	2681.86
1016.56	2633.73
1016.851	2632.6
1017.143	2613.62
1017.435	2613.39
1017.727	2582.21
1018.018	2552.6
1018.31	2551.47
1018.602	2504.92
1018.893	2513.73
1019.185	2452.94
1019.476	2441.42
1019.767	2439.16
1020.058	2440.06
1020.35	2409.56
1020.641	2367.3
1020.932	2363
1021.223	2346.73
1021.514	2331.59
1021.804	2286.17
1022.095	2287.3
1022.386	2278.49
1022.677	2249.79
1022.967	2245.49
1023.258	2245.49
1023.548	2218.37
1023.839	2168.21
1024.129	2148.09
1024.419	2181.31
1024.709	2154.19
1025	2122.56
1025.29	2126.17
1025.58	2093.18
1025.87	2134.08
1026.16	2064.71
1026.449	2074.87
1026.739	2014.31
1027.029	2028.1
1027.319	2004.82
1027.608	2000.07
1027.898	1987.87
1028.187	1969.79
1028.477	1934.77
1028.766	1925.27
1029.055	1923.01
1029.344	1888.67
1029.634	1893.41
1029.923	1883.69
1030.212	1850.93
1030.501	1851.15
1030.79	1790.81
1031.078	1793.07
1031.367	1794.2
1031.656	1789.01
1031.945	1777.71
1032.233	1738.16
1032.522	1701.33
1032.81	1734.09
1033.099	1706.75
1033.387	1695
1033.675	1674.21
1033.963	1659.07
1034.251	1676.92
1034.54	1691.16
1034.828	1638.28
1035.116	1631.95
1035.403	1636.02
1035.691	1603.25
1035.979	1598.96
1036.267	1568
1036.554	1576.81
1036.842	1553.76
1037.129	1537.94
1037.417	1537.26
1037.704	1508.79
1037.992	1535
1038.279	1497.49
1038.566	1477.6
1038.853	1477.6
1039.14	1477.6
