Data from aluminium_macbook_case_FLMS001491_082.txt Node
Date: Tue Feb 07 10:44:16 GMT 2017
User: dcchb
Spectrometer: FLMS00149
Trigger mode: 0
Integration Time (sec): 2.000000E-2
Scans to average: 10
Electric dark correction enabled: true
Nonlinearity correction enabled: false
Boxcar width: 0
XAxis mode: Wavelengths
Number of Pixels in Spectrum: 2048
>>>>>Begin Spectral Data<<<<<
341.393	-29.96
341.776	-29.96
342.16	-29.96
342.543	-49.39
342.927	-86
343.31	-64.53
343.693	-60.92
344.077	-54.36
344.46	-61.59
344.843	-57.07
345.226	-41.48
345.61	-33.12
345.993	-27.25
346.376	-13.01
346.759	20.66
347.142	22.25
347.525	49.14
347.908	47.33
348.291	78.06
348.674	89.14
349.057	106.76
349.44	112.64
349.823	139.76
350.206	179.3
350.588	256.14
350.971	272.86
351.354	277.83
351.737	295.23
352.119	296.14
352.502	320.32
352.884	325.06
353.267	318.28
353.65	332.29
354.032	346.98
354.414	371.84
354.797	380.43
355.179	385.4
355.562	393.76
355.944	384.27
356.326	413.87
356.709	389.69
357.091	390.6
357.473	410.94
357.855	404.16
358.238	418.84
358.62	402.35
359.002	403.7
359.384	418.17
359.766	417.04
360.148	410.94
360.53	430.37
360.912	428.79
361.294	428.34
361.676	388.56
362.057	404.61
362.439	415.91
362.821	407.32
363.203	443.03
363.584	427.88
363.966	442.12
364.348	436.7
364.729	427.43
365.111	442.35
365.493	416.59
365.874	443.48
366.256	459.07
366.637	433.99
367.019	446.87
367.4	410.71
367.781	454.78
368.163	448
368.544	439.64
368.925	444.61
369.306	446.87
369.688	440.31
370.069	444.83
370.45	437.6
370.831	430.37
371.212	458.39
371.593	464.04
371.974	446.19
372.355	467.21
372.736	471.27
373.117	494.32
373.498	454.32
373.879	484.61
374.26	460.65
374.641	472.63
375.021	464.72
375.402	467.88
375.783	502.01
376.163	535.45
376.544	543.36
376.925	502.91
377.305	531.16
377.686	541.55
378.066	529.8
378.447	543.81
378.827	520.76
379.208	542.23
379.588	538.16
379.968	549.24
380.349	560.76
380.729	579.52
381.109	586.98
381.489	582.68
381.87	571.38
382.25	565.96
382.63	591.72
383.01	606.18
383.39	606.41
383.77	600.54
384.15	623.13
384.53	624.26
384.91	643.47
385.29	633.08
385.67	662.68
386.049	651.16
386.429	668.1
386.809	676.01
387.189	680.53
387.568	673.08
387.948	701.1
388.328	685.5
388.707	675.56
389.087	702.45
389.466	725.5
389.846	722.34
390.225	748.33
390.605	741.77
390.984	763.69
391.363	762.34
391.743	775.67
392.122	793.3
392.501	808.67
392.881	817.25
393.26	812.96
393.639	828.33
394.018	822.9
394.397	848.21
394.776	845.27
395.155	883.24
395.534	867.65
395.913	869
396.292	876.91
396.671	944.03
397.05	921.2
397.429	950.36
397.808	939.74
398.186	918.94
398.565	946.51
398.944	969.79
399.323	951.94
399.701	981.54
400.08	983.8
400.458	1012.05
400.837	1028.77
401.215	1074.19
401.594	1031.03
401.972	1061.77
402.351	1058.15
402.729	1057.92
403.107	1084.82
403.486	1101.99
403.864	1117.58
404.242	1138.15
404.62	1134.31
404.999	1164.14
405.377	1160.75
405.755	1197.81
406.133	1181.99
406.511	1200.29
406.889	1241.2
407.267	1272.38
407.645	1306.05
408.023	1318.93
408.401	1312.38
408.779	1317.8
409.156	1348.31
409.534	1352.61
409.912	1391.93
410.29	1406.39
410.667	1452.72
411.045	1464.47
411.422	1482.32
411.8	1503.56
412.178	1512.6
412.555	1539.72
412.933	1550.34
413.31	1555.54
413.687	1591.7
414.065	1622.2
414.442	1630.34
414.819	1680.96
415.197	1672.6
415.574	1716.89
415.951	1741.75
416.328	1727.74
416.705	1747.4
417.082	1780.62
417.46	1813.61
417.837	1860.61
418.214	1842.08
418.591	1854.51
418.967	1873.95
419.344	1892.48
419.721	1902.2
420.098	1909.65
420.475	1981.52
420.852	1954.62
421.228	2014.51
421.605	2042.31
421.982	2051.8
422.358	2073.94
422.735	2118.01
423.111	2109.87
423.488	2168.63
423.864	2139.25
424.241	2171.79
424.617	2245.69
424.994	2245.01
425.37	2243.88
425.746	2261.96
426.123	2315.07
426.499	2367.72
426.875	2402.3
427.251	2421.73
427.627	2460.15
428.003	2481.39
428.379	2505.12
428.756	2557.55
429.132	2623.08
429.507	2646.13
429.883	2649.07
430.259	2689.07
430.635	2751.21
431.011	2770.2
431.387	2843.41
431.763	2917.08
432.138	2901.04
432.514	2967.93
432.89	2976.29
433.265	3065.55
433.641	3076.18
434.016	3136.97
434.392	3177.64
434.767	3210.64
435.143	3191.43
435.518	3252.67
435.894	3338.77
436.269	3332.67
436.644	3432.33
437.02	3418.77
437.395	3455.83
437.77	3504.41
438.145	3572.43
438.52	3584.41
438.895	3605.43
439.271	3672.54
439.646	3705.31
440.021	3805.42
440.395	3771.3
440.77	3737.4
441.145	3873.67
441.52	3914.8
441.895	3891.52
442.27	3936.27
442.645	3950.96
443.019	4027.11
443.394	4016.26
443.769	4100.1
444.143	4037.05
444.518	4115.7
444.892	4168.12
445.267	4154.79
445.641	4231.4
446.016	4230.04
446.39	4276.82
446.764	4322.7
447.139	4335.35
447.513	4399.08
447.887	4430.26
448.262	4471.39
448.636	4496.25
449.01	4524.95
449.384	4615.34
449.758	4651.73
450.132	4724.27
450.506	4701.9
450.88	4801.1
451.254	4797.94
451.628	4888.78
452.002	4940.31
452.376	4916.81
452.75	5009.91
453.123	5043.58
453.497	5117.7
453.871	5175.78
454.244	5269.79
454.618	5307.3
454.992	5398.15
455.365	5398.6
455.739	5524.93
456.112	5568.54
456.486	5634.98
456.859	5717.24
457.232	5887.4
457.606	5790.23
457.979	5916.1
458.352	6035.87
458.725	6127.4
459.099	6208.3
459.472	6288.07
459.845	6378.24
460.218	6438.57
460.591	6477.44
460.964	6522.64
461.337	6732.13
461.71	6823.87
462.083	6915.4
462.456	6876.3
462.829	6949.07
463.201	7083.53
463.574	7089.86
463.947	7185.9
464.32	7386.35
464.692	7421.15
465.065	7426.8
465.438	7624.76
465.81	7754.47
466.183	7789.95
466.555	8009.38
466.928	8062.94
467.3	8064.97
467.672	8242.82
468.045	8469.25
468.417	8503.38
468.789	8507.67
469.161	8718.51
469.534	8780.43
469.906	9052.06
470.278	9083.93
470.65	9182.91
471.022	9371.83
471.394	9565.72
471.766	9662.67
472.138	9797.58
472.51	9874.87
472.882	10111.25
473.253	10148.76
473.625	10408.41
473.997	10580.16
474.369	10712.59
474.74	10810.44
475.112	11060.15
475.484	11185.34
475.855	11357.09
476.227	11517.76
476.598	11916.85
476.97	11914.59
477.341	12208.14
477.713	12500.79
478.084	12558.41
478.455	12895.13
478.827	13024.84
479.198	13404.04
479.569	13385.28
479.94	13793.18
480.311	13863.46
480.682	14279.27
481.053	14505.48
481.424	14767.39
481.795	14891.91
482.166	15115.63
482.537	15327.15
482.908	15746.58
483.279	15868.83
483.65	16211.42
484.021	16402.38
484.391	16572.77
484.762	16897.28
485.133	17016.15
485.503	17321.68
485.874	17655.91
486.244	17807.54
486.615	18196.91
486.985	18410.91
487.356	18643.9
487.726	18942.43
488.097	19362.98
488.467	19494.73
488.837	19875.96
489.207	20164.77
489.578	20460.35
489.948	20622.83
490.318	20880.68
490.688	20830.74
491.058	21307.79
491.428	21529.93
491.798	21657.38
492.168	22138.5
492.538	22259.4
492.908	22479.51
493.278	22859.84
493.648	22840.85
494.017	23164.24
494.387	23352.03
494.757	23574.62
495.126	23907.72
495.496	23892.8
495.866	24163.98
496.235	24441.49
496.605	24663.41
496.974	24918.31
497.344	25067.69
497.713	25186.78
498.082	25413.22
498.452	25833.32
498.821	26034.22
499.19	26062.24
499.559	26351.95
499.928	26591.26
500.298	26763.01
500.667	26941.54
501.036	26885.04
501.405	27146.73
501.774	27334.52
502.143	27550.33
502.512	27682.31
502.88	27981.74
503.249	27879.37
503.618	28171.11
503.987	28358.9
504.356	28508.5
504.724	28599.8
505.093	28850.64
505.462	28952.11
505.83	29274.58
506.199	29448.59
506.567	29767.68
506.936	29729.71
507.304	30216.03
507.672	30393.88
508.041	30441.33
508.409	30872.06
508.777	31024.82
509.145	31259.16
509.514	31349.11
509.882	31681.53
510.25	31818.25
510.618	32229.08
510.986	32299.59
511.354	32623.65
511.722	32866.13
512.09	33121.49
512.458	33091.88
512.826	33536.39
513.193	33702.94
513.561	33736.61
513.929	34114.68
514.297	34415.69
514.664	34659.98
515.032	34764.16
515.4	35009.12
515.767	35103.81
516.135	35469.45
516.502	35230.36
516.869	36061.75
517.237	36005.93
517.604	35952.15
517.972	36497.9
518.339	36770.43
518.706	36778.11
519.073	36904.89
519.44	37336.74
519.808	37746
520.175	37835.94
520.542	38334.68
520.909	38487.45
521.276	38716.82
521.643	39114.55
522.009	39447.65
522.376	39634.08
522.743	39956.34
523.11	40342.31
523.477	40797.9
523.843	41026.59
524.21	41405.56
524.577	41570.98
524.943	41847.13
525.31	42102.27
525.676	42344.52
526.043	42612.99
526.409	42812.98
526.776	43329.58
527.142	43405.51
527.508	43742.9
527.874	43886.85
528.241	44235.55
528.607	44279.84
528.973	44620.39
529.339	44744.46
529.705	45111.68
530.071	45341.73
530.437	45478.23
530.803	45875.95
531.169	46039.11
531.535	46123.41
531.901	46433.91
532.267	46616.27
532.632	46886.1
532.998	47039.31
533.364	47141.91
533.73	47348.91
534.095	47725.85
534.461	47744.38
534.826	48021.44
535.192	48178.27
535.557	48465.27
535.923	48527.41
536.288	48844.01
536.653	48992.93
537.019	48770.12
537.384	49083.33
537.749	49374.17
538.114	49398.8
538.479	49416.65
538.845	49720.6
539.21	49623.43
539.575	49832.91
539.94	49916.53
540.305	50158.1
540.67	50147.48
541.034	50203.98
541.399	50486.23
541.764	50516.51
542.129	50678.77
542.494	50718.99
542.858	50864.98
543.223	50921.92
543.587	51229.71
543.952	51131.41
544.316	51287.56
544.681	51285.53
545.045	51558.74
545.41	51686.42
545.774	51718.96
546.138	51866.53
546.503	51968
546.867	51979.75
547.231	52344.26
547.595	52394.88
547.959	52490.02
548.324	52557.14
548.688	52639.84
549.052	52835.09
549.416	52897.47
549.779	52983.11
550.143	53021.53
550.507	53318.7
550.871	53330.9
551.235	53379.26
551.599	53624.23
551.962	53656.54
552.326	53780.15
552.689	53923.65
553.053	53901.96
553.417	53916.42
553.78	54342.85
554.143	54215.4
554.507	54470.76
554.87	54376.75
555.234	54722.5
555.597	54536.52
555.96	54753.24
556.323	54837.75
556.686	54787.58
557.05	55093.79
557.413	55227.35
557.776	55265.54
558.139	55418.75
558.502	55490.84
558.865	55635.7
559.228	55828.24
559.59	55861
559.953	55877.05
560.316	56207.66
560.679	56119.75
561.041	56416.02
561.404	56550.48
561.767	56677.03
562.129	56656.69
562.492	56925.16
562.854	57004.93
563.217	57041.54
563.579	57110.91
563.941	57320.85
564.304	57405.82
564.666	57529.89
565.028	57619.83
565.39	57668.87
565.753	57854.4
566.115	57847.84
566.477	57984.79
566.839	58095.07
567.201	58163.77
567.563	58198.12
567.925	58430.88
568.287	58470.43
568.648	58507.04
569.01	58596.07
569.372	58758.78
569.734	58655.51
570.095	58893.01
570.457	58908.15
570.819	58986.12
571.18	58994.25
571.542	59164.87
571.903	59136.4
572.265	59241.25
572.626	59337.97
572.987	59410.97
573.349	59439.21
573.71	59559.89
574.071	59645.99
574.432	59775.48
574.794	59864.29
575.155	59850.5
575.516	59849.6
575.877	59897.96
576.238	59953.32
576.599	60106.54
576.96	60120.1
577.32	60162.81
577.681	60263.37
578.042	60325.52
578.403	60302.69
578.763	60350.15
579.124	60358.06
579.485	60482.8
579.845	60502.91
580.206	60463.14
580.566	60489.58
580.927	60525.06
581.287	60621.1
581.648	60505.85
582.008	60647.32
582.368	60573.2
582.728	60648.45
583.089	60542.24
583.449	60570.03
583.809	60563.93
584.169	60647.54
584.529	60567.09
584.889	60786.75
585.249	60643.02
585.609	60452.97
585.969	60640.31
586.329	60575.23
586.688	60631.05
587.048	60639.63
587.408	60603.7
587.768	60573.65
588.127	60577.94
588.487	60625.17
588.846	60771.61
589.206	60563.93
589.565	60629.69
589.925	60786.75
590.284	60709.24
590.643	60770.93
591.003	60809.8
591.362	60909.01
591.721	60784.72
592.08	60784.72
592.44	60873.07
592.799	60868.78
593.158	60818.61
593.517	60835.11
593.876	60894.09
594.235	60810.48
594.593	60906.29
594.952	60908.78
595.311	60802.34
595.67	60853.41
596.029	61015.44
596.387	60996.01
596.746	60974.99
597.104	60858.84
597.463	60876.46
597.822	60973.86
598.18	60870.36
598.538	60915.56
598.897	60999.85
599.255	60886.86
599.613	61181.32
599.972	60969.34
600.33	61064.71
600.688	60938.38
601.046	61017.48
601.404	61079.4
601.762	61102
602.12	61077.59
602.478	61123.92
602.836	61232.84
603.194	61022.45
603.552	61113.29
603.91	61012.96
604.268	61186.74
604.625	61125.05
604.983	61314.19
605.341	61136.12
605.698	61274.42
606.056	61377.47
606.413	61293.4
606.771	61416.79
607.128	61489.56
607.485	61338.83
607.843	61400.52
608.2	61532.49
608.557	61530.23
608.914	61540.18
609.272	61590.34
609.629	61588.76
609.986	61759.15
610.343	61643.22
610.7	61780.62
611.057	61736.55
611.414	61706.05
611.771	61776.55
612.127	61798.25
612.484	61759.15
612.841	61838.92
613.198	61728.42
613.554	61713.28
613.911	61927.28
614.267	61870.79
614.624	61884.35
614.98	61925.02
615.337	61999.37
615.693	61932.26
616.05	61868.98
616.406	62044.57
616.762	61898.81
617.118	61934.52
617.475	61917.57
617.831	62024.23
618.187	61963.44
618.543	62038.24
618.899	62132.48
619.255	62060.61
619.611	61988.75
619.967	62114.17
620.323	62117.79
620.678	62059.26
621.034	61999.37
621.39	62028.3
621.746	62012.48
622.101	62289.31
622.457	62033.72
622.812	62102.19
623.168	62209.99
623.523	62175.87
623.879	62260.38
624.234	62081.4
624.589	62234.17
624.945	62245.02
625.3	62249.99
625.655	62223.55
626.01	62271.23
626.365	62307.39
626.72	62205.02
627.075	62243.66
627.43	62177
627.785	62158.01
628.14	62169.31
628.495	62220.61
628.85	62222.87
629.205	62089.09
629.559	62165.7
629.914	62062.2
630.269	62070.56
630.623	61985.81
630.978	61957.34
631.332	62041.86
631.687	62112.59
632.041	61933.84
632.396	61958.92
632.75	61849.09
633.104	61843.22
633.459	61730.45
633.813	61730.68
634.167	61719.83
634.521	61663.34
634.875	61737.01
635.229	61585.37
635.583	61498.37
635.937	61611.59
636.291	61529.78
636.645	61514.41
636.999	61421.76
637.352	61474.19
637.706	61368.43
638.06	61447.3
638.413	61408.43
638.767	61304.02
639.121	61362.1
639.474	61258.15
639.828	61225.83
640.181	61232.84
640.534	61286.4
640.888	61171.82
641.241	61106.29
641.594	61099.74
641.947	61133.18
642.301	61039.85
642.654	61182.9
643.007	61060.64
643.36	61071.71
643.713	61092.28
644.066	61083.92
644.419	60993.3
644.771	60856.58
645.124	60641.44
645.477	60547.43
645.83	60374.1
646.182	60328.91
646.535	60242.58
646.888	60297.72
647.24	60091.17
647.593	60211.17
647.945	60231.51
648.298	60012.98
648.65	60067.67
649.002	59974.79
649.355	60000.1
649.707	59865.19
650.059	60030.38
650.411	60289.81
650.763	60316.71
651.115	60474.44
651.467	60403.03
651.819	60389.02
652.171	60283.26
652.523	60258.85
652.875	60275.35
653.227	60166.65
653.578	60248.01
653.93	60136.82
654.282	60082.13
654.633	59988.35
654.985	60048.92
655.337	60087.11
655.688	60022.48
656.039	60091.85
656.391	59846.21
656.742	59943.16
657.094	59926.66
657.445	59994.23
657.796	59888.02
658.147	59852.76
658.498	59810.28
658.849	59980.89
659.2	59880.11
659.551	59855.47
659.902	59832.88
660.253	59815.7
660.604	59902.25
660.955	59807.11
661.306	59852.76
661.656	59769.83
662.007	59756.95
662.358	59791.07
662.708	59742.71
663.059	59748.36
663.409	59616.16
663.76	59870.39
664.11	59798.53
664.461	59751.3
664.811	59799.66
665.161	59776.61
665.511	59691.41
665.862	59683.5
666.212	59728.92
666.562	59742.71
666.912	59686.67
667.262	59637.63
667.612	59604.41
667.962	59635.14
668.312	59567.8
668.662	59689.15
669.011	59555.82
669.361	59534.13
669.711	59477.63
670.06	59387.46
670.41	59395.83
670.76	59288.71
671.109	59395.83
671.459	59327.8
671.808	59265.66
672.157	59337.52
672.507	59090.52
672.856	59184.98
673.205	59113.57
673.554	59185.21
673.904	59105.89
674.253	59236.96
674.602	59080.81
674.951	58730.08
675.3	58606.69
675.649	58969.17
675.998	58918.32
676.346	59019.56
676.695	58969.4
677.044	58793.13
677.393	58952
677.741	58892.11
678.09	58889.62
678.438	58781.15
678.787	58844.2
679.135	58876.29
679.484	58658.22
679.832	58738.67
680.181	58718.33
680.529	58758.78
680.877	58651.66
681.225	58607.37
681.573	58751.32
681.922	58560.59
682.27	58512.68
682.618	58590.2
682.966	58403.99
683.314	58488.28
683.661	58443.76
684.009	58358.34
684.357	58299.58
684.705	58271.79
685.053	58243.54
685.4	58285.35
685.748	58132.36
686.095	58130.32
686.443	58046.26
686.79	58015.3
687.138	57995.18
687.485	58036.09
687.832	57956.54
688.18	57865.7
688.527	57747.28
688.874	57730.11
689.221	57654.18
689.568	57541.18
689.915	57462.99
690.262	57471.13
690.609	57319.72
690.956	57272.49
691.303	57289.67
691.65	57030.24
691.997	57006.96
692.344	56797.7
692.69	56853.52
693.037	56855.55
693.383	56569.91
693.73	56695.56
694.077	56483.81
694.423	56467.54
694.769	56370.37
695.116	56299.18
695.462	56217.15
695.808	56136.48
696.155	56180.09
696.501	55974.9
696.847	55966.76
697.193	55747.11
697.539	55866.43
697.885	55644.51
698.231	55506.66
698.577	55527.23
698.923	55586.43
699.269	55365.87
699.614	55292.2
699.96	55218.08
700.306	55293.33
700.651	55117.07
700.997	55131.98
701.342	55058.09
701.688	54949.16
702.033	54830.3
702.379	54834.82
702.724	54759.34
703.069	54856.74
703.415	54500.81
703.76	54607.02
704.105	54559.34
704.45	54569.51
704.795	54339.24
705.14	54257.88
705.485	54287.71
705.83	54129.07
706.175	54169.07
706.52	54043.42
706.865	53922.75
707.209	53868.74
707.554	53776.54
707.899	53895.63
708.243	53759.59
708.588	53657.45
708.932	53359.15
709.277	53464.46
709.621	53380.84
709.966	53235.54
710.31	53225.59
710.654	52963.68
710.998	53095.88
711.342	52965.26
711.687	52861.31
712.031	52754.19
712.375	52520.75
712.719	52697.7
713.063	52441.21
713.407	52580.64
713.75	52410.47
714.094	52257.26
714.438	52054.78
714.782	52111.72
715.125	51892.52
715.469	51970.03
715.812	51838.28
716.156	51671.06
716.499	51678.06
716.843	51718.29
717.186	51526.2
717.53	51492.08
717.873	51559.42
718.216	51468.35
718.559	51405.98
718.902	51084.63
719.246	51191.07
719.589	50990.62
719.932	50834.02
720.275	50787.24
720.617	50750.85
720.96	50683.51
721.303	50618.88
721.646	50591.54
721.989	50416.4
722.331	50587.92
722.674	50318.55
723.016	50481.03
723.359	50396.29
723.701	50374.14
724.044	50229.96
724.386	50051.66
724.729	50092.79
725.071	50010.08
725.413	50135.28
725.755	50069.06
726.097	50011.89
726.439	49804.44
726.782	49785
727.124	49937.99
727.465	49660.71
727.807	49725.8
728.149	49619.13
728.491	49624.78
728.833	49638.57
729.175	49429.31
729.516	49407.39
729.858	49442.41
730.199	49422.75
730.541	49261.4
730.882	49210.33
731.224	49278.13
731.565	48887.4
731.906	48981.86
732.248	49051.01
732.589	48720.17
732.93	48634.53
733.271	48668.2
733.612	48605.6
733.953	48637.69
734.294	48500.52
734.635	48453.06
734.976	48436.11
735.317	48231.83
735.658	48166.97
735.999	48064.82
736.339	47973.75
736.68	48041.1
737.021	47770.82
737.361	47671.84
737.702	48013.75
738.042	47587.77
738.383	47483.14
738.723	47538.06
739.063	47366.99
739.404	47339.42
739.744	47206.54
740.084	47033.21
740.424	46992.76
740.764	46929.26
741.104	46965.19
741.444	46715.03
741.784	46607.91
742.124	46751.86
742.464	46555.48
742.804	46407.47
743.143	46194.82
743.483	46386.22
743.823	46001.83
744.162	46113.24
744.502	46097.87
744.841	45907.82
745.181	46019.23
745.52	45845.45
745.86	45765.68
746.199	45838.44
746.538	45673.93
746.877	45742.4
747.216	45711.44
747.556	45606.13
747.895	45458.56
748.234	45310.09
748.573	45270.32
748.911	45290.21
749.25	45255.63
749.589	44988.52
749.928	45183.77
750.267	45080.95
750.605	44929.54
750.944	44883.89
751.283	44758.24
751.621	44829.2
751.96	44509.44
752.298	44706.49
752.636	44790.11
752.975	44377.24
753.313	44273.74
753.651	44410.46
753.989	44343.34
754.327	44197.35
754.666	44087.75
755.004	43904.26
755.342	43967.98
755.679	43852.28
756.017	43711.27
756.355	43712.4
756.693	43549.24
757.031	43488.22
757.368	43089.14
757.706	43316.47
758.044	43009.59
758.381	43031.28
758.719	42978.18
759.056	42949.7
759.394	42750.16
759.731	42421.13
760.068	42415.71
760.405	42149.5
760.743	41969.16
761.08	42070.18
761.417	41752
761.754	41795.84
762.091	41674.71
762.428	41499.57
762.765	41215.29
763.102	41332.57
763.438	40919.02
763.775	40769.65
764.112	40731.23
764.449	40713.6
764.785	40578.69
765.122	40368.08
765.458	40127.63
765.795	39941.87
766.131	39917.24
766.467	39810.13
766.804	39634.08
767.14	39278.16
767.476	39309.8
767.812	39134.21
768.148	39218.28
768.485	38871.39
768.821	38788.23
769.157	38700.55
769.492	38594.11
769.828	38412.65
770.164	38101.7
770.5	37939.67
770.836	37887.92
771.171	37744.42
771.507	37793.91
771.842	37511.88
772.178	37502.84
772.513	37230.31
772.849	37208.16
773.184	37025.79
773.519	36994.83
773.855	36828.06
774.19	36669.64
774.525	36596.88
774.86	36450.44
775.195	36362.31
775.53	36165.48
775.865	36218.13
776.2	35928.65
776.535	35727.97
776.87	35720.74
777.205	35462.9
777.539	35492.72
777.874	35339.06
778.209	35244.14
778.543	35050.93
778.878	35014.77
779.212	35011.83
779.547	34812.74
779.881	34925.51
780.215	34647.55
780.55	34603.93
780.884	34563.94
781.218	34244.85
781.552	34441
781.886	34180.44
782.22	33850.96
782.554	33730.06
782.888	33578.88
783.222	33355.83
783.556	33297.75
783.889	33313.8
784.223	33018.89
784.557	32997.2
784.89	33104.31
785.224	32886.92
785.557	32702.74
785.891	32641.05
786.224	32443.09
786.558	32475.86
786.891	32220.49
787.224	31991.57
787.557	31915.42
787.891	31830
788.224	31751.81
788.557	31689.44
788.89	31600.62
789.223	31469.55
789.556	31225.04
789.888	31238.83
790.221	31019.17
790.554	30748.67
790.887	30643.81
791.219	30538.96
791.552	30464.83
791.884	30355.23
792.217	30205.86
792.549	30082.7
792.882	29884.51
793.214	29863.95
793.546	29717.06
793.879	29495.14
794.211	29339.44
794.543	29460.79
794.875	29181.48
795.207	29405.65
795.539	29122.95
795.871	28969.51
796.203	28855.39
796.535	28637.09
796.867	28662.4
797.198	28438.67
797.53	28488.39
797.862	28357.09
798.193	28176.53
798.525	28082.07
798.856	27988.29
799.188	27731.35
799.519	27667.85
799.85	27498.13
800.182	27715.08
800.513	27644.12
800.844	27301.75
801.175	27403.67
801.506	27308.31
801.837	27127.75
802.168	27154.87
802.499	27141.53
802.83	27003.68
803.161	26982.67
803.491	26900.63
803.822	26961.42
804.153	26731.15
804.483	26531.15
804.814	26386.07
805.145	26421.1
805.475	26546.07
805.805	26332.74
806.136	26439.4
806.466	26321.89
806.796	26271.95
807.126	26182.91
807.457	26156.02
807.787	26127.77
808.117	26078.96
808.447	26043.48
808.777	25934.56
809.107	25827.89
809.436	25746.31
809.766	25757.39
810.096	25616.15
810.426	25511.97
810.755	25605.53
811.085	25496.83
811.414	25514
811.744	25316.95
812.073	25211.41
812.403	25193.33
812.732	25108.37
813.061	25187.46
813.39	25049.84
813.719	24922.16
814.049	25172.77
814.378	24870.86
814.707	24851.65
815.036	24811.88
815.365	24592.67
815.693	24477.87
816.022	24465.44
816.351	24318.1
816.68	24242.17
817.008	24401.49
817.337	24102.52
817.665	24031.56
817.994	24065.68
818.322	23909.3
818.651	23886.02
818.979	23692.58
819.307	23823.2
819.636	23689.87
819.964	23513.6
820.292	23568.52
820.62	23585.47
820.948	23449.65
821.276	23535.75
821.604	23289.66
821.932	23477.22
822.259	23509.54
822.587	23375.76
822.915	23333.04
823.243	23457.11
823.57	23284.46
823.898	23437.22
824.225	23202.65
824.553	23288.75
824.88	23320.39
825.207	23352.03
825.535	23255.98
825.862	23264.35
826.189	23045.82
826.516	23305.7
826.843	23264.8
827.17	23126.5
827.497	23233.84
827.824	23120.62
828.151	23171.92
828.478	23115.42
828.805	23303.44
829.131	23056.89
829.458	22936.22
829.785	23034.07
830.111	22986.39
830.438	23148.19
830.764	23053.73
831.09	23157.91
831.417	22882.89
831.743	23020.51
832.069	23030.91
832.395	22958.59
832.722	23031.36
833.048	22891.02
833.374	23023.67
833.7	22841.76
834.026	22880.18
834.351	22850.12
834.677	22884.24
835.003	22963.79
835.329	22959.04
835.654	22908.65
835.98	22819.84
836.306	22840.18
836.631	22781.42
836.956	22855.32
837.282	22868.88
837.607	22652.84
837.932	22705.04
838.258	22733.96
838.583	22733.29
838.908	22658.94
839.233	22685.83
839.558	22665.27
839.883	22635.66
840.208	22556.79
840.533	22539.39
840.858	22571.71
841.182	22549.79
841.507	22500.98
841.832	22418.27
842.156	22521.77
842.481	22457.14
842.805	22273.19
843.13	22264.37
843.454	22166.07
843.778	22107.09
844.103	22151.38
844.427	22086.3
844.751	22138.73
845.075	22018.05
845.399	21961.56
845.723	21784.16
846.047	21904.83
846.371	21612.64
846.695	21600.89
847.019	21460.33
847.343	21358.18
847.666	21252.42
847.99	21160.22
848.313	21214.91
848.637	20976.95
848.96	20936.95
849.284	20957.51
849.607	20750.06
849.931	20684.07
850.254	20540.58
850.577	20508.26
850.9	20312.33
851.223	20383.97
851.546	20175.39
851.869	20081.6
852.192	20273.24
852.515	20003.41
852.838	19969.74
853.161	19859.92
853.483	19778.34
853.806	19567.95
854.129	19638.9
854.451	19596.65
854.774	19545.12
855.096	19383.77
855.419	19354.84
855.741	19315.3
856.063	19213.83
856.385	19115.08
856.708	19138.8
857.03	18991.24
857.352	19057.22
857.674	18943.56
857.996	18828.53
858.318	18786.95
858.64	18723.67
858.961	18527.97
859.283	18520.97
859.605	18459.73
859.926	18541.08
860.248	18425.38
860.57	18404.36
860.891	18322.55
861.212	18266.51
861.534	18295.44
861.855	18129.34
862.176	18256.79
862.498	18078.49
862.819	18170.47
863.14	18047.76
863.461	18056.57
863.782	17968.44
864.103	18081.88
864.424	17926.18
864.745	17891.83
865.065	17919.85
865.386	17828.56
865.707	17803.92
866.027	17877.37
866.348	17883.02
866.668	17876.01
866.989	17775.68
867.309	17653.87
867.63	17672.4
867.95	17739.29
868.27	17616.81
868.59	17646.87
868.91	17610.03
869.23	17700.88
869.55	17598.05
869.87	17672.63
870.19	17634.44
870.51	17596.02
870.83	17543.37
871.15	17483.03
871.469	17463.59
871.789	17564.83
872.109	17486.19
872.428	17293.43
872.748	17391.73
873.067	17467.44
873.386	17417.04
873.706	17469.02
874.025	17357.61
874.344	17378.4
874.663	17407.1
874.982	17408
875.301	17303.82
875.62	17341.11
875.939	17263.15
876.258	17285.29
876.577	17186.31
876.896	17252.07
877.214	17113.55
877.533	17200.1
877.852	17130.72
878.17	17171.4
878.489	17195.35
878.807	17115.13
879.125	17104.51
879.444	17081.68
879.762	17013.21
880.08	17029.26
880.398	16900.9
880.716	16980.67
881.034	16930.05
881.352	16901.8
881.67	16808.47
881.988	16862.48
882.306	16662.49
882.624	16754.69
882.941	16680.79
883.259	16682.37
883.577	16552.43
883.894	16460.23
884.212	16554.01
884.529	16490.96
884.846	16404.64
885.164	16526.44
885.481	16339.1
885.798	16467.01
886.115	16271.99
886.432	16307.92
886.75	16239.67
887.067	16272.21
887.383	16037.87
887.7	16052.78
888.017	16031.32
888.334	16041.03
888.651	16003.97
888.967	15940.02
889.284	15841.94
889.6	15820.02
889.917	15585
890.233	15723.75
890.55	15686.92
890.866	15743.19
891.182	15583.19
891.498	15547.03
891.815	15498.67
892.131	15397.43
892.447	15359.47
892.763	15242.41
893.079	15269.08
893.395	15260.04
893.71	15238.79
894.026	15050.1
894.342	15073.15
894.657	14956.99
894.973	15037.22
895.289	14902.08
895.604	14962.19
895.92	14785.47
896.235	14747.28
896.55	14788.18
896.865	14731.46
897.181	14594.97
897.496	14656.44
897.811	14540.51
898.126	14518.36
898.441	14455.76
898.756	14372.83
899.071	14215.09
899.386	14250.8
899.7	14183.45
900.015	14118.37
900.33	14102.1
900.644	14032.05
900.959	14044.48
901.273	13984.82
901.588	14011.93
901.902	13959.96
902.216	13917.47
902.531	13854.2
902.845	13873.86
903.159	13699.63
903.473	13730.13
903.787	13618.27
904.101	13686.29
904.415	13697.82
904.729	13466.41
905.042	13445.17
905.356	13432.74
905.67	13437.26
905.984	13401.55
906.297	13395.9
906.611	13256.47
906.924	13213.08
907.237	13192.75
907.551	13162.46
907.864	13093.09
908.177	13087.21
908.491	13041.56
908.804	13027.78
909.117	12890.83
909.43	12857.39
909.743	12873.88
910.056	12778.29
910.368	12798.86
910.681	12716.15
910.994	12714.34
911.307	12610.84
911.619	12564.06
911.932	12628.92
912.244	12484.74
912.557	12467.12
912.869	12462.14
913.181	12371.75
913.494	12436.61
913.806	12331.75
914.118	12256.05
914.43	12240.91
914.742	12280.45
915.054	12136.73
915.366	12091.53
915.678	12034.13
915.99	11942.84
916.302	11832.1
916.613	11887.7
916.925	11917.3
917.236	11823.52
917.548	11711.66
917.859	11847.02
918.171	11733.35
918.482	11642.73
918.794	11547.59
919.105	11562.51
919.416	11489.97
919.727	11449.97
920.038	11346.92
920.349	11316.86
920.66	11284.77
920.971	11205
921.282	11236.19
921.593	11080.03
921.903	11042.75
922.214	11057.89
922.525	10958.23
922.835	11026.93
923.146	10868.74
923.456	10830.77
923.767	10791.68
924.077	10753.04
924.387	10680.5
924.697	10633.04
925.008	10638.46
925.318	10521.86
925.628	10540.84
925.938	10493.16
926.248	10358.47
926.558	10348.53
926.867	10256.33
927.177	10275.31
927.487	10246.61
927.796	10129.32
928.106	10117.8
928.416	10089.1
928.725	10012.72
929.034	9962.32
929.344	9969.55
929.653	9994.64
929.962	9874.19
930.271	9807.98
930.581	9720.97
930.89	9784.47
931.199	9648.66
931.508	9659.28
931.817	9622.44
932.125	9515.1
932.434	9562.11
932.743	9431.26
933.051	9371.6
933.36	9354.43
933.669	9304.04
933.977	9265.62
934.286	9265.39
934.594	9176.13
934.902	9091.84
935.21	9100.88
935.519	9090.26
935.827	9066.75
936.135	9000.54
936.443	8909.92
936.751	8828.57
937.059	8854.1
937.367	8836.48
937.674	8839.19
937.982	8727.55
938.29	8689.59
938.597	8770.04
938.905	8624.5
939.213	8612.53
939.52	8575.01
939.827	8528.24
940.135	8506.54
940.442	8450.5
940.749	8470.84
941.056	8447.11
941.363	8371.18
941.67	8401.23
941.977	8335.02
942.284	8256.83
942.591	8249.83
942.898	8209.83
943.205	8180
943.511	8179.09
943.818	8198.98
944.125	8091.64
944.431	8092.54
944.738	8072.88
945.044	7987.01
945.35	7974.35
945.657	7921.47
945.963	7893.22
946.269	7888.71
946.575	7940.46
946.881	7706.11
947.187	7833.57
947.493	7793.11
947.799	7722.38
948.105	7736.39
948.41	7653
948.716	7688.71
949.022	7658.43
949.327	7579.33
949.633	7460.47
949.938	7506.12
950.244	7517.64
950.549	7426.12
950.854	7393.35
951.16	7380.24
951.465	7416.18
951.77	7350.87
952.075	7295.73
952.38	7305.44
952.685	7254.15
952.99	7184.09
953.294	7164.88
953.599	7174.37
953.904	7116.52
954.209	7110.19
954.513	7048.28
954.818	7023.42
955.122	6985.45
955.426	6987.03
955.731	6900.26
956.035	6868.39
956.339	6914.95
956.643	6865.23
956.948	6815.74
957.252	6818.68
957.556	6832.01
957.86	6706.59
958.163	6761.28
958.467	6655.52
958.771	6635.63
959.075	6638.34
959.378	6603.54
959.682	6547.05
959.985	6530.32
960.289	6499.81
960.592	6492.58
960.896	6431.34
961.199	6389.31
961.502	6321.97
961.805	6323.77
962.108	6325.36
962.411	6266.15
962.714	6280.39
963.017	6233.16
963.32	6217.79
963.623	6210.11
963.926	6172.37
964.228	6101.18
964.531	6076.78
964.833	6139.82
965.136	5960.17
965.438	6025.03
965.741	5972.15
966.043	5972.6
966.345	5903.9
966.648	5914.75
966.95	5915.88
967.252	5869.78
967.554	5807.18
967.856	5778.48
968.158	5749.1
968.46	5752.04
968.761	5725.15
969.063	5665.49
969.365	5669.78
969.666	5613.74
969.968	5542.33
970.269	5558.82
970.571	5513.17
970.872	5527.86
971.174	5479.95
971.475	5456.9
971.776	5415.78
972.077	5387.98
972.378	5418.04
972.679	5336
972.98	5371.94
973.281	5297.36
973.582	5318.38
973.883	5261.43
974.183	5256.68
974.484	5214.2
974.785	5184.37
975.085	5190.7
975.386	5140.98
975.686	5100.76
975.986	5106.63
976.287	5093.75
976.587	5012.4
976.887	5011.49
977.187	4978.05
977.487	4989.57
977.787	4903.02
978.087	4920.65
978.387	4921.33
978.687	4876.81
978.987	4832.29
979.286	4805.85
979.586	4831.61
979.885	4785.74
980.185	4759.97
980.484	4737.6
980.784	4738.28
981.083	4704.61
981.382	4688.79
981.682	4689.02
981.981	4637.49
982.28	4632.52
982.579	4598.62
982.878	4576.25
983.177	4562.24
983.475	4528.34
983.774	4512.75
984.073	4461
984.372	4425.07
984.67	4442.24
984.969	4389.81
985.267	4437.27
985.566	4386.42
985.864	4347.1
986.162	4374.45
986.461	4313.43
986.759	4310.04
987.057	4296.71
987.355	4275.92
987.653	4243.15
987.951	4227.56
988.249	4231.17
988.547	4210.16
988.844	4166.77
989.142	4167.9
989.44	4160.89
989.737	4139.2
990.035	4094.91
990.332	4100.78
990.63	4093.32
990.927	4063.27
991.224	4054
991.521	4058.75
991.819	4008.81
992.116	3990.05
992.413	3952.99
992.71	3960.9
993.006	3962.03
993.303	3916.15
993.6	3941.01
993.897	3894.91
994.193	3881.8
994.49	3847
994.787	3813.11
995.083	3810.39
995.379	3784.86
995.676	3824.86
995.972	3759.77
996.268	3760.23
996.565	3721.58
996.861	3719.55
997.157	3717.52
997.453	3668.93
997.749	3639.78
998.044	3655.14
998.34	3644.3
998.636	3598.2
998.932	3558.2
999.227	3521.59
999.523	3593
999.818	3528.14
1000.114	3518.42
1000.409	3504.64
1000.704	3472.78
1001	3460.57
1001.295	3430.29
1001.59	3395.04
1001.885	3386.22
1002.18	3377.86
1002.475	3366.11
1002.77	3357.75
1003.065	3280.92
1003.359	3313.23
1003.654	3314.36
1003.949	3293.12
1004.243	3242.95
1004.538	3205.66
1004.832	3219.45
1005.127	3193.46
1005.421	3162.5
1005.715	3165.67
1006.009	3126.8
1006.304	3124.99
1006.598	3078.21
1006.892	3086.57
1007.186	3053.58
1007.48	3059.68
1007.773	3014.26
1008.067	3005.44
1008.361	2980.81
1008.655	2946.69
1008.948	2924.99
1009.242	2957.54
1009.535	2928.84
1009.829	2880.7
1010.122	2851.78
1010.415	2872.11
1010.708	2803.19
1011.001	2815.39
1011.295	2804.77
1011.588	2779.23
1011.881	2774.72
1012.173	2723.42
1012.466	2688.84
1012.759	2687.71
1013.052	2684.32
1013.344	2670.99
1013.637	2638.45
1013.93	2600.03
1014.222	2627.15
1014.514	2605.23
1014.807	2550.54
1015.099	2562.29
1015.391	2524.1
1015.683	2509.41
1015.976	2531.56
1016.268	2478.9
1016.56	2453.59
1016.851	2465.57
1017.143	2477.77
1017.435	2411.33
1017.727	2421.96
1018.018	2380.38
1018.31	2370.43
1018.602	2374.5
1018.893	2357.78
1019.185	2315.52
1019.476	2316.42
1019.767	2294.73
1020.058	2265.58
1020.35	2278.91
1020.641	2214.5
1020.932	2235.52
1021.223	2200.72
1021.514	2182.64
1021.804	2169.99
1022.095	2128.63
1022.386	2118.69
1022.677	2083.89
1022.967	2113.04
1023.258	2087.05
1023.548	2066.03
1023.839	2077.33
1024.129	2045.69
1024.419	2046.6
1024.709	2017.67
1025	2008.41
1025.29	1974.96
1025.58	1958.47
1025.87	1930.9
1026.16	1934.06
1026.449	1948.52
1026.739	1898.13
1027.029	1958.92
1027.319	1900.61
1027.608	1880.95
1027.898	1850.45
1028.187	1856.55
1028.477	1840.05
1028.766	1822.42
1029.055	1765.02
1029.344	1792.14
1029.634	1801.41
1029.923	1793.5
1030.212	1746.27
1030.501	1751.01
1030.79	1706.95
1031.078	1758.02
1031.367	1699.94
1031.656	1702.65
1031.945	1673.95
1032.233	1680.05
1032.522	1660.17
1032.81	1669.43
1033.099	1635.76
1033.387	1617.91
1033.675	1617.91
1033.963	1596.22
1034.251	1594.41
1034.54	1578.36
1034.828	1564.8
1035.116	1569.55
1035.403	1545.37
1035.691	1533.39
1035.979	1540.85
1036.267	1518.48
1036.554	1515.99
1036.842	1477.57
1037.129	1469.89
1037.417	1465.15
1037.704	1460.17
1037.992	1435.09
1038.279	1465.6
1038.566	1446.61
1038.853	1446.61
1039.14	1446.61
