Data from aluminium_macbook_case_FLMS001491_083.txt Node
Date: Tue Feb 07 10:44:16 GMT 2017
User: dcchb
Spectrometer: FLMS00149
Trigger mode: 0
Integration Time (sec): 2.000000E-2
Scans to average: 10
Electric dark correction enabled: true
Nonlinearity correction enabled: false
Boxcar width: 0
XAxis mode: Wavelengths
Number of Pixels in Spectrum: 2048
>>>>>Begin Spectral Data<<<<<
341.393	2.92
341.776	2.92
342.16	2.92
342.543	-53.57
342.927	-73.68
343.31	-70.52
343.693	-61.03
344.077	-58.77
344.46	-75.72
344.843	-44.98
345.226	-35.27
345.61	-33.01
345.993	-39.79
346.376	-13.57
346.759	9.25
347.142	39.53
347.525	41.79
347.908	61.23
348.291	78.4
348.674	82.92
349.057	119.53
349.44	129.02
349.823	135.35
350.206	199.75
350.588	228.23
350.971	272.97
351.354	301.22
351.737	301.22
352.119	315.68
352.502	312.29
352.884	328.34
353.267	342.35
353.65	371.5
354.032	348.68
354.414	371.28
354.797	366.98
355.179	376.7
355.562	374.89
355.944	404.27
356.326	413.08
356.709	433.42
357.091	413.08
357.473	426.64
357.855	415.79
358.238	397.72
358.62	408.79
359.002	431.39
359.384	430.03
359.766	432.29
360.148	444.49
360.53	412.86
360.912	411.05
361.294	429.81
361.676	429.35
362.057	426.19
362.439	440.65
362.821	407.21
363.203	415.79
363.584	424.83
363.966	433.87
364.348	424.61
364.729	457.6
365.111	425.51
365.493	430.93
365.874	436.13
366.256	441.56
366.637	444.27
367.019	444.95
367.4	440.43
367.781	425.06
368.163	458.73
368.544	439.75
368.925	438.39
369.306	469.13
369.688	432.74
370.069	469.35
370.45	469.35
370.831	465.51
371.212	437.49
371.593	468.22
371.974	461.89
372.355	479.97
372.736	480.65
373.117	481.1
373.498	494.21
373.879	492.63
374.26	466.64
374.641	464.38
375.021	451.73
375.402	503.25
375.783	519.97
376.163	537.6
376.544	543.93
376.925	521.33
377.305	518.16
377.686	537.37
378.066	513.64
378.447	547.54
378.827	553.42
379.208	553.87
379.588	549.8
379.968	557.94
380.349	583.93
380.729	564.94
381.109	577.82
381.489	588.67
381.87	581.89
382.25	597.71
382.63	586.64
383.01	603.81
383.39	609.46
383.77	615.11
384.15	640.42
384.53	626.86
384.91	635.9
385.29	637.71
385.67	661.21
386.049	662.34
386.429	657.6
386.809	680.65
387.189	703.92
387.568	679.74
387.948	695.11
388.328	699.18
388.707	708.89
389.087	717.93
389.466	734.88
389.846	751.83
390.225	731.94
390.605	763.36
390.984	772.62
391.363	740.08
391.743	757.93
392.122	787.76
392.501	815.33
392.881	829.12
393.26	832.51
393.639	824.82
394.018	845.61
394.397	853.07
394.776	867.76
395.155	872.73
395.534	883.13
395.913	899.4
396.292	903.92
396.671	949.79
397.05	911.83
397.429	918.61
397.808	922.45
398.186	940.07
398.565	951.37
398.944	965.38
399.323	987.53
399.701	966.29
400.08	1007.42
400.458	993.18
400.837	1001.32
401.215	1031.15
401.594	1032.73
401.972	1067.53
402.351	1063.23
402.729	1096.68
403.107	1097.36
403.486	1125.83
403.864	1117.92
404.242	1156.57
404.62	1132.16
404.999	1178.94
405.377	1180.75
405.755	1183.01
406.133	1231.37
406.511	1216.9
406.889	1234.08
407.267	1271.36
407.645	1279.95
408.023	1304.36
408.401	1296.22
408.779	1355.2
409.156	1355.2
409.534	1358.82
409.912	1391.36
410.29	1440.63
410.667	1456.67
411.045	1474.98
411.422	1487.4
411.8	1481.3
412.178	1530.79
412.555	1561.07
412.933	1559.27
413.31	1597.68
413.687	1580.28
414.065	1615.54
414.442	1656.44
414.819	1675.42
415.197	1693.05
415.574	1702.77
415.951	1750.67
416.328	1755.19
416.705	1817.79
417.082	1794.97
417.46	1773.72
417.837	1819.83
418.214	1835.87
418.591	1878.35
418.967	1884.91
419.344	1857.11
419.721	1908.86
420.098	1954.06
420.475	1999.26
420.852	2001.29
421.228	2001.06
421.605	2001.74
421.982	2057.11
422.358	2078.8
422.735	2115.64
423.111	2102.3
423.488	2173.26
423.864	2158.8
424.241	2212.58
424.617	2203.09
424.994	2263.2
425.37	2285.58
425.746	2284.22
426.123	2332.35
426.499	2361.28
426.875	2397.44
427.251	2439.7
427.627	2505.68
428.003	2498.23
428.379	2550.43
428.756	2560.6
429.132	2584.55
429.507	2638.56
429.883	2655.96
430.259	2719.24
430.635	2760.59
431.011	2776.41
431.387	2862.74
431.763	2888.05
432.138	2899.57
432.514	2973.47
432.89	3000.13
433.265	3059.34
433.641	3105.67
434.016	3132.33
434.392	3189.96
434.767	3263.4
435.143	3240.8
435.518	3299.11
435.894	3349.73
436.269	3408.71
436.644	3377.52
437.02	3471.76
437.395	3437.64
437.77	3504.98
438.145	3625.65
438.52	3636.95
438.895	3660.91
439.271	3680.57
439.646	3732.09
440.021	3791.07
440.395	3774.58
440.77	3798.76
441.145	3804.18
441.52	3937.28
441.895	3940.9
442.27	3948.58
442.645	4039.65
443.019	4007.11
443.394	3991.29
443.769	4079.2
444.143	4097.05
444.518	4207.56
444.892	4127.11
445.267	4183.38
445.641	4238.97
446.016	4248.01
446.39	4291.62
446.764	4359.65
447.139	4351.96
447.513	4441.23
447.887	4434.9
448.262	4423.82
448.636	4505.63
449.01	4552.41
449.384	4593.76
449.758	4641.22
450.132	4721.9
450.506	4787.88
450.88	4776.13
451.254	4767.54
451.628	4887.77
452.002	4917.14
452.376	4976.58
452.75	5014.32
453.123	5066.97
453.497	5162.79
453.871	5172.05
454.244	5299.96
454.618	5324.37
454.992	5396
455.365	5390.58
455.739	5575.43
456.112	5604.58
456.486	5571.36
456.859	5713.51
457.232	5860.62
457.606	5793.28
457.979	5996.66
458.352	6021.97
458.725	6160.5
459.099	6188.52
459.472	6268.3
459.845	6327.05
460.218	6430.1
460.591	6536.99
460.964	6484.34
461.337	6657.21
461.71	6800.26
462.083	6887.94
462.456	6966.81
462.829	6900.37
463.201	7094.71
463.574	7077.54
463.947	7200.02
464.32	7383.52
464.692	7458.32
465.065	7507.36
465.438	7630.75
465.81	7751.65
466.183	7839.1
466.555	8000.68
466.928	8053.33
467.3	8142.82
467.672	8288.58
468.045	8476.83
468.417	8458.75
468.789	8502.59
469.161	8677.27
469.534	8788.23
469.906	8986.19
470.278	9008.56
470.65	9209.24
471.022	9385.28
471.394	9582.33
471.766	9654.87
472.138	9713.18
472.51	9887.64
472.882	10106.61
473.253	10213.95
473.625	10376.21
473.997	10545.7
474.369	10679.93
474.74	10762.41
475.112	11008.74
475.484	11211.89
475.855	11376.86
476.227	11515.62
476.598	11866.34
476.97	11982.72
477.341	12311.3
477.713	12476.04
478.084	12559.2
478.455	12917.61
478.827	13011.4
479.198	13469.91
479.569	13470.59
479.94	13775.89
480.311	13892.73
480.682	14332.94
481.053	14586.49
481.424	14746.26
481.795	14966.82
482.166	15228.29
482.537	15404.78
482.908	15688.39
483.279	15871.88
483.65	16228.71
484.021	16485.2
484.391	16649.72
484.762	16716.83
485.133	17019.88
485.503	17193.43
485.874	17670.93
486.244	17804.94
486.615	18133.52
486.985	18547.07
487.356	18705.03
487.726	18914.97
488.097	19417.1
488.467	19419.81
488.837	19776.19
489.207	20057.54
489.578	20439.9
489.948	20595.38
490.318	20922.37
490.688	20922.37
491.058	21420.21
491.428	21572.75
491.798	21804.16
492.168	22182.45
492.538	22247.54
492.908	22582.89
493.278	22854.53
493.648	22868.54
494.017	23237.79
494.387	23361.18
494.757	23569.54
495.126	23846.36
495.496	23934.05
495.866	24047.72
496.235	24327.48
496.605	24653.57
496.974	24817.64
497.344	25043.4
497.713	25245.42
498.082	25557.51
498.452	25730.16
498.821	26034.33
499.19	26160.65
499.559	26358.61
499.928	26502.79
500.298	26606.52
500.667	26948.88
501.036	26858.04
501.405	27227.74
501.774	27303.22
502.143	27643.55
502.512	27783.66
502.88	27867.28
503.249	28072.24
503.618	28082.64
503.987	28372.12
504.356	28531.89
504.724	28678.1
505.093	28848.27
505.462	29087.13
505.83	29184.98
506.199	29520.57
506.567	29826.32
506.936	29777.06
507.304	30109.25
507.672	30362.35
508.041	30465.85
508.409	30938.16
508.777	31088.89
509.145	31374.53
509.514	31287.98
509.882	31679.15
510.25	31823.78
510.618	32042.99
510.986	32325.01
511.354	32683.65
511.722	32933.13
512.09	33134.48
512.458	33239.79
512.826	33466.9
513.193	33566.79
513.561	33799.55
513.929	34131.29
514.297	34359.08
514.664	34546.65
515.032	34621.45
515.4	35046.52
515.767	35105.05
516.135	35432.27
516.502	35277.25
516.869	35962.2
517.237	36048.98
517.604	36112.93
517.972	36399.93
518.339	36742.52
518.706	36899.13
519.073	37051.67
519.44	37375.95
519.808	37762.38
520.175	37740.01
520.542	38397.39
520.909	38533.21
521.276	38708.8
521.643	39023.37
522.009	39359.85
522.376	39699.73
522.743	39916.68
523.11	40378.81
523.477	40804.34
523.843	40986.7
524.21	41419.46
524.577	41581.94
524.943	41819.23
525.31	42136.51
525.676	42356.39
526.043	42685.64
526.409	42812.65
526.776	43141.68
527.142	43418.51
527.508	43584.6
527.874	43912.5
528.241	44072.05
528.607	44264.13
528.973	44751.13
529.339	44615.99
529.705	45071.34
530.071	45391.79
530.437	45632.01
530.803	45928.95
531.169	46142.73
531.535	46111.32
531.901	46375.04
532.267	46503.4
532.632	46843.27
532.998	46880.56
533.364	47281.68
533.73	47352.64
534.095	47698.17
534.461	47741.1
534.826	48130.47
535.192	48109.68
535.557	48461.54
535.923	48543.12
536.288	48716.9
536.653	48925.48
537.019	48818.82
537.384	49030.34
537.749	49283.21
538.114	49346.26
538.479	49391.68
538.845	49616.99
539.21	49683.88
539.575	49755.29
539.94	49920.03
540.305	50160.02
540.67	50132.23
541.034	50240.25
541.399	50496.29
541.764	50513.91
542.129	50658.09
542.494	50791.64
542.858	50861.02
543.223	50833.23
543.587	51220.79
543.952	51124.97
544.316	51296.49
544.681	51272.99
545.045	51507.33
545.41	51597.95
545.774	51848.34
546.138	51837.72
546.503	51854.22
546.867	51978.51
547.231	52277.03
547.595	52335.56
547.959	52514.54
548.324	52614.87
548.688	52667.08
549.052	52718.83
549.416	52951.36
549.779	52876.56
550.143	53138.25
550.507	53294.18
550.871	53398.81
551.235	53448.75
551.599	53668.41
551.962	53737.78
552.326	53796.54
552.689	53930.55
553.053	53829.08
553.417	53923.54
553.78	54381.83
554.143	54189.3
554.507	54408.95
554.87	54482.17
555.234	54658.89
555.597	54479.46
555.96	54725.78
556.323	54861.14
556.686	54863.85
557.05	55053.91
557.413	55176.16
557.776	55258.87
558.139	55460.67
558.502	55490.28
558.865	55546.77
559.228	55739.54
559.59	55799.65
559.953	55948.8
560.316	56135.23
560.679	56221.33
561.041	56361.44
561.404	56505.17
561.767	56751.71
562.129	56636.24
562.492	56977.02
562.854	56949
563.217	57016.34
563.579	57127.52
563.941	57309.21
564.304	57441.41
564.666	57545.82
565.028	57553.27
565.39	57719.6
565.753	57834.85
566.115	57974.51
566.477	57984.9
566.839	58093.83
567.201	58178.8
567.563	58274.84
567.925	58452.46
568.287	58441.61
568.648	58496.98
569.01	58598.22
569.372	58749.4
569.734	58760.7
570.095	58887.48
570.457	58939.45
570.819	58999.34
571.18	58955.72
571.542	59185.77
571.903	59175.38
572.265	59338.31
572.626	59365.43
572.987	59456.95
573.349	59448.14
573.71	59571.07
574.071	59689.72
574.432	59733.1
574.794	59898.98
575.155	59820.33
575.516	59780.79
575.877	59923.16
576.238	59996.83
576.599	60126.99
576.96	60075.92
577.32	60150.72
577.681	60182.58
578.042	60336.93
578.403	60385.97
578.763	60375.8
579.124	60325.63
579.485	60496.47
579.845	60468.23
580.206	60491.28
580.566	60575.34
580.927	60548
581.287	60628.45
581.648	60525.85
582.008	60664.15
582.368	60573.53
582.728	60663.48
583.089	60593.19
583.449	60561.78
583.809	60595.68
584.169	60620.99
584.529	60561.11
584.889	60776.24
585.249	60594.32
585.609	60575.12
585.969	60691.5
586.329	60627.32
586.688	60611.05
587.048	60625.74
587.408	60602.91
587.768	60597.94
588.127	60635.91
588.487	60626.41
588.846	60792.29
589.206	60605.62
589.565	60689.24
589.925	60792.96
590.284	60732.63
590.643	60766.52
591.003	60773.08
591.362	60856.24
591.721	60813.75
592.08	60830.7
592.44	60851.95
592.799	60852.4
593.158	60855.79
593.517	60883.36
593.876	60890.36
594.235	60833.19
594.593	60929.23
594.952	60933.3
595.311	60873.87
595.67	60859.4
596.029	60983.02
596.387	60995.9
596.746	61035.22
597.104	60891.49
597.463	60949.8
597.822	60998.83
598.18	60902.34
598.538	60894.66
598.897	61053.75
599.255	60818.5
599.613	61151.6
599.972	61018.72
600.33	61009.68
600.688	60949.12
601.046	61006.52
601.404	61080.64
601.762	61063.69
602.12	61154.99
602.478	61161.09
602.836	61148.21
603.194	61020.3
603.552	61080.19
603.91	61048.78
604.268	61205.61
604.625	61085.39
604.983	61252.39
605.341	61091.71
605.698	61310.69
606.056	61373.74
606.413	61294.19
606.771	61424.13
607.128	61464.81
607.485	61380.74
607.843	61425.94
608.2	61476.79
608.557	61589.33
608.914	61504.81
609.272	61639.95
609.629	61628.42
609.986	61726.5
610.343	61638.59
610.7	61826.61
611.057	61710.45
611.414	61723.11
611.771	61796.33
612.127	61799.94
612.484	61826.83
612.841	61883.78
613.198	61760.17
613.554	61834.52
613.911	61923.56
614.267	61880.39
614.624	61891.69
614.98	61848.98
615.337	61951.58
615.693	61891.24
616.05	61880.62
616.406	62046.94
616.762	61932.59
617.118	61968.07
617.475	61982.31
617.831	61946.61
618.187	61997.45
618.543	62038.35
618.899	62096.21
619.255	62023.67
619.611	62063.89
619.967	62092.82
620.323	62120.61
620.678	62072.25
621.034	62053.04
621.39	62029.09
621.746	62013.27
622.101	62284.9
622.457	62088.07
622.812	62118.58
623.168	62179.82
623.523	62150.22
623.879	62225.24
624.234	62116.77
624.589	62190.22
624.945	62225.92
625.3	62226.15
625.655	62236.54
626.01	62265.92
626.365	62293.49
626.72	62250.55
627.075	62218.46
627.43	62209.65
627.785	62130.56
628.14	62216.88
628.495	62276.99
628.85	62194.51
629.205	62128.3
629.559	62231.8
629.914	62085.59
630.269	62105.7
630.623	61993.38
630.978	61942.09
631.332	62028.41
631.687	62089.2
632.041	61994.97
632.396	61975.53
632.75	61863.44
633.104	61834.74
633.459	61746.38
633.813	61778.02
634.167	61800.85
634.521	61662.09
634.875	61709.1
635.229	61669.55
635.583	61603.11
635.937	61572.38
636.291	61519.27
636.645	61553.85
636.999	61418.48
637.352	61460.52
637.706	61347.07
638.06	61460.06
638.413	61364.93
638.767	61342.33
639.121	61357.47
639.474	61184.37
639.828	61180.3
640.181	61237.25
640.534	61308.43
640.888	61148.43
641.241	61089
641.594	61130.58
641.947	61176.23
642.301	61090.13
642.654	61168.77
643.007	61054.88
643.36	61125.38
643.713	61054.43
644.066	61173.29
644.419	60965.16
644.771	60872.28
645.124	60628
645.477	60597.49
645.83	60419.19
646.182	60345.74
646.535	60260.32
646.888	60256.93
647.24	60139.2
647.593	60288.8
647.945	60167.9
648.298	60020.33
648.65	60009.03
649.002	59921.57
649.355	60086.32
649.707	60032.53
650.059	59982.82
650.411	60265.29
650.763	60275.69
651.115	60491.05
651.467	60422.35
651.819	60338.74
652.171	60329.92
652.523	60261
652.875	60309.13
653.227	60181.23
653.578	60269.36
653.93	60145.07
654.282	60019.2
654.633	59941.46
654.985	60021.46
655.337	60023.72
655.688	60046.77
656.039	60079.76
656.391	59890.39
656.742	59913.89
657.094	59901.24
657.445	59959.09
657.796	59847.23
658.147	59850.62
658.498	59846.1
658.849	59919.54
659.2	59893.78
659.551	59833.67
659.902	59887
660.253	59786.89
660.604	59879.77
660.955	59757.06
661.306	59877.51
661.656	59800.45
662.007	59731.97
662.358	59782.59
662.708	59785.76
663.059	59803.61
663.409	59654.46
663.76	59814.01
664.11	59826.21
664.461	59792.76
664.811	59764.29
665.161	59767.91
665.511	59698.98
665.862	59682.03
666.212	59748.02
666.562	59745.76
666.912	59723.39
667.262	59607.68
667.612	59642.26
667.962	59608.14
668.312	59609.27
668.662	59668.25
669.011	59555.26
669.361	59515.03
669.711	59477.52
670.06	59421.7
670.41	59387.58
670.76	59314.36
671.109	59370.4
671.459	59326.56
671.808	59235.04
672.157	59347.58
672.507	59114.36
672.856	59067.81
673.205	59143.52
673.554	59162.72
673.904	59082.27
674.253	59202.72
674.602	59082.5
674.951	58754.83
675.3	58550.76
675.649	58991.43
675.998	58922.5
676.346	58928.83
676.695	59018.1
677.044	58839.79
677.393	58859.46
677.741	58939.23
678.09	58869.4
678.438	58795.73
678.787	58833.02
679.135	58849.96
679.484	58676.18
679.832	58786.01
680.181	58687.93
680.529	58772.68
680.877	58618.78
681.225	58645.68
681.573	58783.52
681.922	58559.35
682.27	58534.27
682.618	58615.62
682.966	58472.8
683.314	58538.33
683.661	58468.51
684.009	58323.2
684.357	58331.56
684.705	58296.31
685.053	58254.95
685.4	58277.55
685.748	58110.77
686.095	58104.22
686.443	58024.22
686.79	57986.26
687.138	57997.78
687.485	57956.43
687.832	57915.07
688.18	57900.61
688.527	57767.96
688.874	57727.51
689.221	57745.36
689.568	57497.01
689.915	57448.64
690.262	57478.93
690.609	57351.02
690.956	57273.96
691.303	57244.36
691.65	57023.57
691.997	57080.29
692.344	56873.97
692.69	56831.49
693.037	56767.08
693.383	56654.99
693.73	56699.74
694.077	56517.14
694.423	56443.02
694.769	56314.21
695.116	56298.62
695.462	56287.09
695.808	56159.41
696.155	56219.52
696.501	55963.26
696.847	56014.11
697.193	55741.12
697.539	55900.44
697.885	55695.47
698.231	55546.1
698.577	55556.27
698.923	55537.51
699.269	55418.42
699.614	55235.82
699.96	55163.06
700.306	55208.03
700.651	55097.75
700.997	55074.92
701.342	55045.54
701.688	55015.04
702.033	54907.02
702.379	54892.1
702.724	54859.79
703.069	54813.91
703.415	54504.54
703.76	54577.08
704.105	54617.53
704.45	54512.68
704.795	54287.15
705.14	54230.88
705.485	54224.55
705.83	54149.3
706.175	54195.4
706.52	54143.42
706.865	53940.94
707.209	53858.46
707.554	53802.19
707.899	53872.69
708.243	53710.44
708.588	53677.67
708.932	53493.49
709.277	53429.54
709.621	53421.63
709.966	53235.42
710.31	53214.18
710.654	53007.41
710.998	53023
711.342	53015.32
711.687	52930.35
712.031	52710.46
712.375	52616.23
712.719	52718.83
713.063	52578.72
713.407	52617.36
713.75	52295.33
714.094	52285.84
714.438	52153.19
714.782	52106.41
715.125	51946.19
715.469	52075.9
715.812	51872.29
716.156	51649.48
716.499	51679.53
716.843	51702.36
717.186	51522.02
717.53	51558.86
717.873	51534.68
718.216	51331.74
718.559	51291.29
718.902	51080.68
719.246	51223.27
719.589	50955.71
719.932	50842.04
720.275	50814.47
720.617	50793
720.96	50781.25
721.303	50654.02
721.646	50727.24
721.989	50428.94
722.331	50525.66
722.674	50488.38
723.016	50458.32
723.359	50334.93
723.701	50369.96
724.044	50257.2
724.386	49989.18
724.729	50150.98
725.071	50036.18
725.413	50096.75
725.755	50094.49
726.097	49930.42
726.439	49777.89
726.782	49774.95
727.124	49863.76
727.465	49755.51
727.807	49707.38
728.149	49731.11
728.491	49546.93
728.833	49796.64
729.175	49386.03
729.516	49434.39
729.858	49360.95
730.199	49444.34
730.541	49324.79
730.882	49203.66
731.224	49271.01
731.565	48950.11
731.906	48995.31
732.248	48960.73
732.589	48740.4
732.93	48580.86
733.271	48564.13
733.612	48616.11
733.953	48660.18
734.294	48438.49
734.635	48479.39
734.976	48439.16
735.317	48198.72
735.658	48192.84
735.999	48044.15
736.339	47971.83
736.68	48014.77
737.021	47884.83
737.361	47719.86
737.702	47746.08
738.042	47673.99
738.383	47600.54
738.723	47516.25
739.063	47301.34
739.404	47450.04
739.744	47292.08
740.084	46955.59
740.424	46990.84
740.764	46936.38
741.104	46989.94
741.444	46723.5
741.784	46674.01
742.124	46619.55
742.464	46701.58
742.804	46497.52
743.143	46344.98
743.483	46364.42
743.823	46165.1
744.162	46132.56
744.502	45990.87
744.841	45904.54
745.181	46076.29
745.52	45893.69
745.86	45840.14
746.199	45759.91
746.538	45710.2
746.877	45808.95
747.216	45706.35
747.556	45558.11
747.895	45701.84
748.234	45381.39
748.573	45399.92
748.911	45343.65
749.25	45347.27
749.589	45086.48
749.928	45227.95
750.267	45234.28
750.605	44988.41
750.944	44836.77
751.283	44818.02
751.621	44924
751.96	44625.03
752.298	44634.52
752.636	44535.99
752.975	44508.19
753.313	44339.38
753.651	44524.01
753.989	44244.7
754.327	44247.86
754.666	44072.73
755.004	44046.06
755.342	44043.57
755.679	43855.56
756.017	43715.9
756.355	43755.9
756.693	43342.35
757.031	43660.53
757.368	43282.92
757.706	43209.7
758.044	43077.72
758.381	43101.9
758.719	42813.78
759.056	42959.08
759.394	42748.01
759.731	42441.36
760.068	42345.77
760.405	42207.46
760.743	42052.67
761.08	42158.65
761.417	41725.44
761.754	41726.57
762.091	41713.47
762.428	41468.95
762.765	41218.79
763.102	41261.95
763.438	41014.27
763.775	40805.01
764.112	40884.11
764.449	40709.65
764.785	40581.74
765.122	40302.88
765.458	40235.54
765.795	40046.16
766.131	40061.31
766.467	39838.71
766.804	39697.93
767.14	39442.11
767.476	39407.76
767.812	39187.66
768.148	39175.45
768.485	38964.84
768.821	38706.99
769.157	38661.79
769.492	38502.48
769.828	38432.65
770.164	38108.14
770.5	37897.75
770.836	37891.87
771.171	37697.3
771.507	37662.27
771.842	37472.45
772.178	37373.01
772.513	37385.67
772.849	37166.92
773.184	37122.63
773.519	36927.15
773.855	36859.58
774.19	36672.24
774.525	36569.42
774.86	36586.37
775.195	36448.29
775.53	36339.37
775.865	36150
776.2	35864.58
776.535	35794.52
776.87	35781.19
777.205	35650.12
777.539	35469.34
777.874	35468.88
778.209	35371.03
778.543	35092.85
778.878	35083.81
779.212	34954.1
779.547	34791.61
779.881	34910.71
780.215	34712.29
780.55	34752.97
780.884	34500.1
781.218	34397.73
781.552	34317.5
781.886	34136.72
782.22	34033.22
782.554	33943.73
782.888	33590.06
783.222	33437.07
783.556	33418.99
783.889	33396.4
784.223	33131.77
784.557	32996.41
784.89	33084.99
785.224	32841.16
785.557	32718.45
785.891	32594.84
786.224	32583.99
786.558	32451.79
786.891	32142.19
787.224	32037.11
787.557	31919.6
787.891	31812.71
788.224	31803.22
788.557	31766.83
788.89	31606.61
789.223	31530.91
789.556	31167.75
789.888	31207.3
790.221	31068.77
790.554	30771.61
790.887	30650.48
791.219	30606.86
791.552	30519.18
791.884	30416.36
792.217	30237.38
792.549	30044.85
792.882	29889.37
793.214	29786.55
793.546	29821.57
793.879	29591.52
794.211	29286.67
794.543	29393.56
794.875	29291.19
795.207	29281.48
795.539	29103.63
795.871	29032.89
796.203	28751.32
796.535	28611.44
796.867	28647.14
797.198	28501.61
797.53	28413.93
797.862	28305
798.193	28275.85
798.525	27998.8
798.856	28004
799.188	27693.27
799.519	27641.52
799.85	27492.82
800.182	27550.9
800.513	27570.56
800.844	27338.48
801.175	27502.09
801.506	27389.1
801.837	27217.35
802.168	27233.39
802.499	27184.58
802.83	26975.32
803.161	26916.57
803.491	26863.91
803.822	26942.55
804.153	26722.22
804.483	26611.04
804.814	26497.37
805.145	26419.63
805.475	26432.96
805.805	26395.45
806.136	26419.63
806.466	26314.32
806.796	26365.62
807.126	26180.09
807.457	26126.3
807.787	26179.64
808.117	26013.99
808.447	25982.13
808.777	26142.8
809.107	25848.8
809.436	25891.06
809.766	25698.97
810.096	25516.83
810.426	25609.26
810.755	25476.6
811.085	25585.53
811.414	25548.69
811.744	25290.39
812.073	25264.41
812.403	25254.69
812.732	25128.36
813.061	25105.99
813.39	24930.4
813.719	24993
814.049	25043.85
814.378	25020.34
814.707	24820.12
815.036	24841.59
815.365	24618.32
815.693	24444.99
816.022	24470.53
816.351	24341.72
816.68	24118.45
817.008	24276.86
817.337	24160.48
817.665	24051.56
817.994	24007.94
818.322	23960.94
818.651	23881.84
818.979	23746.71
819.307	23880.26
819.636	23764.11
819.964	23657.44
820.292	23683.66
820.62	23534.51
820.948	23490.22
821.276	23549.88
821.604	23466.04
821.932	23445.92
822.259	23548.07
822.587	23464.45
822.915	23329.54
823.243	23349.43
823.57	23447.5
823.898	23394.4
824.225	23302.2
824.553	23294.74
824.88	23250.45
825.207	23328.19
825.535	23090.68
825.862	23188.3
826.189	23095.42
826.516	23239.83
826.843	23318.92
827.17	23257
827.497	23114.86
827.824	23153.28
828.151	23061.07
828.478	23084.12
828.805	23259.26
829.131	23036.22
829.458	23032.6
829.785	22920.29
830.111	23062.2
830.438	23218.13
830.764	23049.1
831.09	23127.74
831.417	22905.82
831.743	23043.9
832.069	22911.7
832.395	22961.42
832.722	22956.44
833.048	22920.74
833.374	22926.39
833.7	22821.98
834.026	22863.11
834.351	22867.86
834.677	22932.04
835.003	22942.43
835.329	22943.34
835.654	22886.62
835.98	22770.23
836.306	22967.97
836.631	22813.85
836.956	22830.57
837.282	22916.67
837.607	22790.57
837.932	22696.79
838.258	22686.85
838.583	22786.73
838.908	22632.84
839.233	22748.77
839.558	22707.19
839.883	22607.08
840.208	22610.46
840.533	22562.78
840.858	22586.28
841.182	22513.07
841.507	22500.86
841.832	22427.64
842.156	22270.36
842.481	22358.27
842.805	22385.16
843.13	22271.94
843.454	22201.66
843.778	22215.9
844.103	22085.96
844.427	22006.86
844.751	22145.17
845.075	22009.8
845.399	21946.75
845.723	21875.79
846.047	21893.42
846.371	21650.04
846.695	21737.72
847.019	21542.92
847.343	21325.98
847.666	21208.69
847.99	21250.05
848.313	21212.76
848.637	21032.65
848.96	21065.65
849.284	20894.35
849.607	20827.69
849.931	20761.02
850.254	20613.91
850.577	20504.53
850.9	20396.96
851.223	20336.4
851.546	20182.96
851.869	20164.2
852.192	20258.21
852.515	19986.35
852.838	19830.42
853.161	20042.17
853.483	19759.24
853.806	19670.2
854.129	19571.67
854.451	19612.13
854.774	19459.14
855.096	19415.07
855.419	19446.03
855.741	19396.31
856.063	19279.03
856.385	19188.86
856.708	19105.25
857.03	18993.38
857.352	19015.31
857.674	18892.14
857.996	18784.8
858.318	18659.38
858.64	18715.65
858.961	18592.94
859.283	18579.84
859.605	18448.31
859.926	18550.23
860.248	18394.53
860.57	18367.64
860.891	18326.96
861.212	18272.5
861.534	18204.93
861.855	18226.4
862.176	18228.43
862.498	18198.15
862.819	18125.16
863.14	18038.83
863.461	18019.85
863.782	17910.93
864.103	17974.65
864.424	17919.51
864.745	18079.28
865.065	17885.84
865.386	17793.64
865.707	17784.15
866.027	17874.09
866.348	17824.15
866.668	17775.56
866.989	17846.07
867.309	17761.33
867.63	17838.84
867.95	17767.2
868.27	17650.14
868.59	17696.7
868.91	17704.15
869.23	17703.7
869.55	17543.48
869.87	17590.94
870.19	17527.43
870.51	17537.38
870.83	17653.31
871.15	17508.68
871.469	17635.23
871.789	17551.84
872.109	17497.6
872.428	17491.28
872.748	17482.46
873.067	17487.89
873.386	17572.63
873.706	17486.53
874.025	17290.83
874.344	17309.36
874.663	17405.63
874.982	17275.24
875.301	17277.27
875.62	17318.63
875.939	17302.81
876.258	17256.26
876.577	17181
876.896	17181.68
877.214	17091.06
877.533	17157.73
877.852	17196.37
878.17	17148.24
878.489	17197.95
878.807	17123.38
879.125	17130.16
879.444	16979.65
879.762	17043.38
880.08	16917.28
880.398	16998.86
880.716	16841.58
881.034	16879.54
881.352	16943.04
881.67	16899.43
881.988	16793.89
882.306	16800
882.624	16767.23
882.941	16679.32
883.259	16650.62
883.577	16596.84
883.894	16496.28
884.212	16513.68
884.529	16442.72
884.846	16380.8
885.164	16464.41
885.481	16422.6
885.798	16453.11
886.115	16270.29
886.432	16264.87
886.75	16200.69
887.067	16186.68
887.383	16029.17
887.7	16028.26
888.017	16013.35
888.334	16069.85
888.651	16000.92
888.967	15958.66
889.284	15813.13
889.6	15720.02
889.917	15693.81
890.233	15812.23
890.55	15633.93
890.866	15665.11
891.182	15590.99
891.498	15551.67
891.815	15507.15
892.131	15468.51
892.447	15427.15
892.763	15306.25
893.079	15234.61
893.395	15160.27
893.71	15190.32
894.026	15123.66
894.342	15122.98
894.657	14929.08
894.973	14953.94
895.289	14931.12
895.604	14965.24
895.92	14811.35
896.235	14746.26
896.55	14742.88
896.865	14693.38
897.181	14785.59
897.496	14688.64
897.811	14509.66
898.126	14447.29
898.441	14485.48
898.756	14362.77
899.071	14203.91
899.386	14311.7
899.7	14179.27
900.015	14191.03
900.33	14111.48
900.644	14101.99
900.959	14101.08
901.273	14037.81
901.588	13937.25
901.902	13978.6
902.216	13991.71
902.531	13808.89
902.845	13858.83
903.159	13750.13
903.473	13679.17
903.787	13637.14
904.101	13631.72
904.415	13656.58
904.729	13489.12
905.042	13464.72
905.356	13476.47
905.67	13494.77
905.984	13390.14
906.297	13366.64
906.611	13306.3
906.924	13222.92
907.237	13184.27
907.551	13191.05
907.864	13054.11
908.177	13135.46
908.491	13055.24
908.804	13021.56
909.117	12904.96
909.43	12834
909.743	12793.32
910.056	12843.26
910.368	12805.52
910.681	12761.46
910.994	12692.53
911.307	12621.57
911.619	12588.81
911.932	12576.15
912.244	12525.08
912.557	12498.41
912.869	12463.84
913.181	12401.02
913.494	12486.89
913.806	12326.89
914.118	12305.88
914.43	12226.56
914.742	12163.96
915.054	12121.25
915.366	12172.1
915.678	12054.81
915.99	12038.99
916.302	11931.2
916.613	11942.72
916.925	11847.58
917.236	11905.21
917.548	11760.81
917.859	11816.85
918.171	11620.02
918.482	11622.73
918.794	11547.03
919.105	11573.24
919.416	11529.63
919.727	11393.36
920.038	11467.03
920.349	11324.21
920.66	11350.65
920.971	11222.97
921.282	11229.97
921.593	11160.14
921.903	11105.91
922.214	11008.74
922.525	11002.41
922.835	10910.43
923.146	10881.96
923.456	10952.01
923.767	10795.86
924.077	10780.95
924.387	10686.48
924.697	10727.39
925.008	10589.09
925.318	10571.69
925.628	10525.36
925.938	10528.75
926.248	10467.06
926.558	10358.58
926.867	10374.4
927.177	10233.62
927.487	10218.25
927.796	10196.78
928.106	10138.25
928.416	10098.48
928.725	10012.83
929.034	9943
929.344	10003.79
929.653	9990.01
929.962	9925.83
930.271	9871.14
930.581	9749.11
930.89	9742.33
931.199	9665.49
931.508	9608.09
931.817	9624.37
932.125	9599.28
932.434	9513.86
932.743	9434.99
933.051	9424.6
933.36	9390.47
933.669	9365.39
933.977	9291.72
934.286	9250.14
934.594	9283.36
934.902	9182.12
935.21	9125.17
935.519	9114.77
935.827	9022.57
936.135	9021.44
936.443	8893.09
936.751	8867.1
937.059	8931.95
937.367	8873.88
937.674	8833.65
937.982	8731.06
938.29	8746.42
938.597	8696.25
938.905	8654.45
939.213	8635.47
939.52	8564.28
939.827	8539.2
940.135	8553.43
940.442	8503.72
940.749	8445.87
941.056	8442.48
941.363	8367.9
941.67	8383.72
941.977	8296.94
942.284	8301.24
942.591	8244.29
942.898	8172.65
943.205	8245.87
943.511	8209.49
943.818	8181.47
944.125	8118.87
944.431	8116.38
944.738	8065.08
945.044	8018.76
945.35	8005.65
945.657	7929.49
945.963	7898.31
946.269	7847.92
946.575	7875.03
946.881	7810.63
947.187	7769.73
947.493	7767.69
947.799	7763.62
948.105	7684.08
948.41	7673.23
948.716	7707.35
949.022	7651.54
949.327	7647.92
949.633	7537.41
949.938	7595.04
950.244	7501.26
950.549	7446.34
950.854	7379.68
951.16	7398.21
951.465	7378.1
951.77	7336.52
952.075	7231.89
952.38	7292.9
952.685	7289.96
952.99	7273.01
953.294	7218.1
953.599	7143.3
953.904	7134.71
954.209	7028.28
954.513	7063.3
954.818	7037.77
955.122	7002.74
955.426	7021.95
955.731	6904.21
956.035	6898.34
956.339	6884.78
956.643	6850.43
956.948	6796.42
957.252	6850.2
957.556	6823.54
957.86	6784.44
958.163	6666.03
958.467	6690.21
958.771	6646.14
959.075	6638.68
959.378	6581.06
959.682	6658.34
959.985	6561.4
960.289	6481.85
960.592	6498.35
960.896	6387.61
961.199	6397.11
961.502	6406.82
961.805	6353.94
962.108	6333.6
962.411	6333.6
962.714	6281.85
963.017	6262.65
963.32	6223.55
963.623	6248.18
963.926	6215.19
964.228	6115.31
964.531	6154.17
964.833	6114.85
965.136	6005.7
965.438	6009.77
965.741	5981.98
966.043	5924.12
966.345	5930.23
966.648	5947.4
966.95	5916.89
967.252	5871.47
967.554	5792.15
967.856	5793.05
968.158	5741.98
968.46	5752.38
968.761	5713.96
969.063	5710.12
969.365	5682.77
969.666	5651.81
969.968	5612.27
970.269	5589.67
970.571	5557.81
970.872	5498.37
971.174	5436.23
971.475	5447.07
971.776	5400.3
972.077	5356
972.378	5411.82
972.679	5420.18
972.98	5346.29
973.281	5366.85
973.582	5291.6
973.883	5263.12
974.183	5225.39
974.484	5220.19
974.785	5221.32
975.085	5201.66
975.386	5208.44
975.686	5085.73
975.986	5112.17
976.287	5118.72
976.587	5068.1
976.887	5005.96
977.187	4990.59
977.487	4933.19
977.787	4913.98
978.087	4869.46
978.387	4908.78
978.687	4892.74
978.987	4879.86
979.286	4845.51
979.586	4836.69
979.885	4835.34
980.185	4775.23
980.484	4741.1
980.784	4734.78
981.083	4705.85
981.382	4690.26
981.682	4699.3
981.981	4660.2
982.28	4648.9
982.579	4623.14
982.878	4567.78
983.177	4529.13
983.475	4565.29
983.774	4521.67
984.073	4497.27
984.372	4417.72
984.67	4455.91
984.969	4476.7
985.267	4451.85
985.566	4429.25
985.864	4403.49
986.162	4388.12
986.461	4312.41
986.759	4353.54
987.057	4253.21
987.355	4264.05
987.653	4272.19
987.951	4245.52
988.249	4239.65
988.547	4233.09
988.844	4217.95
989.142	4212.08
989.44	4165.53
989.737	4173.89
990.035	4125.53
990.332	4121.01
990.63	4102.25
990.927	4037.17
991.224	4038.07
991.521	4085.53
991.819	4002.82
992.116	4032.42
992.413	3994.01
992.71	3933.89
993.006	3971.63
993.303	3952.65
993.6	3894.8
993.897	3938.87
994.193	3886.44
994.49	3838.53
994.787	3841.69
995.083	3822.03
995.379	3811.86
995.676	3791.52
995.972	3769.15
996.268	3773.22
996.565	3746.55
996.861	3710.4
997.157	3723.96
997.453	3715.37
997.749	3695.03
998.044	3639.21
998.34	3632.43
998.636	3622.26
998.932	3573
999.227	3542.72
999.523	3561.25
999.818	3509.72
1000.114	3518.76
1000.409	3478.99
1000.704	3469.05
1001	3474.02
1001.295	3440.35
1001.59	3438.77
1001.885	3414.13
1002.18	3400.12
1002.475	3395.15
1002.77	3332.1
1003.065	3305.44
1003.359	3318.32
1003.654	3283.52
1003.949	3277.64
1004.243	3274.48
1004.538	3234.93
1004.832	3194.7
1005.127	3200.81
1005.421	3134.14
1005.715	3157.64
1006.009	3145.21
1006.304	3122.16
1006.598	3100.47
1006.892	3089.17
1007.186	3062.05
1007.48	3065.67
1007.773	3063.63
1008.067	3020.47
1008.361	2970.08
1008.655	2971.21
1008.948	2958.78
1009.242	2938.89
1009.535	2895.5
1009.829	2906.12
1010.122	2876.52
1010.415	2845.33
1010.708	2831.55
1011.001	2834.04
1011.295	2807.82
1011.588	2793.13
1011.881	2774.6
1012.173	2760.59
1012.466	2766.01
1012.759	2737.77
1013.052	2750.87
1013.344	2672.46
1013.637	2692.8
1013.93	2637.66
1014.222	2606.25
1014.514	2609.18
1014.807	2578.22
1015.099	2545.23
1015.391	2531.67
1015.683	2517.89
1015.976	2543.42
1016.268	2494.16
1016.56	2479.02
1016.851	2460.49
1017.143	2452.8
1017.435	2452.8
1017.727	2450.54
1018.018	2393.6
1018.31	2403.76
1018.602	2383.43
1018.893	2360.15
1019.185	2343.65
1019.476	2312.47
1019.767	2270.66
1020.058	2270.43
1020.35	2283.09
1020.641	2233.37
1020.932	2193.83
1021.223	2232.92
1021.514	2194.73
1021.804	2164.67
1022.095	2180.04
1022.386	2163.54
1022.677	2102.08
1022.967	2127.84
1023.258	2097.33
1023.548	2073.83
1023.839	2059.59
1024.129	2065.47
1024.419	2024.34
1024.709	2018.69
1025	2011.46
1025.29	1990.44
1025.58	1994.06
1025.87	1969.2
1026.16	1942.08
1026.449	1937.11
1026.739	1962.87
1027.029	1892.59
1027.319	1916.09
1027.608	1900.05
1027.898	1905.25
1028.187	1853.72
1028.477	1839.94
1028.766	1839.94
1029.055	1814.85
1029.344	1796.32
1029.634	1807.62
1029.923	1783.67
1030.212	1762.65
1030.501	1742.09
1030.79	1742.54
1031.078	1729.88
1031.367	1731.24
1031.656	1720.62
1031.945	1703.22
1032.233	1665.25
1032.522	1666.83
1032.81	1676.78
1033.099	1637.46
1033.387	1622.77
1033.675	1601.98
1033.963	1634.29
1034.251	1595.88
1034.54	1558.36
1034.828	1566.05
1035.116	1564.46
1035.403	1559.72
1035.691	1564.46
1035.979	1554.07
1036.267	1508.19
1036.554	1525.6
1036.842	1500.06
1037.129	1509.55
1037.417	1488.53
1037.704	1450.34
1037.992	1487.63
1038.279	1461.64
1038.566	1428.2
1038.853	1428.2
1039.14	1428.2
