Data from aluminium_surface_pro_back_FLMS001491_00096.txt Node
Date: Wed Feb 08 15:34:47 GMT 2017
User: dcchb
Spectrometer: FLMS00149
Trigger mode: 0
Integration Time (sec): 2.000000E-2
Scans to average: 10
Electric dark correction enabled: true
Nonlinearity correction enabled: false
Boxcar width: 0
XAxis mode: Wavelengths
Number of Pixels in Spectrum: 2048
>>>>>Begin Spectral Data<<<<<
341.393	-17.17
341.776	-17.17
342.16	-17.17
342.543	-55.14
342.927	-63.95
343.31	-71.86
343.693	-79.77
344.077	-56.72
344.46	-56.72
344.843	-45.87
345.226	-45.42
345.61	-14.46
345.993	-31.64
346.376	-16.04
346.759	16.5
347.142	35.03
347.525	52.88
347.908	44.97
348.291	86.1
348.674	94.91
349.057	88.13
349.44	105.53
349.823	139.88
350.206	161.13
350.588	225.3
350.971	240.67
351.354	256.72
351.737	275.7
352.119	263.5
352.502	297.17
352.884	293.33
353.267	296.72
353.65	321.12
354.032	316.38
354.414	334.45
354.797	329.26
355.179	360.67
355.562	334
355.944	337.62
356.326	371.74
356.709	369.48
357.091	374.45
357.473	364.74
357.855	360.89
358.238	381.01
358.62	361.12
359.002	379.43
359.384	385.75
359.766	367
360.148	376.49
360.53	371.97
360.912	377.84
361.294	377.17
361.676	361.12
362.057	386.2
362.439	363.15
362.821	363.83
363.203	381.23
363.584	357.73
363.966	370.39
364.348	342.14
364.729	346.21
365.111	373.78
365.493	360.67
365.874	390.05
366.256	372.19
366.637	369.26
367.019	358.63
367.4	366.32
367.781	366.54
368.163	377.17
368.544	357.05
368.925	358.86
369.306	393.89
369.688	376.04
370.069	370.84
370.45	381.91
370.831	378.97
371.212	371.29
371.593	373.55
371.974	388.92
372.355	367.9
372.736	358.86
373.117	398.18
373.498	379.2
373.879	389.37
374.26	370.39
374.641	367
375.021	381.23
375.402	393.21
375.783	401.57
376.163	427.33
376.544	405.19
376.925	402.25
377.305	423.72
377.686	402.02
378.066	429.59
378.447	421.23
378.827	437.05
379.208	414.9
379.588	433.66
379.968	439.31
380.349	433.66
380.729	444.28
381.109	428.01
381.489	430.72
381.87	452.64
382.25	428.92
382.63	455.13
383.01	440.89
383.39	461.68
383.77	463.72
384.15	467.78
384.53	463.04
384.91	502.59
385.29	487.22
385.67	483.83
386.049	482.93
386.429	499.42
386.809	483.6
387.189	499.87
387.568	516.6
387.948	530.16
388.328	508.24
388.707	540.1
389.087	509.37
389.466	522.25
389.846	545.52
390.225	546.88
390.605	557.95
390.984	565.18
391.363	567.44
391.743	549.14
392.122	566.54
392.501	581.68
392.881	596.82
393.26	609.02
393.639	613.09
394.018	590.49
394.397	614.67
394.776	625.75
395.155	632.75
395.534	619.19
395.913	636.14
396.292	641.11
396.671	646.31
397.05	644.73
397.429	667.33
397.808	661
398.186	682.24
398.565	694.45
398.944	701.68
399.323	687.44
399.701	680.21
400.08	708.23
400.458	717.5
400.837	731.28
401.215	729.02
401.594	738.74
401.972	759.75
402.351	724.27
402.729	750.26
403.107	768.12
403.486	797.72
403.864	789.36
404.242	783.03
404.62	801.33
404.999	821.9
405.377	814.22
405.755	836.81
406.133	856.47
406.511	856.25
406.889	863.48
407.267	892.41
407.645	879.52
408.023	895.34
408.401	893.08
408.779	922.46
409.156	923.59
409.534	962.01
409.912	947.55
410.29	991.39
410.667	991.16
411.045	998.39
411.422	1035.9
411.8	1012.85
412.178	1041.33
412.555	1015.34
412.933	1064.15
413.31	1055.11
413.687	1085.85
414.065	1093.76
414.442	1130.82
414.819	1104.83
415.197	1127.43
415.574	1144.83
415.951	1154.77
416.328	1162
416.705	1187.77
417.082	1165.39
417.46	1227.09
417.837	1232.06
418.214	1225.73
418.591	1238.16
418.967	1255.11
419.344	1291.27
419.721	1304.37
420.098	1275.67
420.475	1308.67
420.852	1314.32
421.228	1329.68
421.605	1334.2
421.982	1385.05
422.358	1373.52
422.735	1399.74
423.111	1396.8
423.488	1388.44
423.864	1419.85
424.241	1458.04
424.617	1443.13
424.994	1472.28
425.37	1517.25
425.746	1486.74
426.123	1508.89
426.499	1539.39
426.875	1551.6
427.251	1564.03
427.627	1601.09
428.003	1627.08
428.379	1655.1
428.756	1664.14
429.132	1695.55
429.507	1696.23
429.883	1721.08
430.259	1777.13
430.635	1779.16
431.011	1796.79
431.387	1810.35
431.763	1851.48
432.138	1835.88
432.514	1890.12
432.89	1921.98
433.265	1960.4
433.641	1940.97
434.016	2004.47
434.392	2006.5
434.767	2054.86
435.143	2044.69
435.518	2087.4
435.894	2083.56
436.269	2138.93
436.644	2156.78
437.02	2170.79
437.395	2161.75
437.77	2208.53
438.145	2243.78
438.52	2275.19
438.895	2279.71
439.271	2317.23
439.646	2351.12
440.021	2399.26
440.395	2394.97
440.77	2352.03
441.145	2397.45
441.52	2432.03
441.895	2464.57
442.27	2478.58
442.645	2502.76
443.019	2527.62
443.394	2492.82
443.769	2503.66
444.143	2531.01
444.518	2588.86
444.892	2571.68
445.267	2605.81
445.641	2606.94
446.016	2674.73
446.39	2666.6
446.764	2660.04
447.139	2679.25
447.513	2736.65
447.887	2751.34
448.262	2748.4
448.636	2768.97
449.01	2823.2
449.384	2827.27
449.758	2871.56
450.132	2876.99
450.506	2917.89
450.88	2908.85
451.254	2939.13
451.628	3006.02
452.002	3005.34
452.376	3074.27
452.75	3069.75
453.123	3106.81
453.497	3152.01
453.871	3174.83
454.244	3192.46
454.618	3253.7
454.992	3304.32
455.365	3305.45
455.739	3383.64
456.112	3411.66
456.486	3435.62
456.859	3490.53
457.232	3564.88
457.606	3592.22
457.979	3582.05
458.352	3649.4
458.725	3685.78
459.099	3747.25
459.472	3851.65
459.845	3806.68
460.218	3851.2
460.591	3927.35
460.964	3977.07
461.337	4038.31
461.71	4042.61
462.083	4149.95
462.456	4132.77
462.829	4224.75
463.201	4257.06
463.574	4284.41
463.947	4365.53
464.32	4420.22
464.692	4484.63
465.065	4484.4
465.438	4625.64
465.81	4607.79
466.183	4708.12
466.555	4764.39
466.928	4831.74
467.3	4836.48
467.672	4981.56
468.045	5016.37
468.417	5046.42
468.789	5079.19
469.161	5140.43
469.534	5231.73
469.906	5364.6
470.278	5400.08
470.65	5474.88
471.022	5581.1
471.394	5682.34
471.766	5706.52
472.138	5786.97
472.51	5889.79
472.882	6001.88
473.253	6046.62
473.625	6156.22
473.997	6295.88
474.369	6285.26
474.74	6404.58
475.112	6514.18
475.484	6656.32
475.855	6748.75
476.227	6812.02
476.598	7010.44
476.97	7113.71
477.341	7249.07
477.713	7297.21
478.084	7363.87
478.455	7569.07
478.827	7563.87
479.198	7933.58
479.569	7937.42
479.94	8119.11
480.311	8166.56
480.682	8374.7
481.053	8499.21
481.424	8691.3
481.795	8797.06
482.166	8921.8
482.537	9088.8
482.908	9267.1
483.279	9314.33
483.65	9473.42
484.021	9711.84
484.391	9775.34
484.762	9888.55
485.133	9900.3
485.503	10169.45
485.874	10367.19
486.244	10482.89
486.615	10677.46
486.985	10789.09
487.356	10989.09
487.726	11071.12
488.097	11285.58
488.467	11312.7
488.837	11636.3
489.207	11682.18
489.578	11913.13
489.948	12039.01
490.318	12217.31
490.688	12357.19
491.058	12437.41
491.428	12663.62
491.798	12805.31
492.168	13082.37
492.538	13136.15
492.908	13288.24
493.278	13448.91
493.648	13480.1
494.017	13706.53
494.387	13824.5
494.757	13871.5
495.126	14144.71
495.496	14118.72
495.866	14291.83
496.235	14419.96
496.605	14506.06
496.974	14649.56
497.344	14855.65
497.713	14905.82
498.082	15084.58
498.452	15177.23
498.821	15232.14
499.19	15391.23
499.559	15486.6
499.928	15553.04
500.298	15756.65
500.667	15859.92
501.036	15928.17
501.405	16032.8
501.774	16117.32
502.143	16314.15
502.512	16302.17
502.88	16463.97
503.249	16625.55
503.618	16745.1
503.987	16798.88
504.356	16948.03
504.724	17046.56
505.093	17211.3
505.462	17224.63
505.83	17342.82
506.199	17576.04
506.567	17705.75
506.936	17753.88
507.304	17987.78
507.672	18082.69
508.041	18106.87
508.409	18300.99
508.777	18509.12
509.145	18606.29
509.514	18648.32
509.882	18733.52
510.25	18835.89
510.618	18985.04
510.986	18999.5
511.354	19254.86
511.722	19483.1
512.09	19576.66
512.458	19598.58
512.826	19840.16
513.193	19849.42
513.561	19964.9
513.929	20169.41
514.297	20472.91
514.664	20515.17
515.032	20708.16
515.4	20839
515.767	20947.47
516.135	21027.92
516.502	21024.76
516.869	21612.99
517.237	21592.88
517.604	21584.52
517.972	21865.64
518.339	22041.68
518.706	22114.9
519.073	22229.02
519.44	22482.35
519.808	22711.49
520.175	22711.49
520.542	23022.22
520.909	23117.81
521.276	23170.92
521.643	23453.39
522.009	23614.29
522.376	23788.75
522.743	23972.25
523.11	24215.18
523.477	24425.8
523.843	24659.24
524.21	24894.71
524.577	25134.03
524.943	25234.14
525.31	25389.39
525.676	25643.62
526.043	25852.2
526.409	25939.88
526.776	26241.12
527.142	26367.44
527.508	26506.65
527.874	26701.44
528.241	26906.86
528.607	26988.67
528.973	27157.03
529.339	27286.06
529.705	27477.47
530.071	27892.6
530.437	27924.01
530.803	27999.94
531.169	28258.69
531.535	28285.81
531.901	28342.98
532.267	28504.11
532.632	28785.01
532.998	28770.99
533.364	28939.35
533.73	29120.59
534.095	29287.37
534.461	29471.54
534.826	29636.06
535.192	29653.68
535.557	29832.66
535.923	29812.1
536.288	30063.84
536.653	30182.71
537.019	30167.57
537.384	30406.21
537.749	30570.95
538.114	30681.68
538.479	30756.25
538.845	30831.96
539.21	30797.61
539.575	31118.28
539.94	31210.7
540.305	31343.13
540.67	31389.46
541.034	31490.92
541.399	31553.29
541.764	31709
542.129	31849.56
542.494	31828.32
542.858	32081.42
543.223	32179.04
543.587	32390.33
543.952	32339.04
544.316	32490.45
544.681	32518.47
545.045	32649.09
545.41	32955.52
545.774	33005.01
546.138	33012.01
546.503	33141.28
546.867	33165.23
547.231	33383.98
547.595	33414.49
547.959	33655.84
548.324	33616.97
548.688	33763.86
549.052	33881.82
549.416	33980.35
549.779	34073.45
550.143	34178.99
550.507	34393.67
550.871	34473.9
551.235	34541.69
551.599	34788.24
551.962	34869.37
552.326	34972.41
552.689	35109.13
553.053	35035.24
553.417	35210.6
553.78	35711.6
554.143	35548.67
554.507	35765.16
554.87	35739.63
555.234	36048.09
555.597	36093.51
555.96	36178.94
556.323	36404.92
556.686	36490.11
557.05	36817.34
557.413	36900.95
557.776	37018.91
558.139	37198.57
558.502	37426.36
558.865	37403.54
559.228	37745.9
559.59	37772.79
559.953	37790.42
560.316	38394.7
560.679	38365.77
561.041	38626.1
561.404	38899.99
561.767	38962.37
562.129	38984.06
562.492	39374.11
562.854	39393.09
563.217	39397.16
563.579	39632.4
563.941	39885.28
564.304	40174.76
564.666	40393.97
565.028	40404.36
565.39	40602.32
565.753	40637.8
566.115	40960.73
566.477	41104
566.839	41192.82
567.201	41667.83
567.563	41565.46
567.925	41904.21
568.287	41869.18
568.648	42015.84
569.01	42330.86
569.372	42595.72
569.734	42532.44
570.095	42706.9
570.457	43117.28
570.819	43128.58
571.18	43143.05
571.542	43416.26
571.903	43488.35
572.265	43566.76
572.626	43810.6
572.987	43832.97
573.349	44090.37
573.71	44200.87
574.071	44376.01
574.432	44559.51
574.794	44859.61
575.155	44872.04
575.516	44775.09
575.877	45079.27
576.238	45136.44
576.599	45344.34
576.96	45371.24
577.32	45366.94
577.681	45552.02
578.042	45630.21
578.403	45816.42
578.763	45789.3
579.124	45895.52
579.485	46041.28
579.845	45987.27
580.206	45962.63
580.566	46145.23
580.927	46108.17
581.287	46357.65
581.648	46293.47
582.008	46403.3
582.368	46373.24
582.728	46359.46
583.089	46452.11
583.449	46464.99
583.809	46557.19
584.169	46538.21
584.529	46568.72
584.889	46888.03
585.249	46618.66
585.609	46595.39
585.969	46904.76
586.329	46831.31
586.688	46789.05
587.048	46744.76
587.408	46715.61
587.768	46726.23
588.127	46678.09
588.487	46638.55
588.846	46934.81
589.206	46638.1
589.565	46663.86
589.925	46742.95
590.284	46781.14
590.643	46804.42
591.003	46873.57
591.362	47090.51
591.721	46762.16
592.08	46932.55
592.44	47023.4
592.799	46966.67
593.158	46850.07
593.517	46960.8
593.876	47019.55
594.235	46942.49
594.593	47074.47
594.952	47135.71
595.311	46956.28
595.67	47180
596.029	47286.44
596.387	47345.2
596.746	47364.18
597.104	47355.14
597.463	47308.36
597.822	47323.05
598.18	47211.41
598.538	47234.24
598.897	47481.46
599.255	47099.78
599.613	47742.02
599.972	47409.37
600.33	47501.58
600.688	47373.22
601.046	47558.52
601.404	47644.4
601.762	47549.26
602.12	47767.33
602.478	47839.65
602.836	47811.85
603.194	47668.8
603.552	47777.27
603.91	47792.19
604.268	47916.93
604.625	47836.93
604.983	48018.4
605.341	47773.21
605.698	48080.32
606.056	48241.22
606.413	48190.15
606.771	48286.19
607.128	48244.83
607.485	48188.11
607.843	48208.9
608.2	48373.19
608.557	48585.62
608.914	48381.33
609.272	48565.73
609.629	48595.78
609.986	48674.2
610.343	48628.1
610.7	48924.59
611.057	48686.86
611.414	48667.42
611.771	48673.52
612.127	48881.65
612.484	48805.27
612.841	48916.23
613.198	48851.82
613.554	48927.98
613.911	49073.74
614.267	48981.76
614.624	49036.9
614.98	49113.51
615.337	49293.17
615.693	49234.19
616.05	49184.02
616.406	49398.48
616.762	49242.1
617.118	49339.95
617.475	49324.8
617.831	49497.23
618.187	49410
618.543	49466.27
618.899	49628.3
619.255	49643.21
619.611	49576.1
619.967	49689.31
620.323	49750.33
620.678	49589.88
621.034	49627.85
621.39	49593.72
621.746	49633.05
622.101	49997.33
622.457	49628.3
622.812	49758.47
623.168	49806.37
623.523	49830.55
623.879	49913.94
624.234	49631.01
624.589	49811.57
624.945	49852.47
625.3	49873.72
625.655	49817
626.01	49965.47
626.365	49916.2
626.72	49853.38
627.075	49843.44
627.43	49889.99
627.785	49754.85
628.14	49805.92
628.495	49778.58
628.85	49759.82
629.205	49700.39
629.559	49890.21
629.914	49644.34
630.269	49682.31
630.623	49703.1
630.978	49541.3
631.332	49833.72
631.687	49700.61
632.041	49602.54
632.396	49513.5
632.75	49488.64
633.104	49608.87
633.459	49482.31
633.813	49292.49
634.167	49316.9
634.521	49289.55
634.875	49338.14
635.229	49270.34
635.583	48988.32
635.937	49014.08
636.291	48965.49
636.645	48893.4
636.999	48865.61
637.352	48955.77
637.706	48786.51
638.06	48826.06
638.413	48726.18
638.767	48580.19
639.121	48567.08
639.474	48357.15
639.828	48395.56
640.181	48523.92
640.534	48374.55
640.888	48274.66
641.241	48166.19
641.594	48106.98
641.947	48195.12
642.301	48254.55
642.654	48182.46
643.007	48226.3
643.36	48129.36
643.713	48030.15
644.066	48154.21
644.419	47868.8
644.771	47573.89
645.124	47220.45
645.477	47151.3
645.83	47016.16
646.182	46791.76
646.535	46759.45
646.888	46777.75
647.24	46541.15
647.593	46835.83
647.945	46640.13
648.298	46334.15
648.65	46406.92
649.002	46236.07
649.355	46321.27
649.707	46425.22
650.059	46459.34
650.411	46846.9
650.763	46944.53
651.115	47233.79
651.467	47113.11
651.819	47119.21
652.171	46863.4
652.523	46870.18
652.875	46868.15
653.227	46664.99
653.578	47006.45
653.93	46730.97
654.282	46589.28
654.633	46615.72
654.985	46536.18
655.337	46531.88
655.688	46537.53
656.039	46765.55
656.391	46352.45
656.742	46535.05
657.094	46485.56
657.445	46729.62
657.796	46479.46
658.147	46515.16
658.498	46473.58
658.849	46604.42
659.2	46407.59
659.551	46335.5
659.902	46538.89
660.253	46342.74
660.604	46450.76
660.955	46241.27
661.306	46379.35
661.656	46279.01
662.007	46307.93
662.358	46251.89
662.708	46205.56
663.059	46132.35
663.409	45949.75
663.76	46279.01
664.11	46143.19
664.461	46255.51
664.811	46204.89
665.161	46006.93
665.511	46018.45
665.862	45979.81
666.212	46158.79
666.562	46075.17
666.912	45910.88
667.262	45934.16
667.612	45832.24
667.962	45848.74
668.312	45800.6
668.662	45924.22
669.011	45636.09
669.361	45601.29
669.711	45460.5
670.06	45408.75
670.41	45349.32
670.76	45219.6
671.109	45472.25
671.459	45334.4
671.808	45301.18
672.157	45350.67
672.507	45043.11
672.856	45118.36
673.205	45138.25
673.554	45173.73
673.904	44926.95
674.253	45309.54
674.602	45079.04
674.951	44397.25
675.3	44230.25
675.649	45016.22
675.998	44859.84
676.346	44943.45
676.695	44896.9
677.044	44679.28
677.393	44735.32
677.741	44827.52
678.09	44847.18
678.438	44630.92
678.787	44703.91
679.135	44722.67
679.484	44437.25
679.832	44516.12
680.181	44355.44
680.529	44479.28
680.877	44303.69
681.225	44359.29
681.573	44471.6
681.922	44297.82
682.27	44115
682.618	44139.63
682.966	44032.06
683.314	44155.9
683.661	44104.15
684.009	43756.82
684.357	43653.77
684.705	43770.6
685.053	43700.55
685.4	43589.36
685.748	43494
686.095	43411.06
686.443	43209.26
686.79	42980.11
687.138	43213.78
687.485	43188.47
687.832	43056.95
688.18	43023.28
688.527	42804.98
688.874	42671.87
689.221	42700.12
689.568	42530.18
689.915	42322.05
690.262	42371.32
690.609	42230.53
690.956	42000.7
691.303	42135.39
691.65	41925.45
691.997	41996.86
692.344	41626.7
692.69	41693.37
693.037	41762.07
693.383	41342.87
693.73	41588.06
694.077	41376.31
694.423	41224.45
694.769	41184.91
695.116	41016.1
695.462	40911.24
695.808	40826.95
696.155	40867.17
696.501	40724.13
696.847	40511.25
697.193	40384.25
697.539	40471.03
697.885	40167.98
698.231	40059.29
698.577	39893.41
698.923	40018.61
699.269	39675.57
699.614	39560.54
699.96	39397.83
700.306	39389.25
700.651	39214.34
700.997	39050.5
701.342	39003.04
701.688	38987.45
702.033	38914.46
702.379	38793.78
702.724	38640.11
703.069	38759.43
703.415	38315.6
703.76	38470.4
704.105	38438.09
704.45	38306.34
704.795	38010.3
705.14	37817.08
705.485	37923.97
705.83	37808.5
706.175	37779.12
706.52	37807.82
706.865	37667.48
707.209	37541.61
707.554	37359.47
707.899	37519.01
708.243	37068.18
708.588	37049.42
708.932	36908.86
709.277	36910.89
709.621	37001.29
709.966	36620.28
710.31	36703.67
710.654	36407.86
710.998	36418.25
711.342	36538.7
711.687	36311.59
712.031	36240.86
712.375	36038.6
712.719	36094.64
713.063	36063.01
713.407	36111.59
713.75	35924.71
714.094	35873.18
714.438	35738.5
714.782	35794.77
715.125	35590.25
715.469	35647.88
715.812	35362.69
716.156	35228.68
716.499	35326.3
716.843	35205.63
717.186	35105.52
717.53	35165.18
717.873	35141.22
718.216	35081.34
718.559	34915.47
718.902	34824.62
719.246	34778.97
719.589	34658.98
719.932	34531.52
720.275	34446.33
720.617	34443.39
720.96	34369.27
721.303	34274.58
721.646	34252.88
721.989	34059.67
722.331	34169.95
722.674	34197.74
723.016	34041.59
723.359	34026
723.701	33956.4
724.044	33670.08
724.386	33645.22
724.729	33784.87
725.071	33603.18
725.413	33476.18
725.755	33478.89
726.097	33397.54
726.439	33193.7
726.782	33134.27
727.124	33312.12
727.465	33136.76
727.807	33084.55
728.149	32905.12
728.491	32937.21
728.833	32943.54
729.175	32699.25
729.516	32728.4
729.858	32785.58
730.199	32683.21
730.541	32562.99
730.882	32591.23
731.224	32616.77
731.565	32451.35
731.906	32328.19
732.248	32411.8
732.589	32247.06
732.93	32160.74
733.271	32172.49
733.612	32182.88
733.953	32172.04
734.294	31978.82
734.635	31882.78
734.976	32018.82
735.317	31861.54
735.658	31855.43
735.999	31847.75
736.339	31690.69
736.68	31984.24
737.021	31827.64
737.361	31579.28
737.702	31697.25
738.042	31601.65
738.383	31510.81
738.723	31575.89
739.063	31442.56
739.404	31422.22
739.744	31426.07
740.084	31179.07
740.424	31248.44
740.764	31229.91
741.104	31261.78
741.444	31067.43
741.784	30966.87
742.124	31065.62
742.464	30823.82
742.804	30816.82
743.143	30657.27
743.483	30683.04
743.823	30595.58
744.162	30428.8
744.502	30527.56
744.841	30455.24
745.181	30528.69
745.52	30245.31
745.86	30281.69
746.199	30283.95
746.538	30275.14
746.877	30127.34
747.216	30175.03
747.556	30116.04
747.895	29970.74
748.234	29791.99
748.573	29840.35
748.911	29722.16
749.25	29717.86
749.589	29621.14
749.928	29696.17
750.267	29561.03
750.605	29564.42
750.944	29489.85
751.283	29273.81
751.621	29259.8
751.96	29244.2
752.298	29185.67
752.636	29093.7
752.975	28865.68
753.313	28874.95
753.651	28879.24
753.989	28754.27
754.327	28751.79
754.666	28480.38
755.004	28718.11
755.342	28737.32
755.679	28551.11
756.017	28424.79
756.355	28494.39
756.693	28201.97
757.031	28272.02
757.368	28196.77
757.706	28059.6
758.044	27948.19
758.381	28086.04
758.719	27966.72
759.056	27913.62
759.394	27655.77
759.731	27502.33
760.068	27569.9
760.405	27447.87
760.743	27357.47
761.08	27362.9
761.417	27262.56
761.754	27169
762.091	27112.06
762.428	27083.36
762.765	26884.04
763.102	26946.18
763.438	26850.59
763.775	26759.52
764.112	26691.73
764.449	26609.7
764.785	26601.33
765.122	26318.18
765.458	26415.58
765.795	26267.11
766.131	26301.68
766.467	26170.16
766.804	26023.95
767.14	25959.09
767.476	25937.85
767.812	25713
768.148	25763.84
768.485	25582.83
768.821	25452.21
769.157	25356.4
769.492	25365.43
769.828	25114.37
770.164	24951.21
770.5	24926.58
770.836	24953.69
771.171	24603.65
771.507	24729.52
771.842	24459.7
772.178	24421.28
772.513	24451.33
772.849	24272.36
773.184	24311.68
773.519	24249.31
773.855	24068.29
774.19	24093.15
774.525	23827.4
774.86	23898.81
775.195	23778.13
775.53	23658.36
775.865	23480.06
776.2	23246.17
776.535	23182.67
776.87	23208.66
777.205	23154.19
777.539	23080.07
777.874	23060.41
778.209	22908.78
778.543	22758.5
778.878	22707.88
779.212	22659.97
779.547	22608.22
779.881	22580.2
780.215	22343.37
780.55	22514.21
780.884	22213.43
781.218	22211.39
781.552	22186.08
781.886	22075.8
782.22	21928.69
782.554	21897.96
782.888	21583.39
783.222	21575.93
783.556	21454.58
783.889	21387.01
784.223	21286.67
784.557	21292.55
784.89	21328.48
785.224	21119.67
785.557	21061.82
785.891	20972.1
786.224	20994.93
786.558	20841.03
786.891	20750.19
787.224	20617.31
787.557	20669.74
787.891	20588.61
788.224	20526.92
788.557	20452.12
788.89	20516.75
789.223	20346.13
789.556	20201.05
789.888	20177.55
790.221	20026.14
790.554	19968.74
790.887	19897.56
791.219	19800.16
791.552	19876.77
791.884	19716.54
792.217	19588.64
792.549	19533.5
792.882	19348.19
793.214	19332.83
793.546	19437
793.879	19208.08
794.211	19051.93
794.543	19213.05
794.875	18985.04
795.207	19078.37
795.539	18880.63
795.871	18994.75
796.203	18860.3
796.535	18649.68
796.867	18564.48
797.198	18494.88
797.53	18570.13
797.862	18456.24
798.193	18384.15
798.525	18291.72
798.856	18319.52
799.188	18098.06
799.519	18075.23
799.85	18006.76
800.182	17936.03
800.513	17974.89
800.844	17827.33
801.175	17852.41
801.506	17883.37
801.837	17866.65
802.168	17719.31
802.499	17629.82
802.83	17532.65
803.161	17555.24
803.491	17520.44
803.822	17341.69
804.153	17371.97
804.483	17227.57
804.814	17166.33
805.145	17187.34
805.475	17117.97
805.805	17004.98
806.136	17023.73
806.466	17028.48
806.796	16843.17
807.126	16862.16
807.457	16757.98
807.787	16746
808.117	16664.19
808.447	16652.9
808.777	16648.15
809.107	16563.41
809.436	16506.68
809.766	16463.97
810.096	16365.45
810.426	16395.28
810.755	16351.43
811.085	16338.55
811.414	16374.26
811.744	16144.89
812.073	16046.36
812.403	16063.76
812.732	15997.77
813.061	15994.83
813.39	15988.96
813.719	15857.89
814.049	16025.57
814.378	15947.15
814.707	15774.95
815.036	15742.64
815.365	15711.9
815.693	15547.16
816.022	15685.92
816.351	15492.25
816.68	15459.48
817.008	15496.54
817.337	15358.92
817.665	15378.58
817.994	15455.19
818.322	15325.7
818.651	15295.87
818.979	15207.51
819.307	15189.66
819.636	15174.06
819.964	15059.94
820.292	15113.5
820.62	15056.78
820.948	15014.29
821.276	15037.57
821.604	14926.16
821.932	14979.49
822.259	15047.51
822.587	15008.42
822.915	14894.75
823.243	15008.42
823.57	14943.11
823.898	15022.66
824.225	14968.42
824.553	14970.68
824.88	14958.02
825.207	15004.35
825.535	14888.2
825.862	15035.76
826.189	14857.24
826.516	14966.61
826.843	14987.63
827.17	14984.46
827.497	14948.31
827.824	14971.36
828.151	14894.3
828.478	14938.14
828.805	14887.07
829.131	14859.95
829.458	14798.03
829.785	14745.15
830.111	14791.02
830.438	14902.66
830.764	14822.21
831.09	14888.87
831.417	14789.67
831.743	14824.69
832.069	14883.9
832.395	14759.84
832.722	14758.03
833.048	14714.87
833.374	14747.63
833.7	14678.03
834.026	14695.21
834.351	14625.15
834.677	14658.15
835.003	14648.88
835.329	14787.41
835.654	14671.7
835.98	14611.14
836.306	14543.57
836.631	14514.65
836.956	14591.48
837.282	14520.3
837.607	14490.47
837.932	14450.69
838.258	14467.42
838.583	14465.83
838.908	14343.58
839.233	14356.01
839.558	14374.54
839.883	14265.39
840.208	14195.56
840.533	14232.62
840.858	14357.36
841.182	14300.64
841.507	14212.73
841.832	14188.33
842.156	14190.81
842.481	14139.06
842.805	14091.15
843.13	14077.37
843.454	14018.16
843.778	13961.21
844.103	13969.8
844.427	13961.21
844.751	13988.33
845.075	13798.51
845.399	13883.7
845.723	13825.63
846.047	13807.77
846.371	13714.44
846.695	13601.68
847.019	13600.32
847.343	13477.84
847.666	13485.97
847.99	13448.23
848.313	13450.95
848.637	13397.39
848.96	13284.85
849.284	13303.83
849.607	13241.91
849.931	13179.54
850.254	13119.43
850.577	12980.45
850.9	12996.72
851.223	12994.23
851.546	12950.39
851.869	12789.95
852.192	12852.77
852.515	12781.13
852.838	12752.43
853.161	12712.43
853.483	12619.33
853.806	12652.32
854.129	12579.78
854.451	12572.78
854.774	12485.32
855.096	12434.48
855.419	12435.83
855.741	12402.16
856.063	12327.81
856.385	12269.96
856.708	12250.3
857.03	12288.26
857.352	12281.03
857.674	12182.28
857.996	12178.21
858.318	12095.28
858.64	12100.02
858.961	12011.44
859.283	11995.39
859.605	11843.3
859.926	12013.92
860.248	11931.44
860.57	11845.34
860.891	11919.23
861.212	11773.25
861.534	11766.7
861.855	11758.33
862.176	11781.39
862.498	11802.4
862.819	11766.24
863.14	11717.43
863.461	11720.14
863.782	11589.98
864.103	11683.31
864.424	11608.28
864.745	11648.06
865.065	11540.49
865.386	11588.62
865.707	11517.66
866.027	11482.41
866.348	11492.81
866.668	11477.89
866.989	11490.32
867.309	11452.81
867.63	11433.82
867.95	11447.83
868.27	11357.67
868.59	11399.25
868.91	11424.11
869.23	11345.92
869.55	11299.36
869.87	11347.5
870.19	11282.87
870.51	11302.53
870.83	11232.47
871.15	11237.67
871.469	11240.38
871.789	11178.92
872.109	11227.05
872.428	11204.68
872.748	11147.73
873.067	11150.44
873.386	11154.73
873.706	11189.54
874.025	11189.76
874.344	11023.89
874.663	11097.56
874.982	11025.02
875.301	11096.21
875.62	10997.22
875.939	10952.93
876.258	11099.14
876.577	11042.2
876.896	10953.38
877.214	10945.7
877.533	11018.24
877.852	10996.77
878.17	10961.29
878.489	10938.92
878.807	10944.34
879.125	10877.45
879.444	10934.18
879.762	10949.54
880.08	10889.21
880.398	10860.73
880.716	10873.84
881.034	10800.39
881.352	10879.26
881.67	10827.29
881.988	10807.4
882.306	10833.84
882.624	10767.85
882.941	10668.19
883.259	10698.48
883.577	10668.65
883.894	10696.44
884.212	10628.87
884.529	10652.6
884.846	10584.81
885.164	10575.54
885.481	10613.96
885.798	10611.92
886.115	10420.52
886.432	10478.82
886.75	10548.88
887.067	10434.75
887.383	10417.81
887.7	10371.7
888.017	10465.26
888.334	10410.35
888.651	10408.54
888.967	10350.46
889.284	10267.3
889.6	10230.69
889.917	10114.31
890.233	10197.25
890.55	10180.98
890.866	10237.02
891.182	10100.75
891.498	10030.92
891.815	10107.53
892.131	9975.1
892.447	9998.83
892.763	9945.73
893.079	10001.77
893.395	9934.88
893.71	9973.52
894.026	9883.58
894.342	9887.42
894.657	9835.9
894.973	9799.06
895.289	9781.89
895.604	9813.08
895.92	9717.03
896.235	9686.98
896.55	9679.75
896.865	9705.96
897.181	9639.29
897.496	9659.63
897.811	9549.13
898.126	9557.71
898.441	9537.15
898.756	9482.24
899.071	9412.86
899.386	9398.85
899.7	9359.08
900.015	9313.88
900.33	9276.59
900.644	9272.07
900.959	9269.81
901.273	9210.38
901.588	9135.58
901.902	9077.95
902.216	9087.67
902.531	9033.43
902.845	9079.54
903.159	9015.58
903.473	8982.59
903.787	8975.13
904.101	8946.66
904.415	8911.86
904.729	8876.83
905.042	8861.24
905.356	8863.72
905.67	8802.25
905.984	8809.26
906.297	8786.44
906.611	8725.19
906.924	8689.72
907.237	8712.54
907.551	8680.45
907.864	8599.55
908.177	8473.45
908.491	8584.41
908.804	8493.34
909.117	8536.27
909.43	8480
909.743	8491.98
910.056	8461.25
910.368	8393.9
910.681	8296.96
910.994	8324.75
911.307	8322.04
911.619	8168.82
911.932	8238.65
912.244	8210.41
912.557	8175.38
912.869	8087.24
913.181	8047.47
913.494	8105.55
913.806	8026.91
914.118	8019.22
914.43	7944.88
914.742	7996.63
915.054	7966.12
915.366	7860.13
915.678	7873.47
915.99	7844.09
916.302	7783.98
916.613	7784.88
916.925	7645.67
917.236	7710.98
917.548	7656.75
917.859	7589.18
918.171	7553.47
918.482	7536.07
918.794	7481.39
919.105	7495.17
919.416	7378.34
919.727	7438.67
920.038	7447.04
920.349	7361.61
920.66	7274.38
920.971	7321.39
921.282	7301.5
921.593	7252.92
921.903	7171.79
922.214	7206.59
922.525	7202.52
922.835	7144.9
923.146	7072.81
923.456	7100.15
923.767	7105.58
924.077	7032.13
924.387	7008.63
924.697	6981.29
925.008	6951.68
925.318	6945.13
925.628	6895.19
925.938	6887.73
926.248	6822.65
926.558	6796.21
926.867	6812.02
927.177	6765.7
927.487	6728.41
927.796	6608.41
928.106	6641.86
928.416	6631.69
928.725	6619.26
929.034	6549.66
929.344	6622.2
929.653	6574.29
929.962	6504.46
930.271	6445.48
930.581	6394.18
930.89	6497.23
931.199	6378.59
931.508	6357.12
931.817	6411.81
932.125	6361.41
932.434	6360.06
932.743	6313.51
933.051	6285.71
933.36	6279.38
933.669	6258.37
933.977	6189.44
934.286	6180.85
934.594	6205.03
934.902	6114.87
935.21	6122.1
935.519	6087.75
935.827	6055.21
936.135	6014.08
936.443	5999.84
936.751	5998.71
937.059	5981.99
937.367	5902.67
937.674	5926.85
937.982	5889.79
938.29	5893.86
938.597	5908.77
938.905	5811.6
939.213	5744.48
939.52	5770.24
939.827	5771.6
940.135	5769.34
940.442	5670.13
940.749	5681.88
941.056	5706.74
941.363	5591.49
941.67	5578.84
941.977	5576.12
942.284	5488.67
942.591	5487.09
942.898	5461.78
943.205	5485.05
943.511	5438.28
943.818	5465.84
944.125	5390.37
944.431	5441.44
944.738	5419.29
945.044	5358.05
945.35	5357.37
945.657	5314.44
945.963	5292.06
946.269	5288.9
946.575	5317.37
946.881	5195.12
947.187	5207.55
947.493	5148.34
947.799	5172.75
948.105	5186.08
948.41	5109.24
948.716	5116.93
949.022	5074.22
949.327	5064.5
949.633	5003.94
949.938	5047.32
950.244	5008.46
950.549	5031.96
950.854	4958.06
951.16	4979.08
951.465	4950.15
951.77	4931.4
952.075	4881
952.38	4890.49
952.685	4847.1
952.99	4743.83
953.294	4769.14
953.599	4745.64
953.904	4733.21
954.209	4743.15
954.513	4766.43
954.818	4738.86
955.122	4704.96
955.426	4654.79
955.731	4652.08
956.035	4588.13
956.339	4605.75
956.643	4621.35
956.948	4528.02
957.252	4519.88
957.556	4493.44
957.86	4508.58
958.163	4483.27
958.467	4485.53
958.771	4475.14
959.075	4434.46
959.378	4431.97
959.682	4428.81
959.985	4364.63
960.289	4381.81
960.592	4323.05
960.896	4342.03
961.199	4274.92
961.502	4280.57
961.805	4280.11
962.108	4251.41
962.411	4246.44
962.714	4212.77
963.017	4185.2
963.32	4178.2
963.623	4187.69
963.926	4197.63
964.228	4130.74
964.531	4111.3
964.833	4109.5
965.136	4063.17
965.438	4060.23
965.741	4035.83
966.043	4027.46
966.345	4060.91
966.648	3999.44
966.95	4063.85
967.252	3991.08
967.554	3973
967.856	3928.48
968.158	3941.82
968.46	3904.76
968.761	3861.37
969.063	3821.82
969.365	3839.22
969.666	3877.41
969.968	3791.31
970.269	3792.44
970.571	3796.06
970.872	3770.97
971.174	3754.25
971.475	3742.95
971.776	3704.76
972.077	3730.75
972.378	3695.5
972.679	3669.28
972.98	3672.22
973.281	3670.41
973.582	3641.49
973.883	3614.82
974.183	3575.05
974.484	3614.82
974.785	3552.22
975.085	3550.42
975.386	3554.71
975.686	3561.49
975.986	3500.7
976.287	3487.37
976.587	3472.9
976.887	3442.62
977.187	3456.41
977.487	3417.54
977.787	3454.82
978.087	3397.88
978.387	3348.61
978.687	3343.41
978.987	3335.28
979.286	3315.62
979.586	3335.05
979.885	3337.31
980.185	3273.13
980.484	3300.48
980.784	3252.12
981.083	3235.85
981.382	3257.77
981.682	3216.64
981.981	3220.03
982.28	3161.5
982.579	3158.56
982.878	3166.24
983.177	3127.38
983.475	3137.09
983.774	3112.69
984.073	3114.49
984.372	3084.89
984.67	3057.55
984.969	3071.11
985.267	3074.27
985.566	3032.69
985.864	3017.55
986.162	3021.39
986.461	2990.66
986.759	3006.7
987.057	2948.17
987.355	2931.45
987.653	2945.46
987.951	2969.87
988.249	2907.04
988.547	2914.5
988.844	2895.07
989.142	2872.69
989.44	2874.27
989.737	2855.52
990.035	2869.98
990.332	2848.74
990.63	2849.19
990.927	2845.57
991.224	2796.99
991.521	2789.76
991.819	2779.59
992.116	2801.51
992.413	2766.93
992.71	2709.31
993.006	2721.06
993.303	2726.48
993.6	2716.99
993.897	2669.08
994.193	2693.26
994.49	2624.79
994.787	2641.96
995.083	2626.82
995.379	2648.07
995.676	2611.23
995.972	2629.76
996.268	2584.34
996.565	2568.75
996.861	2611.46
997.157	2594.51
997.453	2557.45
997.749	2555.86
998.044	2530.55
998.34	2510.89
998.636	2498.24
998.932	2471.35
999.227	2474.51
999.523	2440.39
999.818	2446.04
1000.114	2458.47
1000.409	2402.87
1000.704	2389.54
1001	2406.49
1001.295	2387.96
1001.59	2406.94
1001.885	2386.38
1002.18	2342.31
1002.475	2369.2
1002.77	2334.18
1003.065	2302.54
1003.359	2311.35
1003.654	2295.98
1003.949	2270.45
1004.243	2251.47
1004.538	2221.86
1004.832	2247.4
1005.127	2239.94
1005.421	2203.56
1005.715	2203.33
1006.009	2189.55
1006.304	2160.17
1006.598	2162.2
1006.892	2155.65
1007.186	2142.99
1007.48	2113.16
1007.773	2129.89
1008.067	2090.79
1008.361	2071.36
1008.655	2080.17
1008.948	2088.53
1009.242	2064.58
1009.535	2033.62
1009.829	2073.39
1010.122	2038.36
1010.415	2009.21
1010.708	1987.29
1011.001	1986.61
1011.295	1972.6
1011.588	1986.39
1011.881	1944.81
1012.173	1940.74
1012.466	1948.88
1012.759	1941.42
1013.052	1899.84
1013.344	1895.77
1013.637	1911.59
1013.93	1861.65
1014.222	1878.59
1014.514	1867.97
1014.807	1840.86
1015.099	1839.27
1015.391	1825.26
1015.683	1822.1
1015.976	1787.3
1016.268	1790.24
1016.56	1782.33
1016.851	1777.35
1017.143	1783.91
1017.435	1750.91
1017.727	1734.42
1018.018	1714.08
1018.31	1717.47
1018.602	1685.83
1018.893	1704.14
1019.185	1657.81
1019.476	1658.26
1019.767	1679.96
1020.058	1658.94
1020.35	1621.2
1020.641	1639.5
1020.932	1620.75
1021.223	1627.3
1021.514	1598.38
1021.804	1567.87
1022.095	1589.11
1022.386	1588.43
1022.677	1554.76
1022.967	1529.23
1023.258	1534.65
1023.548	1514.76
1023.839	1520.41
1024.129	1510.69
1024.419	1500.98
1024.709	1478.61
1025	1478.38
1025.29	1452.84
1025.58	1465.95
1025.87	1463.69
1026.16	1444.93
1026.449	1437.7
1026.739	1404.93
1027.029	1404.71
1027.319	1360.87
1027.608	1405.61
1027.898	1363.81
1028.187	1376.46
1028.477	1351.38
1028.766	1373.3
1029.055	1388.21
1029.344	1343.24
1029.634	1343.92
1029.923	1317.03
1030.212	1333.3
1030.501	1311.38
1030.79	1270.93
1031.078	1267.31
1031.367	1278.61
1031.656	1256.01
1031.945	1265.73
1032.233	1269.12
1032.522	1247.42
1032.81	1212.62
1033.099	1235.9
1033.387	1216.92
1033.675	1221.44
1033.963	1192.29
1034.251	1206.3
1034.54	1170.14
1034.828	1153.64
1035.116	1155.45
1035.403	1156.35
1035.691	1135.56
1035.979	1133.3
1036.267	1148.9
1036.554	1140.08
1036.842	1149.57
1037.129	1108.9
1037.417	1123.36
1037.704	1122.23
1037.992	1115.22
1038.279	1065.28
1038.566	1032.52
1038.853	1032.52
1039.14	1032.52
