Data from aluminium_macbook_case_FLMS001491_067.txt Node
Date: Tue Feb 07 10:44:02 GMT 2017
User: dcchb
Spectrometer: FLMS00149
Trigger mode: 0
Integration Time (sec): 2.000000E-2
Scans to average: 10
Electric dark correction enabled: true
Nonlinearity correction enabled: false
Boxcar width: 0
XAxis mode: Wavelengths
Number of Pixels in Spectrum: 2048
>>>>>Begin Spectral Data<<<<<
341.393	-15.49
341.776	-15.49
342.16	-15.49
342.543	-74.02
342.927	-79.9
343.31	-65.66
343.693	-79.45
344.077	-70.18
344.46	-55.49
344.843	-45.55
345.226	-49.39
345.61	-32.89
345.993	-13.23
346.376	-6
346.759	12.75
347.142	20.89
347.525	44.17
347.908	58.4
348.291	85.29
348.674	78.51
349.057	117.84
349.44	108.34
349.823	141.34
350.206	176.14
350.588	248.68
350.971	254.56
351.354	275.12
351.737	281.9
352.119	325.29
352.502	320.99
352.884	315.57
353.267	306.76
353.65	350.6
354.032	335.68
354.414	357.6
354.797	378.62
355.179	362.8
355.562	373.87
355.944	398.96
356.326	372.74
356.709	397.83
357.091	390.37
357.473	401.9
357.855	405.74
358.238	395.34
358.62	403.93
359.002	406.87
359.384	388.34
359.766	400.31
360.148	426.3
360.53	397.83
360.912	410.03
361.294	436.7
361.676	404.38
362.057	405.96
362.439	413.2
362.821	402.8
363.203	411.16
363.584	421.56
363.966	407.09
364.348	408
364.729	415.68
365.111	403.03
365.493	414.33
365.874	419.07
366.256	411.39
366.637	396.7
367.019	427.66
367.4	409.13
367.781	424.49
368.163	429.24
368.544	422.01
368.925	422.91
369.306	423.59
369.688	427.43
370.069	445.74
370.45	431.05
370.831	454.1
371.212	444.38
371.593	459.3
371.974	454.78
372.355	445.74
372.736	443.25
373.117	463.14
373.498	460.88
373.879	451.39
374.26	459.75
374.641	433.53
375.021	459.07
375.402	474.44
375.783	487.54
376.163	516.24
376.544	523.47
376.925	523.02
377.305	505.4
377.686	496.36
378.066	497.49
378.447	520.31
378.827	524.38
379.208	519.63
379.588	513.76
379.968	530.25
380.349	517.15
380.729	527.77
381.109	544.27
381.489	537.03
381.87	548.33
382.25	553.08
382.63	590.82
383.01	565.51
383.39	586.52
383.77	578.16
384.15	600.31
384.53	587.2
384.91	605.73
385.29	612.51
385.67	615.9
386.049	655.67
386.429	639.63
386.809	633.53
387.189	655.67
387.568	670.14
387.948	658.61
388.328	689.12
388.707	669.91
389.087	677.82
389.466	689.12
389.846	707.2
390.225	721.44
390.605	734.54
390.984	723.02
391.363	747.42
391.743	756.46
392.122	776.35
392.501	772.73
392.881	758.5
393.26	774.54
393.639	777.71
394.018	808.67
394.397	807.31
394.776	820.19
395.155	838.27
395.534	833.3
395.913	812.28
396.292	855.67
396.671	879.85
397.05	871.04
397.429	876.91
397.808	902.45
398.186	905.84
398.565	931.6
398.944	928.89
399.323	929.57
399.701	961.88
400.08	986.29
400.458	972.5
400.837	980.19
401.215	990.81
401.594	1013.18
401.972	1026.74
402.351	1039.39
402.729	1032.84
403.107	1035.78
403.486	1046.85
403.864	1052.73
404.242	1075.78
404.62	1111.48
404.999	1109
405.377	1143.35
405.755	1134.76
406.133	1137.02
406.511	1186.73
406.889	1197.58
407.267	1201.88
407.645	1233.06
408.023	1228.77
408.401	1263.12
408.779	1268.09
409.156	1269.22
409.534	1292.95
409.912	1340.85
410.29	1353.96
410.667	1363.68
411.045	1397.12
411.422	1406.84
411.8	1407.07
412.178	1445.26
412.555	1494.3
412.933	1478.7
413.31	1507.4
413.687	1543.56
414.065	1526.84
414.442	1552.37
414.819	1575.88
415.197	1606.61
415.574	1646.61
415.951	1632.6
416.328	1699.72
416.705	1676.89
417.082	1700.39
417.46	1702.2
417.837	1751.69
418.214	1781.07
418.591	1777.68
418.967	1801.18
419.344	1831.46
419.721	1866.94
420.098	1838.92
420.475	1885.25
420.852	1896.09
421.228	1931.35
421.605	1913.72
421.982	1960.05
422.358	1984.68
422.735	2033.94
423.111	2015.41
423.488	2071.91
423.864	2091.34
424.241	2106.71
424.617	2132.7
424.994	2195.52
425.37	2155.3
425.746	2201.17
426.123	2244.11
426.499	2268.97
426.875	2271.45
427.251	2298.34
427.627	2353.03
428.003	2384.67
428.379	2439.81
428.756	2449.07
429.132	2462.86
429.507	2493.14
429.883	2551.22
430.259	2608.84
430.635	2617.66
431.011	2639.8
431.387	2718.22
431.763	2734.26
432.138	2798.9
432.514	2857.65
432.89	2877.31
433.265	2884.54
433.641	2928.38
434.016	3029.17
434.392	3019.23
434.767	3075.72
435.143	3102.84
435.518	3119.34
435.894	3171.31
436.269	3240.69
436.644	3285.21
437.02	3307.13
437.395	3352.55
437.77	3389.16
438.145	3411.31
438.52	3473.68
438.895	3511.42
439.271	3507.13
439.646	3595.26
440.021	3626.9
440.395	3644.07
440.77	3650.17
441.145	3683.62
441.52	3775.82
441.895	3791.19
442.27	3820.34
442.645	3784.18
443.019	3894.91
443.394	3879.09
443.769	3905.08
444.143	3922.26
444.518	4021.01
444.892	4024.63
445.267	4009.94
445.641	4118.86
446.016	4129.93
446.39	4140.1
446.764	4181.01
447.139	4196.6
447.513	4231.17
447.887	4229.82
448.262	4257.16
448.636	4327.44
449.01	4367.44
449.384	4365.63
449.758	4481.34
450.132	4534.89
450.506	4549.13
450.88	4620.09
451.254	4684.27
451.628	4709.35
452.002	4741.67
452.376	4771.95
452.75	4853.53
453.123	4879.52
453.497	4944.83
453.871	5007.42
454.244	5147.76
454.618	5136.46
454.992	5201.32
455.365	5194.99
455.739	5367.19
456.112	5432.05
456.486	5480.41
456.859	5533.74
457.232	5650.57
457.606	5665.26
457.979	5764.92
458.352	5802.88
458.725	5902.09
459.099	5969.89
459.472	6049.21
459.845	6137.79
460.218	6204.91
460.591	6243.32
460.964	6295.75
461.337	6429.99
461.71	6549.08
462.083	6607.38
462.456	6700.04
462.829	6714.72
463.201	6864.33
463.574	6870.88
463.947	6992.46
464.32	7185.45
464.692	7147.48
465.065	7240.59
465.438	7365.78
465.81	7411.66
466.183	7594.48
466.555	7731.2
466.928	7761.02
467.3	7799.22
467.672	7925.99
468.045	8121.02
468.417	8109.94
468.789	8247.57
469.161	8352.87
469.534	8487.33
469.906	8622.7
470.278	8736.14
470.65	8816.14
471.022	9026.75
471.394	9175.9
471.766	9246.18
472.138	9377.93
472.51	9619.73
472.882	9720.3
473.253	9851.82
473.625	9991.02
473.997	10231.24
474.369	10284.35
474.74	10454.51
475.112	10698.8
475.484	10850.66
475.855	11023.31
476.227	11059.7
476.598	11444.32
476.97	11509.85
477.341	11784.42
477.713	11943.06
478.084	12054.25
478.455	12470.05
478.827	12525.87
479.198	12824.39
479.569	12961.34
479.94	13276.13
480.311	13383.48
480.682	13662.79
481.053	13924.48
481.424	14256.45
481.795	14346.84
482.166	14560.62
482.537	14740.28
482.908	15183.88
483.279	15299.13
483.65	15646.47
484.021	15933.24
484.391	16100.92
484.762	16255.94
485.133	16463.39
485.503	16652.77
485.874	17133.66
486.244	17183.83
486.615	17548.34
486.985	17886.18
487.356	18063.13
487.726	18218.15
488.097	18624.47
488.467	18709.44
488.837	19074.63
489.207	19337.9
489.578	19493.37
489.948	19776.75
490.318	20037.09
490.688	20136.52
491.058	20430.07
491.428	20703.06
491.798	20864.41
492.168	21367.9
492.538	21491.74
492.908	21747.78
493.278	22088.78
493.648	22108.22
494.017	22431.37
494.387	22641.54
494.757	22780.52
495.126	23099.83
495.496	23232.93
495.866	23458.24
496.235	23726.03
496.605	24020.48
496.974	24029.52
497.344	24247.6
497.713	24387.25
498.082	24593.8
498.452	24897.75
498.821	24978.2
499.19	25129.38
499.559	25258.64
499.928	25543.38
500.298	25630.39
500.667	25964.39
501.036	25857.95
501.405	26236.92
501.774	26254.1
502.143	26522.34
502.512	26636.91
502.88	26892.05
503.249	26833.52
503.618	27147.41
503.987	27200.74
504.356	27671.24
504.724	27742.19
505.093	27931.79
505.462	28097.67
505.83	28299.02
506.199	28632.11
506.567	29005.89
506.936	28996.4
507.304	29284.07
507.672	29414.92
508.041	29539.21
508.409	29778.75
508.777	30153.88
509.145	30450.6
509.514	30431.62
509.882	30663.02
510.25	30717.71
510.618	31004.71
510.986	31134.65
511.354	31484.47
511.722	31667.97
512.09	31886.04
512.458	32071.12
512.826	32284.67
513.193	32368.51
513.561	32594.5
513.929	32883.53
514.297	33079
514.664	33475.83
515.032	33547.47
515.4	33832.43
515.767	33983.61
516.135	34198.75
516.502	34112.65
516.869	34876.24
517.237	35006.18
517.604	34946.07
517.972	35214.99
518.339	35554.19
518.706	35869.21
519.073	36018.13
519.44	36329.99
519.808	36735.86
520.175	36549.65
520.542	37275.28
520.909	37422.39
521.276	37477.08
521.643	37986.22
522.009	38252.88
522.376	38485.19
522.743	38680.44
523.11	38952.97
523.477	39521.09
523.843	39671.82
524.21	40022.32
524.577	40278.14
524.943	40504.57
525.31	40665.7
525.676	40864.34
526.043	41302.06
526.409	41331.89
526.776	41836.74
527.142	41999.67
527.508	42154.02
527.874	42513.78
528.241	42731.86
528.607	42954.9
528.973	43431.05
529.339	43422.91
529.705	43839.17
530.071	44080.75
530.437	44307.18
530.803	44631.02
531.169	44819.94
531.535	44971.8
531.901	44967.96
532.267	45310.32
532.632	45689.97
532.998	45795.5
533.364	46052.67
533.73	46145.55
534.095	46551.64
534.461	46738.08
534.826	46852.65
535.192	47076.83
535.557	47260.55
535.923	47261.46
536.288	47448.12
536.653	47588.68
537.019	47601.56
537.384	47810.14
537.749	47987.09
538.114	48002.45
538.479	48046.75
538.845	48249
539.21	48268.66
539.575	48374.87
539.94	48578.26
540.305	48785.48
540.67	48846.5
541.034	48926.95
541.399	49214.17
541.764	49189.99
542.129	49484.22
542.494	49674.72
542.858	49714.5
543.223	49805.57
543.587	50020.25
543.952	50102.28
544.316	50216.18
544.681	50346.12
545.045	50458.89
545.41	50739.33
545.774	50856.61
546.138	50980.23
546.503	51041.92
546.867	51043.28
547.231	51439.88
547.595	51406.88
547.959	51641.68
548.324	51510.61
548.688	51699.08
549.052	51763.71
549.416	51878.06
549.779	51979.52
550.143	51978.62
550.507	52225.84
550.871	52322.34
551.235	52304.03
551.599	52462
551.962	52699.96
552.326	52690.24
552.689	52825.6
553.053	52726.17
553.417	52886.39
553.78	53237.57
554.143	53040.51
554.507	53372.71
554.87	53434.85
555.234	53692.02
555.597	53557.11
555.96	53681.63
556.323	53885.69
556.686	54011.33
557.05	54213.59
557.413	54311.21
557.776	54484.09
558.139	54625.56
558.502	54697.87
558.865	54759.34
559.228	54968.82
559.59	55110.51
559.953	55153.45
560.316	55481.13
560.679	55404.29
561.041	55667.11
561.404	55734.9
561.767	55833.66
562.129	55858.97
562.492	56127.21
562.854	56178.51
563.217	56198.85
563.579	56270.94
563.941	56381.22
564.304	56551.38
564.666	56687.65
565.028	56743.24
565.39	56752.96
565.753	56952.95
566.115	56947.75
566.477	57082.89
566.839	57140.07
567.201	57355.43
567.563	57311.81
567.925	57433.84
568.287	57477.01
568.648	57559.49
569.01	57743.21
569.372	57862.98
569.734	57874.51
570.095	58079.93
570.457	58117.67
570.819	58212.13
571.18	58231.11
571.542	58382.97
571.903	58403.53
572.265	58559.69
572.626	58613.02
572.987	58654.15
573.349	58757.2
573.71	58831.32
574.071	58802.62
574.432	58932.11
574.794	59163.97
575.155	59172.55
575.516	59102.27
575.877	59217.75
576.238	59304.53
576.599	59410.29
576.96	59495.03
577.32	59442.83
577.681	59526.9
578.042	59641.24
578.403	59552.43
578.763	59667
579.124	59618.42
579.485	59692.31
579.845	59792.43
580.206	59634.92
580.566	59579.78
580.927	59721.01
581.287	59789.04
581.648	59596.95
582.008	59772.54
582.368	59705.42
582.728	59794.46
583.089	59776.15
583.449	59728.25
583.809	59759.66
584.169	59829.26
584.529	59738.64
584.889	59951.52
585.249	59782.71
585.609	59755.14
585.969	59951.06
586.329	59790.17
586.688	59869.94
587.048	59824.06
587.408	59848.02
587.768	59874.68
588.127	59830.39
588.487	59890.73
588.846	60034.45
589.206	59841.92
589.565	59885.3
589.925	60017.28
590.284	59925.53
590.643	60037.62
591.003	60094.56
591.362	60139.08
591.721	60132.98
592.08	60149.93
592.44	60201.68
592.799	60215.01
593.158	60214.79
593.517	60184.28
593.876	60179.53
594.235	60129.14
594.593	60179.08
594.952	60177.27
595.311	60100.89
595.67	60166.65
596.029	60262.7
596.387	60164.39
596.746	60249.36
597.104	60094.79
597.463	60094.56
597.822	60184.96
598.18	60097.73
598.538	60060.21
598.897	60231.96
599.255	60043.72
599.613	60324.61
599.972	60187.44
600.33	60301.79
600.688	60266.08
601.046	60260.21
601.404	60339.76
601.762	60303.6
602.12	60406.19
602.478	60439.64
602.836	60387.89
603.194	60335.24
603.552	60368.68
603.91	60298.85
604.268	60483.03
604.625	60433.99
604.983	60439.64
605.341	60405.74
605.698	60562.12
606.056	60582.91
606.413	60546.08
606.771	60670.82
607.128	60780.87
607.485	60617.94
607.843	60735.68
608.2	60805.51
608.557	60956.24
608.914	60797.37
609.272	60984.03
609.629	61012.05
609.986	61117.36
610.343	60955.11
610.7	61104.03
611.057	61121.43
611.414	61058.15
611.771	61059.06
612.127	61126.4
612.484	61035.78
612.841	61043.01
613.198	61014.31
613.554	61059.74
613.911	61137.7
614.267	61136.57
614.624	61058.83
614.98	61050.02
615.337	61185.61
615.693	61090.47
616.05	61080.98
616.406	61197.59
616.762	61107.19
617.118	61115.55
617.475	61106.74
617.831	61223.12
618.187	61287.75
618.543	61240.97
618.899	61352.84
619.255	61301.76
619.611	61332.27
619.967	61323.46
620.323	61408.65
620.678	61307.87
621.034	61274.65
621.39	61302.67
621.746	61310.58
622.101	61513.96
622.457	61291.82
622.812	61414.76
623.168	61516.22
623.523	61552.6
623.879	61524.36
624.234	61442.55
624.589	61449.1
624.945	61513.51
625.3	61585.6
625.655	61517.13
626.01	61657.91
626.365	61572.94
626.72	61563.45
627.075	61566.16
627.43	61515.54
627.785	61523.23
628.14	61513.96
628.495	61549.89
628.85	61522.32
629.205	61400.07
629.559	61453.17
629.914	61358.03
630.269	61342.44
630.623	61286.62
630.978	61229.45
631.332	61274.19
631.687	61311.93
632.041	61194.65
632.396	61175.67
632.75	61106.51
633.104	61132.5
633.459	60936.8
633.813	60976.57
634.167	60954.65
634.521	60884.37
634.875	60913.53
635.229	60857.03
635.583	60740.42
635.937	60802.57
636.291	60725.51
636.645	60756.69
636.999	60715.11
637.352	60724.15
637.706	60590.6
638.06	60645.74
638.413	60522.35
638.767	60547.66
639.121	60542.46
639.474	60415.91
639.828	60471.5
640.181	60465.18
640.534	60503.37
640.888	60346.99
641.241	60316.25
641.594	60270.15
641.947	60410.71
642.301	60353.99
642.654	60375.01
643.007	60371.62
643.36	60255.24
643.713	60324.84
644.066	60471.5
644.419	60251.85
644.771	60109.25
645.124	59894.8
645.477	59924.4
645.83	59698.42
646.182	59575.48
646.535	59441.47
646.888	59570.51
647.24	59391.98
647.593	59495.94
647.945	59378.65
648.298	59342.27
648.65	59300.23
649.002	59269.05
649.355	59207.36
649.707	59186.57
650.059	59290.74
650.411	59497.07
650.763	59586.33
651.115	59722.82
651.467	59671.98
651.819	59612.32
652.171	59570.06
652.523	59509.72
652.875	59452.77
653.227	59328.26
653.578	59462.72
653.93	59408.71
654.282	59246.45
654.633	59148.6
654.985	59239.45
655.337	59243.74
655.688	59219.33
656.039	59226.34
656.391	59082.16
656.742	59072.44
657.094	59057.08
657.445	59123.06
657.796	59062.73
658.147	58949.28
658.498	58978.44
658.849	59011.65
659.2	58911.77
659.551	58925.1
659.902	58960.58
660.253	58896.86
660.604	59004.42
660.955	58881.04
661.306	58997.64
661.656	58932.33
662.007	58951.54
662.358	58962.39
662.708	58929.17
663.059	59026.57
663.409	58763.3
663.76	58958.32
664.11	58862.28
664.461	58999.9
664.811	59041.71
665.161	58999.23
665.511	58920.13
665.862	58977.08
666.212	58992.22
666.562	59032.9
666.912	58934.82
667.262	58890.08
667.612	58813.24
667.962	58885.56
668.312	58808.04
668.662	58908.61
669.011	58787.03
669.361	58658.44
669.711	58706.13
670.06	58659.12
670.41	58594.94
670.76	58557.88
671.109	58659.8
671.459	58551.78
671.808	58512.46
672.157	58526.92
672.507	58266.14
672.856	58295.29
673.205	58294.61
673.554	58351.33
673.904	58239.02
674.253	58319.02
674.602	58186.59
674.951	57868.63
675.3	57733.95
675.649	58144.33
675.998	58078.57
676.346	58116.31
676.695	58152.92
677.044	57919.25
677.393	57954.06
677.741	58012.81
678.09	57861.18
678.438	57831.57
678.787	57961.96
679.135	57891.46
679.484	57770.33
679.832	57897.56
680.181	57651.69
680.529	57724.23
680.877	57620.05
681.225	57734.63
681.573	57823.21
681.922	57648.53
682.27	57633.84
682.618	57662.76
682.966	57557
683.314	57651.01
683.661	57535.76
684.009	57419.83
684.357	57398.14
684.705	57391.58
685.053	57470.45
685.4	57385.48
685.748	57257.35
686.095	57252.15
686.443	57214.41
686.79	57125.6
687.138	57210.35
687.485	57134.42
687.832	56968.54
688.18	57043.34
688.527	56833.63
688.874	56884.03
689.221	56836.8
689.568	56685.39
689.915	56633.86
690.262	56635.67
690.609	56566.3
690.956	56432.74
691.303	56433.19
691.65	56248.56
691.997	56188.9
692.344	56089.7
692.69	56003.37
693.037	56030.49
693.383	55736.26
693.73	55812.19
694.077	55589.15
694.423	55598.64
694.769	55509.15
695.116	55355.25
695.462	55305.31
695.808	55237.06
696.155	55250.17
696.501	54969.27
696.847	54942.16
697.193	54717.08
697.539	54854.25
697.885	54665.55
698.231	54446.12
698.577	54379.91
698.923	54397.54
699.269	54301.27
699.614	54187.15
699.96	54059.47
700.306	54132.46
700.651	53993.71
700.997	53870.09
701.342	53802.75
701.688	53802.53
702.033	53735.18
702.379	53725.24
702.724	53552.59
703.069	53697.44
703.415	53317.34
703.76	53373.61
704.105	53351.46
704.45	53220.85
704.795	53120.06
705.14	53048.65
705.485	53113.05
705.83	52902.21
706.175	52943.34
706.52	52809.78
706.865	52719.16
707.209	52822.21
707.554	52706.74
707.899	52803.68
708.243	52573.86
708.588	52563.01
708.932	52403.69
709.277	52374.54
709.621	52400.53
709.966	52146.98
710.31	52276.46
710.654	51879.41
710.998	52075.57
711.342	51998.05
711.687	51908.79
712.031	51826.08
712.375	51607.56
712.719	51602.58
713.063	51503.83
713.407	51626.99
713.75	51405.98
714.094	51326.88
714.438	51171.86
714.782	51191.75
715.125	51076.5
715.469	51137.06
715.812	50841.25
716.156	50589.28
716.499	50596.96
716.843	50665.21
717.186	50307.93
717.53	50541.82
717.873	50538.66
718.216	50367.36
718.559	50121.94
718.902	49858.9
719.246	49919.46
719.589	49772.12
719.932	49636.08
720.275	49580.72
720.617	49570.09
720.96	49366.26
721.303	49347.73
721.646	49273.83
721.989	49002.43
722.331	49172.37
722.674	49017.79
723.016	48879.49
723.359	48921.75
723.701	48862.32
724.044	48528.77
724.386	48435.44
724.729	48642.44
725.071	48445.6
725.413	48530.12
725.755	48299.85
726.097	48164.03
726.439	48063.24
726.782	48034.32
727.124	48349.34
727.465	47997.25
727.807	48087.87
728.149	47975.56
728.491	47864.38
728.833	47917.48
729.175	47958.16
729.516	47835.9
729.858	47793.42
730.199	47713.65
730.541	47691.27
730.882	47580.77
731.224	47794.32
731.565	47468.46
731.906	47616.25
732.248	47338.97
732.589	47458.96
732.93	47267.1
733.271	47229.37
733.612	47330.61
733.953	47323.83
734.294	47111.63
734.635	47002.48
734.976	47173.77
735.317	47038.86
735.658	47013.78
735.999	46738.53
736.339	46636.84
736.68	46824.18
737.021	46484.98
737.361	46383.06
737.702	46517.07
738.042	46343.06
738.383	46172.9
738.723	46404.75
739.063	46160.47
739.404	46207.7
739.744	46049.51
740.084	45814.26
740.424	45892.68
740.764	45698.78
741.104	45825.11
741.444	45378.79
741.784	45331.79
742.124	45454.5
742.464	45298.57
742.804	45213.15
743.143	45031.01
743.483	45001.63
743.823	44830.56
744.162	44740.17
744.502	44794.18
744.841	44529.1
745.181	44562.54
745.52	44334.53
745.86	44299.27
746.199	44338.82
746.538	44233.29
746.877	44208.43
747.216	44115.32
747.556	43798.5
747.895	43804.82
748.234	43636.69
748.573	43541.33
748.911	43314.44
749.25	43424.27
749.589	43355.57
749.928	43269.02
750.267	43292.97
750.605	43183.37
750.944	43050.94
751.283	42955.35
751.621	43019.53
751.96	42829.03
752.298	42834
752.636	42893.21
752.975	42622.03
753.313	42544.06
753.651	42564.63
753.989	42505.87
754.327	42372.09
754.666	42147.24
755.004	42177.29
755.342	42093.23
755.679	42193.57
756.017	41874.48
756.355	42049.84
756.693	41798.55
757.031	41800.81
757.368	41577.76
757.706	41550.19
758.044	41522.85
758.381	41522.62
758.719	41249.86
759.056	41443.08
759.394	41133.25
759.731	41096.42
760.068	41187.26
760.405	40914.5
760.743	40814.39
761.08	40871.57
761.417	40650.56
761.754	40526.04
762.091	40466.38
762.428	40321.52
762.765	40009.67
763.102	40101.19
763.438	39861.88
763.775	39648.55
764.112	39696
764.449	39678.83
764.785	39390.7
765.122	39078.39
765.458	39061.44
765.795	38917.27
766.131	38951.39
766.467	38716.37
766.804	38422.59
767.14	38275.25
767.476	38336.04
767.812	38127.23
768.148	38140.79
768.485	37863.96
768.821	37594.82
769.157	37494.03
769.492	37352.79
769.828	37480.02
770.164	36850.66
770.5	36869.86
770.836	36915.51
771.171	36466.26
771.507	36610.21
771.842	36205.02
772.178	36140.17
772.513	35991.02
772.849	35830.34
773.184	35629.9
773.519	35612.5
773.855	35405.27
774.19	35289.11
774.525	35139.74
774.86	35131.38
775.195	34942.46
775.53	34756.25
775.865	34643.71
776.2	34405.75
776.535	34216.83
776.87	34183.38
777.205	33993.1
777.539	33813.45
777.874	33874.91
778.209	33613
778.543	33546.79
778.878	33500.69
779.212	33302.05
779.547	33196.97
779.881	33197.64
780.215	33026.35
780.55	33236.06
780.884	32888.27
781.218	32855.28
781.552	32875.39
781.886	32596.53
782.22	32504.78
782.554	32443.77
782.888	32191.34
783.222	32126.03
783.556	31820.28
783.889	31686.95
784.223	31616.89
784.557	31670.9
784.89	31607.86
785.224	31386.84
785.557	31280.41
785.891	31260.52
786.224	31285.83
786.558	31244.7
786.891	31032.73
787.224	30889.23
787.557	30793.64
787.891	30741.89
788.224	30675
788.557	30739.18
788.89	30683.36
789.223	30609.92
789.556	30436.81
789.888	30238.63
790.221	30082.92
790.554	29860.78
790.887	29910.27
791.219	29791.63
791.552	29612.43
791.884	29543.28
792.217	29303.06
792.549	29271.42
792.882	29093.35
793.214	29028.94
793.546	29019
793.879	28701.94
794.211	28549.63
794.543	28658.78
794.875	28489.52
795.207	28705.33
795.539	28538.78
795.871	28350.09
796.203	28092.92
796.535	27932.25
796.867	27732.48
797.198	27745.58
797.53	27798.01
797.862	27560.96
798.193	27633.72
798.525	27362.54
798.856	27282.55
799.188	26974.98
799.519	26914.42
799.85	26821.09
800.182	26879.84
800.513	26859.96
800.844	26484.37
801.175	26656.8
801.506	26594.65
801.837	26354.43
802.168	26314.21
802.499	26241.67
802.83	26028.34
803.161	25901.79
803.491	25923.71
803.822	25913.32
804.153	25581.35
804.483	25441.69
804.814	25486.21
805.145	25326.89
805.475	25304.74
805.805	25170.06
806.136	25181.58
806.466	25201.24
806.796	25187.23
807.126	24907.69
807.457	24844.64
807.787	24873.12
808.117	24731.88
808.447	24665.21
808.777	24711.09
809.107	24525.56
809.436	24421.83
809.766	24401.49
810.096	24333.47
810.426	24291.89
810.755	24428.38
811.085	24219.58
811.414	24322.4
811.744	24119.24
812.073	24068.39
812.403	23947.72
812.732	24015.51
813.061	23997.21
813.39	23827.27
813.719	23747.05
814.049	23863.2
814.378	23725.8
814.707	23678.8
815.036	23616.88
815.365	23546.82
815.693	23455.53
816.022	23469.31
816.351	23453.04
816.68	23316.55
817.008	23366.94
817.337	23215.53
817.665	23168.76
817.994	23306.6
818.322	23291.01
818.651	23105.93
818.979	22968.76
819.307	23100.96
819.636	23027.97
819.964	22903.9
820.292	22889.44
820.62	22862.32
820.948	22698.94
821.276	22861.42
821.604	22821.65
821.932	22879.27
822.259	22857.12
822.587	22864.81
822.915	22664.14
823.243	22783.68
823.57	22711.82
823.898	22771.48
824.225	22606.51
824.553	22596.57
824.88	22756.34
825.207	22718.6
825.535	22693.06
825.862	22622.55
826.189	22636.79
826.516	22782.78
826.843	22743.91
827.17	22730.35
827.497	22608.09
827.824	22572.16
828.151	22588.43
828.478	22566.96
828.805	22549.79
829.131	22409.23
829.458	22422.11
829.785	22324.94
830.111	22293.98
830.438	22472.28
830.764	22404.03
831.09	22523.35
831.417	22190.48
831.743	22478.83
832.069	22327.2
832.395	22199.52
832.722	22338.49
833.048	22218.5
833.374	22191.83
833.7	22085.85
834.026	22216.46
834.351	22045.39
834.677	22082.23
835.003	22070.25
835.329	21960.43
835.654	22040.42
835.98	21806.53
836.306	21938.05
836.631	21777.15
836.956	21867.09
837.282	21745.29
837.607	21637.72
837.932	21594.33
838.258	21551.62
838.583	21712.07
838.908	21485.64
839.233	21604.73
839.558	21510.27
839.883	21402.47
840.208	21225.3
840.533	21316.83
840.858	21350.72
841.182	21380.33
841.507	21314.57
841.832	21255.36
842.156	21143.05
842.481	21111.63
842.805	21156.15
843.13	21080.67
843.454	21052.2
843.778	20907.12
844.103	20968.81
844.427	20799.1
844.751	20910.28
845.075	20889.95
845.399	20904.41
845.723	20783.28
846.047	20877.29
846.371	20632.78
846.695	20748.03
847.019	20515.94
847.343	20461.48
847.666	20403.86
847.99	20278.44
848.313	20231.66
848.637	20125.9
848.96	20181.94
849.284	20121.83
849.607	20016.97
849.931	20017.65
850.254	19913.47
850.577	19788.05
850.9	19678.45
851.223	19709.41
851.546	19675.29
851.869	19520.72
852.192	19588.28
852.515	19545.12
852.838	19384.22
853.161	19315.52
853.483	19325.01
853.806	19179.93
854.129	19235.3
854.451	19152.36
854.774	19040.05
855.096	19031.01
855.419	19005.25
855.741	18957.11
856.063	18864.24
856.385	18814.75
856.708	18610.46
857.03	18571.36
857.352	18522.78
857.674	18443.46
857.996	18345.38
858.318	18306.06
858.64	18431.25
858.961	18286.85
859.283	18165.27
859.605	18126.85
859.926	18167.98
860.248	18167.3
860.57	18110.58
860.891	18059.51
861.212	17852.74
861.534	17783.36
861.855	17715.34
862.176	17857.93
862.498	17689.58
862.819	17775
863.14	17570.94
863.461	17599.64
863.782	17623.82
864.103	17482.8
864.424	17434.89
864.745	17453.65
865.065	17289.81
865.386	17297.27
865.707	17302.02
866.027	17235.35
866.348	17204.62
866.668	17268.8
866.989	17078.29
867.309	16983.16
867.63	17035.36
867.95	16970.73
868.27	16900.22
868.59	16972.99
868.91	16933.89
869.23	16928.02
869.55	16795.14
869.87	16896.15
870.19	16847.34
870.51	16744.29
870.83	16753.1
871.15	16714.46
871.469	16568.7
871.789	16686.67
872.109	16694.58
872.428	16528.48
872.748	16547.91
873.067	16576.84
873.386	16551.75
873.706	16662.26
874.025	16425.43
874.344	16435.6
874.663	16400.57
874.982	16471.76
875.301	16355.38
875.62	16308.6
875.939	16344.53
876.258	16388.82
876.577	16261.82
876.896	16218.88
877.214	16170.97
877.533	16232.89
877.852	16270.86
878.17	16250.29
878.489	16277.64
878.807	16336.62
879.125	16278.31
879.444	16201.48
879.762	16217.75
880.08	16279.9
880.398	16215.72
880.716	16217.3
881.034	16011.66
881.352	16102.95
881.67	16081.71
881.988	16133.91
882.306	16062.95
882.624	16076.96
882.941	15994.71
883.259	16007.14
883.577	16015.5
883.894	15996.29
884.212	15928.49
884.529	15897.31
884.846	15858.44
885.164	15821.15
885.481	15834.48
885.798	15786.8
886.115	15746.8
886.432	15751.1
886.75	15671.78
887.067	15666.58
887.383	15655.28
887.7	15603.98
888.017	15626.35
888.334	15636.75
888.651	15530.76
888.967	15546.81
889.284	15410.77
889.6	15392.24
889.917	15351.33
890.233	15429.75
890.55	15326.93
890.866	15229.08
891.182	15206.7
891.498	15216.42
891.815	15160.15
892.131	15138.23
892.447	15082.41
892.763	15107.05
893.079	14911.35
893.395	14906.83
893.71	14931.68
894.026	14906.37
894.342	14744.8
894.657	14701.41
894.973	14699.15
895.289	14653.5
895.604	14607.4
895.92	14535.08
896.235	14484.01
896.55	14508.19
896.865	14376.67
897.181	14364.69
897.496	14332.38
897.811	14333.28
898.126	14197.69
898.441	14156.56
898.756	14031.37
899.071	13993.86
899.386	14014.19
899.7	13890.81
900.015	13854.42
900.33	13769.23
900.644	13665.95
900.959	13734.2
901.273	13612.85
901.588	13542.34
901.902	13478.16
902.216	13509.12
902.531	13525.84
902.845	13341.44
903.159	13241.56
903.473	13201.11
903.787	13176.25
904.101	13139.87
904.415	13159.75
904.729	13055.8
905.042	12920.89
905.356	13002.92
905.67	12912.98
905.984	12917.05
906.297	12872.3
906.611	12730.39
906.924	12703.49
907.237	12710.95
907.551	12696.71
907.864	12597.06
908.177	12540.11
908.491	12474.8
908.804	12479.32
909.117	12299.44
909.43	12301.7
909.743	12174.24
910.056	12096.73
910.368	12126.33
910.681	12089.27
910.994	12027.58
911.307	12009.27
911.619	11858.32
911.932	11996.62
912.244	11876.17
912.557	11804.76
912.869	11824.87
913.181	11718.89
913.494	11688.61
913.806	11660.81
914.118	11645.22
914.43	11521.15
914.742	11575.39
915.054	11447.71
915.366	11505.11
915.678	11463.75
915.99	11407.26
916.302	11328.84
916.613	11300.37
916.925	11334.94
917.236	11214.04
917.548	11205.45
917.859	11200.48
918.171	11148.96
918.482	11063.08
918.794	10972.92
919.105	11034.39
919.416	10946.7
919.727	10939.7
920.038	10914.39
920.349	10849.31
920.66	10795.52
920.971	10815.41
921.282	10712.13
921.593	10718.24
921.903	10595.3
922.214	10634.4
922.525	10514.4
922.835	10484.79
923.146	10553.72
923.456	10478.47
923.767	10480.5
924.077	10423.1
924.387	10446.15
924.697	10313.95
925.008	10363.44
925.318	10248.19
925.628	10251.58
925.938	10228.53
926.248	10157.12
926.558	10056.33
926.867	10092.04
927.177	9985.83
927.487	9963.45
927.796	9878.48
928.106	9912.15
928.416	9809.78
928.725	9847.75
929.034	9818.37
929.344	9826.06
929.653	9724.14
929.962	9661.77
930.271	9661.77
930.581	9555.55
930.89	9508.78
931.199	9462
931.508	9458.83
931.817	9412.51
932.125	9326.18
932.434	9313.07
932.743	9240.99
933.051	9255.9
933.36	9191.95
933.669	9170.71
933.977	9079.86
934.286	9038.96
934.594	9103.14
934.902	8935.68
935.21	8940.65
935.519	8973.65
935.827	8897.49
936.135	8805.97
936.443	8765.97
936.751	8730.72
937.059	8723.94
937.367	8670.83
937.674	8609.14
937.982	8586.77
938.29	8498.63
938.597	8548.8
938.905	8419.31
939.213	8403.49
939.52	8352.87
939.827	8404.85
940.135	8299.32
940.442	8292.76
940.749	8279.2
941.056	8217.28
941.363	8146.33
941.67	8102.71
941.977	8055.03
942.284	7992.66
942.591	7984.07
942.898	7946.78
943.205	7961.47
943.511	7898.42
943.818	7827.69
944.125	7776.62
944.431	7761.93
944.738	7723.74
945.044	7747.01
945.35	7668.6
945.657	7602.61
945.963	7597.64
946.269	7540.69
946.575	7509.28
946.881	7472.44
947.187	7427.93
947.493	7339.79
947.799	7387.93
948.105	7289.62
948.41	7274.94
948.716	7248.04
949.022	7272
949.327	7229.29
949.633	7137.54
949.938	7143.19
950.244	7113.58
950.549	7076.07
950.854	7047.37
951.16	6969.63
951.465	7009.41
951.77	7049.41
952.075	6933.7
952.38	6903.19
952.685	6892.57
952.99	6863.87
953.294	6826.13
953.599	6804.67
953.904	6766.47
954.209	6736.87
954.513	6756.31
954.818	6657.78
955.122	6668.85
955.426	6607.38
955.731	6570.55
956.035	6502.3
956.339	6540.04
956.643	6482.87
956.948	6490.55
957.252	6468.86
957.556	6449.87
957.86	6392.7
958.163	6430.66
958.467	6387.28
958.771	6365.58
959.075	6278.13
959.378	6274.51
959.682	6277
959.985	6272.02
960.289	6254.4
960.592	6150.9
960.896	6166.26
961.199	6115.87
961.502	6158.58
961.805	6122.42
962.108	6049.66
962.411	6071.58
962.714	5972.37
963.017	5991.13
963.32	6019.6
963.623	5944.12
963.926	5954.74
964.228	5948.19
964.531	5903.67
964.833	5906.38
965.136	5893.73
965.438	5872.71
965.741	5783.45
966.043	5740.06
966.345	5799.04
966.648	5746.39
966.95	5741.87
967.252	5711.81
967.554	5677.92
967.856	5615.77
968.158	5586.17
968.46	5573.96
968.761	5519.05
969.063	5532.61
969.365	5512.04
969.666	5510.46
969.968	5433.85
970.269	5399.73
970.571	5455.77
970.872	5417.13
971.174	5360.41
971.475	5383.23
971.776	5350.01
972.077	5265.95
972.378	5283.35
972.679	5280.64
972.98	5219.17
973.281	5247.64
973.582	5188.89
973.883	5154.54
974.183	5141.66
974.484	5093.07
974.785	5136.91
975.085	5072.28
975.386	5067.31
975.686	5023.7
975.986	4994.54
976.287	5018.05
976.587	4926.97
976.887	4917.03
977.187	4937.14
977.487	4856.69
977.787	4813.76
978.087	4863.7
978.387	4786.41
978.687	4759.52
978.987	4736.92
979.286	4700.99
979.586	4720.43
979.885	4683.14
980.185	4643.82
980.484	4646.53
980.784	4566.31
981.083	4560.66
981.382	4582.35
981.682	4570.37
981.981	4533.09
982.28	4521.11
982.579	4458.06
982.878	4475.24
983.177	4471.17
983.475	4429.81
983.774	4360.44
984.073	4376.48
984.372	4352.07
984.67	4341.68
984.969	4353.88
985.267	4262.81
985.566	4291.51
985.864	4298.06
986.162	4246.77
986.461	4213.55
986.759	4162.25
987.057	4161.35
987.355	4163.15
987.653	4109.14
987.951	4134.91
988.249	4057.62
988.547	4046.32
988.844	4022.14
989.142	3961.58
989.44	3993.89
989.737	3980.56
990.035	3951.63
990.332	3912.09
990.63	3903.73
990.927	3917.51
991.224	3866.66
991.521	3892.2
991.819	3826.44
992.116	3849.26
992.413	3791.64
992.71	3752.77
993.006	3760.9
993.303	3754.58
993.6	3729.04
993.897	3711.19
994.193	3711.64
994.49	3658.31
994.787	3639.33
995.083	3619.21
995.379	3602.72
995.676	3642.49
995.972	3544.19
996.268	3588.93
996.565	3546.45
996.861	3522.49
997.157	3553.23
997.453	3487.01
997.749	3497.86
998.044	3457.64
998.34	3443.62
998.636	3436.39
998.932	3416.96
999.227	3377.86
999.523	3366.79
999.818	3339.9
1000.114	3329.73
1000.409	3300.13
1000.704	3311.42
1001	3280.01
1001.295	3277.53
1001.59	3255.15
1001.885	3242.73
1002.18	3235.95
1002.475	3228.71
1002.77	3167.93
1003.065	3188.26
1003.359	3162.73
1003.654	3127.93
1003.949	3110.07
1004.243	3103.29
1004.538	3064.43
1004.832	3051.09
1005.127	3054.26
1005.421	3013.13
1005.715	3012.9
1006.009	3018.55
1006.304	2968.16
1006.598	2946.46
1006.892	2931.1
1007.186	2935.39
1007.48	2938.55
1007.773	2882.51
1008.067	2862.85
1008.361	2866.46
1008.655	2828.27
1008.948	2866.92
1009.242	2805.45
1009.535	2784.66
1009.829	2805.67
1010.122	2789.63
1010.415	2743.3
1010.708	2740.82
1011.001	2705.56
1011.295	2706.92
1011.588	2675.28
1011.881	2671.22
1012.173	2649.97
1012.466	2644.78
1012.759	2636.41
1013.052	2644.32
1013.344	2569.97
1013.637	2580.82
1013.93	2560.94
1014.222	2557.32
1014.514	2541.5
1014.807	2501.28
1015.099	2495.17
1015.391	2492.46
1015.683	2463.54
1015.976	2443.42
1016.268	2398.68
1016.56	2441.84
1016.851	2411.79
1017.143	2407.27
1017.435	2375.4
1017.727	2372.47
1018.018	2358.68
1018.31	2361.84
1018.602	2322.98
1018.893	2299.25
1019.185	2304.45
1019.476	2266.71
1019.767	2267.61
1020.058	2239.81
1020.35	2237.78
1020.641	2198.69
1020.932	2210.89
1021.223	2195.07
1021.514	2151.91
1021.804	2137.9
1022.095	2104
1022.386	2085.92
1022.677	2097.67
1022.967	2082.53
1023.258	2074.85
1023.548	2076.2
1023.839	2009.31
1024.129	2011.57
1024.419	1977
1024.709	1984.45
1025	1957.56
1025.29	1961.63
1025.58	1941.06
1025.87	1948.97
1026.16	1945.58
1026.449	1914.4
1026.739	1851.58
1027.029	1867.62
1027.319	1871.01
1027.608	1841.86
1027.898	1818.36
1028.187	1796.21
1028.477	1805.25
1028.766	1780.62
1029.055	1773.84
1029.344	1741.97
1029.634	1732.48
1029.923	1755.08
1030.212	1724.12
1030.501	1682.99
1030.79	1688.19
1031.078	1678.02
1031.367	1651.58
1031.656	1630.56
1031.945	1647.29
1032.233	1654.07
1032.522	1614.97
1032.81	1577.23
1033.099	1624.46
1033.387	1600.06
1033.675	1588.98
1033.963	1574.75
1034.251	1571.81
1034.54	1526.39
1034.828	1546.95
1035.116	1516.9
1035.403	1497.01
1035.691	1478.7
1035.979	1462.21
1036.267	1476.22
1036.554	1456.78
1036.842	1419.72
1037.129	1429.89
1037.417	1432.6
1037.704	1424.69
1037.992	1411.59
1038.279	1380.18
1038.566	1361.87
1038.853	1361.87
1039.14	1361.87
