Data from aluminium_macbook_case_FLMS001491_029.txt Node
Date: Tue Feb 07 10:43:27 GMT 2017
User: dcchb
Spectrometer: FLMS00149
Trigger mode: 0
Integration Time (sec): 2.000000E-2
Scans to average: 10
Electric dark correction enabled: true
Nonlinearity correction enabled: false
Boxcar width: 0
XAxis mode: Wavelengths
Number of Pixels in Spectrum: 2048
>>>>>Begin Spectral Data<<<<<
341.393	-4
341.776	-4
342.16	-4
342.543	-74.96
342.927	-55.3
343.31	-85.58
343.693	-54.84
344.077	-67.95
344.46	-74.05
344.843	-45.13
345.226	-39.02
345.61	-34.05
345.993	-1.74
346.376	-4.22
346.759	10.92
347.142	25.38
347.525	44.14
347.908	64.7
348.291	62.89
348.674	77.58
349.057	120.97
349.44	118.26
349.823	134.76
350.206	162.55
350.588	228.54
350.971	255.43
351.354	270.12
351.737	277.8
352.119	270.57
352.502	311.02
352.884	325.71
353.267	337.46
353.65	325.94
354.032	351.02
354.414	340.85
354.797	375.65
355.179	370.46
355.562	380.63
355.944	382.89
356.326	389.21
356.709	394.64
357.091	377.46
357.473	403.45
357.855	413.85
358.238	420.17
358.62	391.47
359.002	421.75
359.384	408.65
359.766	398.25
360.148	401.87
360.53	408.87
360.912	420.62
361.294	408.2
361.676	417.69
362.057	410.46
362.439	420.4
362.821	426.05
363.203	422.66
363.584	432.6
363.966	422.66
364.348	413.62
364.729	421.53
365.111	429.44
365.493	415.43
365.874	407.07
366.256	430.57
366.637	435.99
367.019	402.55
367.4	396.67
367.781	413.85
368.163	419.49
368.544	417.23
368.925	428.31
369.306	428.76
369.688	441.64
370.069	418.82
370.45	425.6
370.831	419.04
371.212	448.65
371.593	435.31
371.974	452.04
372.355	456.33
372.736	467.4
373.117	480.28
373.498	472.37
373.879	451.13
374.26	451.13
374.641	437.8
375.021	428.76
375.402	478.25
375.783	487.29
376.163	512.6
376.544	511.47
376.925	511.47
377.305	504.46
377.686	486.61
378.066	514.41
378.447	506.27
378.827	522.09
379.208	516.22
379.588	501.75
379.968	532.26
380.349	533.39
380.729	552.82
381.109	555.08
381.489	541.3
381.87	555.76
382.25	571.36
382.63	553.5
383.01	576.1
383.39	589.21
383.77	586.27
384.15	600.05
384.53	599.6
384.91	591.92
385.29	591.92
385.67	609.77
386.049	625.14
386.429	619.94
386.809	610.68
387.189	631.24
387.568	643.22
387.948	656.78
388.328	676.89
388.707	667.62
389.087	657.68
389.466	689.09
389.846	710.79
390.225	719.83
390.605	729.09
390.984	745.81
391.363	743.1
391.743	760.05
392.122	761.86
392.501	752.14
392.881	778.36
393.26	783.1
393.639	781.52
394.018	832.82
394.397	792.14
394.776	820.84
395.155	844.79
395.534	821.07
395.913	817.45
396.292	861.52
396.671	838.92
397.05	870.1
397.429	876.88
397.808	880.5
398.186	905.58
398.565	904.23
398.944	887.05
399.323	926.83
399.701	910.1
400.08	968.41
400.458	946.71
400.837	972.7
401.215	965.24
401.594	965.02
401.972	997.11
402.351	1016.32
402.729	1021.96
403.107	1041.4
403.486	1041.17
403.864	1055.41
404.242	1066.48
404.62	1084.79
404.999	1097.67
405.377	1073.26
405.755	1096.54
406.133	1147.61
406.511	1155.52
406.889	1150.1
407.267	1184.45
407.645	1205.91
408.023	1237.1
408.401	1229.87
408.779	1243.88
409.156	1280.26
409.534	1275.07
409.912	1313.26
410.29	1329.3
410.667	1353.71
411.045	1360.49
411.422	1365.91
411.8	1379.47
412.178	1420.15
412.555	1452.91
412.933	1438.9
413.31	1463.76
413.687	1505.57
414.065	1519.13
414.442	1531.1
414.819	1553.48
415.197	1593.93
415.574	1642.29
415.951	1616.53
416.328	1651.78
416.705	1666.69
417.082	1658.33
417.46	1660.37
417.837	1708.5
418.214	1729.06
418.591	1769.74
418.967	1729.29
419.344	1790.53
419.721	1798.44
420.098	1844.54
420.475	1861.26
420.852	1893.58
421.228	1893.13
421.605	1932
421.982	1933.35
422.358	1943.75
422.735	1981.94
423.111	1958.44
423.488	2016.06
423.864	2028.94
424.241	2049.96
424.617	2109.85
424.994	2128.83
425.37	2149.84
425.746	2149.17
426.123	2160.24
426.499	2172.89
426.875	2221.03
427.251	2311.87
427.627	2302.38
428.003	2321.59
428.379	2411.76
428.756	2406.11
429.132	2467.12
429.507	2491.53
429.883	2536.73
430.259	2554.58
430.635	2583.51
431.011	2621.7
431.387	2666.89
431.763	2740.34
432.138	2720.45
432.514	2785.76
432.89	2823.27
433.265	2875.48
433.641	2878.64
434.016	2895.81
434.392	2982.82
434.767	3029.14
435.143	3043.15
435.518	3083.15
435.894	3126.99
436.269	3175.35
436.644	3257.84
437.02	3222.81
437.395	3270.95
437.77	3306.88
438.145	3368.12
438.52	3418.96
438.895	3412.18
439.271	3452.64
439.646	3580.77
440.021	3511.84
440.395	3525.63
440.77	3515.46
441.145	3585.29
441.52	3671.84
441.895	3686.98
442.27	3728.11
442.645	3716.36
443.019	3792.51
443.394	3806.52
443.769	3806.98
444.143	3829.35
444.518	3865.51
444.892	3888.56
445.267	3950.7
445.641	3988.89
446.016	4025.5
446.39	4093.75
446.764	4066.63
447.139	4128.32
447.513	4152.28
447.887	4173.07
448.262	4234.76
448.636	4237.93
449.01	4308.43
449.384	4301.65
449.758	4386.62
450.132	4400.63
450.506	4425.72
450.88	4487.41
451.254	4485.15
451.628	4589.1
452.002	4639.72
452.376	4587.29
452.75	4701.64
453.123	4757.23
453.497	4883.78
453.871	4858.25
454.244	4964.91
454.618	5047.4
454.992	5097.34
455.365	5107.96
455.739	5291.91
456.112	5289.65
456.486	5359.7
456.859	5347.95
457.232	5487.16
457.606	5516.76
457.979	5564.67
458.352	5660.94
458.725	5709.07
459.099	5787.49
459.472	5882.85
459.845	5981.16
460.218	5999.46
460.591	6142.28
460.964	6138.67
461.337	6263.41
461.71	6356.51
462.083	6496.4
462.456	6483.74
462.829	6535.94
463.201	6747.92
463.574	6691.65
463.947	6786.78
464.32	6957.85
464.692	7020
465.065	7140.67
465.438	7215.25
465.81	7345.64
466.183	7356.94
466.555	7587.89
466.928	7599.64
467.3	7592.64
467.672	7773.88
468.045	7886.42
468.417	8019.75
468.789	8054.55
469.161	8136.13
469.534	8306.29
469.906	8483.46
470.278	8577.7
470.65	8635.55
471.022	8907.41
471.394	9003.9
471.766	9038.93
472.138	9242.31
472.51	9427.85
472.882	9542.19
473.253	9693.38
473.625	9837.33
473.997	10094.04
474.369	10118.9
474.74	10272.57
475.112	10503.3
475.484	10584.43
475.855	10763.86
476.227	10942.83
476.598	11277.06
476.97	11337.17
477.341	11479.77
477.713	11720.44
478.084	11795.92
478.455	12096.93
478.827	12292.85
479.198	12576.01
479.569	12585.95
479.94	12890.81
480.311	13124.7
480.682	13468.19
481.053	13756.32
481.424	13951.34
481.795	14063.43
482.166	14392.01
482.537	14534.6
482.908	14938.89
483.279	15124.87
483.65	15317.18
484.021	15638.08
484.391	15823.61
484.762	16032.87
485.133	16177.05
485.503	16410.94
485.874	16767.99
486.244	16899.06
486.615	17319.16
486.985	17456.56
487.356	17742.88
487.726	17932.25
488.097	18305.58
488.467	18321.85
488.837	18669.86
489.207	18934.26
489.578	19214.03
489.948	19359.56
490.318	19695.6
490.688	19813.11
491.058	20095.36
491.428	20294.9
491.798	20637.49
492.168	20973.53
492.538	21103.7
492.908	21456.91
493.278	21724.92
493.648	21832.49
494.017	22140.28
494.387	22252.37
494.757	22542.08
495.126	22790.21
495.496	22870.43
495.866	23044.66
496.235	23295.96
496.605	23546.57
496.974	23683.97
497.344	23858.88
497.713	24015.26
498.082	24181.58
498.452	24382.48
498.821	24599.42
499.19	24655.24
499.559	24902.01
499.928	25029.47
500.298	25173.65
500.667	25533.18
501.036	25551.04
501.405	25769.56
501.774	25861.31
502.143	26059.05
502.512	26205.03
502.88	26573.38
503.249	26606.38
503.618	26879.59
503.987	26975.18
504.356	27241.39
504.724	27435.73
505.093	27608.61
505.462	27869.85
505.83	27986.23
506.199	28208.14
506.567	28527
506.936	28533.78
507.304	28960.21
507.672	29034.56
508.041	29154.78
508.409	29250.37
508.777	29626.64
509.145	29692.4
509.514	29899.17
509.882	30045.83
510.25	30123.12
510.618	30439.72
510.986	30656.21
511.354	30922.2
511.722	31146.6
512.09	31393.6
512.458	31368.74
512.826	31702.97
513.193	31926.24
513.561	32118.32
513.929	32293.01
514.297	32724.86
514.664	32883.27
515.032	32953.1
515.4	33394.9
515.767	33704.04
516.135	33843.25
516.502	33671.95
516.869	34427.19
517.237	34536.34
517.604	34591.48
517.972	35024.01
518.339	35127.73
518.706	35452.7
519.073	35474.62
519.44	35864.89
519.808	36229.63
520.175	36113.25
520.542	36688.82
520.909	36862.83
521.276	36829.61
521.643	37244.06
522.009	37478.18
522.376	37774.9
522.743	38070.26
523.11	38317.03
523.477	38645.61
523.843	38891.25
524.21	39298.25
524.577	39535.75
524.943	39692.59
525.31	40139.35
525.676	40338.22
526.043	40603.97
526.409	40767.59
526.776	41377.74
527.142	41463.39
527.508	41873.32
527.874	42180.2
528.241	42325.29
528.607	42600.53
528.973	43011.37
529.339	43020.41
529.705	43481.19
530.071	43742.88
530.437	43906.94
530.803	44191.45
531.169	44447.72
531.535	44377.43
531.901	44589.41
532.267	44733.36
532.632	45069.85
532.998	45056.06
533.364	45305.09
533.73	45338.31
534.095	45667.8
534.461	45841.13
534.826	46153.43
535.192	46122.93
535.557	46556.36
535.923	46489.92
536.288	46642.91
536.653	46987.31
537.019	46785.73
537.384	46948.89
537.749	47128.1
538.114	47435.89
538.479	47465.26
538.845	47699.38
539.21	47715.65
539.575	47954.52
539.94	48207.84
540.305	48356.77
540.67	48495.07
541.034	48625.91
541.399	48742.74
541.764	48911.33
542.129	49090.98
542.494	49179.79
542.858	49410.97
543.223	49561.71
543.587	49621.14
543.952	49575.49
544.316	49760.34
544.681	49757.18
545.045	50045.08
545.41	50203.5
545.774	50314.91
546.138	50243.04
546.503	50294.12
546.867	50329.14
547.231	50688
547.595	50752.86
547.959	50762.58
548.324	50863.14
548.688	51003.02
549.052	51079.86
549.416	51108.78
549.779	51235.33
550.143	51377.25
550.507	51594.19
550.871	51693.85
551.235	51728.65
551.599	51950.57
551.962	52032.15
552.326	52058.59
552.689	52311.46
553.053	52230.11
553.417	52429.65
553.78	52831.68
554.143	52722.3
554.507	52969.3
554.87	53046.13
555.234	53325
555.597	53231.67
555.96	53405.67
556.323	53526.57
556.686	53566.8
557.05	53814.7
557.413	53941.03
557.776	53998.65
558.139	54172.66
558.502	54229.15
558.865	54280.45
559.228	54435.48
559.59	54511.41
559.953	54634.79
560.316	54868.23
560.679	54794.79
561.041	54995.23
561.404	55161.56
561.767	55384.38
562.129	55236.13
562.492	55529.46
562.854	55523.36
563.217	55574.88
563.579	55706.85
563.941	55874.08
564.304	55944.36
564.666	56122.66
565.028	56245.82
565.39	56291.02
565.753	56515.42
566.115	56586.61
566.477	56677.22
566.839	56740.95
567.201	56954.28
567.563	56881.96
567.925	57182.3
568.287	57149.98
568.648	57259.13
569.01	57453.25
569.372	57573.25
569.734	57506.58
570.095	57753.58
570.457	57842.17
570.819	57862.28
571.18	57901.15
571.542	58008.26
571.903	58068.15
572.265	58165.09
572.626	58235.38
572.987	58254.13
573.349	58260.23
573.71	58376.39
574.071	58340.23
574.432	58494.58
574.794	58629.04
575.155	58556.95
575.516	58468.14
575.877	58605.31
576.238	58688.7
576.599	58739.09
576.96	58857.96
577.32	58851.18
577.681	58904.06
578.042	58940.22
578.403	58883.04
578.763	58970.27
579.124	59027.9
579.485	59130.04
579.845	59147.22
580.206	59171.4
580.566	59147.22
580.927	59260.21
581.287	59323.93
581.648	59229.7
582.008	59395.35
582.368	59325.74
582.728	59369.36
583.089	59429.69
583.449	59477.6
583.809	59473.99
584.169	59475.34
584.529	59499.3
584.889	59674.89
585.249	59494.78
585.609	59516.7
585.969	59558.28
586.329	59507.88
586.688	59638.05
587.048	59576.81
587.408	59546.75
587.768	59472.18
588.127	59526.87
588.487	59397.38
588.846	59649.58
589.206	59371.39
589.565	59402.58
589.925	59528.9
590.284	59417.72
590.643	59416.81
591.003	59435.8
591.362	59495.91
591.721	59504.27
592.08	59462.46
592.44	59479.64
592.799	59542.23
593.158	59457.49
593.517	59463.14
593.876	59545.17
594.235	59487.32
594.593	59507.43
594.952	59582.68
595.311	59503.59
595.67	59607.99
596.029	59699.07
596.387	59699.07
596.746	59751.04
597.104	59639.63
597.463	59724.38
597.822	59792.85
598.18	59678.73
598.538	59742
598.897	59925.73
599.255	59768.89
599.613	60125.72
599.972	59914.43
600.33	59989.45
600.688	59881.89
601.046	59967.76
601.404	60058.38
601.762	60047.08
602.12	60124.14
602.478	60134.53
602.836	60084.82
603.194	59974.54
603.552	60053.41
603.91	59929.12
604.268	60109.45
604.625	60034.42
604.983	60145.16
605.341	59952.39
605.698	60029.45
606.056	60050.24
606.413	60037.81
606.771	60144.03
607.128	60106.29
607.485	60029.23
607.843	60060.86
608.2	60137.7
608.557	60230.13
608.914	60101.99
609.272	60245.04
609.629	60280.75
609.986	60374.53
610.343	60257.24
610.7	60425.83
611.057	60244.81
611.414	60381.53
611.771	60339.95
612.127	60495.88
612.484	60488.88
612.841	60551.7
613.198	60554.64
613.554	60591.47
613.911	60669.66
614.267	60675.99
614.624	60692.94
614.98	60743.78
615.337	60898.81
615.693	60817.45
616.05	60880.5
616.406	60932.93
616.762	60865.81
617.118	60886.38
617.475	60933.16
617.831	60965.7
618.187	60929.99
618.543	60963.44
618.899	61069.65
619.255	61042.08
619.611	61024.91
619.967	61048.63
620.323	61067.17
620.678	61050.44
621.034	61018.58
621.39	60971.57
621.746	60959.82
622.101	61116.88
622.457	60921.63
622.812	60906.04
623.168	60986.94
623.523	60910.33
623.879	60949.65
624.234	60775.65
624.589	60826.04
624.945	60851.35
625.3	60898.58
625.655	60753.73
626.01	60819.94
626.365	60800.73
626.72	60777.23
627.075	60795.31
627.43	60792.6
627.785	60736.78
628.14	60773.84
628.495	60789.21
628.85	60770.22
629.205	60664.01
629.559	60807.74
629.914	60736.78
630.269	60787.4
630.623	60714.86
630.978	60687.97
631.332	60759.6
631.687	60812.26
632.041	60696.55
632.396	60768.42
632.75	60684.35
633.104	60715.31
633.459	60610
633.813	60565.03
634.167	60670.79
634.521	60656.1
634.875	60674.41
635.229	60659.72
635.583	60543.79
635.937	60488.2
636.291	60464.7
636.645	60492.94
636.999	60344.7
637.352	60474.86
637.706	60278.26
638.06	60425.15
638.413	60295.21
638.767	60268.77
639.121	60283.46
639.474	60053.41
639.828	60094.31
640.181	60193.52
640.534	60044.14
640.888	59950.81
641.241	59826.52
641.594	59845.28
641.947	59907.87
642.301	59741.32
642.654	59730.03
643.007	59699.52
643.36	59705.39
643.713	59605.73
644.066	59632.63
644.419	59489.35
644.771	59344.72
645.124	59150.38
645.477	59041.23
645.83	58863.16
646.182	58837.62
646.535	58725.76
646.888	58772.08
647.24	58601.92
647.593	58789.03
647.945	58653.9
648.298	58614.35
648.65	58575.48
649.002	58450.96
649.355	58620
649.707	58542.26
650.059	58658.19
650.411	59002.36
650.763	59043.94
651.115	59270.15
651.467	59157.39
651.819	59230.6
652.171	59173.66
652.523	59160.32
652.875	59083.71
653.227	58963.27
653.578	59172.53
653.93	59130.27
654.282	59007.78
654.633	59006.65
654.985	58982.7
655.337	58972.08
655.688	58969.14
656.039	59050.95
656.391	58815.02
656.742	58783.61
657.094	58798.3
657.445	58895.47
657.796	58769.82
658.147	58736.61
658.498	58731.63
658.849	58767.34
659.2	58644.86
659.551	58553.56
659.902	58672.2
660.253	58541.58
660.604	58539.55
660.955	58433.56
661.306	58531.86
661.656	58371.87
662.007	58392.89
662.358	58325.32
662.708	58273.11
663.059	58277.86
663.409	58032.89
663.76	58236.73
664.11	58180.01
664.461	58206.68
664.811	58151.31
665.161	58051.43
665.511	58043.52
665.862	58032.22
666.212	58136.17
666.562	58119.9
666.912	58103.85
667.262	58100.24
667.612	58080.13
667.962	58105.44
668.312	58097.07
668.662	58233.57
669.011	58168.71
669.361	58087.58
669.711	58213.23
670.06	58075.83
670.41	58087.81
670.76	58094.59
671.109	58135.04
671.459	58147.47
671.808	58101.82
672.157	58162.38
672.507	57966.46
672.856	57950.41
673.205	57984.99
673.554	58035.83
673.904	57999.22
674.253	58108.37
674.602	58020.92
674.951	57614.6
675.3	57474.72
675.649	57921.94
675.998	57859.34
676.346	57850.53
676.695	57967.36
677.044	57747.7
677.393	57820.92
677.741	57747.03
678.09	57674.26
678.438	57632.23
678.787	57690.31
679.135	57619.8
679.484	57457.54
679.832	57552.23
680.181	57314.04
680.529	57339.13
680.877	57248.51
681.225	57203.31
681.573	57356.3
681.922	57104.56
682.27	57005.58
682.618	57021.85
682.966	56881.29
683.314	56992.47
683.661	56834.96
684.009	56619.37
684.357	56606.72
684.705	56587.06
685.053	56644.23
685.4	56453.05
685.748	56392.94
686.095	56395.65
686.443	56298.48
686.79	56299.83
687.138	56228.87
687.485	56223.9
687.832	56175.09
688.18	56232.72
688.527	56032.04
688.874	56067.3
689.221	56011.25
689.568	55944.14
689.915	55881.77
690.262	55865.72
690.609	55835.44
690.956	55787.53
691.303	55772.39
691.65	55661.66
691.997	55691.04
692.344	55465.05
692.69	55411.49
693.037	55444.49
693.383	55214.66
693.73	55387.99
694.077	55171.5
694.423	55138.06
694.769	55160.2
695.116	55066.19
695.462	55024.61
695.808	54885.18
696.155	54901.45
696.501	54748.24
696.847	54737.16
697.193	54534.46
697.539	54628.92
697.885	54362.03
698.231	54358.64
698.577	54374.46
698.923	54251.53
699.269	54162.49
699.614	53983.96
699.96	53854.02
700.306	53930.63
700.651	53726.34
700.997	53536.74
701.342	53475.73
701.688	53403.41
702.033	53335.84
702.379	53254.26
702.724	53157.09
703.069	53154.38
703.415	52817.44
703.76	52826.48
704.105	52757.33
704.45	52588.74
704.795	52490.89
705.14	52295.19
705.485	52240.96
705.83	52054.75
706.175	52146.04
706.52	52044.13
706.865	51859.95
707.209	51787.18
707.554	51647.75
707.899	51697.69
708.243	51544.48
708.588	51434.2
708.932	51222.45
709.277	51230.14
709.621	51295.67
709.966	51107.43
710.31	51177.03
710.654	50862.69
710.998	50922.35
711.342	51009.12
711.687	50902.01
712.031	50781.11
712.375	50617.72
712.719	50676.93
713.063	50569.36
713.407	50712.41
713.75	50581.79
714.094	50530.04
714.438	50432.64
714.782	50364.4
715.125	50339.54
715.469	50391.97
715.812	50295.7
716.156	49970.96
716.499	50097.96
716.843	50093.89
717.186	49782.04
717.53	49959.21
717.873	49881.47
718.216	49864.97
718.559	49650.97
718.902	49504.53
719.246	49533.23
719.589	49313.35
719.932	49184.77
720.275	49253.01
720.617	49134.37
720.96	48987.94
721.303	48945
721.646	49038.33
721.989	48737.77
722.331	48976.41
722.674	48783.65
723.016	48732.35
723.359	48633.82
723.701	48611
724.044	48467.72
724.386	48056.43
724.729	48240.16
725.071	48168.75
725.413	48025.93
725.755	48048.75
726.097	48024.12
726.439	47689.66
726.782	47457.35
727.124	47668.87
727.465	47428.2
727.807	47382.78
728.149	47290.13
728.491	47258.26
728.833	47171.49
729.175	46850.14
729.516	46762.91
729.858	46773.3
730.199	46821.21
730.541	46601.33
730.882	46486.53
731.224	46568.79
731.565	46351.17
731.906	46461.9
732.248	46405.4
732.589	46066.43
732.93	46056.03
733.271	45969.71
733.612	46211.74
733.953	46042.25
734.294	46022.14
734.635	45750.73
734.976	45847.23
735.317	45640.45
735.658	45461.93
735.999	45613.33
736.339	45525.88
736.68	45549.38
737.021	45559.55
737.361	45411.76
737.702	45524.75
738.042	45243.85
738.383	45357.3
738.723	45462.6
739.063	45218.09
739.404	45405.2
739.744	45177.41
740.084	45018.1
740.424	45094.03
740.764	44924.09
741.104	45102.84
741.444	44770.64
741.784	44845.45
742.124	44883.41
742.464	44579.92
742.804	44555.51
743.143	44487.49
743.483	44684.77
743.823	44269.87
744.162	44396.42
744.502	44387.15
744.841	44034.39
745.181	44128.4
745.52	44098.12
745.86	44057.44
746.199	43886.15
746.538	43905.36
746.877	43768.86
747.216	43745.81
747.556	43652.93
747.895	43620.84
748.234	43497.91
748.573	43460.85
748.911	43283.68
749.25	43162.78
749.589	43046.4
749.928	43032.61
750.267	42974.99
750.605	42727.53
750.944	42755.56
751.283	42572.96
751.621	42557.37
751.96	42381.1
752.298	42481.21
752.636	42421.55
752.975	42006.42
753.313	41870.16
753.651	41937.05
753.989	41566.21
754.327	41498.87
754.666	41364.63
755.004	41302.71
755.342	41327.12
755.679	41217.74
756.017	40951.31
756.355	41095.49
756.693	40975.94
757.031	40917.41
757.368	40676.29
757.706	40674.48
758.044	40501.38
758.381	40455.96
758.719	40281.72
759.056	40277.66
759.394	40048.51
759.731	39842.64
760.068	39727.16
760.405	39578.69
760.743	39515.87
761.08	39568.75
761.417	39459.82
761.754	39239.94
762.091	39282.43
762.428	39091.47
762.765	39092.38
763.102	39077.01
763.438	38955.2
763.775	38634.31
764.112	38766.06
764.449	38673.4
764.785	38573.75
765.122	38278.84
765.458	38162.46
765.795	38006.53
766.131	38006.75
766.467	37949.36
766.804	37605.64
767.14	37690.61
767.476	37550.72
767.812	37404.96
768.148	37410.16
768.485	37134.24
768.821	37013.79
769.157	36879.33
769.492	36752.32
769.828	36758.43
770.164	36427.36
770.5	36359.57
770.836	36281.38
771.171	36088.84
771.507	36069.63
771.842	35726.81
772.178	35726.14
772.513	35523.66
772.849	35524.79
773.184	35308.97
773.519	35195.08
773.855	35058.81
774.19	34923.45
774.525	34840.06
774.86	34729.55
775.195	34658.59
775.53	34479.39
775.865	34226.74
776.2	34136.8
776.535	33912.17
776.87	33934.55
777.205	33688.68
777.539	33513.77
777.874	33491.62
778.209	33243.72
778.543	33150.84
778.878	32984.29
779.212	32958.75
779.547	32760.57
779.881	32778.87
780.215	32522.15
780.55	32657.29
780.884	32378.88
781.218	32288.04
781.552	32353.12
781.886	31998.55
782.22	31823.64
782.554	31677.88
782.888	31393.14
783.222	31313.37
783.556	31216.2
783.889	31107.5
784.223	30956.77
784.557	30874.97
784.89	31014.17
785.224	30787.06
785.557	30667.06
785.891	30461.19
786.224	30494.41
786.558	30384.58
786.891	30183.46
787.224	29998.15
787.557	29868.66
787.891	29834.54
788.224	29723.58
788.557	29716.35
788.89	29702.79
789.223	29697.14
789.556	29372.63
789.888	29370.6
790.221	29161.56
790.554	29075.92
790.887	29060.78
791.219	28822.82
791.552	28862.59
791.884	28845.41
792.217	28638.64
792.549	28494.46
792.882	28317.07
793.214	28331.3
793.546	28342.6
793.879	28098.31
794.211	27975.61
794.543	27984.87
794.875	27967.47
795.207	27964.53
795.539	27753.69
795.871	27710.98
796.203	27469.4
796.535	27354.15
796.867	27374.04
797.198	27245.91
797.53	27290.2
797.862	27062.64
798.193	27096.99
798.525	26887.73
798.856	26838.69
799.188	26569.54
799.519	26539.71
799.85	26364.35
800.182	26330.68
800.513	26317.57
800.844	26106.95
801.175	26179.27
801.506	26079.38
801.837	26018.6
802.168	25893.85
802.499	25897.47
802.83	25681.88
803.161	25577.48
803.491	25686.85
803.822	25531.6
804.153	25417.48
804.483	25184.72
804.814	25045.97
805.145	25066.08
805.475	25096.59
805.805	24955.12
806.136	24965.06
806.466	24983.37
806.796	24757.39
807.126	24554.23
807.457	24525.75
807.787	24497.73
808.117	24372.09
808.447	24450.5
808.777	24386.32
809.107	24292.99
809.436	24163.73
809.766	24230.62
810.096	24093.45
810.426	24069.04
810.755	23924.41
811.085	23874.47
811.414	23886.45
811.744	23701.59
812.073	23679.22
812.403	23673.35
812.732	23420.02
813.061	23401.49
813.39	23321.27
813.719	23267.03
814.049	23399.91
814.378	23180.03
814.707	23094.38
815.036	23126.02
815.365	23172.34
815.693	22821.39
816.022	22891.9
816.351	22730.77
816.68	22615.3
817.008	22747.27
817.337	22683.09
817.665	22492.81
817.994	22652.81
818.322	22620.72
818.651	22488.07
818.979	22407.62
819.307	22439.71
819.636	22239.71
819.964	22192.93
820.292	22312.48
820.62	22307.73
820.948	22169.21
821.276	22377.56
821.604	22156.55
821.932	22273.38
822.259	22216.44
822.587	22115.2
822.915	22129.21
823.243	22212.37
823.57	22059.6
823.898	22082.65
824.225	22049.21
824.553	22036.33
824.88	22190.67
825.207	22156.32
825.535	22031.58
825.862	22177.79
826.189	22056.67
826.516	22162.88
826.843	22241.52
827.17	22196.1
827.497	22210.79
827.824	22114.07
828.151	22057.57
828.478	22060.51
828.805	22202.2
829.131	22043.11
829.458	21973.96
829.785	21921.98
830.111	22076.33
830.438	22134.63
830.764	22018.02
831.09	22060.96
831.417	21909.55
831.743	22020.96
832.069	22008.98
832.395	21828.2
832.722	21961.3
833.048	21728.99
833.374	21858.7
833.7	21833.39
834.026	21836.78
834.351	21793.62
834.677	21846.73
835.003	21792.94
835.329	21800.85
835.654	21794.07
835.98	21538.04
836.306	21678.14
836.631	21516.12
836.956	21660.52
837.282	21626.85
837.607	21359.28
837.932	21390.92
838.258	21510.01
838.583	21402.9
838.908	21244.03
839.233	21317.48
839.558	21264.14
839.883	21096.92
840.208	21098.95
840.533	21087.2
840.858	21098.72
841.182	21131.94
841.507	21024.6
841.832	20999.97
842.156	20961.78
842.481	20955.9
842.805	20839.97
843.13	20811.27
843.454	20814.66
843.778	20663.93
844.103	20554.56
844.427	20635.23
844.751	20596.59
845.075	20543.49
845.399	20484.28
845.723	20335.13
846.047	20506.65
846.371	20221.01
846.695	20236.83
847.019	20052.2
847.343	19972.2
847.666	19992.09
847.99	19922.26
848.313	19933.56
848.637	19697.41
848.96	19698.31
849.284	19627.8
849.607	19507.81
849.931	19438.2
850.254	19457.19
850.577	19265.33
850.9	19129.74
851.223	19181.94
851.546	19082.96
851.869	18976.29
852.192	19051.55
852.515	18784.21
852.838	18730.2
853.161	18760.93
853.483	18695.85
853.806	18576.53
854.129	18590.54
854.451	18473.48
854.774	18445.91
855.096	18340.15
855.419	18286.82
855.741	18304.67
856.063	18254.73
856.385	18091.12
856.708	18092.48
857.03	18110.1
857.352	18007.51
857.674	17953.27
857.996	17813.61
858.318	17813.84
858.64	17777.91
858.961	17764.8
859.283	17822.65
859.605	17622.66
859.926	17712.37
860.248	17612.26
860.57	17558.25
860.891	17504.24
861.212	17372.72
861.534	17348.77
861.855	17405.71
862.176	17399.84
862.498	17447.3
862.819	17295.21
863.14	17228.09
863.461	17158.04
863.782	17041.2
864.103	17090.69
864.424	17001.21
864.745	17076.68
865.065	17006.63
865.386	16929.12
865.707	16992.62
866.027	17030.13
866.348	16802.11
866.668	16906.52
866.989	16843.92
867.309	16701.78
867.63	16782.23
867.95	16810.25
868.27	16610.26
868.59	16663.81
868.91	16673.98
869.23	16619.75
869.55	16569.58
869.87	16664.72
870.19	16577.26
870.51	16522.57
870.83	16548.79
871.15	16360.77
871.469	16418.17
871.789	16408.45
872.109	16446.19
872.428	16347.89
872.748	16423.14
873.067	16284.39
873.386	16295.24
873.706	16361.45
874.025	16253.2
874.344	16280.77
874.663	16174.11
874.982	16231.28
875.301	16254.78
875.62	16153.32
875.939	16053.21
876.258	16170.04
876.577	16003.49
876.896	16073.55
877.214	16116.26
877.533	16067.44
877.852	16003.94
878.17	16080.1
878.489	15967.56
878.807	15928.47
879.125	16005.07
879.444	15944.28
879.762	15898.64
880.08	15817.96
880.398	15809.6
880.716	15756.27
881.034	15759.2
881.352	15761.92
881.67	15805.08
881.988	15747.68
882.306	15742.26
882.624	15690.05
882.941	15637.63
883.259	15627
883.577	15597.17
883.894	15534.58
884.212	15556.27
884.529	15549.72
884.846	15379.55
885.164	15446.44
885.481	15369.61
885.798	15429.72
886.115	15306.79
886.432	15353.57
886.75	15296.84
887.067	15259.33
887.383	15297.75
887.7	15182.95
888.017	15188.37
888.334	15122.61
888.651	15104.76
888.967	15030.41
889.284	15042.61
889.6	15019.56
889.917	14857.31
890.233	14970.07
890.55	14833.35
890.866	14853.47
891.182	14762.85
891.498	14740.93
891.815	14750.87
892.131	14580.03
892.447	14670.65
892.763	14545.68
893.079	14545.22
893.395	14397.66
893.71	14486.47
894.026	14451.67
894.342	14416.19
894.657	14220.26
894.973	14246.02
895.289	14211.9
895.604	14191.79
895.92	14087.61
896.235	14054.39
896.55	14048.29
896.865	14074.73
897.181	14052.81
897.496	13974.39
897.811	13882.42
898.126	13773.49
898.441	13717.45
898.756	13857.33
899.071	13733.72
899.386	13638.81
899.7	13569.88
900.015	13481.75
900.33	13434.75
900.644	13387.74
900.959	13427.06
901.273	13376.89
901.588	13260.29
901.902	13173.51
902.216	13211.47
902.531	13217.35
902.845	13112.27
903.159	13046.28
903.473	12983.46
903.787	12956.34
904.101	12870.47
904.415	12873.63
904.729	12745.72
905.042	12773.52
905.356	12736.68
905.67	12714.99
905.984	12662.34
906.297	12598.16
906.611	12536.69
906.924	12538.27
907.237	12505.28
907.551	12460.76
907.864	12343.7
908.177	12336.92
908.491	12320.2
908.804	12274.55
909.117	12220.31
909.43	12115.91
909.743	12131.5
910.056	12098.96
910.368	12046.08
910.681	11953.2
910.994	11930.6
911.307	11900.77
911.619	11839.76
911.932	11838.18
912.244	11646.32
912.557	11756.6
912.869	11611.52
913.181	11491.52
913.494	11593.66
913.806	11464.85
914.118	11458.98
914.43	11393.22
914.742	11333.33
915.054	11364.52
915.366	11250.4
915.678	11218.76
915.99	11176.73
916.302	11116.16
916.613	11032.32
916.925	11094.24
917.236	11061.25
917.548	10995.26
917.859	11029.61
918.171	10914.36
918.482	10918.2
918.794	10775.15
919.105	10840.92
919.416	10736.51
919.727	10754.82
920.038	10707.81
920.349	10656.74
920.66	10594.82
920.971	10520.47
921.282	10550.08
921.593	10512.34
921.903	10413.81
922.214	10403.86
922.525	10386.46
922.835	10279.8
923.146	10232.12
923.456	10251.78
923.767	10214.27
924.077	10168.62
924.387	10139.47
924.697	10091.56
925.008	10015.63
925.318	10011.33
925.628	9967.27
925.938	9919.58
926.248	9790.1
926.558	9850.66
926.867	9778.12
927.177	9723.88
927.487	9677.1
927.796	9569.31
928.106	9570.44
928.416	9569.31
928.725	9544.23
929.034	9479.82
929.344	9511.91
929.653	9444.57
929.962	9367.06
930.271	9338.13
930.581	9201.64
930.89	9243.44
931.199	9139.94
931.508	9210
931.817	9158.47
932.125	9070.79
932.434	9100.4
932.743	8995.77
933.051	8905.37
933.36	8921.87
933.669	8929.55
933.977	8882.32
934.286	8787.18
934.594	8817.92
934.902	8734.08
935.21	8640.52
935.519	8674.87
935.827	8657.24
936.135	8552.16
936.443	8523.91
936.751	8506.29
937.059	8459.74
937.367	8462
937.674	8375.22
937.982	8355.78
938.29	8286.18
938.597	8320.76
938.905	8212.74
939.213	8206.18
939.52	8165.28
939.827	8139.07
940.135	8075.79
940.442	8118.5
940.749	8099.74
941.056	8033.31
941.363	7909.92
941.67	7894.55
941.977	7808
942.284	7834.21
942.591	7811.84
942.898	7769.13
943.205	7759.41
943.511	7713.77
943.818	7716.7
944.125	7615.24
944.431	7612.53
944.738	7529.82
945.044	7498.63
945.35	7451.85
945.657	7428.8
945.963	7431.29
946.269	7405.98
946.575	7355.81
946.881	7335.24
947.187	7344.28
947.493	7246.89
947.799	7229.71
948.105	7188.81
948.41	7145.19
948.716	7163.5
949.022	7092.54
949.327	7073.78
949.633	6986.55
949.938	7052.31
950.244	7067.91
950.549	6937.29
950.854	6893.45
951.16	6868.14
951.465	6886.44
951.77	6843.73
952.075	6867.46
952.38	6806.45
952.685	6794.47
952.99	6751.31
953.294	6707.92
953.599	6693.91
953.904	6698.88
954.209	6614.13
954.513	6610.29
954.818	6638.54
955.122	6585.66
955.426	6558.77
955.731	6467.7
956.035	6434.25
956.339	6408.72
956.643	6427.47
956.948	6403.97
957.252	6404.42
957.556	6324.2
957.86	6324.42
958.163	6296.63
958.467	6245.78
958.771	6241.94
959.075	6166.69
959.378	6209.17
959.682	6176.18
959.985	6178.44
960.289	6134.82
960.592	6097.99
960.896	6133.47
961.199	6065.45
961.502	6035.39
961.805	5988.61
962.108	5952
962.411	5914.94
962.714	5955.17
963.017	5900.03
963.32	5919.46
963.623	5838.11
963.926	5854.15
964.228	5822.06
964.531	5782.97
964.833	5793.59
965.136	5751.11
965.438	5686.02
965.741	5695.06
966.043	5677.21
966.345	5643.54
966.648	5660.03
966.95	5534.61
967.252	5513.6
967.554	5579.81
967.856	5480.38
968.158	5489.42
968.46	5473.15
968.761	5418.23
969.063	5414.84
969.365	5366.26
969.666	5354.51
969.968	5324.68
970.269	5356.77
970.571	5279.25
970.872	5303.66
971.174	5229.76
971.475	5266.82
971.776	5192.25
972.077	5176.21
972.378	5144.34
972.679	5188.41
972.98	5185.92
973.281	5091.69
973.582	5106.6
973.883	5017.57
974.183	5042.88
974.484	5022.76
974.785	4946.61
975.085	4931.92
975.386	4918.13
975.686	4886.72
975.986	4890.11
976.287	4865.93
976.587	4809.21
976.887	4799.49
977.187	4774.86
977.487	4764.92
977.787	4757.46
978.087	4673.17
978.387	4651.02
978.687	4683.11
978.987	4658.03
979.286	4573.28
979.586	4612.15
979.885	4559.27
980.185	4588.42
980.484	4563.34
980.784	4470.46
981.083	4500.97
981.382	4478.14
981.682	4493.74
981.981	4449.45
982.28	4397.47
982.579	4368.09
982.878	4371.26
983.177	4333.74
983.475	4334.65
983.774	4320.18
984.073	4293.74
984.372	4301.43
984.67	4223.24
984.969	4258.04
985.267	4201.32
985.566	4136.69
985.864	4186.63
986.162	4103.92
986.461	4133.07
986.759	4083.81
987.057	4059.17
987.355	4030.93
987.653	4023.24
987.951	4041.32
988.249	3986.18
988.547	3982.34
988.844	3909.8
989.142	3963.36
989.44	3928.1
989.737	3892.4
990.035	3875.67
990.332	3901.89
990.63	3828.44
990.927	3842
991.224	3808.11
991.521	3790.25
991.819	3816.69
992.116	3746.64
992.413	3736.92
992.71	3726.3
993.006	3764.49
993.303	3679.3
993.6	3714.32
993.897	3682.23
994.193	3623.48
994.49	3620.99
994.787	3627.55
995.083	3575.34
995.379	3591.39
995.676	3555.46
995.972	3520.88
996.268	3504.39
996.565	3466.65
996.861	3467.55
997.157	3456.93
997.453	3479.08
997.749	3430.71
998.044	3397.27
998.34	3387.1
998.636	3406.53
998.932	3355.01
999.227	3345.07
999.523	3331.73
999.818	3295.13
1000.114	3309.59
1000.409	3262.36
1000.704	3249.48
1001	3274.33
1001.295	3232.98
1001.59	3240.89
1001.885	3151.85
1002.18	3122.02
1002.475	3148.24
1002.77	3138.29
1003.065	3086.32
1003.359	3099.2
1003.654	3111.85
1003.949	3070.95
1004.243	3052.87
1004.538	3016.49
1004.832	3061.46
1005.127	2996.83
1005.421	3020.78
1005.715	2979.88
1006.009	2976.94
1006.304	2957.96
1006.598	2936.72
1006.892	2877.96
1007.186	2844.74
1007.48	2889.49
1007.773	2861.01
1008.067	2813.56
1008.361	2821.24
1008.655	2829.6
1008.948	2797.74
1009.242	2769.72
1009.535	2762.48
1009.829	2735.59
1010.122	2718.87
1010.415	2702.37
1010.708	2716.16
1011.001	2682.49
1011.295	2661.7
1011.588	2657.18
1011.881	2609.04
1012.173	2614.47
1012.466	2607.46
1012.759	2596.61
1013.052	2580.57
1013.344	2557.29
1013.637	2540.79
1013.93	2531.76
1014.222	2497.86
1014.514	2457.86
1014.807	2469.61
1015.099	2424.19
1015.391	2470.06
1015.683	2435.26
1015.976	2404.3
1016.268	2416.05
1016.56	2418.76
1016.851	2360.69
1017.143	2366.11
1017.435	2369.5
1017.727	2305.09
1018.018	2265.55
1018.31	2298.54
1018.602	2284.53
1018.893	2227.36
1019.185	2247.02
1019.476	2211.99
1019.767	2239.11
1020.058	2177.41
1020.35	2149.62
1020.641	2156.17
1020.932	2148.94
1021.223	2138.55
1021.514	2087.25
1021.804	2064.2
1022.095	2110.75
1022.386	2086.8
1022.677	2064.88
1022.967	2039.57
1023.258	2009.74
1023.548	2023.29
1023.839	1976.52
1024.129	1958.44
1024.419	1928.83
1024.709	1929.06
1025	1930.64
1025.29	1950.98
1025.58	1919.12
1025.87	1863.75
1026.16	1899.23
1026.449	1867.14
1026.739	1857.2
1027.029	1846.12
1027.319	1841.38
1027.608	1795.5
1027.898	1804.99
1028.187	1768.39
1028.477	1794.15
1028.766	1742.85
1029.055	1727.26
1029.344	1733.13
1029.634	1720.48
1029.923	1682.29
1030.212	1721.38
1030.501	1655.85
1030.79	1656.52
1031.078	1634.38
1031.367	1632.34
1031.656	1639.35
1031.945	1622.63
1032.233	1577.88
1032.522	1603.42
1032.81	1582.4
1033.099	1579.46
1033.387	1540.6
1033.675	1537.66
1033.963	1526.58
1034.251	1535.85
1034.54	1532.91
1034.828	1498.79
1035.116	1486.36
1035.403	1458.56
1035.691	1479.35
1035.979	1466.02
1036.267	1447.04
1036.554	1434.61
1036.842	1432.35
1037.129	1410.65
1037.417	1399.58
1037.704	1380.83
1037.992	1379.47
1038.279	1380.37
1038.566	1380.15
1038.853	1380.15
1039.14	1380.15
