Data from aluminium_surface_pro_back_FLMS001491_00051.txt Node
Date: Wed Feb 08 15:34:14 GMT 2017
User: dcchb
Spectrometer: FLMS00149
Trigger mode: 0
Integration Time (sec): 2.000000E-2
Scans to average: 10
Electric dark correction enabled: true
Nonlinearity correction enabled: false
Boxcar width: 0
XAxis mode: Wavelengths
Number of Pixels in Spectrum: 2048
>>>>>Begin Spectral Data<<<<<
341.393	-10.49
341.776	-10.49
342.16	-10.49
342.543	-39.87
342.927	-46.2
343.31	-61.34
343.693	-68.8
344.077	-59.98
344.46	-79.19
344.843	-47.1
345.226	-40.55
345.61	-44.62
345.993	-41.91
346.376	0.58
346.759	11.65
347.142	39.22
347.525	57.75
347.908	46.68
348.291	85.77
348.674	96.4
349.057	105.44
349.44	115.38
349.823	145.66
350.206	148.6
350.588	225.66
350.971	230.4
351.354	246.45
351.737	268.82
352.119	273.79
352.502	303.85
352.884	307.01
353.267	304.98
353.65	319.44
354.032	342.72
354.414	349.5
354.797	366.9
355.179	350.85
355.562	391.98
355.944	339.55
356.326	351.3
356.709	370.06
357.091	372.09
357.473	375.94
357.855	387.01
358.238	382.26
358.62	372.09
359.002	381.81
359.384	370.74
359.766	377.52
360.148	363.96
360.53	398.99
360.912	403.96
361.294	350.4
361.676	385.88
362.057	376.16
362.439	386.78
362.821	359.44
363.203	386.33
363.584	370.06
363.966	380
364.348	375.26
364.729	352.43
365.111	368.48
365.493	371.87
365.874	373.45
366.256	356.73
366.637	352.66
367.019	385.65
367.4	386.56
367.781	362.6
368.163	382.72
368.544	375.71
368.925	371.64
369.306	380.23
369.688	375.48
370.069	400.79
370.45	372.55
370.831	387.01
371.212	396.5
371.593	386.56
371.974	399.89
372.355	395.6
372.736	380.68
373.117	380
373.498	396.95
373.879	396.95
374.26	386.11
374.641	388.14
375.021	381.59
375.402	406.22
375.783	397.18
376.163	431.08
376.544	438.99
376.925	402.15
377.305	413.9
377.686	399.66
378.066	443.51
378.447	433.56
378.827	431.53
379.208	425.43
379.588	434.01
379.968	450.51
380.349	449.83
380.729	438.31
381.109	451.41
381.489	454.58
381.87	436.05
382.25	457.74
382.63	444.41
383.01	453.45
383.39	462.26
383.77	469.72
384.15	471.3
384.53	462.04
384.91	466.1
385.29	484.41
385.67	468.59
386.049	488.48
386.429	502.26
386.809	515.82
387.189	522.15
387.568	511.98
387.948	512.43
388.328	526.89
388.707	525.09
389.087	540.23
389.466	556.72
389.846	549.27
390.225	553.56
390.605	563.95
390.984	578.19
391.363	580.9
391.743	581.13
392.122	581.13
392.501	597.17
392.881	571.41
393.26	595.14
393.639	589.72
394.018	610.28
394.397	642.37
394.776	625.65
395.155	651.41
395.534	639.66
395.913	639.21
396.292	666.78
396.671	627
397.05	678.3
397.429	664.06
397.808	695.02
398.186	669.49
398.565	708.81
398.944	700.9
399.323	712.65
399.701	697.06
400.08	702.71
400.458	733.67
400.837	749.71
401.215	740.45
401.594	759.66
401.972	754.91
402.351	775.02
402.729	770.28
403.107	802.82
403.486	794
403.864	797.62
404.242	798.98
404.62	824.74
404.999	841.46
405.377	856.15
405.755	848.24
406.133	886.88
406.511	871.97
406.889	895.24
407.267	930.5
407.645	914.91
408.023	942.25
408.401	949.48
408.779	930.27
409.156	942.93
409.534	964.62
409.912	1008.46
410.29	998.07
410.667	1037.84
411.045	1033.77
411.422	1019.99
411.8	1052.08
412.178	1067.67
412.555	1089.36
412.933	1071.96
413.31	1117.16
413.687	1091.62
414.065	1145.18
414.442	1136.82
414.819	1177.27
415.197	1150.15
415.574	1188.8
415.951	1210.26
416.328	1218.4
416.705	1202.58
417.082	1209.36
417.46	1269.7
417.837	1285.07
418.214	1260.88
418.591	1283.48
418.967	1292.97
419.344	1314.22
419.721	1318.96
420.098	1352.86
420.475	1373.42
420.852	1341.11
421.228	1411.84
421.605	1375.91
421.982	1404.61
422.358	1434.44
422.735	1403.93
423.111	1438.28
423.488	1486.87
423.864	1468.79
424.241	1515.34
424.617	1479.18
424.994	1526.87
425.37	1526.64
425.746	1563.93
426.123	1558.96
426.499	1597.15
426.875	1607.32
427.251	1666.98
427.627	1644.15
428.003	1684.6
428.379	1711.72
428.756	1717.37
429.132	1743.58
429.507	1751.95
429.883	1783.13
430.259	1823.81
430.635	1843.47
431.011	1862
431.387	1903.81
431.763	1916.23
432.138	1950.81
432.514	1953.07
432.89	1997.14
433.265	2044.82
433.641	2063.58
434.016	2072.39
434.392	2077.13
434.767	2144.03
435.143	2147.19
435.518	2181.09
435.894	2197.81
436.269	2227.19
436.644	2233.51
437.02	2274.19
437.395	2298.82
437.77	2301.76
438.145	2349.9
438.52	2377.01
438.895	2398.26
439.271	2401.42
439.646	2469.89
440.021	2436.9
440.395	2482.77
440.77	2493.85
441.145	2523.22
441.52	2553.05
441.895	2550.12
442.27	2550.12
442.645	2598.48
443.019	2661.07
443.394	2650.45
443.769	2652.49
444.143	2657.91
444.518	2686.38
444.892	2658.36
445.267	2693.62
445.641	2758.92
446.016	2760.96
446.39	2808.19
446.764	2855.87
447.139	2805.03
447.513	2867.62
447.887	2878.7
448.262	2870.11
448.636	2912.37
449.01	2962.08
449.384	2995.53
449.758	2980.84
450.132	3039.6
450.506	3058.58
450.88	3058.58
451.254	3107.39
451.628	3127.5
452.002	3179.25
452.376	3194.39
452.75	3226.71
453.123	3254.96
453.497	3322.75
453.871	3371.79
454.244	3381.51
454.618	3446.36
454.992	3462.63
455.365	3491.11
455.739	3600.03
456.112	3623.08
456.486	3674.83
456.859	3674.38
457.232	3779.01
457.606	3736.53
457.979	3791.21
458.352	3882.96
458.725	3908.27
459.099	3913.47
459.472	4049.06
459.845	4055.16
460.218	4115.05
460.591	4154.14
460.964	4166.35
461.337	4256.29
461.71	4323.86
462.083	4411.99
462.456	4405.66
462.829	4435.26
463.201	4581.02
463.574	4531.53
463.947	4609.95
464.32	4692.66
464.692	4805.88
465.065	4775.14
465.438	4899.21
465.81	4931.07
466.183	4981.69
466.555	5072.31
466.928	5119.77
467.3	5142.59
467.672	5223.04
468.045	5324.05
468.417	5365.18
468.789	5372.64
469.161	5432.53
469.534	5528.12
469.906	5671.84
470.278	5732.41
470.65	5790.71
471.022	5919.97
471.394	5970.82
471.766	6062.79
472.138	6152.73
472.51	6291.71
472.882	6354.54
473.253	6443.8
473.625	6483.35
473.997	6655.55
474.369	6713.4
474.74	6764.47
475.112	6860.51
475.484	7058.25
475.855	7152.03
476.227	7265.7
476.598	7521.74
476.97	7506.6
477.341	7675.18
477.713	7791.11
478.084	7815.29
478.455	8042.4
478.827	8109.07
479.198	8372.11
479.569	8391.32
479.94	8626.11
480.311	8733.68
480.682	8860.23
481.053	9097.74
481.424	9193.33
481.795	9355.59
482.166	9480.33
482.537	9615.69
482.908	9878.06
483.279	9942.92
483.65	10104.04
484.021	10305.84
484.391	10493.86
484.762	10548.55
485.133	10597.81
485.503	10763.91
485.874	11063.11
486.244	11180.17
486.615	11287.51
486.985	11483.67
487.356	11719.37
487.726	11772.7
488.097	12063.31
488.467	12091.33
488.837	12358.67
489.207	12447.26
489.578	12674.82
489.948	12734.93
490.318	12990.97
490.688	12995.04
491.058	13226.67
491.428	13515.25
491.798	13592.54
492.168	13845.64
492.538	13939.87
492.908	14118.17
493.278	14283.82
493.648	14339.64
494.017	14557.48
494.387	14749.12
494.757	14860.3
495.126	14983.24
495.496	15065.72
495.866	15194.3
496.235	15317.24
496.605	15555.65
496.974	15616.44
497.344	15790.9
497.713	15942.08
498.082	15945.92
498.452	16177.1
498.821	16261.39
499.19	16300.49
499.559	16538.22
499.928	16689.63
500.298	16717.88
500.667	16939.34
501.036	16976.18
501.405	17192.9
501.774	17132.78
502.143	17337.3
502.512	17426.56
502.88	17651.41
503.249	17689.83
503.618	17823.39
503.987	17945.19
504.356	18067.67
504.724	18107.9
505.093	18283.26
505.462	18335.69
505.83	18420.21
506.199	18579.75
506.567	18813.19
506.936	18802.8
507.304	19020.19
507.672	19108.1
508.041	19218.6
508.409	19483.46
508.777	19548.99
509.145	19729.1
509.514	19756.22
509.882	19955.53
510.25	20089.32
510.618	20218.58
510.986	20268.97
511.354	20626.25
511.722	20751.45
512.09	21032.12
512.458	20940.82
512.826	21214.94
513.193	21311.43
513.561	21328.15
513.929	21569.5
514.297	21780.57
514.664	21900.57
515.032	22120.22
515.4	22211.97
515.767	22445.64
516.135	22444.96
516.502	22384.85
516.869	22908.9
517.237	22976.7
517.604	23076.13
517.972	23319.74
518.339	23476.35
518.706	23487.65
519.073	23678.15
519.44	23774.64
519.808	24142.09
520.175	24177.12
520.542	24459.37
520.909	24704.56
521.276	24603.1
521.643	25000.37
522.009	25123.53
522.376	25312.23
522.743	25518.1
523.11	25772.1
523.477	25975.04
523.843	26223.39
524.21	26398.53
524.577	26659.77
524.943	26766.2
525.31	26999.19
525.676	27344.04
526.043	27492.06
526.409	27678.95
526.776	27956
527.142	28067.41
527.508	28238.71
527.874	28418.14
528.241	28696.55
528.607	28603.44
528.973	29024
529.339	29108.97
529.705	29396.64
530.071	29482.06
530.437	29667.82
530.803	29812.68
531.169	30097.19
531.535	29982.16
531.901	30179.67
532.267	30297.86
532.632	30480.46
532.998	30631.86
533.364	30918.41
533.73	30898.98
534.095	31167.9
534.461	31328.34
534.826	31456.25
535.192	31628.9
535.557	31823.02
535.923	31730.82
536.288	31888.33
536.653	32154.08
537.019	32124.93
537.384	32411.93
537.749	32616.44
538.114	32528.54
538.479	32625.26
538.845	32894.18
539.21	32787.74
539.575	32991.8
539.94	33168.29
540.305	33285.35
540.67	33272.92
541.034	33445.12
541.399	33606.7
541.764	33782.97
542.129	33774.38
542.494	33936.64
542.858	34109.29
543.223	34162.62
543.587	34313.35
543.952	34346.34
544.316	34403.06
544.681	34565.09
545.045	34771.87
545.41	34842.15
545.774	35108.13
546.138	34983.84
546.503	35088.7
546.867	35159.43
547.231	35457.27
547.595	35536.14
547.959	35593.77
548.324	35727.32
548.688	35725.52
549.052	35949.01
549.416	36035.11
549.779	36094.55
550.143	36287.99
550.507	36482.11
550.871	36482.56
551.235	36426.06
551.599	36867.86
551.962	36885.03
552.326	37022.66
552.689	37316.89
553.053	37065.37
553.417	37507.84
553.78	37828.29
554.143	37666.71
554.507	38010.88
554.87	38006.81
555.234	38444.77
555.597	38309.85
555.96	38478.44
556.323	38686.57
556.686	38654.7
557.05	38931.31
557.413	39158.65
557.776	39163.39
558.139	39446.1
558.502	39624.17
558.865	39666.43
559.228	39969.7
559.59	40089.92
559.953	40227.77
560.316	40717.02
560.679	40745.27
561.041	40980.52
561.404	41185.48
561.767	41425.93
562.129	41147.52
562.492	41697.34
562.854	41794.06
563.217	41632.03
563.579	41888.74
563.941	42214.16
564.304	42465.23
564.666	42690.3
565.028	42716.07
565.39	42860.92
565.753	43138.88
566.115	43335.26
566.477	43586.55
566.839	43718.07
567.201	43909.03
567.563	44064.96
567.925	44303.37
568.287	44558.5
568.648	44487.77
569.01	44809.8
569.372	45095.44
569.734	45034.2
570.095	45242.78
570.457	45349.9
570.819	45536.1
571.18	45721.18
571.542	46099.71
571.903	46037.33
572.265	46175.18
572.626	46271.9
572.987	46404.33
573.349	46628.05
573.71	46738.33
574.071	46871.89
574.432	46990.98
574.794	47291.09
575.155	47314.14
575.516	47165.44
575.877	47369.05
576.238	47504.64
576.599	47539.22
576.96	47719.1
577.32	47770.4
577.681	47983.72
578.042	48121.57
578.403	48118.41
578.763	48154.79
579.124	48300.33
579.485	48450.15
579.845	48733.99
580.206	48559.3
580.566	48558.62
580.927	48684.27
581.287	48847.88
581.648	48707.32
582.008	48793.42
582.368	48784.16
582.728	48958.61
583.089	48958.39
583.449	48827.54
583.809	48859.86
584.169	48906.41
584.529	48976.24
584.889	49136.46
585.249	49019.18
585.609	49069.57
585.969	49314.08
586.329	49091.04
586.688	49199.29
587.048	49072.74
587.408	49052.17
587.768	49082.23
588.127	49184.6
588.487	49122.23
588.846	49290.36
589.206	49190.7
589.565	49119.06
589.925	49319.51
590.284	49266.85
590.643	49319.28
591.003	49339.62
591.362	49437.7
591.721	49369.68
592.08	49373.07
592.44	49514.08
592.799	49513.63
593.158	49454.19
593.517	49478.6
593.876	49553.85
594.235	49457.13
594.593	49553.4
594.952	49660.97
595.311	49529.45
595.67	49627.07
596.029	49662.1
596.387	49826.39
596.746	49828.87
597.104	49569.9
597.463	49617.58
597.822	49853.28
598.18	49647.64
598.538	49715.2
598.897	49888.98
599.255	49532.16
599.613	50142.54
599.972	49848.53
600.33	49952.03
600.688	49761.98
601.046	49907.52
601.404	50104.12
601.762	49955.2
602.12	50109.54
602.478	50079.26
602.836	50197.45
603.194	49955.2
603.552	50107.51
603.91	49930.57
604.268	50194.74
604.625	50115.87
604.983	50267.96
605.341	50162.2
605.698	50389.54
606.056	50543.2
606.413	50500.27
606.771	50414.39
607.128	50545.69
607.485	50350.89
607.843	50465.69
608.2	50609.19
608.557	50737.1
608.914	50540.27
609.272	50799.24
609.629	50848.96
609.986	50847.38
610.343	50542.75
610.7	50845.12
611.057	50871.56
611.414	50828.62
611.771	50793.37
612.127	50952.69
612.484	50898.22
612.841	51161.27
613.198	50937.32
613.554	51023.42
613.911	51223.86
614.267	51213.92
614.624	51145.67
614.98	51212.79
615.337	51492.56
615.693	51376.4
616.05	51289.63
616.406	51568.04
616.762	51469.73
617.118	51384.09
617.475	51401.26
617.831	51495.72
618.187	51540.92
618.543	51651.65
618.899	51739.78
619.255	51676.51
619.611	51674.7
619.967	51741.59
620.323	51830.85
620.678	51721.93
621.034	51645.1
621.39	51613.46
621.746	51601.03
622.101	51952.89
622.457	51652.1
622.812	51797.64
623.168	51793.12
623.523	51798.54
623.879	51963.73
624.234	51685.32
624.589	51860.46
624.945	51815.94
625.3	51939.33
625.655	51886.22
626.01	52045.09
626.365	51887.35
626.72	51843.96
627.075	51909.95
627.43	51785.66
627.785	51764.42
628.14	51805.32
628.495	51834.7
628.85	51736.17
629.205	51640.13
629.559	51836.5
629.914	51641.48
630.269	51759.67
630.623	51405.56
630.978	51474.93
631.332	51591.76
631.687	51642.61
632.041	51349.74
632.396	51490.07
632.75	51282.17
633.104	51391.09
633.459	51288.95
633.813	51155.62
634.167	51185
634.521	51176.18
634.875	51164.21
635.229	51032.68
635.583	50933.7
635.937	51028.84
636.291	50999.01
636.645	50894.16
636.999	50908.17
637.352	50954.04
637.706	50680.83
638.06	50837.21
638.413	50769.87
638.767	50727.38
639.121	50806.93
639.474	50549.76
639.828	50644.9
640.181	50547.27
640.534	50528.06
640.888	50325.58
641.241	50305.92
641.594	50468.18
641.947	50546.37
642.301	50369.88
642.654	50397.67
643.007	50338.92
643.36	50274.96
643.713	50194.06
644.066	50238.35
644.419	49992.48
644.771	49776.22
645.124	49439.73
645.477	49367.19
645.83	49169.68
646.182	49079.97
646.535	48989.35
646.888	49010.14
647.24	48724.04
647.593	49054.2
647.945	48764.95
648.298	48650.83
648.65	48513.65
649.002	48593.43
649.355	48642.01
649.707	48542.58
650.059	48596.36
650.411	49193.64
650.763	49177.82
651.115	49537.58
651.467	49338.94
651.819	49361.09
652.171	49180.98
652.523	49069.57
652.875	49053.53
653.227	49038.84
653.578	49213.52
653.93	49094.66
654.282	48865.06
654.633	48749.35
654.985	48797.49
655.337	48752.74
655.688	48695.8
656.039	48780.09
656.391	48492.19
656.742	48529.47
657.094	48606.76
657.445	48676.59
657.796	48495.12
658.147	48510.49
658.498	48522.69
658.849	48532.64
659.2	48398.4
659.551	48396.59
659.902	48456.03
660.253	48335.81
660.604	48368.12
660.955	48279.99
661.306	48365.41
661.656	48311.85
662.007	48398.4
662.358	48292.87
662.708	48332.42
663.059	48325.64
663.409	48128.58
663.76	48368.12
664.11	48346.88
664.461	48279.76
664.811	48263.26
665.161	48242.25
665.511	48026.21
665.862	48164.06
666.212	48159.76
666.562	48210.61
666.912	48126.55
667.262	47978.75
667.612	48069.82
667.962	48143.95
668.312	48047.9
668.662	48238.86
669.011	48082.48
669.361	47974.91
669.711	48073.21
670.06	48028.69
670.41	47918.42
670.76	47941.24
671.109	47945.53
671.459	47876.16
671.808	47878.87
672.157	47889.04
672.507	47646.56
672.856	47787.8
673.205	47839.1
673.554	47888.13
673.904	47857.4
674.253	47924.97
674.602	47695.37
674.951	47070.98
675.3	46854.04
675.649	47527.92
675.998	47418.77
676.346	47573.79
676.695	47511.42
677.044	47252.22
677.393	47349.39
677.741	47468.48
678.09	47365.89
678.438	47201.82
678.787	47384.87
679.135	47220.13
679.484	47002.51
679.832	47171.09
680.181	46833.47
680.529	47079.12
680.877	46918.67
681.225	46880.25
681.573	46977.2
681.922	46778.33
682.27	46692.68
682.618	46647.26
682.966	46551.22
683.314	46702.63
683.661	46513.25
684.009	46339.7
684.357	46347.38
684.705	46138.57
685.053	46172.92
685.4	46065.13
685.748	45761.18
686.095	45836.66
686.443	45698.59
686.79	45460.17
687.138	45753.73
687.485	45736.1
687.832	45404.58
688.18	45394.19
688.527	45309.67
688.874	45356.22
689.221	45108.55
689.568	45051.15
689.915	44962.79
690.262	44911.71
690.609	44789.01
690.956	44792.4
691.303	44656.58
691.65	44389.24
691.997	44361.67
692.344	44187.21
692.69	44225.63
693.037	44263.37
693.383	43750.16
693.73	44049.82
694.077	43651.63
694.423	43906.09
694.769	43551.52
695.116	43602.37
695.462	43469.04
695.808	43312.43
696.155	43331.42
696.501	42916.74
696.847	42915.38
697.193	42739.57
697.539	42912.9
697.885	42625.45
698.231	42401.5
698.577	42328.73
698.923	42131.9
699.269	42147.27
699.614	42037.67
699.96	41828.63
700.306	41931.45
700.651	41658.69
700.997	41549.09
701.342	41510.67
701.688	41553.38
702.033	41273.84
702.379	41317.01
702.724	41131.93
703.069	41236.33
703.415	40734.2
703.76	40963.12
704.105	40861.2
704.45	40672.5
704.795	40410.36
705.14	40231.39
705.485	40258.5
705.83	40123.14
706.175	40172.63
706.52	40149.35
706.865	39822.81
707.209	39747.56
707.554	39601.57
707.899	39675.47
708.243	39405.19
708.588	39326.55
708.932	39278.87
709.277	39108.48
709.621	39065.09
709.966	38828.48
710.31	38847.47
710.654	38518.21
710.998	38624.65
711.342	38528.83
711.687	38478.44
712.031	38395.5
712.375	38294.94
712.719	38308.72
713.063	38110.99
713.407	38266.24
713.75	38039.13
714.094	37989.18
714.438	37873.93
714.782	37919.13
715.125	37734.95
715.469	37791.9
715.812	37563.89
716.156	37428.3
716.499	37484.34
716.843	37506.03
717.186	37262.88
717.53	37395.75
717.873	37339.71
718.216	37110.79
718.559	37062.88
718.902	36945.82
719.246	36912.38
719.589	36838.71
719.932	36673.97
720.275	36518.04
720.617	36505.83
720.96	36399.17
721.303	36264.94
721.646	36349.45
721.989	36136.35
722.331	36297.03
722.674	36104.49
723.016	36146.97
723.359	35995.34
723.701	35984.27
724.044	35753.31
724.386	35710.6
724.729	35807.32
725.071	35594.9
725.413	35650.04
725.755	35536.82
726.097	35367.33
726.439	35095.25
726.782	35272.19
727.124	35368.01
727.465	35152.65
727.807	35036.04
728.149	34925.76
728.491	34986.1
728.833	34886.22
729.175	34929.15
729.516	34743.62
729.858	34800.79
730.199	34735.71
730.541	34724.19
730.882	34625.21
731.224	34657.07
731.565	34497.07
731.906	34519.22
732.248	34549.28
732.589	34400.13
732.93	34245.33
733.271	34194.03
733.612	34300.69
733.953	34244.65
734.294	33927.37
734.635	33915.62
734.976	33977.76
735.317	33709.98
735.658	33877.65
735.999	33751.1
736.339	33706.36
736.68	33702.74
737.021	33549.08
737.361	33372.13
737.702	33692.12
738.042	33388.4
738.383	33402.19
738.723	33422.3
739.063	33151.8
739.404	33220.04
739.744	33125.13
740.084	32965.14
740.424	33120.39
740.764	32857.79
741.104	33070.22
741.444	32809.66
741.784	32833.84
742.124	32784.12
742.464	32754.07
742.804	32653.96
743.143	32572.6
743.483	32467.97
743.823	32481.31
744.162	32289.22
744.502	32335.32
744.841	32096.91
745.181	32245.15
745.52	32110.92
745.86	32099.17
746.199	31977.37
746.538	32063.92
746.877	31990.92
747.216	31913.86
747.556	31797.94
747.895	31783.25
748.234	31647.66
748.573	31705.51
748.911	31672.51
749.25	31610.82
749.589	31458.96
749.928	31413.31
750.267	31428.23
750.605	31302.13
750.944	31229.81
751.283	31114.56
751.621	31169.7
751.96	31012.19
752.298	31040.67
752.636	31108.01
752.975	30939.43
753.313	30823.95
753.651	30910.95
753.989	30710.05
754.327	30674.57
754.666	30550.74
755.004	30547.57
755.342	30625.31
755.679	30563.62
756.017	30410.63
756.355	30329.05
756.693	30214.93
757.031	30196.4
757.368	30013.35
757.706	29960.24
758.044	29839.12
758.381	29842.73
758.719	29807.48
759.056	29728.84
759.394	29634.15
759.731	29429.86
760.068	29318.68
760.405	29317.1
760.743	29196.65
761.08	29267.83
761.417	29008.63
761.754	28883.44
762.091	28928.86
762.428	28809.77
762.765	28551.92
763.102	28585.59
763.438	28434.41
763.775	28242.55
764.112	28355.54
764.449	28357.57
764.785	28169.33
765.122	27974.98
765.458	27890.92
765.795	27747.65
766.131	27698.61
766.467	27725.73
766.804	27495.45
767.14	27280.77
767.476	27236.02
767.812	27117.15
768.148	27219.52
768.485	27091.84
768.821	26805.75
769.157	26735.92
769.492	26767.11
769.828	26792.42
770.164	26558.07
770.5	26347.91
770.836	26389.49
771.171	26223.17
771.507	26290.74
771.842	26089.16
772.178	26065.66
772.513	25957.64
772.849	25835.83
773.184	25758.32
773.519	25697.98
773.855	25630.19
774.19	25540.02
774.525	25408.72
774.86	25302.51
775.195	25284.21
775.53	25067.94
775.865	24948.85
776.2	24699.82
776.535	24573.27
776.87	24673.38
777.205	24484.46
777.539	24412.59
777.874	24378.7
778.209	24254.4
778.543	24177.8
778.878	23871.59
779.212	24008.99
779.547	23803.34
779.881	23894.87
780.215	23637.02
780.55	23663.91
780.884	23662.33
781.218	23381.89
781.552	23459.62
781.886	23362
782.22	23250.36
782.554	23040.65
782.888	22922.69
783.222	22819.41
783.556	22736.03
783.889	22735.35
784.223	22564.05
784.557	22517.05
784.89	22635.46
785.224	22454.45
785.557	22299.88
785.891	22207.45
786.224	22232.54
786.558	22282.71
786.891	21840.91
787.224	21898.76
787.557	21902.6
787.891	21873.9
788.224	21769.95
788.557	21686.79
788.89	21607.47
789.223	21658.77
789.556	21433.91
789.888	21442.05
790.221	21314.14
790.554	21225.33
790.887	21232.79
791.219	21209.06
791.552	21076.86
791.884	20971.33
792.217	20928.62
792.549	20847.04
792.882	20714.16
793.214	20685.91
793.546	20644.33
793.879	20510.1
794.211	20342.42
794.543	20383.77
794.875	20432.36
795.207	20325.69
795.539	20242.08
795.871	20242.31
796.203	20075.08
796.535	20009.32
796.867	19872.6
797.198	19819.04
797.53	19949.43
797.862	19646.16
798.193	19737.69
798.525	19547.18
798.856	19542.66
799.188	19315.33
799.519	19264.71
799.85	19184.26
800.182	19093.18
800.513	19179.06
800.844	18980.87
801.175	19071.72
801.506	19019.06
801.837	18832.63
802.168	18782.23
802.499	18746.98
802.83	18537.49
803.161	18557.83
803.491	18423.15
803.822	18458.62
804.153	18342.47
804.483	18232.42
804.814	18150.61
805.145	18165.75
805.475	18265.64
805.805	18013.89
806.136	18152.64
806.466	18018.64
806.796	17976.83
807.126	17863.84
807.457	17806.66
807.787	17939.99
808.117	17888.24
808.447	17879.88
808.777	17935.7
809.107	17809.6
809.436	17751.07
809.766	17746.33
810.096	17629.72
810.426	17588.82
810.755	17612.32
811.085	17534.58
811.414	17447.35
811.744	17321.93
812.073	17281.48
812.403	17231.99
812.732	17047.81
813.061	17087.59
813.39	17094.59
813.719	17022.5
814.049	17150.64
814.378	16998.78
814.707	17009.17
815.036	16939.79
815.365	16792.68
815.693	16790.87
816.022	16717.43
816.351	16637.66
816.68	16579.35
817.008	16635.4
817.337	16477.66
817.665	16459.58
817.994	16467.04
818.322	16425.01
818.651	16263.43
818.979	16215.75
819.307	16332.13
819.636	16264.56
819.964	16156.54
820.292	16209.19
820.62	16114.73
820.948	16079.03
821.276	16104.56
821.604	16098.01
821.932	16057.11
822.259	16106.37
822.587	16078.12
822.915	16084.9
823.243	16046.48
823.57	16060.95
823.898	16136.88
824.225	16089.2
824.553	15989.99
824.88	16034.28
825.207	16015.98
825.535	16079.25
825.862	16130.1
826.189	16029.31
826.516	16051.23
826.843	16125.8
827.17	16076.77
827.497	16059.14
827.824	16147.5
828.151	16119.03
828.478	16015.07
828.805	16132.81
829.131	15945.47
829.458	15965.58
829.785	15949.31
830.111	15979.82
830.438	16091
830.764	15998.58
831.09	16029.76
831.417	15834.29
831.743	16004.9
832.069	15949.31
832.395	15938.47
832.722	15882.2
833.048	15890.1
833.374	15895.3
833.7	15824.12
834.026	15829.32
834.351	15882.42
834.677	15825.25
835.003	15871.12
835.329	15917.9
835.654	15789.54
835.98	15678.81
836.306	15722.43
836.631	15590.23
836.956	15694.4
837.282	15644.24
837.607	15631.81
837.932	15600.85
838.258	15594.29
838.583	15570.11
838.908	15361.31
839.233	15417.35
839.558	15398.59
839.883	15333.06
840.208	15448.53
840.533	15448.31
840.858	15280.63
841.182	15317.24
841.507	15349.33
841.832	15180.29
842.156	15211.48
842.481	15282.89
842.805	15120.41
843.13	15138.71
843.454	15130.58
843.778	15037.7
844.103	15016.68
844.427	15026.4
844.751	14954.08
845.075	14910.24
845.399	14945.72
845.723	14751.83
846.047	14792.73
846.371	14767.65
846.695	14679.97
847.019	14586.41
847.343	14559.97
847.666	14573.53
847.99	14407.21
848.313	14500.99
848.637	14419.86
848.96	14346.64
849.284	14357.49
849.607	14173.99
849.931	14181
850.254	14049.25
850.577	14023.94
850.9	13883.38
851.223	13948.46
851.546	13874.11
851.869	13824.62
852.192	13860.55
852.515	13724.51
852.838	13677.06
853.161	13706.66
853.483	13573.33
853.806	13538.53
854.129	13478.19
854.451	13401.36
854.774	13354.35
855.096	13433.45
855.419	13432.09
855.741	13383.5
856.063	13294.92
856.385	13273
856.708	13230.29
857.03	13154.58
857.352	13206.79
857.674	13087.47
857.996	13115.26
858.318	12975.83
858.64	12957.53
858.961	12954.59
859.283	12943.52
859.605	12881.82
859.926	12999.56
860.248	12868.94
860.57	12837.76
860.891	12765.44
861.212	12730.64
861.534	12744.65
861.855	12649.74
862.176	12644.09
862.498	12715.95
862.819	12672.79
863.14	12539.01
863.461	12556.86
863.782	12546.01
864.103	12568.84
864.424	12517.76
864.745	12588.04
865.065	12536.07
865.386	12372.01
865.707	12441.83
866.027	12395.73
866.348	12393.47
866.668	12418.33
866.989	12373.59
867.309	12394.15
867.63	12357.77
867.95	12331.33
868.27	12275.74
868.59	12289.3
868.91	12241.39
869.23	12176.98
869.55	12187.38
869.87	12284.32
870.19	12186.02
870.51	12158.23
870.83	12302.18
871.15	12170.43
871.469	12074.84
871.789	12173.59
872.109	12195.51
872.428	12137.21
872.748	12169.75
873.067	12152.12
873.386	12152.12
873.706	12088.17
874.025	12013.14
874.344	11987.16
874.663	12010.43
874.982	12041.39
875.301	11987.38
875.62	11956.42
875.939	11995.52
876.258	11945.12
876.577	11827.16
876.896	11911.9
877.214	11850.44
877.533	11813.15
877.852	11828.06
878.17	11875.07
878.489	11802.3
878.807	11827.61
879.125	11827.61
879.444	11720.72
879.762	11788.29
880.08	11680.95
880.398	11705.36
880.716	11736.77
881.034	11628.3
881.352	11581.52
881.67	11647.96
881.988	11648.63
882.306	11611.12
882.624	11533.84
882.941	11466.49
883.259	11494.97
883.577	11447.74
883.894	11444.57
884.212	11338.59
884.529	11450.9
884.846	11345.82
885.164	11383.33
885.481	11379.94
885.798	11332.94
886.115	11243.45
886.432	11231.47
886.75	11272.37
887.067	11325.48
887.383	11242.54
887.7	11247.06
888.017	11192.15
888.334	11144.47
888.651	11143.34
888.967	11129.55
889.284	10994.19
889.6	11035.32
889.917	10986.73
890.233	11028.76
890.55	10939.05
890.866	10933.17
891.182	10908.09
891.498	10857.92
891.815	10898.82
892.131	10800.07
892.447	10801.88
892.763	10808.43
893.079	10711.71
893.395	10700.41
893.71	10685.72
894.026	10606.85
894.342	10630.81
894.657	10549.68
894.973	10555.56
895.289	10533.41
895.604	10519.62
895.92	10442.79
896.235	10442.34
896.55	10419.51
896.865	10382.45
897.181	10304.49
897.496	10233.76
897.811	10246.19
898.126	10246.86
898.441	10169.8
898.756	10186.75
899.071	10124.83
899.386	10176.36
899.7	10002.8
900.015	10108.34
900.33	9979.07
900.644	10004.38
900.959	9915.12
901.273	9953.54
901.588	9794.9
901.902	9812.3
902.216	9785.18
902.531	9766.65
902.845	9734.11
903.159	9693.88
903.473	9682.58
903.787	9732.75
904.101	9596.48
904.415	9693.66
904.729	9545.64
905.042	9547.9
905.356	9512.65
905.67	9580.89
905.984	9502.02
906.297	9419.09
906.611	9345.19
906.924	9365.76
907.237	9345.87
907.551	9331.86
907.864	9294.35
908.177	9316.04
908.491	9178.64
908.804	9217.06
909.117	9163.73
909.43	9100.9
909.743	9122.83
910.056	9096.61
910.368	8988.14
910.681	8955.6
910.994	8985.65
911.307	8963.51
911.619	8824.53
911.932	8888.48
912.244	8842.38
912.557	8786.56
912.869	8766.45
913.181	8684.42
913.494	8727.13
913.806	8629.5
914.118	8653.68
914.43	8622.73
914.742	8633.8
915.054	8542.95
915.366	8528.04
915.678	8493.24
915.99	8508.15
916.302	8408.72
916.613	8396.74
916.925	8393.58
917.236	8399
917.548	8262.73
917.859	8261.15
918.171	8215.5
918.482	8175.05
918.794	8104.09
919.105	8160.14
919.416	8049.86
919.727	8039.01
920.038	8025.68
920.349	7946.13
920.66	7952.23
920.971	7885.34
921.282	7978
921.593	7833.59
921.903	7793.59
922.214	7830.88
922.525	7756.99
922.835	7669.3
923.146	7722.18
923.456	7700.26
923.767	7576.43
924.077	7625.69
924.387	7452.59
924.697	7458.69
925.008	7446.48
925.318	7442.87
925.628	7411.91
925.938	7417.33
926.248	7353.38
926.558	7293.27
926.867	7318.8
927.177	7294.4
927.487	7272.93
927.796	7227.06
928.106	7214.85
928.416	7176.89
928.725	7200.62
929.034	7099.15
929.344	7105.03
929.653	7078.59
929.962	7067.51
930.271	7026.38
930.581	7050.79
930.89	7003.78
931.199	6967.85
931.508	6892.6
931.817	6878.14
932.125	6891.25
932.434	6897.12
932.743	6799.04
933.051	6768.08
933.36	6751.59
933.669	6739.16
933.977	6726.28
934.286	6682.66
934.594	6662.78
934.902	6616.22
935.21	6664.36
935.519	6560.86
935.827	6566.51
936.135	6487.41
936.443	6472.5
936.751	6449.9
937.059	6460.3
937.367	6460.52
937.674	6378.49
937.982	6432.05
938.29	6383.91
938.597	6329.23
938.905	6291.94
939.213	6277.25
939.52	6240.64
939.827	6239.96
940.135	6199.06
940.442	6192.05
940.749	6160.87
941.056	6175.33
941.363	6098.72
941.67	6071.38
941.977	6041.55
942.284	6001.33
942.591	6003.36
942.898	5916.81
943.205	5951.61
943.511	5915.23
943.818	5919.29
944.125	5882.91
944.431	5924.72
944.738	5838.62
945.044	5795.68
945.35	5782.35
945.657	5760.2
945.963	5739.86
946.269	5741.67
946.575	5754.33
946.881	5702.35
947.187	5670.03
947.493	5669.36
947.799	5610.38
948.105	5576.48
948.41	5590.71
948.716	5535.12
949.022	5550.72
949.327	5482.47
949.633	5466.88
949.938	5499.42
950.244	5436.14
950.549	5419.19
950.854	5405.41
951.16	5366.54
951.465	5391.62
951.77	5374.68
952.075	5331.29
952.38	5295.36
952.685	5259.65
952.99	5263.94
953.294	5207.45
953.599	5164.06
953.904	5102.82
954.209	5097.17
954.513	5113.21
954.818	5077.73
955.122	5084.97
955.426	5016.94
955.731	5005.42
956.035	4960
956.339	4990.96
956.643	4933.33
956.948	4881.35
957.252	4905.76
957.556	4890.62
957.86	4893.78
958.163	4807.01
958.467	4817.85
958.771	4794.8
959.075	4787.57
959.378	4756.61
959.682	4718.42
959.985	4695.14
960.289	4716.84
960.592	4655.37
960.896	4672.77
961.199	4618.31
961.502	4602.04
961.805	4573.34
962.108	4579.22
962.411	4562.04
962.714	4469.61
963.017	4498.09
963.32	4531.99
963.623	4488.37
963.926	4470.52
964.228	4480.46
964.531	4431.65
964.833	4429.39
965.136	4378.54
965.438	4350.97
965.741	4307.13
966.043	4332.22
966.345	4287.25
966.648	4314.59
966.95	4312.1
967.252	4251.77
967.554	4266.23
967.856	4265.55
968.158	4271.88
968.46	4242.05
968.761	4187.59
969.063	4165.44
969.365	4112.56
969.666	4085.9
969.968	4081.38
970.269	4070.08
970.571	4135.84
970.872	4065.78
971.174	4056.07
971.475	4061.72
971.776	4003.19
972.077	4004.09
972.378	3962.96
972.679	3981.49
972.98	3938.33
973.281	3926.35
973.582	3921.83
973.883	3896.07
974.183	3856.97
974.484	3862.4
974.785	3806.13
975.085	3808.84
975.386	3859.01
975.686	3849.07
975.986	3781.27
976.287	3770.2
976.587	3747.15
976.887	3713.7
977.187	3695.4
977.487	3692.23
977.787	3684.78
978.087	3698.33
978.387	3670.54
978.687	3662.18
978.987	3629.41
979.286	3609.75
979.586	3593.25
979.885	3558.23
980.185	3543.31
980.484	3538.57
980.784	3532.24
981.083	3553.03
981.382	3492.24
981.682	3511
981.981	3478
982.28	3460.6
982.579	3442.52
982.878	3429.19
983.177	3433.26
983.475	3407.5
983.774	3398.91
984.073	3351.45
984.372	3375.18
984.67	3370.89
984.969	3348.51
985.267	3334.95
985.566	3288.63
985.864	3291.79
986.162	3273.71
986.461	3271.45
986.759	3261.74
987.057	3192.59
987.355	3170.67
987.653	3173.38
987.951	3176.54
988.249	3186.26
988.547	3141.51
988.844	3120.27
989.142	3140.38
989.44	3091.8
989.737	3075.75
990.035	3083.44
990.332	3058.8
990.63	3055.64
990.927	3075.3
991.224	2984.68
991.521	2986.26
991.819	3002.76
992.116	2958.47
992.413	2992.14
992.71	2951.46
993.006	2944.91
993.303	2934.29
993.6	2923.44
993.897	2882.99
994.193	2879.6
994.49	2874.18
994.787	2839.83
995.083	2856.55
995.379	2814.52
995.676	2796.89
995.972	2828.75
996.268	2779.26
996.565	2771.81
996.861	2750.56
997.157	2720.06
997.453	2717.57
997.749	2759.15
998.044	2646.39
998.34	2630.57
998.636	2646.16
998.932	2668.31
999.227	2633.73
999.523	2615.88
999.818	2577.01
1000.114	2611.81
1000.409	2577.91
1000.704	2598.7
1001	2553.96
1001.295	2559.61
1001.59	2553.96
1001.885	2558.48
1002.18	2509.67
1002.475	2481.42
1002.77	2487.52
1003.065	2480.97
1003.359	2488.88
1003.654	2464.47
1003.949	2420.63
1004.243	2440.06
1004.538	2404.36
1004.832	2435.32
1005.127	2352.83
1005.421	2410.46
1005.715	2340.63
1006.009	2374.53
1006.304	2328.88
1006.598	2326.39
1006.892	2302.67
1007.186	2331.14
1007.48	2310.35
1007.773	2286.17
1008.067	2263.34
1008.361	2228.54
1008.655	2236.9
1008.948	2197.58
1009.242	2198.71
1009.535	2201.2
1009.829	2217.47
1010.122	2148.55
1010.415	2159.17
1010.708	2120.98
1011.001	2142.22
1011.295	2095.44
1011.588	2093.86
1011.881	2071.94
1012.173	2079.17
1012.466	2067.19
1012.759	2041.66
1013.052	2018.61
1013.344	2048.21
1013.637	2017.48
1013.93	2001.43
1014.222	2019.06
1014.514	1987.19
1014.807	1976.8
1015.099	1942.45
1015.391	1944.48
1015.683	1961.88
1015.976	1940.64
1016.268	1900.87
1016.56	1894.09
1016.851	1892.28
1017.143	1902.45
1017.435	1862.45
1017.727	1841.66
1018.018	1847.99
1018.31	1831.94
1018.602	1814.54
1018.893	1803.7
1019.185	1816.8
1019.476	1779.74
1019.767	1805.5
1020.058	1776.8
1020.35	1758.95
1020.641	1745.17
1020.932	1720.99
1021.223	1727.09
1021.514	1716.24
1021.804	1675.11
1022.095	1716.01
1022.386	1675.34
1022.677	1652.51
1022.967	1660.42
1023.258	1650.03
1023.548	1582.01
1023.839	1619.29
1024.129	1602.57
1024.419	1559.86
1024.709	1567.54
1025	1565.51
1025.29	1542.91
1025.58	1537.26
1025.87	1539.75
1026.16	1528.9
1026.449	1521.9
1026.739	1545.62
1027.029	1521.44
1027.319	1493.87
1027.608	1478.51
1027.898	1488.22
1028.187	1450.94
1028.477	1459.07
1028.766	1455
1029.055	1418.17
1029.344	1411.39
1029.634	1422.69
1029.923	1425.4
1030.212	1407.32
1030.501	1392.41
1030.79	1409.13
1031.078	1342.92
1031.367	1337.27
1031.656	1354.22
1031.945	1325.97
1032.233	1311.96
1032.522	1309.25
1032.81	1319.19
1033.099	1298.4
1033.387	1295.46
1033.675	1296.14
1033.963	1299.08
1034.251	1275.12
1034.54	1227.44
1034.828	1243.26
1035.116	1244.39
1035.403	1238.51
1035.691	1219.08
1035.979	1179.31
1036.267	1213.88
1036.554	1194.45
1036.842	1180.89
1037.129	1194.9
1037.417	1209.59
1037.704	1161.9
1037.992	1141.79
1038.279	1130.49
1038.566	1145.63
1038.853	1145.63
1039.14	1145.63
