Data from aluminium_macbook_case_FLMS001491_010.txt Node
Date: Tue Feb 07 10:43:07 GMT 2017
User: dcchb
Spectrometer: FLMS00149
Trigger mode: 0
Integration Time (sec): 2.000000E-2
Scans to average: 10
Electric dark correction enabled: true
Nonlinearity correction enabled: false
Boxcar width: 0
XAxis mode: Wavelengths
Number of Pixels in Spectrum: 2048
>>>>>Begin Spectral Data<<<<<
341.393	-12.39
341.776	-12.39
342.16	-12.39
342.543	-54.42
342.927	-78.83
343.31	-68.43
343.693	-69.11
344.077	-67.3
344.46	-58.04
344.843	-53.52
345.226	-44.25
345.61	-41.31
345.993	-1.99
346.376	-9.22
346.759	11.57
347.142	52.92
347.525	31.23
347.908	39.82
348.291	84.33
348.674	89.53
349.057	103.77
349.44	130.43
349.823	136.31
350.206	191.45
350.588	257.89
350.971	261.5
351.354	282.52
351.737	282.29
352.119	283.88
352.502	294.27
352.884	324.33
353.267	352.58
353.65	348.73
354.032	369.07
354.414	370.43
354.797	384.67
355.179	369.07
355.562	379.24
355.944	401.84
356.326	410.43
356.709	388.28
357.091	408.39
357.473	420.37
357.855	408.39
358.238	426.7
358.62	423.31
359.002	414.27
359.384	415.62
359.766	414.95
360.148	429.18
360.53	421.27
360.912	416.08
361.294	428.73
361.676	434.16
362.057	428.05
362.439	412.01
362.821	415.85
363.203	420.37
363.584	436.87
363.966	438
364.348	415.62
364.729	409.07
365.111	414.72
365.493	447.94
365.874	440.48
366.256	407.72
366.637	429.41
367.019	438.45
367.4	434.61
367.781	410.43
368.163	442.97
368.544	444.1
368.925	447.04
369.306	442.06
369.688	448.62
370.069	455.62
370.45	449.75
370.831	462.63
371.212	460.14
371.593	456.3
371.974	459.92
372.355	462.63
372.736	470.99
373.117	447.94
373.498	448.84
373.879	472.35
374.26	474.61
374.641	471.44
375.021	483.87
375.402	475.51
375.783	487.26
376.163	521.38
376.544	533.59
376.925	535.4
377.305	509.18
377.686	501.5
378.066	523.19
378.447	542.18
378.827	541.27
379.208	534.04
379.588	554.38
379.968	538.33
380.349	545.79
380.729	565
381.109	564.1
381.489	567.71
381.87	567.26
382.25	590.54
382.63	578.33
383.01	576.07
383.39	595.28
383.77	605.9
384.15	628.5
384.53	645.68
384.91	623.3
385.29	634.15
385.67	639.8
386.049	646.58
386.429	648.39
386.809	670.99
387.189	673.7
387.568	686.35
387.948	684.54
388.328	696.97
388.707	714.83
389.087	731.32
389.466	743.3
389.846	736.75
390.225	757.31
390.605	759.8
390.984	747.14
391.363	812.22
391.743	766.12
392.122	777.65
392.501	807.03
392.881	778.33
393.26	805.9
393.639	815.84
394.018	857.65
394.397	870.98
394.776	864.2
395.155	859.91
395.534	848.16
395.913	875.73
396.292	901.94
396.671	923.86
397.05	896.97
397.429	932.9
397.808	914.82
398.186	939.23
398.565	938.32
398.944	950.98
399.323	981.49
399.701	982.16
400.08	980.13
400.458	1009.28
400.837	1002.95
401.215	1001.82
401.594	1048.6
401.972	1037.3
402.351	1067.58
402.729	1074.14
403.107	1113.46
403.486	1103.52
403.864	1096.51
404.242	1110.97
404.62	1146.9
404.999	1177.41
405.377	1169.5
405.755	1204.53
406.133	1218.32
406.511	1218.99
406.889	1216.51
407.267	1250.86
407.645	1284.98
408.023	1307.8
408.401	1323.85
408.779	1338.76
409.156	1369.27
409.534	1364.3
409.912	1388.71
410.29	1406.79
410.667	1454.02
411.045	1447.69
411.422	1478.42
411.8	1471.64
412.178	1531.75
412.555	1542.6
412.933	1586.22
413.31	1581.7
413.687	1566.55
414.065	1582.83
414.442	1639.77
414.819	1677.29
415.197	1710.28
415.574	1722.71
415.951	1720.9
416.328	1734.91
416.705	1729.71
417.082	1766.1
417.46	1772.88
417.837	1837.28
418.214	1868.02
418.591	1849.71
418.967	1857.17
419.344	1892.87
419.721	1916.38
420.098	1947.34
420.475	1966.77
420.852	1964.51
421.228	2015.36
421.605	2008.58
421.982	2063.94
422.358	2051.97
422.735	2114.34
423.111	2111.4
423.488	2153.88
423.864	2183.94
424.241	2195.69
424.617	2231.4
424.994	2273.43
425.37	2306.65
425.746	2278.63
426.123	2328.34
426.499	2364.73
426.875	2397.04
427.251	2421
427.627	2489.24
428.003	2536.47
428.379	2511.61
428.756	2572.18
429.132	2621.44
429.507	2648.56
429.883	2672.51
430.259	2761.78
430.635	2761.78
431.011	2737.82
431.387	2897.82
431.763	2921.55
432.138	2906.86
432.514	2979.85
432.89	2973.98
433.265	3065.95
433.641	3124.48
434.016	3151.6
434.392	3180.52
434.767	3223.46
435.143	3217.81
435.518	3280.63
435.894	3331.93
436.269	3392.95
436.644	3443.12
437.02	3490.57
437.395	3501.65
437.77	3547.75
438.145	3576.67
438.52	3621.19
438.895	3658.7
439.271	3727.85
439.646	3822.09
440.021	3758.59
440.395	3827.96
440.77	3819.15
441.145	3844.69
441.52	3961.75
441.895	3965.81
442.27	3978.02
442.645	4002.2
443.019	4064.34
443.394	4063.66
443.769	4103.89
444.143	4112.25
444.518	4187.05
444.892	4155.41
445.267	4215.3
445.641	4241.29
446.016	4283.77
446.39	4333.04
446.764	4392.7
447.139	4383.66
447.513	4460.04
447.887	4467.27
448.262	4533.93
448.636	4542.3
449.01	4612.35
449.384	4681.5
449.758	4703.42
450.132	4756.98
450.506	4731.44
450.88	4785.91
451.254	4830.42
451.628	4902.96
452.002	4983.19
452.376	5008.95
452.75	5024.32
453.123	5115.61
453.497	5234.93
453.871	5240.81
454.244	5316.74
454.618	5377.08
454.992	5482.16
455.365	5466.34
455.739	5635.83
456.112	5685.99
456.486	5744.98
456.859	5839.21
457.232	5957.17
457.606	5922.15
457.979	6004.86
458.352	6133.44
458.725	6222.7
459.099	6263.38
459.472	6414.34
459.845	6477.61
460.218	6462.7
460.591	6579.98
460.964	6654.33
461.337	6793.31
461.71	6879.64
462.083	6925.74
462.456	6998.05
462.829	7097.26
463.201	7185.16
463.574	7205.05
463.947	7310.13
464.32	7469.45
464.692	7559.17
465.065	7584.7
465.438	7718.48
465.81	7805.71
466.183	7906.73
466.555	8102.2
466.928	8134.74
467.3	8216.1
467.672	8373.61
468.045	8606.6
468.417	8650.89
468.789	8726.59
469.161	8902.63
469.534	9005
469.906	9228.05
470.278	9237.77
470.65	9370.42
471.022	9523.86
471.394	9721.59
471.766	9834.13
472.138	9865.32
472.51	10035.71
472.882	10264.63
473.253	10393.44
473.625	10521.12
473.997	10772.19
474.369	10824.16
474.74	10955.46
475.112	11178.73
475.484	11406.3
475.855	11594.77
476.227	11669.57
476.598	12102.55
476.97	12280.17
477.341	12543.22
477.713	12684.45
478.084	12768.52
478.455	13132.35
478.827	13314.49
479.198	13685.11
479.569	13703.18
479.94	14139.56
480.311	14204.87
480.682	14581.58
481.053	14887.79
481.424	15085.75
481.795	15216.59
482.166	15474.66
482.537	15677.6
482.908	16068.55
483.279	16134.31
483.65	16507.86
484.021	16720.96
484.391	17020.39
484.762	17129.54
485.133	17375.4
485.503	17687.03
485.874	18014.03
486.244	18175.38
486.615	18580.34
486.985	18908.25
487.356	19212.87
487.726	19333.09
488.097	19849.92
488.467	19814.44
488.837	20341.65
489.207	20495.77
489.578	20821.42
489.948	21101.18
490.318	21444
490.688	21466.6
491.058	21799.92
491.428	22093.02
491.798	22278.55
492.168	22827.46
492.538	22881.7
492.908	23059.32
493.278	23382.25
493.648	23308.58
494.017	23747.89
494.387	23977.49
494.757	24130.48
495.126	24341.55
495.496	24335.22
495.866	24661.54
496.235	24841.88
496.605	25116.9
496.974	25356.66
497.344	25641.63
497.713	25890.21
498.082	26071.67
498.452	26391.44
498.821	26457.2
499.19	26630.53
499.559	26997.52
499.928	27166.79
500.298	27256.73
500.667	27667.79
501.036	27619.2
501.405	27941
501.774	28052.19
502.143	28301.22
502.512	28432.52
502.88	28779.4
503.249	28657.82
503.618	28905.95
503.987	29086.51
504.356	29257.35
504.724	29362.89
505.093	29512.26
505.462	29664.35
505.83	29834.06
506.199	30149.98
506.567	30455.51
506.936	30318.79
507.304	30853.02
507.672	31086.46
508.041	31213.01
508.409	31452.77
508.777	31721.47
509.145	32116.94
509.514	32130.95
509.882	32436.7
510.25	32564.38
510.618	32861.55
510.986	32885.28
511.354	33405.94
511.722	33731.58
512.09	34117.56
512.458	33911.02
512.826	34388.06
513.193	34527.27
513.561	34762.97
513.929	34931.1
514.297	35336.29
514.664	35507.36
515.032	35583.74
515.4	35930.85
515.767	36202.71
516.135	36368.35
516.502	36071.18
516.869	36828.23
517.237	36902.8
517.604	36919.75
517.972	37370.36
518.339	37592.05
518.706	37753.17
519.073	37978.7
519.44	38281.3
519.808	38649.65
520.175	38587.05
520.542	39133.02
520.909	39416.41
521.276	39500.92
521.643	40118.54
522.009	40303.16
522.376	40743.6
522.743	40849.82
523.11	41455
523.477	41867.87
523.843	41994.87
524.21	42322.77
524.577	42815.64
524.943	42864.68
525.31	43122.07
525.676	43549.18
526.043	43963.63
526.409	44119.79
526.776	44429.38
527.142	44567.23
527.508	44799.54
527.874	45123.83
528.241	45311.62
528.607	45443.82
528.973	45810.36
529.339	45723.81
529.705	46176.46
530.071	46379.61
530.437	46473.85
530.803	46735.31
531.169	47006.26
531.535	46887.4
531.901	47157.22
532.267	47278.12
532.632	47632.01
532.998	47812.57
533.364	48057.99
533.73	48375.04
534.095	48618.88
534.461	48768.93
534.826	48956.95
535.192	49132.31
535.557	49498.63
535.923	49571.62
536.288	49810.48
536.653	49789.92
537.019	49962.34
537.384	50110.59
537.749	50382.67
538.114	50452.5
538.479	50532.5
538.845	50724.13
539.21	50732.72
539.575	50906.5
539.94	50962.32
540.305	51229.43
540.67	51074.86
541.034	51262.65
541.399	51415.19
541.764	51357.11
542.129	51549.2
542.494	51642.75
542.858	51670.1
543.223	51740.38
543.587	51884.33
543.952	51865.57
544.316	51965.23
544.681	51959.35
545.045	52211.1
545.41	52470.3
545.774	52471.43
546.138	52590.3
546.503	52693.35
546.867	52837.52
547.231	53103.05
547.595	53007.46
547.959	53202.94
548.324	53312.76
548.688	53487
549.052	53562.48
549.416	53719.99
549.779	53729.25
550.143	53873.2
550.507	54122.46
550.871	54169.92
551.235	54260.99
551.599	54486.75
551.962	54551.38
552.326	54715.44
552.689	54797.02
553.053	54660.75
553.417	54812.16
553.78	55102.55
554.143	54992.72
554.507	55173.73
554.87	55218.25
555.234	55436.78
555.597	55308.64
555.96	55378.02
556.323	55541.41
556.686	55573.95
557.05	55749.99
557.413	55775.07
557.776	55832.92
558.139	55982.75
558.502	56107.04
558.865	56111.34
559.228	56315.17
559.59	56457.09
559.953	56489.18
560.316	56888.49
560.679	56848.27
561.041	56974.14
561.404	57152.21
561.767	57323.51
562.129	57224.75
562.492	57558.08
562.854	57563.5
563.217	57636.49
563.579	57750.39
563.941	57952.42
564.304	58027.44
564.666	58212.98
565.028	58231.51
565.39	58305.18
565.753	58527.09
566.115	58565.96
566.477	58768.67
566.839	58777.03
567.201	58968.44
567.563	58906.06
567.925	59119.17
568.287	59147.87
568.648	59177.7
569.01	59266.05
569.372	59439.38
569.734	59342.66
570.095	59477.35
570.457	59555.76
570.819	59586.95
571.18	59563.9
571.542	59665.37
571.903	59712.82
572.265	59793.5
572.626	59867.85
572.987	59914.85
573.349	59946.04
573.71	60002.76
574.071	60098.12
574.432	60246.59
574.794	60309.19
575.155	60291.79
575.516	60307.84
575.877	60423.54
576.238	60456.08
576.599	60558.68
576.96	60620.6
577.32	60690.65
577.681	60823.08
578.042	60882.06
578.403	60824.21
578.763	60964.32
579.124	60961.15
579.485	61050.64
579.845	61127.02
580.206	61151.2
580.566	61107.36
580.927	61154.82
581.287	61204.76
581.648	61149.62
582.008	61268.49
582.368	61233.46
582.728	61298.09
583.089	61253.57
583.449	61252.67
583.809	61173.8
584.169	61229.17
584.529	61186.46
584.889	61339.22
585.249	61176.06
585.609	61165.21
585.969	61278.88
586.329	61070.08
586.688	61152.78
587.048	61140.81
587.408	61082.96
587.768	61124.99
588.127	61058.32
588.487	61036.18
588.846	61149.62
589.206	61023.07
589.565	61080.92
589.925	61182.16
590.284	61066.46
590.643	61121.6
591.003	61259.67
591.362	61361.14
591.721	61204.99
592.08	61251.54
592.44	61357.98
592.799	61360.01
593.158	61269.84
593.517	61391.2
593.876	61437.07
594.235	61394.59
594.593	61495.83
594.952	61484.98
595.311	61455.15
595.67	61530.18
596.029	61670.74
596.387	61637.29
596.746	61702.83
597.104	61591.87
597.463	61549.84
597.822	61624.41
598.18	61632.09
598.538	61614.02
598.897	61703.28
599.255	61543.51
599.613	61801.36
599.972	61628.48
600.33	61645.2
600.688	61567.92
601.046	61636.84
601.404	61629.61
601.762	61610.63
602.12	61744.63
602.478	61684.3
602.836	61712.54
603.194	61589.16
603.552	61630.29
603.91	61517.29
604.268	61654.69
604.625	61540.8
604.983	61670.74
605.341	61592.1
605.698	61677.52
606.056	61707.57
606.413	61657.86
606.771	61752.99
607.128	61798.87
607.485	61731.75
607.843	61810.85
608.2	61957.06
608.557	61975.36
608.914	61940.56
609.272	62083.38
609.629	62154.79
609.986	62229.37
610.343	62087.68
610.7	62320.21
611.057	62295.13
611.414	62234.34
611.771	62344.84
612.127	62452.41
612.484	62338.06
612.841	62480.66
613.198	62387.55
613.554	62475.24
613.911	62583.71
614.267	62559.3
614.624	62488.57
614.98	62498.51
615.337	62604.05
615.693	62568.57
616.05	62528.34
616.406	62687.43
616.762	62571.28
617.118	62568.34
617.475	62519.75
617.831	62589.36
618.187	62612.18
618.543	62508.46
618.899	62687.66
619.255	62599.07
619.611	62580.09
619.967	62588.91
620.323	62645.17
620.678	62592.29
621.034	62454.45
621.39	62437.27
621.746	62452.86
622.101	62700.99
622.457	62503.71
622.812	62540.77
623.168	62620.99
623.523	62610.6
623.879	62705.96
624.234	62483.37
624.589	62601.11
624.945	62620.77
625.3	62738.51
625.655	62672.07
626.01	62704.16
626.365	62767.88
626.72	62662.35
627.075	62672.07
627.43	62698.05
627.785	62672.74
628.14	62668
628.495	62760.65
628.85	62728.79
629.205	62650.37
629.559	62839.97
629.914	62666.87
630.269	62692.41
630.623	62671.39
630.978	62593.88
631.332	62713.42
631.687	62779.41
632.041	62636.59
632.396	62678.85
632.75	62561.56
633.104	62614.44
633.459	62416.25
633.813	62413.77
634.167	62377.84
634.521	62433.2
634.875	62437.95
635.229	62311.17
635.583	62193.44
635.937	62182.59
636.291	62141.69
636.645	62144.17
636.999	62096.71
637.352	62092.87
637.706	61926.78
638.06	62019.88
638.413	61948.47
638.767	61853.78
639.121	61863.73
639.474	61715.26
639.828	61754.35
640.181	61757.97
640.534	61656.5
640.888	61576.05
641.241	61475.71
641.594	61527.69
641.947	61534.7
642.301	61567.24
642.654	61569.04
643.007	61538.31
643.36	61528.37
643.713	61579.67
644.066	61584.64
644.419	61442.27
644.771	61340.58
645.124	61113.24
645.477	61120.47
645.83	60921.15
646.182	60868.5
646.535	60772.23
646.888	60815.62
647.24	60720.48
647.593	60878.67
647.945	60803.19
648.298	60677.54
648.65	60624.89
649.002	60600.03
649.355	60696.98
649.707	60576.98
650.059	60685
650.411	60965.67
650.763	61020.58
651.115	61266.91
651.467	61132.45
651.819	61085.44
652.171	61006.8
652.523	60969.96
652.875	60930.19
653.227	60862.85
653.578	60977.65
653.93	60899.68
654.282	60796.18
654.633	60659.24
654.985	60759.57
655.337	60750.54
655.688	60675.51
656.039	60795.51
656.391	60447.72
656.742	60475.74
657.094	60483.2
657.445	60546.92
657.796	60484.1
658.147	60334.28
658.498	60380.38
658.849	60407.04
659.2	60341.28
659.551	60283.2
659.902	60330.21
660.253	60292.24
660.604	60346.93
660.955	60206.82
661.306	60292.47
661.656	60241.62
662.007	60265.12
662.358	60228.97
662.708	60253.15
663.059	60231
663.409	60073.27
663.76	60279.59
664.11	60220.15
664.461	60277.1
664.811	60304.22
665.161	60272.36
665.511	60202.75
665.862	60267.38
666.212	60289.98
666.562	60295.41
666.912	60273.26
667.262	60224.67
667.612	60277.1
667.962	60232.13
668.312	60212.92
668.662	60346.7
669.011	60279.59
669.361	60277.1
669.711	60172.7
670.06	60156.65
670.41	60105.58
670.76	60108.29
671.109	60213.6
671.459	60083.89
671.808	60001.85
672.157	60125.69
672.507	59920.27
672.856	59975.87
673.205	59937.45
673.554	59982.65
673.904	59902.42
674.253	60009.54
674.602	59861.75
674.951	59469.21
675.3	59334.08
675.649	59634.86
675.998	59639.83
676.346	59652.49
676.695	59698.59
677.044	59473.96
677.393	59574.75
677.741	59571.58
678.09	59484.13
678.438	59409.1
678.787	59353.28
679.135	59406.16
679.484	59190.35
679.832	59255.89
680.181	59083.46
680.529	59212.5
680.877	59072.39
681.225	59012.05
681.573	59210.24
681.922	58943.58
682.27	58985.16
682.618	58966.18
682.966	58866.74
683.314	58998.94
683.661	58924.59
684.009	58887.53
684.357	58832.17
684.705	58744.94
685.053	58808.21
685.4	58785.16
685.748	58620.87
686.095	58669.23
686.443	58509.92
686.79	58545.4
687.138	58591.27
687.485	58571.16
687.832	58445.74
688.18	58527.99
688.527	58423.14
688.874	58363.93
689.221	58251.84
689.568	58240.54
689.915	58180.66
690.262	58189.47
690.609	58095.46
690.956	58026.54
691.303	57971.63
691.65	57855.92
691.997	57899.76
692.344	57728.69
692.69	57712.88
693.037	57697.73
693.383	57450.28
693.73	57499.55
694.077	57424.75
694.423	57375.93
694.769	57275.37
695.116	57194.47
695.462	57055.72
695.808	57039.22
696.155	56991.54
696.501	56817.76
696.847	56750.87
697.193	56604.43
697.539	56639.01
697.885	56427.26
698.231	56302.97
698.577	56269.52
698.923	56173.25
699.269	56136.19
699.614	55912.24
699.96	55909.08
700.306	55972.81
700.651	55756.09
700.997	55548.64
701.342	55559.94
701.688	55493.5
702.033	55426.83
702.379	55402.65
702.724	55390.22
703.069	55378.93
703.415	55063.91
703.76	55021.19
704.105	54981.65
704.45	54923.57
704.795	54771.94
705.14	54716.8
705.485	54680.41
705.83	54605.39
706.175	54545.5
706.52	54459.4
706.865	54488.78
707.209	54517.48
707.554	54371.95
707.899	54439.74
708.243	54313.64
708.588	54195.68
708.932	54088.56
709.277	54091.05
709.621	54046.53
709.966	53842.02
710.31	53904.61
710.654	53693.77
710.998	53762.7
711.342	53827.78
711.687	53744.39
712.031	53627.11
712.375	53482.03
712.719	53636.82
713.063	53440.22
713.407	53450.39
713.75	53390.5
714.094	53318.64
714.438	53250.39
714.782	53229.6
715.125	53062.15
715.469	53144.86
715.812	52845.88
716.156	52792.1
716.499	52832.78
716.843	52748.03
717.186	52546.68
717.53	52624.65
717.873	52505.78
718.216	52455.61
718.559	52235.51
718.902	52128.16
719.246	52100.14
719.589	52007.49
719.932	51862.41
720.275	51813.6
720.617	51802.52
720.96	51666.71
721.303	51641.4
721.646	51674.39
721.989	51324.79
722.331	51323.66
722.674	51214.51
723.016	51184.23
723.359	51177.23
723.701	51178.81
724.044	50879.16
724.386	50672.61
724.729	50854.52
725.071	50566.4
725.413	50630.8
725.755	50649.56
726.097	50414.31
726.439	50384.71
726.782	50361.2
727.124	50443.91
727.465	50146.29
727.807	50116.01
728.149	50080.08
728.491	49992.17
728.833	50022.91
729.175	50140.64
729.516	49938.62
729.858	49883.7
730.199	49902.01
730.541	49752.18
730.882	49726.42
731.224	49885.96
731.565	49561.45
731.906	49628.57
732.248	49528.23
732.589	49470.61
732.93	49455.01
733.271	49509.7
733.612	49527.33
733.953	49559.87
734.294	49230.16
734.635	49284.62
734.976	49390.83
735.317	49158.52
735.658	49378.86
735.999	49145.19
736.339	49176.38
736.68	49281.68
737.021	49132.31
737.361	48879.44
737.702	49116.27
738.042	48896.84
738.383	48804.41
738.723	48710.63
739.063	48748.82
739.404	48763.05
739.744	48635.15
740.084	48389.5
740.424	48389.5
740.764	48121.94
741.104	48319.22
741.444	48137.76
741.784	48011.89
742.124	47979.12
742.464	47885.11
742.804	47656.19
743.143	47766.02
743.483	47642.63
743.823	47342.98
744.162	47343.2
744.502	47401.28
744.841	47197.67
745.181	47253.72
745.52	46968.52
745.86	46997.45
746.199	46939.83
746.538	46733.73
746.877	46834.07
747.216	46643.56
747.556	46475.88
747.895	46469.33
748.234	46272.72
748.573	46075.67
748.911	46154.54
749.25	45956.8
749.589	45879.51
749.928	45841.32
750.267	45920.42
750.605	45729.01
750.944	45681.55
751.283	45393.43
751.621	45489.47
751.96	45103.26
752.298	45137.84
752.636	45167.89
752.975	44939.43
753.313	44872.76
753.651	45013.55
753.989	44607.68
754.327	44698.08
754.666	44408.37
755.004	44481.58
755.342	44475.03
755.679	44469.38
756.017	44305.32
756.355	44378.54
756.693	44134.7
757.031	44310.97
757.368	43894.71
757.706	43793.69
758.044	43806.12
758.381	43950.53
758.719	43768.61
759.056	43808.83
759.394	43579.01
759.731	43361.61
760.068	43366.13
760.405	43036.65
760.743	43044.33
761.08	43076.42
761.417	43016.09
761.754	42813.83
762.091	42714.63
762.428	42676.21
762.765	42443.67
763.102	42555.99
763.438	42237.35
763.775	42146.28
764.112	42061.31
764.449	42181.08
764.785	41951.03
765.122	41687.99
765.458	41500.65
765.795	41408.22
766.131	41536.58
766.467	41211.84
766.804	40928.01
767.14	40890.72
767.476	40733.89
767.812	40492.76
768.148	40618.86
768.485	40288.47
768.821	40082.15
769.157	39910.63
769.492	39777.08
769.828	39653.46
770.164	39463.64
770.5	39305.45
770.836	39303.64
771.171	39036.98
771.507	38851.9
771.842	38603.77
772.178	38574.62
772.513	38528.52
772.849	38310
773.184	38120.4
773.519	37948.2
773.855	37850.12
774.19	37606.29
774.525	37489
774.86	37462.56
775.195	37322.68
775.53	36869.13
775.865	36889.92
776.2	36654.9
776.535	36377.62
776.87	36282.93
777.205	36053.78
777.539	36084.74
777.874	36163.16
778.209	35658.99
778.543	35667.58
778.878	35452.67
779.212	35422.39
779.547	35202.51
779.881	35238.44
780.215	35008.61
780.55	35116.63
780.884	34972.91
781.218	34791.9
781.552	34799.13
781.886	34595.52
782.22	34444.33
782.554	34269.42
782.888	34000.5
783.222	33991.69
783.556	33771.81
783.889	33643.9
784.223	33478.26
784.557	33478.26
784.89	33570.46
785.224	33395.55
785.557	33190.13
785.891	33134.31
786.224	33050.25
786.558	33175.22
786.891	32906.52
787.224	32591.95
787.557	32613.87
787.891	32744.72
788.224	32505.85
788.557	32673.99
788.89	32447.55
789.223	32425.18
789.556	32173.89
789.888	32130.95
790.221	31815.7
790.554	31671.07
790.887	31856.15
791.219	31588.14
791.552	31418.2
791.884	31321.7
792.217	31257.07
792.549	31188.6
792.882	31036.51
793.214	30897.08
793.546	30832.45
793.879	30673.36
794.211	30451.9
794.543	30560.37
794.875	30470.43
795.207	30527.83
795.539	30309.75
795.871	30139.59
796.203	29885.36
796.535	29775.98
796.867	29527.4
797.198	29676.1
797.53	29607.85
797.862	29309.55
798.193	29371.25
798.525	29098.49
798.856	29034.76
799.188	28758.16
799.519	28758.16
799.85	28613.75
800.182	28512.51
800.513	28526.75
800.844	28251.73
801.175	28315.68
801.506	28291.95
801.837	28114.78
802.168	27955.69
802.499	27878.41
802.83	27668.02
803.161	27657.39
803.491	27549.15
803.822	27492.88
804.153	27197.97
804.483	27158.42
804.814	27064.42
805.145	27029.16
805.475	27074.13
805.805	26846.57
806.136	26843.86
806.466	26830.52
806.796	26821.71
807.126	26503.75
807.457	26417.43
807.787	26450.19
808.117	26368.39
808.447	26313.47
808.777	26286.81
809.107	26175.4
809.436	26043.65
809.766	26110.77
810.096	25975.4
810.426	25870.32
810.755	25784.68
811.085	25770.66
811.414	25687.05
811.744	25536.09
812.073	25492.93
812.403	25532.03
812.732	25316.89
813.061	25349.21
813.39	25266.04
813.719	25198.25
814.049	25361.86
814.378	25200.28
814.707	25047.29
815.036	25098.82
815.365	24995.09
815.693	24791.93
816.022	24901.08
816.351	24725.04
816.68	24665.83
817.008	24844.13
817.337	24696.79
817.665	24500.19
817.994	24645.27
818.322	24467.87
818.651	24372.28
818.979	24353.07
819.307	24379.51
819.636	24382
819.964	24248.67
820.292	24355.79
820.62	24415.67
820.948	24328.89
821.276	24449.79
821.604	24276.01
821.932	24337.26
822.259	24291.16
822.587	24339.06
822.915	24121.22
823.243	24295.9
823.57	24135
823.898	24241.44
824.225	24136.13
824.553	24030.6
824.88	24162.57
825.207	24213.42
825.535	24107.43
825.862	24264.94
826.189	23958.28
826.516	24152.18
826.843	24199.63
827.17	24099.52
827.497	24090.71
827.824	24139.52
828.151	24152.63
828.478	24186.75
828.805	24067.88
829.131	23880.54
829.458	23945.4
829.785	23813.65
830.111	23896.14
830.438	23925.74
830.764	23917.61
831.09	23958.96
831.417	23856.14
831.743	23836.93
832.069	23805.07
832.395	23658.86
832.722	23814.33
833.048	23697.95
833.374	23651.85
833.7	23528.24
834.026	23541.57
834.351	23570.5
834.677	23480.78
835.003	23521.91
835.329	23511.29
835.654	23424.51
835.98	23253.22
836.306	23270.16
836.631	23232.65
836.956	23340.9
837.282	23354.46
837.607	23025.43
837.932	23028.36
838.258	22982.71
838.583	23051.41
838.908	22838.76
839.233	22946.33
839.558	22937.29
839.883	22801.93
840.208	22728.26
840.533	22785.43
840.858	22711.99
841.182	22704.76
841.507	22678.99
841.832	22531.65
842.156	22455.95
842.481	22589.96
842.805	22474.48
843.13	22488.49
843.454	22368.27
843.778	22360.13
844.103	22325.11
844.427	22307.7
844.751	22244.88
845.075	22250.76
845.399	22194.71
845.723	22122.4
846.047	22119.69
846.371	22027.49
846.695	21875.17
847.019	21752.24
847.343	21743.2
847.666	21670.66
847.99	21638.57
848.313	21613.71
848.637	21455.75
848.96	21433.38
849.284	21351.35
849.607	21314.96
849.931	21217.11
850.254	21077.23
850.577	20968.98
850.9	20793.85
851.223	20761.53
851.546	20772.15
851.869	20681.31
852.192	20814.41
852.515	20613.06
852.838	20579.16
853.161	20533.06
853.483	20488.32
853.806	20414.65
854.129	20358.15
854.451	20234.76
854.774	20252.62
855.096	20201.55
855.419	20181.66
855.741	20117.48
856.063	19912.51
856.385	19825.06
856.708	19769.01
857.03	19760.43
857.352	19717.49
857.674	19604.05
857.996	19614.89
858.318	19565.18
858.64	19456.71
858.961	19460.55
859.283	19437.05
859.605	19253.1
859.926	19335.81
860.248	19156.6
860.57	19125.19
860.891	19170.84
861.212	19014.46
861.534	19004.51
861.855	18943.73
862.176	18972.2
862.498	18912.09
862.819	18883.39
863.14	18835.25
863.461	18732.88
863.782	18657.86
864.103	18660.79
864.424	18662.83
864.745	18521.36
865.065	18425.09
865.386	18466.22
865.707	18402.04
866.027	18380.58
866.348	18386
866.668	18279.79
866.989	18197.76
867.309	18133.35
867.63	18200.02
867.95	18172.45
868.27	17926.8
868.59	18006.12
868.91	17994.6
869.23	18036.18
869.55	17912.79
869.87	17927.25
870.19	17830.76
870.51	17814.26
870.83	17913.47
871.15	17666.7
871.469	17768.39
871.789	17687.49
872.109	17767.71
872.428	17719.12
872.748	17773.36
873.067	17620.82
873.386	17656.98
873.706	17566.13
874.025	17504.21
874.344	17483.2
874.663	17607.26
874.982	17522.07
875.301	17464.22
875.62	17408.62
875.939	17386.7
876.258	17411.79
876.577	17405.69
876.896	17353.03
877.214	17348.74
877.533	17366.59
877.852	17413.82
878.17	17290.66
878.489	17370.89
878.807	17329.98
879.125	17262.87
879.444	17293.82
879.762	17168.63
880.08	17199.36
880.398	17158.01
880.716	17148.97
881.034	17165.47
881.352	17179.25
881.67	17077.33
881.988	17022.87
882.306	17055.19
882.624	16991.69
882.941	17017.9
883.259	16900.61
883.577	16898.13
883.894	16913.5
884.212	16844.35
884.529	16783.78
884.846	16810
885.164	16826.27
885.481	16736.33
885.798	16852.03
886.115	16631.47
886.432	16701.07
886.75	16640.73
887.067	16593.5
887.383	16542.43
887.7	16617.01
888.017	16572.94
888.334	16484.35
888.651	16632.83
888.967	16451.14
889.284	16468.31
889.6	16442.1
889.917	16236.68
890.233	16314.87
890.55	16286.39
890.866	16281.87
891.182	16066.96
891.498	16141.31
891.815	16068.55
892.131	16037.81
892.447	16026.06
892.763	15993.07
893.079	15852.96
893.395	15838.95
893.71	15880.75
894.026	15903.13
894.342	15804.6
894.657	15611.38
894.973	15652.06
895.289	15504.27
895.604	15527.09
895.92	15443.7
896.235	15317.61
896.55	15369.81
896.865	15278.74
897.181	15273.77
897.496	15242.58
897.811	15097.27
898.126	15046.88
898.441	15001.46
898.756	15062.02
899.071	14942.02
899.386	14874
899.7	14769.6
900.015	14709.03
900.33	14565.76
900.644	14634.23
900.959	14638.53
901.273	14473.56
901.588	14424.75
901.902	14357.18
902.216	14379.33
902.531	14266.33
902.845	14191.08
903.159	14140.91
903.473	14061.82
903.787	13987.25
904.101	14010.3
904.415	13932.78
904.729	13897.53
905.042	13763.52
905.356	13822.96
905.67	13735.5
905.984	13618.89
906.297	13547.93
906.611	13517.2
906.924	13482.17
907.237	13446.24
907.551	13442.4
907.864	13298.9
908.177	13359.47
908.491	13351.56
908.804	13165.35
909.117	13151.33
909.43	12973.71
909.743	13020.26
910.056	12873.83
910.368	12816.43
910.681	12797.22
910.994	12784.11
911.307	12800.61
911.619	12634.29
911.932	12745.24
912.244	12599.26
912.557	12594.97
912.869	12558.58
913.181	12480.62
913.494	12503.44
913.806	12374.86
914.118	12392.26
914.43	12290.79
914.742	12384.35
915.054	12277.46
915.366	12229.55
915.678	12076.11
915.99	12042.21
916.302	12094.41
916.613	12043.79
916.925	12018.94
917.236	12024.36
917.548	11900.29
917.859	11926.06
918.171	11762.22
918.482	11738.49
918.794	11637.02
919.105	11685.61
919.416	11647.87
919.727	11636.12
920.038	11623.69
920.349	11504.82
920.66	11451.94
920.971	11470.93
921.282	11391.83
921.593	11321.1
921.903	11243.81
922.214	11301.89
922.525	11178.73
922.835	11150.48
923.146	11102.8
923.456	11084.95
923.767	11051.5
924.077	11050.37
924.387	10967.89
924.697	10938.51
925.008	10995.23
925.318	10889.02
925.628	10925.86
925.938	10884.73
926.248	10780.78
926.558	10734.9
926.867	10715.47
927.177	10644.73
927.487	10697.16
927.796	10522.48
928.106	10455.13
928.416	10505.98
928.725	10489.26
929.034	10389.6
929.344	10394.12
929.653	10379.88
929.962	10254.69
930.271	10184.18
930.581	10159.1
930.89	10156.39
931.199	10108.93
931.508	10016.28
931.817	10078.2
932.125	10011.98
932.434	9988.71
932.743	9891.31
933.051	9818.09
933.36	9837.52
933.669	9734.93
933.977	9695.83
934.286	9672.56
934.594	9728.83
934.902	9508.94
935.21	9534.93
935.519	9483.63
935.827	9486.57
936.135	9404.99
936.443	9302.62
936.751	9337.2
937.059	9327.25
937.367	9232.79
937.674	9147.37
937.982	9167.71
938.29	9083.87
938.597	9091.55
938.905	9028.51
939.213	8892.69
939.52	8909.64
939.827	8917.1
940.135	8895.18
940.442	8781.51
940.749	8713.94
941.056	8776.99
941.363	8661.06
941.67	8620.83
941.977	8475.75
942.284	8490.21
942.591	8484.79
942.898	8462.64
943.205	8411.12
943.511	8367.28
943.818	8335.42
944.125	8257.9
944.431	8237.34
944.738	8258.13
945.044	8181.97
945.35	8135.42
945.657	8041.19
945.963	7995.54
946.269	7972.26
946.575	8036.44
946.881	7942.88
947.187	7903.56
947.493	7858.82
947.799	7848.88
948.105	7832.6
948.41	7792.61
948.716	7771.14
949.022	7709.9
949.327	7731.14
949.633	7544.02
949.938	7531.82
950.244	7586.51
950.549	7489.56
950.854	7434.65
951.16	7404.59
951.465	7407.08
951.77	7447.76
952.075	7339.06
952.38	7289.12
952.685	7376.12
952.99	7241.21
953.294	7240.53
953.599	7181.77
953.904	7150.36
954.209	7097.03
954.513	7173.41
954.818	7066.3
955.122	7034.43
955.426	7050.03
955.731	6981.55
956.035	6988.11
956.339	6981.1
956.643	6952.4
956.948	6897.71
957.252	6822.91
957.556	6847.55
957.86	6875.79
958.163	6832.86
958.467	6747.21
958.771	6732.75
959.075	6707.44
959.378	6640.32
959.682	6631.28
959.985	6587.44
960.289	6555.12
960.592	6615.69
960.896	6507.44
961.199	6501.11
961.502	6533.88
961.805	6451.85
962.108	6434
962.411	6527.33
962.714	6436.03
963.017	6429.7
963.32	6420.21
963.623	6334.57
963.926	6333.66
964.228	6270.84
964.531	6268.35
964.833	6287.11
965.136	6245.08
965.438	6215.02
965.741	6166.66
966.043	6170.28
966.345	6121.01
966.648	6103.84
966.95	6078.07
967.252	6017.51
967.554	6034.46
967.856	5998.53
968.158	5960.34
968.46	5940.9
968.761	5923.95
969.063	5909.94
969.365	5899.77
969.666	5857.06
969.968	5831.98
970.269	5791.53
970.571	5790.17
970.872	5793.79
971.174	5774.81
971.475	5728.93
971.776	5696.39
972.077	5662.94
972.378	5643.74
972.679	5604.41
972.98	5568.48
973.281	5535.49
973.582	5553.57
973.883	5519.67
974.183	5505.43
974.484	5503.4
974.785	5431.31
975.085	5425.21
975.386	5416.62
975.686	5374.82
975.986	5319.45
976.287	5325.33
976.587	5252.79
976.887	5207.14
977.187	5260.7
977.487	5211.2
977.787	5126.01
978.087	5158.78
978.387	5144.77
978.687	5154.71
978.987	5043.53
979.286	5085.11
979.586	5022.06
979.885	4980.7
980.185	4973.02
980.484	4937.54
980.784	4888.95
981.083	4872.46
981.382	4897.54
981.682	4887.6
981.981	4849.41
982.28	4853.47
982.579	4788.39
982.878	4749.52
983.177	4698
983.475	4734.38
983.774	4652.35
984.073	4624.33
984.372	4603.31
984.67	4610.54
984.969	4571.45
985.267	4586.59
985.566	4489.19
985.864	4482.86
986.162	4501.17
986.461	4446.25
986.759	4420.49
987.057	4382.53
987.355	4433.6
987.653	4424.33
987.951	4320.83
988.249	4322.41
988.547	4329.65
988.844	4241.74
989.142	4218.69
989.44	4222.53
989.737	4212.14
990.035	4244
990.332	4175.98
990.63	4135.3
990.927	4141.18
991.224	4130.1
991.521	4085.58
991.819	4106.38
992.116	4027.06
992.413	4038.58
992.71	3993.38
993.006	4020.05
993.303	3964.01
993.6	3994.06
993.897	3949.09
994.193	3944.8
994.49	3921.3
994.787	3864.57
995.083	3807.4
995.379	3775.99
995.676	3811.02
995.972	3793.16
996.268	3744.58
996.565	3766.5
996.861	3773.73
997.157	3767.4
997.453	3709.78
997.749	3671.81
998.044	3660.74
998.34	3651.25
998.636	3619.61
998.932	3663.9
999.227	3648.53
999.523	3598.14
999.818	3537.35
1000.114	3545.26
1000.409	3550.91
1000.704	3481.98
1001	3463.23
1001.295	3444.7
1001.59	3498.48
1001.885	3468.43
1002.18	3418.26
1002.475	3397.92
1002.77	3364.93
1003.065	3334.64
1003.359	3346.62
1003.654	3343.68
1003.949	3280.41
1004.243	3298.03
1004.538	3280.63
1004.832	3258.71
1005.127	3237.02
1005.421	3250.8
1005.715	3206.06
1006.009	3179.17
1006.304	3169.45
1006.598	3111.37
1006.892	3155.67
1007.186	3106.4
1007.48	3124.48
1007.773	3076.8
1008.067	3084.26
1008.361	3073.41
1008.655	3030.02
1008.948	3002.9
1009.242	3014.43
1009.535	3013.07
1009.829	2960.42
1010.122	2955.22
1010.415	2976.01
1010.708	2907.99
1011.001	2891.72
1011.295	2886.07
1011.588	2879.74
1011.881	2817.37
1012.173	2842.45
1012.466	2777.6
1012.759	2790.25
1013.052	2782.79
1013.344	2777.14
1013.637	2752.06
1013.93	2733.76
1014.222	2742.12
1014.514	2720.65
1014.807	2679.52
1015.099	2632.29
1015.391	2641.1
1015.683	2616.92
1015.976	2617.83
1016.268	2599.52
1016.56	2561.1
1016.851	2569.24
1017.143	2557.49
1017.435	2568.11
1017.727	2515.91
1018.018	2514.78
1018.31	2465.97
1018.602	2468.23
1018.893	2447.21
1019.185	2416.02
1019.476	2427.32
1019.767	2394.33
1020.058	2390.49
1020.35	2382.8
1020.641	2338.96
1020.932	2333.09
1021.223	2334.22
1021.514	2294.9
1021.804	2255.58
1022.095	2263.94
1022.386	2251.51
1022.677	2250.15
1022.967	2207.89
1023.258	2186.2
1023.548	2160.66
1023.839	2150.95
1024.129	2166.09
1024.419	2172.64
1024.709	2110.5
1025	2105.75
1025.29	2056.94
1025.58	2067.78
1025.87	2023.49
1026.16	2034.11
1026.449	2006.32
1026.739	2003.15
1027.029	1972.42
1027.319	1952.31
1027.608	1947.56
1027.898	1960.22
1028.187	1939.43
1028.477	1929.03
1028.766	1939.2
1029.055	1887.68
1029.344	1900.78
1029.634	1887
1029.923	1817.17
1030.212	1827.56
1030.501	1837.28
1030.79	1794.8
1031.078	1784.4
1031.367	1742.82
1031.656	1739.43
1031.945	1749.6
1032.233	1724.97
1032.522	1715.25
1032.81	1711.41
1033.099	1704.63
1033.387	1672.31
1033.675	1642.03
1033.963	1637.29
1034.251	1618.3
1034.54	1646.1
1034.828	1596.61
1035.116	1588.25
1035.403	1606.78
1035.691	1562.04
1035.979	1594.58
1036.267	1527.91
1036.554	1517.97
1036.842	1526.1
1037.129	1502.83
1037.417	1499.21
1037.704	1483.17
1037.992	1485.65
1038.279	1467.35
1038.566	1434.13
1038.853	1434.13
1039.14	1434.13
