Data from black_metal_pc_casing_FLMS001491_00058.txt Node
Date: Wed Feb 08 14:33:05 GMT 2017
User: dcchb
Spectrometer: FLMS00149
Trigger mode: 0
Integration Time (sec): 2.000000E-2
Scans to average: 10
Electric dark correction enabled: true
Nonlinearity correction enabled: false
Boxcar width: 0
XAxis mode: Wavelengths
Number of Pixels in Spectrum: 2048
>>>>>Begin Spectral Data<<<<<
341.393	-4.01
341.776	-4.01
342.16	-4.01
342.543	-64.35
342.927	-72.26
343.31	-75.87
343.693	-81.52
344.077	-71.13
344.46	-53.5
344.843	-64.8
345.226	-49.66
345.61	-23.67
345.993	-2.66
346.376	-6.5
346.759	17.01
347.142	48.42
347.525	21.52
347.908	50.9
348.291	74.86
348.674	99.49
349.057	117.12
349.44	135.87
349.823	151.92
350.206	164.8
350.588	180.16
350.971	192.82
351.354	212.71
351.737	222.2
352.119	237.79
352.502	255.64
352.884	260.61
353.267	266.72
353.65	289.99
354.032	301.07
354.414	281.86
354.797	310.33
355.179	332.7
355.562	333.16
355.944	310.56
356.326	325.92
356.709	310.33
357.091	328.41
357.473	314.85
357.855	348.97
358.238	336.32
358.62	315.3
359.002	326.83
359.384	345.58
359.766	333.61
360.148	328.18
360.53	344.68
360.912	330.44
361.294	341.29
361.676	339.48
362.057	351.23
362.439	319.82
362.821	336.54
363.203	310.56
363.584	333.61
363.966	330.67
364.348	329.31
364.729	305.59
365.111	330.22
365.493	321.63
365.874	320.27
366.256	326.15
366.637	307.62
367.019	313.72
367.4	325.92
367.781	325.7
368.163	328.41
368.544	306.94
368.925	313.27
369.306	311.46
369.688	333.61
370.069	318.01
370.45	306.94
370.831	331.57
371.212	327.96
371.593	321.86
371.974	319.82
372.355	325.02
372.736	307.62
373.117	314.62
373.498	314.17
373.879	338.13
374.26	321.63
374.641	321.4
375.021	346.71
375.402	318.01
375.783	327.05
376.163	329.54
376.544	333.38
376.925	332.7
377.305	340.16
377.686	331.12
378.066	347.17
378.447	346.94
378.827	334.06
379.208	350.1
379.588	347.62
379.968	333.16
380.349	349.43
380.729	346.94
381.109	346.04
381.489	350.56
381.87	344.91
382.25	349.65
382.63	345.13
383.01	359.82
383.39	370.67
383.77	344.91
384.15	334.28
384.53	372.02
384.91	353.04
385.29	372.7
385.67	380.39
386.049	368.86
386.429	350.33
386.809	379.26
387.189	382.19
387.568	369.54
387.948	380.39
388.328	368.86
388.707	370.89
389.087	362.31
389.466	392.59
389.846	385.36
390.225	382.65
390.605	386.94
390.984	404.11
391.363	395.53
391.743	405.7
392.122	387.62
392.501	401.18
392.881	412.25
393.26	395.07
393.639	397.33
394.018	402.08
394.397	413.6
394.776	393.94
395.155	439.14
395.534	417.45
395.913	393.04
396.292	412.48
396.671	410.67
397.05	410.44
397.429	407.28
397.808	422.42
398.186	448.86
398.565	449.76
398.944	432.81
399.323	456.32
399.701	417.45
400.08	433.72
400.458	438.24
400.837	455.86
401.215	442.3
401.594	434.17
401.972	457.22
402.351	454.51
402.729	456.09
403.107	441.85
403.486	460.61
403.864	478.01
404.242	457.45
404.62	489.08
404.999	483.66
405.377	466.71
405.755	464.9
406.133	486.37
406.511	494.51
406.889	495.41
407.267	494.96
407.645	509.2
408.023	495.64
408.401	478.24
408.779	514.85
409.156	518.46
409.534	527.5
409.912	508.52
410.29	525.24
410.667	528.86
411.045	506.94
411.422	536.99
411.8	534.05
412.178	541.74
412.555	540.83
412.933	543.77
413.31	558.46
413.687	563.43
414.065	553.94
414.442	573.15
414.819	536.77
415.197	569.76
415.574	575.86
415.951	594.17
416.328	574.73
416.705	584.45
417.082	584.22
417.46	607.72
417.837	607.5
418.214	589.42
418.591	602.07
418.967	607.5
419.344	593.71
419.721	609.31
420.098	618.12
420.475	615.63
420.852	637.55
421.228	623.09
421.605	631.9
421.982	641.85
422.358	648.85
422.735	650.21
423.111	651.79
423.488	654.05
423.864	649.98
424.241	669.87
424.617	668.06
424.994	676.2
425.37	685.69
425.746	690.21
426.123	680.72
426.499	722.07
426.875	696.31
427.251	718.68
427.627	718.91
428.003	708.74
428.379	718.91
428.756	744.22
429.132	734.27
429.507	743.09
429.883	751.68
430.259	762.75
430.635	767.95
431.011	769.08
431.387	768.4
431.763	789.41
432.138	795.29
432.514	782.41
432.89	793.71
433.265	828.06
433.641	845.68
434.016	820.83
434.392	847.49
434.767	878
435.143	849.98
435.518	849.75
435.894	852.92
436.269	858.11
436.644	870.77
437.02	888.62
437.395	892.91
437.77	896.08
438.145	930.88
438.52	918.45
438.895	943.31
439.271	940.37
439.646	925
440.021	931.78
440.395	947.38
440.77	940.14
441.145	954.38
441.52	981.5
441.895	991.22
442.27	974.49
442.645	959.13
443.019	1004.1
443.394	998.22
443.769	1007.49
444.143	981.05
444.518	1002.97
444.892	1027.6
445.267	1012.01
445.641	1038.22
446.016	1013.82
446.39	996.41
446.764	1059.69
447.139	1064.66
447.513	1066.24
447.887	1038.9
448.262	1066.92
448.636	1050.65
449.01	1082.29
449.384	1107.82
449.758	1122.51
450.132	1081.16
450.506	1098.11
450.88	1093.14
451.254	1117.09
451.628	1113.02
452.002	1140.82
452.376	1161.16
452.75	1167.26
453.123	1158.22
453.497	1174.49
453.871	1177.88
454.244	1192.12
454.618	1194.38
454.992	1223.75
455.365	1223.75
455.739	1240.02
456.112	1254.71
456.486	1291.32
456.859	1300.59
457.232	1319.34
457.606	1321.38
457.979	1323.41
458.352	1339.91
458.725	1362.05
459.099	1325.67
459.472	1384.2
459.845	1397.53
460.218	1438.89
460.591	1405.9
460.964	1442.73
461.337	1441.6
461.71	1466.46
462.083	1470.07
462.456	1501.03
462.829	1494.71
463.201	1513.46
463.574	1530.41
463.947	1522.28
464.32	1546.91
464.692	1594.82
465.065	1542.16
465.438	1597.75
465.81	1612.44
466.183	1621.93
466.555	1665.32
466.928	1689.96
467.3	1719.79
467.672	1720.69
468.045	1748.49
468.417	1760.24
468.789	1767.69
469.161	1788.94
469.534	1796.17
469.906	1845.43
470.278	1874.13
470.65	1858.76
471.022	1893.11
471.394	1933.11
471.766	1951.19
472.138	1947.12
472.51	1996.39
472.882	2006.56
473.253	2049.72
473.625	2069.38
473.997	2086.33
474.369	2108.25
474.74	2121.81
475.112	2169.72
475.484	2187.34
475.855	2226.66
476.227	2294.91
476.598	2299.43
476.97	2336.72
477.341	2382.59
477.713	2394.8
478.084	2423.5
478.455	2495.58
478.827	2500.56
479.198	2531.29
479.569	2555.24
479.94	2643.83
480.311	2648.8
480.682	2718.63
481.053	2726.99
481.424	2823.03
481.795	2802.47
482.166	2885.18
482.537	2886.08
482.908	2937.38
483.279	2956.14
483.65	2984.38
484.021	3080.2
484.391	3071.61
484.762	3124.95
485.133	3164.49
485.503	3255.11
485.874	3305.28
486.244	3270.48
486.615	3378.05
486.985	3372.17
487.356	3416.24
487.726	3478.38
488.097	3528.55
488.467	3499.17
488.837	3650.81
489.207	3636.12
489.578	3724.93
489.948	3743.46
490.318	3776.68
490.688	3803.12
491.058	3814.42
491.428	3926.73
491.798	3960.4
492.168	4037.92
492.538	4044.92
492.908	4052.38
493.278	4115.88
493.648	4158.59
494.017	4186.61
494.387	4201.75
494.757	4216.89
495.126	4324.46
495.496	4273.62
495.866	4320.39
496.235	4354.74
496.605	4457.11
496.974	4446.27
497.344	4467.28
497.713	4501.41
498.082	4527.85
498.452	4598.81
498.821	4569.88
499.19	4634.06
499.559	4684.68
499.928	4670.22
500.298	4736.43
500.667	4800.61
501.036	4764.9
501.405	4815.98
501.774	4835.86
502.143	4856.88
502.512	4895.3
502.88	4922.86
503.249	4898.46
503.618	5015.97
503.987	5016.42
504.356	5080.6
504.724	5062.52
505.093	5114.72
505.462	5119.47
505.83	5181.39
506.199	5214.61
506.567	5242.4
506.936	5227.72
507.304	5353.14
507.672	5411.44
508.041	5432.23
508.409	5432.46
508.777	5502.06
509.145	5500.25
509.514	5521.27
509.882	5507.26
510.25	5616.41
510.618	5606.01
510.986	5665.67
511.354	5743.18
511.722	5754.03
512.09	5786.12
512.458	5790.19
512.826	5850.3
513.193	5868.15
513.561	5887.81
513.929	5934.82
514.297	6000.35
514.664	6041.48
515.032	6043.97
515.4	6105.88
515.767	6182.94
516.135	6172.78
516.502	6168.26
516.869	6267.69
517.237	6278.99
517.604	6286.22
517.972	6388.36
518.339	6422.94
518.706	6436.72
519.073	6480.11
519.44	6509.04
519.808	6618.41
520.175	6588.13
520.542	6739.77
520.909	6736.6
521.276	6761.23
521.643	6837.39
522.009	6874.45
522.376	6946.99
522.743	6949.03
523.11	7063.15
523.477	7062.7
523.843	7124.39
524.21	7207.55
524.577	7232.86
524.943	7247.1
525.31	7319.19
525.676	7396.47
526.043	7421.78
526.409	7517.82
526.776	7565.06
527.142	7568.22
527.508	7671.49
527.874	7673.98
528.241	7712.4
528.607	7760.08
528.973	7834.2
529.339	7831.71
529.705	7936.57
530.071	7967.3
530.437	7968.66
530.803	8059.05
531.169	8128.88
531.535	8060.41
531.901	8132.27
532.267	8182.21
532.632	8260.4
532.998	8303.34
533.364	8357.35
533.73	8347.41
534.095	8448.42
534.461	8490.45
534.826	8489.78
535.192	8520.51
535.557	8609.55
535.923	8592.37
536.288	8691.35
536.653	8703.1
537.019	8661.75
537.384	8778.58
537.749	8777.9
538.114	8745.82
538.479	8779.49
538.845	8894.74
539.21	8879.15
539.575	8901.97
539.94	8888.86
540.305	8982.42
540.67	8984.9
541.034	9064.9
541.399	9104.68
541.764	9100.61
542.129	9182.64
542.494	9186.93
542.858	9188.97
543.223	9215.41
543.587	9303.54
543.952	9291.11
544.316	9306.93
544.681	9370.66
545.045	9408.85
545.41	9453.37
545.774	9491.56
546.138	9511.22
546.503	9537.88
546.867	9513.25
547.231	9632.8
547.595	9629.63
547.959	9625.57
548.324	9685.45
548.688	9689.52
549.052	9715.73
549.416	9765
549.779	9746.69
550.143	9834.15
550.507	9894.49
550.871	9846.35
551.235	9845.9
551.599	9966.35
551.962	9979.91
552.326	10064.2
552.689	10088.15
553.053	10013.13
553.417	10111.88
553.78	10253.12
554.143	10160.02
554.507	10247.02
554.87	10322.5
555.234	10442.72
555.597	10412.44
555.96	10376.05
556.323	10390.07
556.686	10429.84
557.05	10555.03
557.413	10582.38
557.776	10662.15
558.139	10658.76
558.502	10700.11
558.865	10754.35
559.228	10814.69
559.59	10868.02
559.953	10910.73
560.316	10950.28
560.679	11070.73
561.041	11035.02
561.404	11028.69
561.767	11199.31
562.129	11145.07
562.492	11242.7
562.854	11282.7
563.217	11215.81
563.579	11389.59
563.941	11434.56
564.304	11446.31
564.666	11604.05
565.028	11582.12
565.39	11619.86
565.753	11706.42
566.115	11689.47
566.477	11797.94
566.839	11771.05
567.201	11846.07
567.563	11965.17
567.925	11940.53
568.287	11933.3
568.648	12018.95
569.01	12051.72
569.372	12085.39
569.734	12170.81
570.095	12193.41
570.457	12269.34
570.819	12296
571.18	12371.03
571.542	12420.52
571.903	12363.12
572.265	12483.34
572.626	12477.24
572.987	12503
573.349	12573.74
573.71	12506.17
574.071	12633.62
574.432	12633.4
574.794	12735.09
575.155	12734.41
575.516	12732.83
575.877	12783.9
576.238	12785.26
576.599	12823.67
576.96	12854.86
577.32	12922.88
577.681	12864.8
578.042	12977.57
578.403	12947.51
578.763	12927.17
579.124	12957.46
579.485	13044.91
579.845	13128.52
580.206	13037.23
580.566	13099.15
580.927	13016.44
581.287	13124.23
581.648	13135.53
582.008	13121.97
582.368	13154.06
582.728	13143.44
583.089	13104.8
583.449	13123.33
583.809	13156.32
584.169	13218.92
584.529	13161.74
584.889	13248.52
585.249	13124.91
585.609	13121.52
585.969	13284
586.329	13213.04
586.688	13245.36
587.048	13218.47
587.408	13172.37
587.768	13130.33
588.127	13223.44
588.487	13277.45
588.846	13277.9
589.206	13169.65
589.565	13218.01
589.925	13231.12
590.284	13253.95
590.643	13274.96
591.003	13319.93
591.362	13314.51
591.721	13307.5
592.08	13320.16
592.44	13267.5
592.799	13308.18
593.158	13220.5
593.517	13332.59
593.876	13365.35
594.235	13305.92
594.593	13287.39
594.952	13421.62
595.311	13371
595.67	13331.91
596.029	13425.69
596.387	13346.37
596.746	13405.13
597.104	13352.93
597.463	13321.97
597.822	13378.01
598.18	13391.57
598.538	13401.74
598.897	13481.06
599.255	13272.02
599.613	13529.64
599.972	13456.65
600.33	13448.29
600.688	13430.44
601.046	13523.09
601.404	13627.27
601.762	13511.34
602.12	13624.11
602.478	13589.3
602.836	13578.23
603.194	13521.51
603.552	13629.75
603.91	13556.76
604.268	13590.43
604.625	13602.86
604.983	13686.02
605.341	13540.49
605.698	13682.86
606.056	13673.14
606.413	13709.75
606.771	13636.31
607.128	13702.97
607.485	13627.72
607.843	13616.87
608.2	13782.74
608.557	13774.84
608.914	13749.3
609.272	13824.33
609.629	13799.92
609.986	13871.1
610.343	13761.5
610.7	13957.2
611.057	13937.77
611.414	13831.33
611.771	13945.23
612.127	13949.29
612.484	13954.72
612.841	13950.42
613.198	13851.67
613.554	13914.72
613.911	14008.05
614.267	13958.79
614.624	14017.77
614.98	14033.59
615.337	14010.31
615.693	14094.15
616.05	14022.96
616.406	14071.78
616.762	14101.38
617.118	13998.78
617.475	14050.53
617.831	14091.21
618.187	14116.75
618.543	14169.18
618.899	14195.16
619.255	14233.13
619.611	14215.5
619.967	14206.46
620.323	14229.74
620.678	14305.44
621.034	14164.2
621.39	14091.66
621.746	14140.48
622.101	14335.95
622.457	14215.73
622.812	14205.11
623.168	14222.96
623.523	14206.24
623.879	14215.05
624.234	14175.05
624.589	14262.73
624.945	14236.74
625.3	14288.49
625.655	14281.49
626.01	14316.97
626.365	14278.33
626.72	14223.86
627.075	14264.77
627.43	14234.48
627.785	14235.61
628.14	14255.73
628.495	14180.47
628.85	14301.83
629.205	14197.42
629.559	14253.69
629.914	14168.72
630.269	14300.02
630.623	14159.23
630.978	14163.75
631.332	14244.2
631.687	14155.62
632.041	14047.14
632.396	14162.85
632.75	14136.63
633.104	14150.64
633.459	13991.78
633.813	14069.52
634.167	14097.54
634.521	13999.01
634.875	14124.66
635.229	13952.68
635.583	14052.12
635.937	14040.37
636.291	13957.88
636.645	13993.13
636.999	13954.94
637.352	13893.02
637.706	13862.97
638.06	13918.79
638.413	13945
638.767	13799.92
639.121	13813.25
639.474	13765.57
639.828	13808.51
640.181	13799.02
640.534	13839.24
640.888	13842.4
641.241	13800.15
641.594	13768.51
641.947	13773.03
642.301	13702.75
642.654	13644.9
643.007	13662.3
643.36	13664.1
643.713	13616.65
644.066	13750.43
644.419	13595.41
644.771	13453.71
645.124	13327.39
645.477	13401.74
645.83	13275.19
646.182	13266.6
646.535	13141.63
646.888	13218.92
647.24	13188.86
647.593	13249.88
647.945	13154.74
648.298	13121.07
648.65	13051.01
649.002	13124.01
649.355	13126.27
649.707	13086.04
650.059	13124.01
650.411	13320.61
650.763	13291.91
651.115	13367.16
651.467	13294.4
651.819	13319.03
652.171	13255.75
652.523	13281.29
652.875	13285.58
653.227	13183.66
653.578	13303.21
653.93	13304.34
654.282	13245.58
654.633	13180.5
654.985	13234.51
655.337	13229.77
655.688	13206.04
656.039	13198.81
656.391	13143.67
656.742	13145.47
657.094	13171.46
657.445	13114.51
657.796	13120.62
658.147	13147.28
658.498	13067.51
658.849	13059.6
659.2	13093.95
659.551	13031.58
659.902	13082.42
660.253	13046.49
660.604	13144.12
660.955	13088.75
661.306	13088.3
661.656	13061.63
662.007	12995.87
662.358	13044.46
662.708	13041.3
663.059	13017.12
663.409	12940.96
663.76	13003.1
664.11	13046.72
664.461	12985.48
664.811	12984.8
665.161	13114.51
665.511	12974.63
665.862	12901.64
666.212	13035.65
666.562	12996.32
666.912	13000.39
667.262	12972.6
667.612	12923.33
667.962	12973.73
668.312	12926.27
668.662	13012.14
669.011	12967.17
669.361	12908.87
669.711	12888.98
670.06	12908.19
670.41	12861.19
670.76	12880.17
671.109	12879.72
671.459	12890.34
671.808	12890.34
672.157	12854.18
672.507	12779.61
672.856	12806.05
673.205	12773.51
673.554	12817.8
673.904	12772.83
674.253	12851.24
674.602	12770.12
674.951	12628.2
675.3	12658.93
675.649	12788.87
675.998	12762.43
676.346	12697.8
676.695	12766.95
677.044	12746.61
677.393	12714.98
677.741	12751.59
678.09	12724.02
678.438	12615.54
678.787	12708.42
679.135	12738.03
679.484	12584.36
679.832	12645.37
680.181	12584.13
680.529	12653.06
680.877	12526.96
681.225	12493.06
681.573	12581.19
681.922	12515.43
682.27	12516.56
682.618	12463.46
682.966	12486.73
683.314	12441.54
683.661	12377.13
684.009	12406.96
684.357	12437.92
684.705	12364.48
685.053	12434.53
685.4	12368.09
685.748	12248.77
686.095	12312.5
686.443	12315.44
686.79	12290.35
687.138	12241.09
687.485	12249.45
687.832	12123.35
688.18	12087.42
688.527	12087.87
688.874	12132.39
689.221	12110.92
689.568	12070.47
689.915	11907.09
690.262	12031.15
690.609	12002.68
690.956	11978.5
691.303	11824.83
691.65	11857.6
691.997	11874.55
692.344	11800.42
692.69	11789.58
693.037	11797.03
693.383	11720.43
693.73	11743.48
694.077	11629.36
694.423	11678.39
694.769	11555.46
695.116	11622.8
695.462	11595.46
695.808	11501.67
696.155	11585.06
696.501	11537.38
696.847	11484.05
697.193	11355.01
697.539	11445.41
697.885	11339.65
698.231	11263.04
698.577	11328.57
698.923	11218.52
699.269	11229.14
699.614	11165.86
699.96	11167.22
700.306	11179.2
700.651	11126.77
700.997	10990.5
701.342	11075.47
701.688	11060.1
702.033	11022.59
702.379	11039.77
702.724	10933.33
703.069	11017.85
703.415	10849.04
703.76	10912.09
704.105	10889.04
704.45	10901.92
704.795	10738.76
705.14	10675.71
705.485	10675.71
705.83	10702.37
706.175	10678.42
706.52	10589.16
706.865	10588.25
707.209	10595.48
707.554	10605.65
707.899	10614.69
708.243	10567.24
708.588	10538.54
708.932	10461.02
709.277	10555.49
709.621	10484.3
709.966	10410.18
710.31	10327.24
710.654	10318.2
710.998	10370.41
711.342	10332.44
711.687	10278.66
712.031	10360.46
712.375	10227.81
712.719	10284.08
713.063	10220.58
713.407	10302.84
713.75	10190.52
714.094	10162.28
714.438	10135.16
714.782	10173.57
715.125	10070.98
715.469	10200.24
715.812	10024.88
716.156	10067.81
716.499	10007.03
716.843	10016.52
717.186	9936.07
717.53	9990.08
717.873	9993.01
718.216	9933.13
718.559	9928.38
718.902	9868.05
719.246	9873.92
719.589	9838.44
719.932	9781.72
720.275	9823.08
720.617	9793.02
720.96	9780.59
721.303	9786.92
721.646	9761.16
721.989	9763.87
722.331	9732
722.674	9714.15
723.016	9724.09
723.359	9695.17
723.701	9750.76
724.044	9623.53
724.386	9534.5
724.729	9668.28
725.071	9651.55
725.413	9642.29
725.755	9595.51
726.097	9570.65
726.439	9525.46
726.782	9542.4
727.124	9584.89
727.465	9526.13
727.807	9482.52
728.149	9473.48
728.491	9470.77
728.833	9490.43
729.175	9386.7
729.516	9380.15
729.858	9379.02
730.199	9435.29
730.541	9335.86
730.882	9365.01
731.224	9394.61
731.565	9357.32
731.906	9350.55
732.248	9295.86
732.589	9276.65
732.93	9218.12
733.271	9270.77
733.612	9273.94
733.953	9219.02
734.294	9216.76
734.635	9257.89
734.976	9232.58
735.317	9158.01
735.658	9131.79
735.999	9164.34
736.339	9117.78
736.68	9157.78
737.021	9177.89
737.361	9066.26
737.702	9137.67
738.042	9048.41
738.383	9057.9
738.723	9046.6
739.063	9031.01
739.404	9054.28
739.744	8990.33
740.084	9007.5
740.424	9000.5
740.764	8986.71
741.104	9019.03
741.444	8956.21
741.784	8845.25
742.124	8909.88
742.464	8854.51
742.804	8830.11
743.143	8805.7
743.483	8891.57
743.823	8831.01
744.162	8761.63
744.502	8811.12
744.841	8796.21
745.181	8839.37
745.52	8704.23
745.86	8719.15
746.199	8719.6
746.538	8748.53
746.877	8725.7
747.216	8772.03
747.556	8756.44
747.895	8669.21
748.234	8691.81
748.573	8653.16
748.911	8628.53
749.25	8658.36
749.589	8632.37
749.928	8546.72
750.267	8553.73
750.605	8592.6
750.944	8689.09
751.283	8510.57
751.621	8526.16
751.96	8464.01
752.298	8540.4
752.636	8537.23
752.975	8472.38
753.313	8388.76
753.651	8476.67
753.989	8470.79
754.327	8390.12
754.666	8324.36
755.004	8345.37
755.342	8359.16
755.679	8357.12
756.017	8283
756.355	8305.37
756.693	8247.52
757.031	8280.52
757.368	8209.11
757.706	8226.96
758.044	8126.4
758.381	8145.38
758.719	8148.77
759.056	8122.33
759.394	8134.08
759.731	8078.04
760.068	8039.85
760.405	8058.83
760.743	8018.15
761.08	8030.58
761.417	7958.04
761.754	7906.29
762.091	7970.47
762.428	7852.28
762.765	7862.22
763.102	7826.97
763.438	7814.99
763.775	7698.84
764.112	7789.91
764.449	7784.03
764.785	7729.57
765.122	7699.97
765.458	7681.66
765.795	7666.75
766.131	7658.61
766.467	7614.32
766.804	7538.84
767.14	7567.09
767.476	7533.64
767.812	7475.34
768.148	7512.85
768.485	7454.55
768.821	7426.3
769.157	7366.42
769.492	7356.25
769.828	7413.19
770.164	7331.16
770.5	7328
770.836	7320.32
771.171	7288.68
771.507	7278.51
771.842	7209.58
772.178	7214.78
772.513	7231.05
772.849	7207.32
773.184	7104.95
773.519	7157.16
773.855	7087.78
774.19	7089.14
774.525	7004.39
774.86	7068.12
775.195	6999.87
775.53	6957.16
775.865	6990.61
776.2	6940.21
776.535	6876.71
776.87	6890.95
777.205	6862.25
777.539	6786.32
777.874	6796.04
778.209	6789.26
778.543	6724.85
778.878	6698.41
779.212	6704.51
779.547	6723.72
779.881	6685.98
780.215	6598.3
780.55	6626.77
780.884	6561.01
781.218	6596.72
781.552	6636.72
781.886	6510.62
782.22	6506.33
782.554	6486.44
782.888	6411.41
783.222	6364.86
783.556	6430.17
783.889	6344.75
784.223	6301.13
784.557	6325.09
784.89	6318.08
785.224	6309.5
785.557	6285.77
785.891	6265.65
786.224	6176.62
786.558	6253.68
786.891	6142.95
787.224	6173.68
787.557	6119.67
787.891	6157.41
788.224	6124.87
788.557	6117.64
788.89	6077.18
789.223	6034.47
789.556	6039.22
789.888	6010.97
790.221	5989.28
790.554	5938.43
790.887	5924.19
791.219	5902.95
791.552	5910.86
791.884	5890.3
792.217	5896.4
792.549	5800.81
792.882	5772.11
793.214	5849.85
793.546	5758.55
793.879	5758.1
794.211	5704.09
794.543	5763.29
794.875	5713.13
795.207	5688.49
795.539	5643.3
795.871	5662.05
796.203	5635.39
796.535	5623.41
796.867	5605.56
797.198	5582.06
797.53	5574.15
797.862	5552.45
798.193	5589.97
798.525	5491.89
798.856	5546.58
799.188	5466.58
799.519	5480.36
799.85	5471.33
800.182	5432.91
800.513	5450.76
800.844	5399.46
801.175	5454.38
801.506	5427.03
801.837	5381.38
802.168	5380.48
802.499	5361.95
802.83	5317.66
803.161	5305.68
803.491	5273.82
803.822	5321.5
804.153	5232.46
804.483	5265.45
804.814	5212.12
805.145	5228.17
805.475	5182.97
805.805	5200.37
806.136	5124.89
806.466	5181.84
806.796	5189.3
807.126	5129.19
807.457	5132.8
807.787	5158.11
808.117	5115.4
808.447	5113.37
808.777	5100.71
809.107	5095.06
809.436	5074.95
809.766	5067.95
810.096	5035.86
810.426	4988.17
810.755	4996.99
811.085	4985.91
811.414	4965.35
811.744	4954.28
812.073	4941.85
812.403	4943.43
812.732	4903.66
813.061	4929.19
813.39	4884.22
813.719	4871.57
814.049	4901.4
814.378	4893.26
814.707	4782.08
815.036	4881.74
815.365	4820.49
815.693	4771.91
816.022	4781.85
816.351	4761.06
816.68	4785.02
817.008	4792.47
817.337	4776.88
817.665	4686.94
817.994	4716.32
818.322	4693.49
818.651	4698.92
818.979	4701.18
819.307	4746.37
819.636	4679.48
819.964	4672.48
820.292	4669.31
820.62	4675.19
820.948	4680.16
821.276	4730.55
821.604	4651.23
821.932	4670.67
822.259	4668.63
822.587	4654.4
822.915	4637
823.243	4658.47
823.57	4652.82
823.898	4631.8
824.225	4576.89
824.553	4605.59
824.88	4610.1
825.207	4627.51
825.535	4668.63
825.862	4714.73
826.189	4623.44
826.516	4696.43
826.843	4634.51
827.17	4624.79
827.497	4667.73
827.824	4653.72
828.151	4654.85
828.478	4631.12
828.805	4677.9
829.131	4636.77
829.458	4616.43
829.785	4589.31
830.111	4622.08
830.438	4641.97
830.764	4633.38
831.09	4632.03
831.417	4602.2
831.743	4584.12
832.069	4634.51
832.395	4593.38
832.722	4609.43
833.048	4584.12
833.374	4626.38
833.7	4595.42
834.026	4571.01
834.351	4590.22
834.677	4591.35
835.003	4599.94
835.329	4643.78
835.654	4558.13
835.98	4560.61
836.306	4535.98
836.631	4585.92
836.956	4555.87
837.282	4533.5
837.607	4517.23
837.932	4520.39
838.258	4539.6
838.583	4524.68
838.908	4493.5
839.233	4543.44
839.558	4522.2
839.883	4465.48
840.208	4439.04
840.533	4455.53
840.858	4496.66
841.182	4494.4
841.507	4484.91
841.832	4406.72
842.156	4432.03
842.481	4431.8
842.805	4403.78
843.13	4382.77
843.454	4441.3
843.778	4346.83
844.103	4355.42
844.427	4347.74
844.751	4329.43
845.075	4335.08
845.399	4301.19
845.723	4312.49
846.047	4329.66
846.371	4289.89
846.695	4293.5
847.019	4279.27
847.343	4243.56
847.666	4244.24
847.99	4197.01
848.313	4189.55
848.637	4179.38
848.96	4183.9
849.284	4173.51
849.607	4152.49
849.931	4155.2
850.254	4144.58
850.577	4079.95
850.9	4053.28
851.223	4082.89
851.546	4043.34
851.869	4034.98
852.192	3999.95
852.515	3914.53
852.838	4006.05
853.161	3925.83
853.483	3942.1
853.806	4001.76
854.129	3934.19
854.451	3926.96
854.774	3897.36
855.096	3835.89
855.419	3881.31
855.741	3884.93
856.063	3840.41
856.385	3848.77
856.708	3837.47
857.03	3830.24
857.352	3827.3
857.674	3804.48
857.996	3786.4
858.318	3765.16
858.64	3737.36
858.961	3775.1
859.283	3766.06
859.605	3764.03
859.926	3740.07
860.248	3715.67
860.57	3707.08
860.891	3675.67
861.212	3713.63
861.534	3709.56
861.855	3731.94
862.176	3672.95
862.498	3642.45
862.819	3677.02
863.14	3662.33
863.461	3660.98
863.782	3637.47
864.103	3681.54
864.424	3658.49
864.745	3640.64
865.065	3657.36
865.386	3639.06
865.707	3602.45
866.027	3615.78
866.348	3626.18
866.668	3627.08
866.989	3590.24
867.309	3592.05
867.63	3547.53
867.95	3620.53
868.27	3539.17
868.59	3591.6
868.91	3571.71
869.23	3604.93
869.55	3531.49
869.87	3545.05
870.19	3529.68
870.51	3550.25
870.83	3526.52
871.15	3534.65
871.469	3529.23
871.789	3543.47
872.109	3497.14
872.428	3474.77
872.748	3517.93
873.067	3498.27
873.386	3495.33
873.706	3512.96
874.025	3496.69
874.344	3458.72
874.663	3472.06
874.982	3480.19
875.301	3429.57
875.62	3460.53
875.939	3448.1
876.258	3457.37
876.577	3433.64
876.896	3434.99
877.214	3407.65
877.533	3440.19
877.852	3423.24
878.17	3416.01
878.489	3409.46
878.807	3417.59
879.125	3438.61
879.444	3429.8
879.762	3370.59
880.08	3400.42
880.398	3357.03
880.716	3341.44
881.034	3366.07
881.352	3382.11
881.67	3367.88
881.988	3362
882.306	3350.7
882.624	3328.1
882.941	3297.6
883.259	3329.46
883.577	3275.68
883.894	3270.03
884.212	3332.4
884.529	3291.95
884.846	3307.09
885.164	3259.41
885.481	3258.28
885.798	3283.36
886.115	3280.87
886.432	3227.09
886.75	3234.32
887.067	3201.55
887.383	3193.19
887.7	3235
888.017	3221.21
888.334	3254.89
888.651	3201.55
888.967	3184.61
889.284	3138.73
889.6	3158.84
889.917	3146.87
890.233	3138.51
890.55	3148
890.866	3151.16
891.182	3162.23
891.498	3154.32
891.815	3086.53
892.131	3093.99
892.447	3087.66
892.763	3058.28
893.079	3079.98
893.395	3052.63
893.71	3067.77
894.026	3071.39
894.342	3035.46
894.657	3023.03
894.973	3000.88
895.289	3018.06
895.604	3023.71
895.92	2991.16
896.235	2972.63
896.55	3003.14
896.865	2960.2
897.181	2950.26
897.496	2956.36
897.811	2964.72
898.126	2948
898.441	2936.02
898.756	2937.38
899.071	2893.99
899.386	2923.14
899.7	2892.86
900.015	2873.2
900.33	2828.23
900.644	2866.87
900.959	2865.52
901.273	2817.61
901.588	2832.52
901.902	2830.72
902.216	2826.87
902.531	2840.89
902.845	2808.8
903.159	2823.26
903.473	2791.17
903.787	2752.3
904.101	2742.36
904.415	2766.76
904.729	2757.5
905.042	2753.88
905.356	2722.7
905.67	2734.67
905.984	2724.28
906.297	2755.92
906.611	2697.61
906.924	2678.4
907.237	2658.97
907.551	2677.73
907.864	2665.75
908.177	2677.73
908.491	2673.88
908.804	2673.88
909.117	2616.26
909.43	2641.57
909.743	2580.1
910.056	2577.62
910.368	2575.36
910.681	2576.26
910.994	2602.47
911.307	2611.97
911.619	2571.97
911.932	2556.15
912.244	2541.68
912.557	2529.48
912.869	2530.84
913.181	2512.31
913.494	2475.92
913.806	2474.79
914.118	2460.33
914.43	2484.06
914.742	2471.86
915.054	2450.84
915.366	2446.77
915.678	2407.68
915.99	2417.62
916.302	2398.86
916.613	2437.73
916.925	2404.74
917.236	2374.01
917.548	2351.86
917.859	2396.83
918.171	2374.23
918.482	2349.15
918.794	2369.03
919.105	2359.09
919.416	2353.89
919.727	2325.42
920.038	2322.71
920.349	2284.97
920.66	2307.79
920.971	2306.89
921.282	2293.78
921.593	2271.41
921.903	2234.12
922.214	2254.23
922.525	2216.5
922.835	2250.62
923.146	2184.86
923.456	2238.87
923.767	2218.53
924.077	2197.51
924.387	2223.27
924.697	2206.33
925.008	2161.58
925.318	2192.99
925.628	2178.3
925.938	2145.76
926.248	2129.04
926.558	2156.16
926.867	2135.37
927.177	2132.66
927.487	2091.75
927.796	2127.46
928.106	2107.35
928.416	2080.68
928.725	2105.31
929.034	2085.65
929.344	2079.32
929.653	2055.37
929.962	2062.6
930.271	2054.01
930.581	2023.96
930.89	2037.97
931.199	2021.92
931.508	2039.32
931.817	2021.47
932.125	1986.44
932.434	2035.26
932.743	2006.33
933.051	1974.92
933.36	1989.61
933.669	1962.94
933.977	1965.2
934.286	1950.51
934.594	1924.3
934.902	1934.47
935.21	1906.22
935.519	1938.54
935.827	1909.61
936.135	1878.43
936.443	1924.3
936.751	1905.09
937.059	1872.1
937.367	1892.66
937.674	1854.25
937.982	1901.48
938.29	1830.52
938.597	1844.75
938.905	1834.81
939.213	1832.78
939.52	1804.53
939.827	1801.37
940.135	1793
940.442	1843.17
940.749	1795.49
941.056	1836.62
941.363	1781.48
941.67	1797.52
941.977	1786.68
942.284	1771.54
942.591	1770.86
942.898	1735.38
943.205	1765.21
943.511	1746
943.818	1771.31
944.125	1746.45
944.431	1727.69
944.738	1718.43
945.044	1703.74
945.35	1729.28
945.657	1695.61
945.963	1684.08
946.269	1662.39
946.575	1682.27
946.881	1688.6
947.187	1670.75
947.493	1665.1
947.799	1666.68
948.105	1654.93
948.41	1660.8
948.716	1648.15
949.022	1625.78
949.327	1635.72
949.633	1630.07
949.938	1626.68
950.244	1630.75
950.549	1613.8
950.854	1603.86
951.16	1579.9
951.465	1575.16
951.77	1574.03
952.075	1589.85
952.38	1590.75
952.685	1571.77
952.99	1541.26
953.294	1558.21
953.599	1565.67
953.904	1538.77
954.209	1518.66
954.513	1569.51
954.818	1539.9
955.122	1513.91
955.426	1516.4
955.731	1475.5
956.035	1482.73
956.339	1495.16
956.643	1488.83
956.948	1473.92
957.252	1507.36
957.556	1489.51
957.86	1467.36
958.163	1467.81
958.467	1468.04
958.771	1429.17
959.075	1447.48
959.378	1423.3
959.682	1435.72
959.985	1456.29
960.289	1425.78
960.592	1404.99
960.896	1443.86
961.199	1437.98
961.502	1428.95
961.805	1401.83
962.108	1400.02
962.411	1404.99
962.714	1378.1
963.017	1391.21
963.32	1386.46
963.623	1380.13
963.926	1350.08
964.228	1369.29
964.531	1354.82
964.833	1369.74
965.136	1370.19
965.438	1326.8
965.741	1330.64
966.043	1332.9
966.345	1345.33
966.648	1331.32
966.95	1314.6
967.252	1335.16
967.554	1334.03
967.856	1325.22
968.158	1298.55
968.46	1298.1
968.761	1305.78
969.063	1296.29
969.365	1267.59
969.666	1259.46
969.968	1262.85
970.269	1268.95
970.571	1280.47
970.872	1267.82
971.174	1244.32
971.475	1240.93
971.776	1243.41
972.077	1256.97
972.378	1234.6
972.679	1237.31
972.98	1250.65
973.281	1225.56
973.582	1243.64
973.883	1217.43
974.183	1228.95
974.484	1211.1
974.785	1219.46
975.085	1188.95
975.386	1209.97
975.686	1188.73
975.986	1186.24
976.287	1182.62
976.587	1179.69
976.887	1178.33
977.187	1156.86
977.487	1189.18
977.787	1153.25
978.087	1155.96
978.387	1167.94
978.687	1149.86
978.987	1149.86
979.286	1158.67
979.586	1139.91
979.885	1128.16
980.185	1142.17
980.484	1099.01
980.784	1104.43
981.083	1109.18
981.382	1105.79
981.682	1115.73
981.981	1108.05
982.28	1141.72
982.579	1115.06
982.878	1103.53
983.177	1098.33
983.475	1075.51
983.774	1077.09
984.073	1098.33
984.372	1081.38
984.67	1070.31
984.969	1068.5
985.267	1072.34
985.566	1052.91
985.864	1073.25
986.162	1070.31
986.461	1048.62
986.759	1038.9
987.057	1045.23
987.355	1048.39
987.653	1021.05
987.951	1028.28
988.249	1036.41
988.547	1033.02
988.844	1028.05
989.142	1007.26
989.44	1004.32
989.737	1022.85
990.035	1003.65
990.332	1001.39
990.63	998
990.927	997.09
991.224	978.56
991.521	1006.58
991.819	1013.36
992.116	984.21
992.413	972.01
992.71	975.17
993.006	986.47
993.303	961.39
993.6	961.16
993.897	958.9
994.193	953.48
994.49	980.14
994.787	952.12
995.083	961.61
995.379	925.46
995.676	927.72
995.972	940.37
996.268	929.98
996.565	923.87
996.861	916.42
997.157	916.64
997.453	922.74
997.749	930.43
998.044	930.2
998.34	918.9
998.636	920.03
998.932	925
999.227	911.44
999.523	890.43
999.818	882.07
1000.114	872.35
1000.409	893.59
1000.704	882.07
1001	880.03
1001.295	874.61
1001.59	862.41
1001.885	871.9
1002.18	871.45
1002.475	891.78
1002.77	867.83
1003.065	873.48
1003.359	853.37
1003.654	847.72
1003.949	845.91
1004.243	854.27
1004.538	846.59
1004.832	841.84
1005.127	836.64
1005.421	841.84
1005.715	845.91
1006.009	824.67
1006.304	822.18
1006.598	816.53
1006.892	809.98
1007.186	817.21
1007.48	809.07
1007.773	825.8
1008.067	805.23
1008.361	803.2
1008.655	788.28
1008.948	800.04
1009.242	783.76
1009.535	773.14
1009.829	784.67
1010.122	769.08
1010.415	760.71
1010.708	756.65
1011.001	766.82
1011.295	772.92
1011.588	752.13
1011.881	772.69
1012.173	760.26
1012.466	753.26
1012.759	755.52
1013.052	751.22
1013.344	738.34
1013.637	732.69
1013.93	744.22
1014.222	749.42
1014.514	719.81
1014.807	735.4
1015.099	713.71
1015.391	716.2
1015.683	738.12
1015.976	725.69
1016.268	741.73
1016.56	691.34
1016.851	722.98
1017.143	701.51
1017.435	702.41
1017.727	682.52
1018.018	713.71
1018.31	714.61
1018.602	706.03
1018.893	692.69
1019.185	690.66
1019.476	700.6
1019.767	690.21
1020.058	670.1
1020.35	656.99
1020.641	693.15
1020.932	690.89
1021.223	683.65
1021.514	641.85
1021.804	663.99
1022.095	645.46
1022.386	645.69
1022.677	662.41
1022.967	652.02
1023.258	643.66
1023.548	648.63
1023.839	642.07
1024.129	650.21
1024.419	649.08
1024.709	637.78
1025	639.59
1025.29	620.83
1025.58	599.36
1025.87	630.1
1026.16	641.62
1026.449	623.99
1026.739	625.35
1027.029	618.12
1027.319	613.83
1027.608	617.89
1027.898	579.25
1028.187	589.19
1028.477	621.74
1028.766	583.32
1029.055	583.77
1029.344	607.27
1029.634	601.85
1029.923	599.59
1030.212	567.73
1030.501	558.91
1030.79	570.44
1031.078	559.82
1031.367	572.47
1031.656	579.25
1031.945	555.52
1032.233	580.83
1032.522	543.77
1032.81	571.57
1033.099	569.31
1033.387	563.21
1033.675	562.53
1033.963	558.91
1034.251	563.21
1034.54	553.49
1034.828	532.25
1035.116	554.62
1035.403	555.07
1035.691	553.71
1035.979	550.1
1036.267	536.09
1036.554	522.75
1036.842	559.59
1037.129	535.86
1037.417	530.44
1037.704	500.38
1037.992	541.74
1038.279	535.86
1038.566	538.12
1038.853	538.12
1039.14	538.12
