Data from black_plastic_tray_FLMS001491_037.txt Node
Date: Tue Feb 07 10:39:42 GMT 2017
User: dcchb
Spectrometer: FLMS00149
Trigger mode: 0
Integration Time (sec): 2.000000E-2
Scans to average: 10
Electric dark correction enabled: true
Nonlinearity correction enabled: false
Boxcar width: 0
XAxis mode: Wavelengths
Number of Pixels in Spectrum: 2048
>>>>>Begin Spectral Data<<<<<
341.393	9.73
341.776	9.73
342.16	9.73
342.543	-66.42
342.927	-61.23
343.31	-87.22
343.693	-66.88
344.077	-65.29
344.46	-61
344.843	-43.83
345.226	-11.51
345.61	-32.98
345.993	-30.49
346.376	-13.32
346.759	19.22
347.142	37.98
347.525	33.69
347.908	53.35
348.291	77.75
348.674	80.01
349.057	110.52
349.44	116.85
349.823	114.14
350.206	144.19
350.588	183.96
350.971	204.98
351.354	209.05
351.737	212.89
352.119	239.56
352.502	268.03
352.884	250.85
353.267	290.18
353.65	279.33
354.032	311.87
354.414	298.99
354.797	300.12
355.179	301.7
355.562	325.2
355.944	317.75
356.326	315.26
356.709	316.84
357.091	320.68
357.473	347.35
357.855	307.58
358.238	331.98
358.62	327.92
359.002	327.46
359.384	332.21
359.766	331.98
360.148	345.32
360.53	316.16
360.912	338.31
361.294	321.81
361.676	324.07
362.057	313.23
362.439	324.98
362.821	327.01
363.203	305.09
363.584	317.52
363.966	314.13
364.348	339.89
364.729	323.17
365.111	308.93
365.493	316.62
365.874	307.35
366.256	298.09
366.637	326.33
367.019	289.72
367.4	329.05
367.781	296.28
368.163	316.84
368.544	311.19
368.925	331.53
369.306	327.69
369.688	318.65
370.069	324.3
370.45	316.16
370.831	313.68
371.212	305.77
371.593	316.84
371.974	308.03
372.355	313.45
372.736	315.94
373.117	303.51
373.498	325.66
373.879	336.95
374.26	326.33
374.641	302.83
375.021	317.52
375.402	329.95
375.783	342.83
376.163	340.57
376.544	339.44
376.925	316.16
377.305	356.16
377.686	343.06
378.066	337.86
378.447	358.87
378.827	357.74
379.208	358.87
379.588	337.63
379.968	356.39
380.349	350.06
380.729	349.38
381.109	348.48
381.489	355.26
381.87	363.85
382.25	360.91
382.63	368.14
383.01	371.3
383.39	366.11
383.77	351.19
384.15	361.36
384.53	376.95
384.91	362.94
385.29	381.92
385.67	378.08
386.049	366.11
386.429	380.12
386.809	371.98
387.189	383.05
387.568	386.67
387.948	408.14
388.328	409.95
388.707	389.38
389.087	386.9
389.466	406.56
389.846	401.59
390.225	432.55
390.605	417.86
390.984	394.81
391.363	404.3
391.743	417.4
392.122	407.46
392.501	425.31
392.881	429.38
393.26	425.31
393.639	433.22
394.018	416.95
394.397	449.72
394.776	444.3
395.155	433.68
395.534	441.36
395.913	437.29
396.292	456.95
396.671	463.05
397.05	473.22
397.429	465.54
397.808	435.03
398.186	455.6
398.565	457.86
398.944	437.06
399.323	449.27
399.701	477.97
400.08	474.58
400.458	471.41
400.837	486.56
401.215	487.91
401.594	496.5
401.972	498.31
402.351	494.24
402.729	504.86
403.107	503.28
403.486	484.97
403.864	510.06
404.242	498.31
404.62	519.55
404.999	517.51
405.377	526.33
405.755	525.2
406.133	538.31
406.511	550.96
406.889	550.96
407.267	538.53
407.645	536.95
408.023	547.57
408.401	576.72
408.779	541.47
409.156	563.16
409.534	567.91
409.912	576.95
410.29	600.22
410.667	576.27
411.045	617.17
411.422	608.81
411.8	615.82
412.178	630.28
412.555	635.48
412.933	614.46
413.31	656.04
413.687	646.32
414.065	636.61
414.442	651.3
414.819	656.49
415.197	671.18
415.574	683.61
415.951	680.67
416.328	676.83
416.705	663.27
417.082	687.91
417.46	675.93
417.837	693.56
418.214	684.52
418.591	700.56
418.967	726.55
419.344	713.22
419.721	700.56
420.098	716.15
420.475	747.11
420.852	742.59
421.228	745.76
421.605	744.85
421.982	741.69
422.358	780.11
422.735	769.94
423.111	767.68
423.488	768.58
423.864	770.39
424.241	812.42
424.617	808.35
424.994	804.06
425.37	827.56
425.746	819.43
426.123	827.56
426.499	830.05
426.875	834.57
427.251	869.14
427.627	874.79
428.003	873.21
428.379	855.58
428.756	885.41
429.132	906.2
429.507	915.47
429.883	898.52
430.259	924.28
430.635	961.34
431.011	962.02
431.387	941.23
431.763	981.01
432.138	985.75
432.514	968.58
432.89	984.85
433.265	1011.29
433.641	1009.48
434.016	1014
434.392	1030.95
434.767	1062.36
435.143	1063.71
435.518	1060.33
435.894	1087.9
436.269	1109.36
436.644	1098.29
437.02	1095.8
437.395	1142.13
437.77	1111.17
438.145	1117.72
438.52	1162.92
438.895	1160.44
439.271	1168.12
439.646	1183.03
440.021	1174.9
440.395	1204.28
440.77	1171.28
441.145	1186.2
441.52	1225.07
441.895	1243.6
442.27	1240.43
442.645	1230.94
443.019	1239.76
443.394	1255.12
443.769	1271.85
444.143	1245.41
444.518	1278.62
444.892	1274.1
445.267	1270.26
445.641	1277.49
446.016	1279.75
446.39	1345.29
446.764	1324.27
447.139	1322.01
447.513	1343.93
447.887	1344.39
448.262	1353.2
448.636	1350.94
449.01	1370.37
449.384	1356.81
449.758	1407.43
450.132	1396.59
450.506	1415.57
450.88	1409.69
451.254	1426.64
451.628	1451.05
452.002	1464.61
452.376	1481.33
452.75	1507.32
453.123	1488.34
453.497	1496.92
453.871	1532.4
454.244	1556.36
454.618	1549.8
454.992	1526.53
455.365	1598.84
455.739	1621.21
456.112	1617.37
456.486	1604.04
456.859	1663.47
457.232	1669.8
457.606	1669.57
457.979	1669.12
458.352	1745.05
458.725	1729.23
459.099	1804.71
459.472	1818.95
459.845	1817.14
460.218	1831.15
460.591	1891.94
460.964	1855.56
461.337	1896.24
461.71	1914.31
462.083	1965.84
462.456	1950.02
462.829	1961.54
463.201	1993.63
463.574	1996.35
463.947	2052.39
464.32	2087.19
464.692	2072.5
465.065	2098.26
465.438	2151.37
465.81	2151.82
466.183	2141.2
466.555	2173.74
466.928	2196.11
467.3	2271.59
467.672	2254.64
468.045	2303.91
468.417	2346.39
468.789	2316.56
469.161	2360.63
469.534	2430.68
469.906	2456.67
470.278	2474.98
470.65	2506.16
471.022	2509.55
471.394	2569.21
471.766	2590.91
472.138	2616.44
472.51	2667.97
472.882	2712.49
473.253	2775.31
473.625	2782.31
473.997	2834.52
474.369	2858.7
474.74	2901.86
475.112	2923.33
475.484	2961.52
475.855	3023.66
476.227	3023.89
476.598	3083.55
476.97	3174.17
477.341	3244.45
477.713	3278.8
478.084	3260.95
478.455	3389.3
478.827	3394.28
479.198	3462.52
479.569	3507.49
479.94	3547.27
480.311	3610.54
480.682	3649.86
481.053	3728.28
481.424	3821.61
481.795	3845.34
482.166	3936.18
482.537	3974.37
482.908	4050.3
483.279	4054.37
483.65	4159.68
484.021	4212.11
484.391	4296.62
484.762	4302.73
485.133	4346.57
485.503	4394.93
485.874	4495.72
486.244	4517.41
486.615	4611.64
486.985	4682.15
487.356	4783.17
487.726	4777.52
488.097	4864.29
488.467	4870.62
488.837	5006.44
489.207	5084.4
489.578	5128.47
489.948	5113.33
490.318	5208.92
490.688	5262.25
491.058	5272.42
491.428	5422.47
491.798	5433.09
492.168	5515.8
492.538	5618.4
492.908	5658.4
493.278	5694.1
493.648	5716.7
494.017	5737.26
494.387	5826.75
494.757	5925.06
495.126	5936.81
495.496	5961.89
495.866	6022
496.235	6101.55
496.605	6148.33
496.974	6170.93
497.344	6261.54
497.713	6224.71
498.082	6317.81
498.452	6377.02
498.821	6419.73
499.19	6433.74
499.559	6456.57
499.928	6535.44
500.298	6561.42
500.667	6671.7
501.036	6635.55
501.405	6735.88
501.774	6724.13
502.143	6792.83
502.512	6860.62
502.88	6909.66
503.249	6882.77
503.618	6938.14
503.987	7031.02
504.356	7050
504.724	7115.53
505.093	7127.74
505.462	7190.79
505.83	7145.14
506.199	7237.34
506.567	7372.7
506.936	7393.49
507.304	7428.75
507.672	7553.26
508.041	7550.55
508.409	7667.84
508.777	7600.72
509.145	7718.91
509.514	7708.74
509.882	7775.63
510.25	7808.17
510.618	7842.07
510.986	7934.04
511.354	7980.82
511.722	8097.2
512.09	8104.43
512.458	8130.87
512.826	8141.95
513.193	8259.23
513.561	8345.78
513.929	8390.53
514.297	8380.13
514.664	8477.76
515.032	8488.15
515.4	8582.16
515.767	8591.2
516.135	8723.63
516.502	8645.66
516.869	8757.3
517.237	8773.79
517.604	8851.08
517.972	8954.35
518.339	8965.43
518.706	9031.19
519.073	9092.88
519.44	9123.84
519.808	9256.95
520.175	9260.79
520.542	9489.03
520.909	9508.46
521.276	9481.12
521.643	9559.31
522.009	9669.36
522.376	9620.78
522.743	9692.41
523.11	9828.46
523.477	9892.18
523.843	9875.46
524.21	10089.24
524.577	10193.87
524.943	10266.64
525.31	10325.17
525.676	10435.67
526.043	10414.2
526.409	10512.73
526.776	10643.12
527.142	10653.97
527.508	10653.97
527.874	10790.46
528.241	10873.63
528.607	10868.88
528.973	11009.67
529.339	11067.07
529.705	11165.14
530.071	11234.52
530.437	11250.34
530.803	11350.9
531.169	11418.02
531.535	11445.36
531.901	11477.68
532.267	11550.44
532.632	11645.58
532.998	11676.77
533.364	11682.42
533.73	11783.66
534.095	11850.32
534.461	11906.14
534.826	11876.31
535.192	12040.15
535.557	12140.94
535.923	12049.87
536.288	12156.98
536.653	12245.34
537.019	12266.81
537.384	12351.78
537.749	12368.28
538.114	12336.64
538.479	12390.42
538.845	12521.27
539.21	12480.14
539.575	12591.1
539.94	12513.81
540.305	12642.39
540.67	12632
541.034	12608.72
541.399	12746.35
541.764	12793.58
542.129	12848.49
542.494	12834.03
542.858	12937.08
543.223	12873.8
543.587	13002.38
543.952	12921.26
544.316	13004.64
544.681	13114.7
545.045	13190.63
545.41	13185.2
545.774	13215.03
546.138	13292.55
546.503	13324.18
546.867	13454.35
547.231	13457.97
547.595	13554.46
547.959	13509.04
548.324	13551.3
548.688	13634.68
549.052	13611.41
549.416	13551.3
549.779	13643.27
550.143	13733.66
550.507	13808.46
550.871	13884.17
551.235	13868.12
551.599	13997.16
551.962	13960.78
552.326	14076.25
552.689	14079.42
553.053	14058.85
553.417	14085.75
553.78	14319.19
554.143	14313.54
554.507	14373.65
554.87	14446.41
555.234	14629.23
555.597	14503.36
555.96	14637.82
556.323	14697.71
556.686	14735.22
557.05	14797.14
557.413	14753.52
557.776	14809.57
558.139	14979.28
558.502	15033.29
558.865	15062.22
559.228	15136.57
559.59	15226.51
559.953	15243.23
560.316	15394.64
560.679	15438.25
561.041	15531.36
561.404	15532.26
561.767	15532.49
562.129	15654.52
562.492	15777.23
562.854	15715.08
563.217	15740.39
563.579	15854.51
563.941	15974.96
564.304	16040.04
564.666	16105.35
565.028	16142.64
565.39	16228.06
565.753	16275.97
566.115	16302.86
566.477	16408.17
566.839	16469.19
567.201	16573.14
567.563	16574.27
567.925	16753.7
568.287	16774.71
568.648	16736.98
569.01	16768.61
569.372	16877.99
569.734	16839.57
570.095	17045.67
570.457	17182.39
570.819	17143.52
571.18	17224.87
571.542	17282.72
571.903	17258.32
572.265	17354.59
572.626	17361.82
572.987	17441.36
573.349	17515.03
573.71	17574.02
574.071	17537.86
574.432	17603.85
574.794	17784.18
575.155	17790.73
575.516	17735.37
575.877	17702.83
576.238	17767.23
576.599	17913.67
576.96	17856.27
577.32	17946.43
577.681	17976.94
578.042	18078.63
578.403	18062.14
578.763	18151.18
579.124	18133.1
579.485	18291.96
579.845	18261.23
580.206	18126.54
580.566	18099.43
580.927	18170.38
581.287	18164.51
581.648	18121.8
582.008	18314.79
582.368	18139.88
582.728	18300.1
583.089	18329.25
583.449	18296.93
583.809	18251.29
584.169	18234.11
584.529	18148.46
584.889	18381.68
585.249	18303.04
585.609	18253.09
585.969	18374.67
586.329	18285.18
586.688	18355.01
587.048	18331.96
587.408	18194.56
587.768	18308.46
588.127	18298.06
588.487	18281.12
588.846	18412.64
589.206	18140.55
589.565	18207.67
589.925	18225.3
590.284	18227.11
590.643	18309.82
591.003	18379.19
591.362	18329.25
591.721	18264.84
592.08	18330.15
592.44	18336.03
592.799	18435.01
593.158	18326.54
593.517	18439.53
593.876	18419.19
594.235	18360.44
594.593	18350.49
594.952	18465.29
595.311	18405.18
595.67	18493.54
596.029	18485.4
596.387	18562.92
596.746	18523.59
597.104	18459.87
597.463	18406.08
597.822	18471.62
598.18	18420.09
598.538	18433.43
598.897	18565.18
599.255	18322.24
599.613	18681.78
599.972	18584.61
600.33	18613.76
600.688	18689.92
601.046	18552.75
601.404	18710.03
601.762	18598.85
602.12	18723.59
602.478	18721.78
602.836	18777.83
603.194	18712.74
603.552	18577.83
603.91	18593.2
604.268	18765.17
604.625	18713.87
604.983	18768.56
605.341	18696.92
605.698	18711.39
606.056	18812.63
606.413	18646.98
606.771	18823.02
607.128	18841.33
607.485	18863.02
607.843	18729.92
608.2	18954.09
608.557	18950.02
608.914	18933.53
609.272	18905.28
609.629	19008.1
609.986	19040.87
610.343	18854.21
610.7	19057.14
611.057	19063.02
611.414	19049.68
611.771	19134.2
612.127	19138.04
612.484	19082.45
612.841	19126.74
613.198	19099.17
613.554	19169.45
613.911	19314.53
614.267	19224.14
614.624	19204.93
614.98	19167.19
615.337	19252.39
615.693	19241.09
616.05	19291.48
616.406	19387.3
616.762	19225.95
617.118	19275.89
617.475	19333.52
617.831	19387.75
618.187	19445.38
618.543	19488.09
618.899	19592.72
619.255	19493.06
619.611	19505.26
619.967	19539.39
620.323	19610.57
620.678	19567.64
621.034	19571.93
621.39	19587.52
621.746	19489.9
622.101	19648.99
622.457	19477.24
622.812	19536.68
623.168	19587.97
623.523	19618.03
623.879	19591.82
624.234	19446.06
624.589	19538.71
624.945	19634.53
625.3	19672.27
625.655	19631.14
626.01	19565.6
626.365	19610.8
626.72	19553.17
627.075	19523.79
627.43	19588.65
627.785	19497.81
628.14	19533.51
628.495	19528.99
628.85	19540.74
629.205	19467.52
629.559	19568.31
629.914	19505.72
630.269	19370.35
630.623	19415.32
630.978	19419.62
631.332	19535.09
631.687	19600.85
632.041	19346.4
632.396	19563.57
632.75	19423.91
633.104	19382.33
633.459	19386.85
633.813	19227.31
634.167	19378.94
634.521	19283.35
634.875	19359.73
635.229	19233.41
635.583	19207.87
635.937	19127.87
636.291	19133.97
636.645	19089.68
636.999	19051.72
637.352	19071.15
637.706	18906.41
638.06	18989.8
638.413	19060.53
638.767	18966.97
639.121	18958.39
639.474	18808.79
639.828	18845.17
640.181	18922
640.534	18872.51
640.888	18828.67
641.241	18710.48
641.594	18757.94
641.947	18697.6
642.301	18680.2
642.654	18718.62
643.007	18711.84
643.36	18617.83
643.713	18514.78
644.066	18721.78
644.419	18588.23
644.771	18454.44
645.124	18248.57
645.477	18194.11
645.83	18141.01
646.182	18002.93
646.535	17895.59
646.888	17976.72
647.24	17828.25
647.593	17911.18
647.945	17780.11
648.298	17722.03
648.65	17718.64
649.002	17775.37
649.355	17688.81
649.707	17754.12
650.059	17869.83
650.411	18159.99
650.763	18136.26
651.115	18176.26
651.467	18238.63
651.819	18199.76
652.171	18133.55
652.523	18091.06
652.875	18074.12
653.227	18086.32
653.578	18144.85
653.93	18151.18
654.282	17995.7
654.633	17905.31
654.985	17951.41
655.337	17939.66
655.688	17964.29
656.039	17942.59
656.391	17751.86
656.742	17882.26
657.094	17813.11
657.445	17964.97
657.796	17882.03
658.147	17820.79
658.498	17821.24
658.849	17882.93
659.2	17894.68
659.551	17853.78
659.902	17862.82
660.253	17907.11
660.604	17843.61
660.955	17738.08
661.306	17851.75
661.656	17801.35
662.007	17698.76
662.358	17637.06
662.708	17644.3
663.059	17680.91
663.409	17505.77
663.76	17660.34
664.11	17618.76
664.461	17671.19
664.811	17723.62
665.161	17644.97
665.511	17613.34
665.862	17656.05
666.212	17641.13
666.562	17614.47
666.912	17574.02
667.262	17469.84
667.612	17591.19
667.962	17486.79
668.312	17499.89
668.662	17526.33
669.011	17439.78
669.361	17414.47
669.711	17407.47
670.06	17366.79
670.41	17320.01
670.76	17241.82
671.109	17349.39
671.459	17351.2
671.808	17306.9
672.157	17275.94
672.507	17290.86
672.856	17255.61
673.205	17277.75
673.554	17256.74
673.904	17216.06
674.253	17325.43
674.602	17240.01
674.951	16967.25
675.3	16928.16
675.649	17172.44
675.998	17119.34
676.346	17255.83
676.695	17243.85
677.044	17149.39
677.393	17130.41
677.741	17157.76
678.09	16993.47
678.438	16995.95
678.787	17036.18
679.135	17049.51
679.484	17012.9
679.832	17032.56
680.181	16873.02
680.529	16960.25
680.877	16987.59
681.225	16918.21
681.573	17014.48
681.922	16859.01
682.27	16696.52
682.618	16898.78
682.966	16712.34
683.314	16833.7
683.661	16819.23
684.009	16602.06
684.357	16677.09
684.705	16550.31
685.053	16686.36
685.4	16616.75
685.748	16528.85
686.095	16464.89
686.443	16288.4
686.79	16254.05
687.138	16351
687.485	16373.37
687.832	16266.03
688.18	16208.18
688.527	16136.31
688.874	16247.27
689.221	16174.5
689.568	16029.65
689.915	16122.3
690.262	16099.93
690.609	16033.26
690.956	15927.96
691.303	15854.51
691.65	15807.51
691.997	15843.44
692.344	15690
692.69	15693.39
693.037	15751.24
693.383	15623.33
693.73	15701.75
694.077	15606.16
694.423	15689.55
694.769	15554.86
695.116	15494.3
695.462	15396.9
695.808	15373.17
696.155	15313.74
696.501	15285.71
696.847	15334.53
697.193	15206.85
697.539	15254.08
697.885	15144.02
698.231	15036.45
698.577	15083.46
698.923	15054.99
699.269	14963.91
699.614	14973.18
699.96	14899.06
700.306	15002.78
700.651	14833.07
700.997	14803.92
701.342	14771.83
701.688	14724.6
702.033	14697.71
702.379	14691.15
702.724	14640.31
703.069	14638.5
703.415	14601.66
703.76	14582.91
704.105	14526.19
704.45	14470.82
704.795	14455
705.14	14442.57
705.485	14376.36
705.83	14287.1
706.175	14267.89
706.52	14270.83
706.865	14205.06
707.209	14232.86
707.554	14128
707.899	14151.96
708.243	14084.16
708.588	14042.36
708.932	13996.48
709.277	13995.58
709.621	14080.55
709.966	13894.56
710.31	13909.03
710.654	13773.66
710.998	13802.59
711.342	13818.86
711.687	13827.22
712.031	13687.11
712.375	13635.36
712.719	13742.03
713.063	13646.66
713.407	13632.42
713.75	13507.23
714.094	13482.82
714.438	13472.88
714.782	13453.9
715.125	13415.71
715.469	13419.55
715.812	13377.74
716.156	13219.33
716.499	13321.7
716.843	13286.44
717.186	13158.76
717.53	13288.93
717.873	13175.94
718.216	13200.57
718.559	13213.9
718.902	13081.03
719.246	13178.65
719.589	13090.52
719.932	13116.51
720.275	13097.3
720.617	13091.42
720.96	12910.18
721.303	12955.83
721.646	12922.39
721.989	12931.2
722.331	12904.08
722.674	12846
723.016	12814.59
723.359	12796.74
723.701	12949.96
724.044	12755.61
724.386	12749.51
724.729	12782.05
725.071	12701.83
725.413	12626.8
725.755	12647.59
726.097	12602.17
726.439	12607.14
726.782	12592.9
727.124	12651.43
727.465	12517.43
727.807	12573.24
728.149	12523.07
728.491	12469.06
728.833	12562.4
729.175	12406.47
729.516	12359.24
729.858	12347.03
730.199	12444.43
730.541	12408.28
730.882	12446.47
731.224	12411.44
731.565	12335.73
731.906	12321.72
732.248	12309.52
732.589	12267.71
732.93	12245.79
733.271	12257.54
733.612	12144.55
733.953	12201.5
734.294	12197.21
734.635	12140.26
734.976	12135.97
735.317	12063.65
735.658	12130.32
735.999	12059.81
736.339	12000.15
736.68	12048.51
737.021	11995.18
737.361	11985.01
737.702	11906.59
738.042	11927.16
738.383	12036.31
738.723	11935.97
739.063	11920.38
739.404	11847.39
739.744	11834.96
740.084	11781.63
740.424	11901.17
740.764	11779.14
741.104	11818.23
741.444	11772.81
741.784	11676.77
742.124	11740.04
742.464	11629.99
742.804	11609.43
743.143	11581.63
743.483	11678.58
743.823	11555.64
744.162	11681.06
744.502	11698.69
744.841	11592.7
745.181	11599.71
745.52	11576.43
745.86	11612.14
746.199	11551.35
746.538	11590.67
746.877	11496.66
747.216	11471.12
747.556	11362.43
747.895	11326.72
748.234	11357.68
748.573	11338.93
748.911	11324.46
749.25	11353.16
749.589	11342.09
749.928	11234.52
750.267	11260.73
750.605	11230.23
750.944	11175.54
751.283	11165.82
751.621	11155.88
751.96	11118.14
752.298	11146.39
752.636	11168.08
752.975	11051.7
753.313	10978.71
753.651	11027.52
753.989	10953.62
754.327	10958.6
754.666	10828.88
755.004	10938.94
755.342	10901.42
755.679	10870.69
756.017	10764.93
756.355	10834.98
756.693	10699.39
757.031	10788.43
757.368	10722.9
757.706	10740.75
758.044	10675.21
758.381	10677.02
758.719	10601.32
759.056	10667.08
759.394	10553.86
759.731	10563.8
760.068	10507.31
760.405	10463.92
760.743	10364.49
761.08	10355.9
761.417	10361.78
761.754	10333.08
762.091	10354.32
762.428	10366.97
762.765	10240.87
763.102	10321.78
763.438	10171.95
763.775	10152.06
764.112	10154.32
764.449	10191.38
764.785	10102.8
765.122	10072.74
765.458	10034.78
765.795	9982.8
766.131	10016.7
766.467	9965.85
766.804	9879.75
767.14	9879.98
767.476	9795.24
767.812	9790.04
768.148	9785.07
768.485	9783.71
768.821	9713.66
769.157	9736.48
769.492	9654.22
769.828	9660.1
770.164	9580.78
770.5	9523.38
770.836	9586.88
771.171	9503.72
771.507	9434.57
771.842	9361.58
772.178	9384.63
772.513	9332.42
772.849	9340.56
773.184	9241.58
773.519	9285.19
773.855	9141.69
774.19	9155.93
774.525	9107.8
774.86	9106.44
775.195	9113.22
775.53	9087.23
775.865	9018.31
776.2	8967.01
776.535	8989.83
776.87	8917.97
777.205	8809.05
777.539	8856.05
777.874	8875.49
778.209	8806.11
778.543	8803.62
778.878	8776.05
779.212	8677.53
779.547	8639.56
779.881	8645.66
780.215	8550.52
780.55	8603.86
780.884	8492.22
781.218	8533.12
781.552	8451.09
781.886	8468.72
782.22	8407.93
782.554	8379.23
782.888	8295.62
783.222	8264.66
783.556	8260.81
783.889	8220.14
784.223	8186.01
784.557	8169.06
784.89	8175.62
785.224	8094.26
785.557	8143.3
785.891	8034.61
786.224	8084.32
786.558	8034.38
786.891	7944.66
787.224	7937.66
787.557	7925.68
787.891	7926.59
788.224	7933.14
788.557	7916.87
788.89	7903.54
789.223	7856.53
789.556	7819.02
789.888	7877.77
790.221	7810.43
790.554	7749.87
790.887	7777.44
791.219	7673.03
791.552	7643.65
791.884	7581.74
792.217	7546.71
792.549	7539.7
792.882	7455.64
793.214	7424.9
793.546	7512.13
793.879	7462.42
794.211	7373.38
794.543	7468.97
794.875	7386.71
795.207	7343.1
795.539	7348.07
795.871	7274.17
796.203	7250.9
796.535	7185.14
796.867	7184.68
797.198	7172.71
797.53	7199.82
797.862	7132.93
798.193	7126.15
798.525	7069.66
798.856	7155.08
799.188	7016.78
799.519	6979.49
799.85	6969.32
800.182	7026.27
800.513	6996.21
800.844	6881.64
801.175	6968.87
801.506	6958.93
801.837	6925.26
802.168	6923.45
802.499	6830.12
802.83	6800.51
803.161	6800.29
803.491	6789.89
803.822	6734.98
804.153	6750.12
804.483	6709.44
804.814	6653.17
805.145	6688.88
805.475	6671.93
805.805	6681.42
806.136	6607.75
806.466	6609.56
806.796	6637.81
807.126	6595.55
807.457	6586.51
807.787	6527.3
808.117	6560.29
808.447	6531.37
808.777	6524.81
809.107	6454.76
809.436	6451.6
809.766	6479.84
810.096	6443.23
810.426	6420.86
810.755	6431.94
811.085	6398.04
811.414	6348.77
811.744	6340.64
812.073	6310.36
812.403	6259.96
812.732	6255.22
813.061	6305.16
813.39	6208.89
813.719	6179.29
814.049	6226.52
814.378	6263.35
814.707	6178.38
815.036	6183.58
815.365	6164.37
815.693	6116.46
816.022	6154.65
816.351	6112.62
816.68	6075.56
817.008	6072.4
817.337	6015
817.665	6029.23
817.994	5979.07
818.322	6017.48
818.651	6009.12
818.979	5960.08
819.307	6051.38
819.636	5977.03
819.964	5950.14
820.292	5925.96
820.62	5965.96
820.948	5943.81
821.276	5989.01
821.604	5908.79
821.932	5982.68
822.259	5960.54
822.587	5932.06
822.915	5935.23
823.243	5944.26
823.57	5932.74
823.898	5935
824.225	5899.97
824.553	5905.4
824.88	5925.06
825.207	5944.94
825.535	5918.28
825.862	5925.06
826.189	5930.71
826.516	5986.3
826.843	5976.35
827.17	5947.88
827.497	5969.35
827.824	5971.61
828.151	5957.37
828.478	5904.27
828.805	5933.64
829.131	5926.19
829.458	5927.54
829.785	5851.84
830.111	5941.1
830.438	5923.02
830.764	5930.93
831.09	5909.69
831.417	5886.41
831.743	5959.41
832.069	5923.93
832.395	5923.7
832.722	5853.65
833.048	5872.85
833.374	5890.71
833.7	5854.55
834.026	5880.31
834.351	5857.04
834.677	5826.08
835.003	5853.19
835.329	5811.39
835.654	5776.59
835.98	5835.34
836.306	5801.9
836.631	5792.63
836.956	5791.05
837.282	5791.95
837.607	5741.33
837.932	5703.82
838.258	5735.23
838.583	5698.85
838.908	5702.01
839.233	5680.54
839.558	5721.67
839.883	5629.7
840.208	5617.49
840.533	5698.85
840.858	5690.71
841.182	5675.57
841.507	5646.19
841.832	5602.58
842.156	5619.3
842.481	5619.3
842.805	5623.6
843.13	5558.06
843.454	5619.75
843.778	5600.09
844.103	5528.46
844.427	5512.64
844.751	5559.87
845.075	5425.86
845.399	5487.55
845.723	5477.84
846.047	5490.04
846.371	5425.41
846.695	5411.62
847.019	5424.05
847.343	5397.61
847.666	5373.66
847.99	5344.05
848.313	5298.63
848.637	5284.62
848.96	5227
849.284	5279.65
849.607	5234.9
849.931	5267.9
850.254	5217.28
850.577	5188.13
850.9	5156.04
851.223	5150.39
851.546	5115.81
851.869	5099.09
852.192	5112.65
852.515	5108.35
852.838	5100.22
853.161	5068.36
853.483	5010.28
853.806	4963.73
854.129	4961.69
854.451	4928.92
854.774	4968.92
855.096	4964.4
855.419	4867.23
855.741	4908.81
856.063	4885.31
856.385	4874.01
856.708	4868.13
857.03	4830.85
857.352	4827.46
857.674	4829.04
857.996	4781.58
858.318	4836.5
858.64	4758.31
858.961	4808.02
859.283	4797.85
859.605	4720.57
859.926	4745.88
860.248	4721.25
860.57	4685.09
860.891	4705.88
861.212	4706.33
861.534	4673.79
861.855	4692.09
862.176	4719.89
862.498	4698.42
862.819	4655.26
863.14	4636.28
863.461	4643.51
863.782	4578.88
864.103	4625.66
864.424	4565.32
864.745	4581.36
865.065	4553.57
865.386	4558.54
865.707	4563.74
866.027	4581.81
866.348	4585.88
866.668	4577.75
866.989	4555.6
867.309	4501.82
867.63	4517.18
867.95	4531.19
868.27	4541.36
868.59	4497.97
868.91	4524.41
869.23	4528.26
869.55	4486.45
869.87	4497.75
870.19	4427.92
870.51	4506.79
870.83	4477.18
871.15	4427.24
871.469	4489.84
871.789	4500.91
872.109	4476.96
872.428	4409.39
872.748	4454.59
873.067	4412.78
873.386	4417.3
873.706	4393.57
874.025	4370.97
874.344	4376.85
874.663	4342.95
874.982	4358.32
875.301	4325.1
875.62	4323.29
875.939	4338.43
876.258	4370.07
876.577	4327.36
876.896	4351.54
877.214	4300.01
877.533	4304.53
877.852	4311.54
878.17	4336.4
878.489	4365.32
878.807	4318.32
879.125	4267.02
879.444	4292.33
879.762	4297.53
880.08	4279.68
880.398	4254.59
880.716	4276.51
881.034	4266.79
881.352	4255.04
881.67	4234.03
881.988	4260.69
882.306	4256.85
882.624	4190.86
882.941	4189.73
883.259	4148.38
883.577	4191.09
883.894	4156.74
884.212	4200.13
884.529	4194.93
884.846	4191.77
885.164	4127.59
885.481	4106.8
885.798	4160.81
886.115	4056.63
886.432	4079.68
886.75	4046.01
887.067	4039.68
887.383	4081.04
887.7	4045.33
888.017	3960.36
888.334	4031.55
888.651	4039.68
888.967	3988.38
889.284	4007.59
889.6	3949.06
889.917	3952.45
890.233	3933.92
890.55	3944.09
890.866	3944.32
891.182	3948.61
891.498	3945.45
891.815	3928.72
892.131	3888.5
892.447	3920.81
892.763	3893.02
893.079	3914.49
893.395	3845.79
893.71	3833.13
894.026	3845.56
894.342	3894.6
894.657	3801.27
894.973	3799.01
895.289	3778.67
895.604	3794.94
895.92	3798.78
896.235	3756.3
896.55	3799.46
896.865	3781.84
897.181	3745.9
897.496	3758.56
897.811	3689.41
898.126	3679.24
898.441	3668.62
898.756	3694.61
899.071	3639.24
899.386	3606.02
899.7	3594.95
900.015	3640.82
900.33	3592.24
900.644	3639.47
900.959	3639.47
901.273	3619.35
901.588	3548.62
901.902	3547.94
902.216	3559.02
902.531	3594.04
902.845	3542.75
903.159	3541.84
903.473	3502.75
903.787	3518.34
904.101	3486.93
904.415	3459.13
904.729	3458.68
905.042	3453.26
905.356	3423.2
905.67	3384.11
905.984	3425.23
906.297	3379.13
906.611	3361.51
906.924	3375.07
907.237	3356.08
907.551	3351.11
907.864	3317.44
908.177	3344.56
908.491	3307.05
908.804	3317.22
909.117	3284.22
909.43	3289.19
909.743	3272.02
910.056	3251
910.368	3237.9
910.681	3185.47
910.994	3211.46
911.307	3222.75
911.619	3206.26
911.932	3168.97
912.244	3202.42
912.557	3176.43
912.869	3109.99
913.181	3150.89
913.494	3144.34
913.806	3095.53
914.118	3088.29
914.43	3061.18
914.742	3085.81
915.054	3047.84
915.366	3008.97
915.678	3043.78
915.99	3014.4
916.302	3014.4
916.613	2992.03
916.925	3005.81
917.236	2976.43
917.548	2936.21
917.859	2944.34
918.171	2900.95
918.482	2933.27
918.794	2905.25
919.105	2897.11
919.416	2904.34
919.727	2890.11
920.038	2887.62
920.349	2855.08
920.66	2869.09
920.971	2871.58
921.282	2865.93
921.593	2809.66
921.903	2817.34
922.214	2801.97
922.525	2831.58
922.835	2762.43
923.146	2757.46
923.456	2733.73
923.767	2758.81
924.077	2780.05
924.387	2721.98
924.697	2678.81
925.008	2697.34
925.318	2737.8
925.628	2670.45
925.938	2691.69
926.248	2668.87
926.558	2661.41
926.867	2697.34
927.177	2626.84
927.487	2637.01
927.796	2603.56
928.106	2593.84
928.416	2557.01
928.725	2589.78
929.034	2584.13
929.344	2577.35
929.653	2533.05
929.962	2544.35
930.271	2519.04
930.581	2525.15
930.89	2502.1
931.199	2493.06
931.508	2496.22
931.817	2491.7
932.125	2505.71
932.434	2498.25
932.743	2447.63
933.051	2452.61
933.36	2427.52
933.669	2415.09
933.977	2408.09
934.286	2406.28
934.594	2414.64
934.902	2391.82
935.21	2391.82
935.519	2362.66
935.827	2392.95
936.135	2333.51
936.443	2345.49
936.751	2361.08
937.059	2301.87
937.367	2313.85
937.674	2289.45
937.982	2280.41
938.29	2270.24
938.597	2282.44
938.905	2264.81
939.213	2244.25
939.52	2278.15
939.827	2265.94
940.135	2211.26
940.442	2273.85
940.749	2207.19
941.056	2230.92
941.363	2210.58
941.67	2218.26
941.977	2191.14
942.284	2148.66
942.591	2158.83
942.898	2169.9
943.205	2162.22
943.511	2147.53
943.818	2132.84
944.125	2113.4
944.431	2144.36
944.738	2070.69
945.044	2086.06
945.35	2062.11
945.657	2066.17
945.963	2079.73
946.269	2053.52
946.575	2078.83
946.881	2032.5
947.187	2052.16
947.493	2015.33
947.799	2036.8
948.105	2018.04
948.41	1986.18
948.716	1991.83
949.022	1995.89
949.327	1988.44
949.633	1976.01
949.938	1964.26
950.244	1966.97
950.549	1929.91
950.854	1920.42
951.16	1945.27
951.465	1922
951.77	1904.37
952.075	1916.8
952.38	1923.58
952.685	1909.12
952.99	1905.95
953.294	1923.58
953.599	1893.07
953.904	1884.71
954.209	1862.34
954.513	1888.55
954.818	1886.74
955.122	1846.52
955.426	1852.85
955.731	1820.08
956.035	1818.27
956.339	1819.63
956.643	1816.01
956.948	1811.72
957.252	1792.96
957.556	1808.33
957.86	1797.03
958.163	1785.96
958.467	1760.65
958.771	1776.24
959.075	1753.87
959.378	1765.17
959.682	1748.22
959.985	1780.76
960.289	1747.09
960.592	1734.21
960.896	1735.34
961.199	1733.3
961.502	1703.25
961.805	1704.38
962.108	1660.99
962.411	1680.2
962.714	1677.03
963.017	1685.62
963.32	1689.91
963.623	1665.73
963.926	1645.62
964.228	1666.86
964.531	1641.78
964.833	1637.71
965.136	1642.23
965.438	1630.71
965.741	1620.76
966.043	1632.51
966.345	1615.79
966.648	1585.74
966.95	1606.3
967.252	1599.97
967.554	1566.75
967.856	1578.5
968.158	1573.98
968.46	1570.37
968.761	1569.24
969.063	1572.85
969.365	1554.55
969.666	1548.22
969.968	1530.6
970.269	1538.5
970.571	1526.98
970.872	1524.49
971.174	1512.29
971.475	1537.37
971.776	1499.41
972.077	1508.45
972.378	1493.53
972.679	1467.32
972.98	1481.56
973.281	1454.21
973.582	1468.45
973.883	1480.2
974.183	1443.59
974.484	1459.64
974.785	1403.59
975.085	1453.99
975.386	1421.67
975.686	1442.01
975.986	1437.72
976.287	1419.41
976.587	1403.59
976.887	1420.77
977.187	1418.28
977.487	1401.33
977.787	1407.89
978.087	1406.53
978.387	1401.33
978.687	1397.72
978.987	1373.09
979.286	1350.04
979.586	1382.8
979.885	1345.06
980.185	1349.81
980.484	1378.06
980.784	1356.59
981.083	1340.77
981.382	1326.76
981.682	1358.62
981.981	1299.41
982.28	1317.04
982.579	1313.88
982.878	1320.21
983.177	1305.74
983.475	1332.63
983.774	1268.46
984.073	1287.21
984.372	1294.67
984.67	1299.87
984.969	1296.25
985.267	1263.48
985.566	1266.87
985.864	1261.68
986.162	1253.31
986.461	1246.08
986.759	1286.99
987.057	1243.15
987.355	1229.59
987.653	1206.76
987.951	1224.61
988.249	1218.29
988.547	1211.96
988.844	1193.43
989.142	1204.05
989.44	1210.38
989.737	1198.17
990.035	1188.01
990.332	1183.49
990.63	1163.83
990.927	1165.18
991.224	1213.32
991.521	1171.96
991.819	1159.31
992.116	1171.96
992.413	1152.3
992.71	1178.51
993.006	1143.94
993.303	1150.27
993.6	1152.75
993.897	1129.7
994.193	1139.19
994.49	1127.67
994.787	1130.38
995.083	1127.89
995.379	1105.52
995.676	1129.25
995.972	1090.83
996.268	1102.13
996.565	1110.27
996.861	1106.2
997.157	1102.36
997.453	1070.04
997.749	1076.6
998.044	1049.93
998.34	1042.25
998.636	1081.34
998.932	1053.32
999.227	1028.01
999.523	1048.57
999.818	1049.7
1000.114	1039.53
1000.409	1047.44
1000.704	1021.68
1001	999.99
1001.295	1008.12
1001.59	998.86
1001.885	1041.79
1002.18	1026.65
1002.475	1027.78
1002.77	1024.39
1003.065	1011.96
1003.359	996.15
1003.654	996.37
1003.949	999.31
1004.243	1003.15
1004.538	975.81
1004.832	990.04
1005.127	991.85
1005.421	968.35
1005.715	976.49
1006.009	936.26
1006.304	958.63
1006.598	949.37
1006.892	933.55
1007.186	940.55
1007.48	942.14
1007.773	940.1
1008.067	930.84
1008.361	926.32
1008.655	941.46
1008.948	915.7
1009.242	891.97
1009.535	903.27
1009.829	896.71
1010.122	880.89
1010.415	910.72
1010.708	880.22
1011.001	878.41
1011.295	892.42
1011.588	873.21
1011.881	855.81
1012.173	875.02
1012.466	863.72
1012.759	870.27
1013.052	851.07
1013.344	856.49
1013.637	857.39
1013.93	828.47
1014.222	845.42
1014.514	845.42
1014.807	823.5
1015.099	825.3
1015.391	827.34
1015.683	828.47
1015.976	849.48
1016.268	813.1
1016.56	789.82
1016.851	800.22
1017.143	794.8
1017.435	823.72
1017.727	787.11
1018.018	787.56
1018.31	794.12
1018.602	774.46
1018.893	773.33
1019.185	765.19
1019.476	769.26
1019.767	793.67
1020.058	771.29
1020.35	761.12
1020.641	748.24
1020.932	766.77
1021.223	759.77
1021.514	760.9
1021.804	752.54
1022.095	754.34
1022.386	736.49
1022.677	733.33
1022.967	717.96
1023.258	724.51
1023.548	714.35
1023.839	703.27
1024.129	704.18
1024.419	701.46
1024.709	716.15
1025	716.38
1025.29	686.78
1025.58	687.45
1025.87	703.5
1026.16	679.32
1026.449	721.13
1026.739	682.93
1027.029	674.12
1027.319	682.03
1027.608	694.69
1027.898	659.88
1028.187	675.93
1028.477	642.71
1028.766	676.15
1029.055	646.1
1029.344	681.8
1029.634	657.4
1029.923	659.43
1030.212	642.94
1030.501	643.61
1030.79	626.21
1031.078	620.34
1031.367	628.7
1031.656	632.54
1031.945	642.03
1032.233	623.05
1032.522	622.14
1032.81	626.21
1033.099	613.11
1033.387	626.66
1033.675	603.16
1033.963	618.75
1034.251	612.65
1034.54	604.07
1034.828	608.36
1035.116	608.81
1035.403	586.67
1035.691	578.3
1035.979	599.55
1036.267	597.29
1036.554	625.99
1036.842	582.37
1037.129	587.34
1037.417	565.42
1037.704	583.5
1037.992	574.46
1038.279	584.86
1038.566	569.72
1038.853	569.72
1039.14	569.72
