Data from black_plastic_tray_FLMS001491_083.txt Node
Date: Tue Feb 07 10:40:51 GMT 2017
User: dcchb
Spectrometer: FLMS00149
Trigger mode: 0
Integration Time (sec): 2.000000E-2
Scans to average: 10
Electric dark correction enabled: true
Nonlinearity correction enabled: false
Boxcar width: 0
XAxis mode: Wavelengths
Number of Pixels in Spectrum: 2048
>>>>>Begin Spectral Data<<<<<
341.393	0.47
341.776	0.47
342.16	0.47
342.543	-75.92
342.927	-74.56
343.31	-74.33
343.693	-58.06
344.077	-63.49
344.46	-64.84
344.843	-52.19
345.226	-44.96
345.61	-37.72
345.993	-10.38
346.376	-2.7
346.759	17.87
347.142	30.97
347.525	34.59
347.908	33.23
348.291	84.76
348.674	110.29
349.057	96.96
349.44	118.2
349.823	130.63
350.206	159.56
350.588	185.09
350.971	190.74
351.354	210.4
351.737	223.29
352.119	232.1
352.502	247.92
352.884	268.93
353.267	258.09
353.65	322.72
354.032	294.7
354.414	307.58
354.797	284.07
355.179	301.02
355.562	300.35
355.944	313
356.326	326.33
356.709	311.42
357.091	313.9
357.473	321.36
357.855	326.79
358.238	332.66
358.62	334.69
359.002	322.72
359.384	315.49
359.766	338.76
360.148	331.53
360.53	330.63
360.912	315.49
361.294	319.1
361.676	333.79
362.057	315.71
362.439	331.76
362.821	333.34
363.203	336.05
363.584	310.51
363.966	322.72
364.348	294.7
364.729	320.01
365.111	337.86
365.493	330.4
365.874	298.76
366.256	317.75
366.637	287.24
367.019	313
367.4	319.55
367.781	302.83
368.163	297.86
368.544	305.77
368.925	308.03
369.306	304.41
369.688	341.02
370.069	300.12
370.45	313.9
370.831	315.03
371.212	320.91
371.593	316.39
371.974	309.16
372.355	317.52
372.736	331.08
373.117	328.14
373.498	302.15
373.879	316.39
374.26	313.23
374.641	298.99
375.021	325.66
375.402	313.45
375.783	328.14
376.163	336.05
376.544	299.89
376.925	312.1
377.305	319.78
377.686	322.94
378.066	330.4
378.447	323.85
378.827	336.73
379.208	342.83
379.588	329.5
379.968	334.69
380.349	312.32
380.729	324.3
381.109	320.23
381.489	340.8
381.87	350.74
382.25	346.45
382.63	345.32
383.01	348.48
383.39	343.28
383.77	387.57
384.15	353.23
384.53	357.97
384.91	328.59
385.29	336.05
385.67	358.87
386.049	348.48
386.429	358.65
386.809	353.45
387.189	393.45
387.568	379.44
387.948	362.72
388.328	370.4
388.707	346.45
389.087	363.62
389.466	374.69
389.846	380.12
390.225	376.28
390.605	381.92
390.984	394.58
391.363	400
391.743	379.67
392.122	354.58
392.501	415.14
392.881	395.71
393.26	390.29
393.639	408.59
394.018	392.77
394.397	408.59
394.776	418.53
395.155	406.33
395.534	385.31
395.913	413.56
396.292	401.13
396.671	420.34
397.05	430.74
397.429	399.55
397.808	428.25
398.186	425.99
398.565	411.75
398.944	420.34
399.323	424.86
399.701	415.6
400.08	435.26
400.458	441.36
400.837	435.48
401.215	435.93
401.594	431.19
401.972	432.32
402.351	438.65
402.729	449.95
403.107	455.6
403.486	454.24
403.864	454.92
404.242	445.2
404.62	473.9
404.999	448.59
405.377	461.47
405.755	437.74
406.133	449.95
406.511	476.61
406.889	500.79
407.267	484.3
407.645	497.4
408.023	491.07
408.401	489.49
408.779	492.88
409.156	494.92
409.534	520
409.912	510.96
410.29	524.29
410.667	526.1
411.045	515.93
411.422	499.66
411.8	519.1
412.178	537.4
412.555	541.02
412.933	545.76
413.31	521.58
413.687	558.64
414.065	550.51
414.442	565.42
414.819	556.16
415.197	592.77
415.574	560.9
415.951	560
416.328	566.55
416.705	593.22
417.082	578.53
417.46	583.28
417.837	601.81
418.214	602.94
418.591	603.39
418.967	593.67
419.344	617.4
419.721	598.64
420.098	646.1
420.475	630.28
420.852	645.65
421.228	644.06
421.605	639.55
421.982	619.66
422.358	643.84
422.735	657.17
423.111	646.55
423.488	650.62
423.864	663.95
424.241	677.28
424.617	660.34
424.994	696.72
425.37	677.96
425.746	691.97
426.123	711.41
426.499	672.99
426.875	698.53
427.251	687.91
427.627	724.06
428.003	713.44
428.379	737.17
428.756	725.19
429.132	733.55
429.507	721.58
429.883	739.66
430.259	771.75
430.635	776.26
431.011	793.21
431.387	785.76
431.763	785.98
432.138	796.83
432.514	826.21
432.89	794.34
433.265	822.82
433.641	819.2
434.016	824.85
434.392	852.65
434.767	845.19
435.143	855.36
435.518	853.33
435.894	880.44
436.269	862.82
436.644	890.39
437.02	897.39
437.395	878.41
437.77	901.91
438.145	922.02
438.52	914.11
438.895	929.26
439.271	946.2
439.646	957.28
440.021	978.75
440.395	960.44
440.77	969.25
441.145	982.81
441.52	981.46
441.895	981.46
442.27	984.62
442.645	1021.91
443.019	1002.7
443.394	980.55
443.769	1020.33
444.143	1000.67
444.518	1023.94
444.892	1032.3
445.267	1031.17
445.641	1040.66
446.016	1044.73
446.39	1079.53
446.764	1078.86
447.139	1053.32
447.513	1070.49
447.887	1078.18
448.262	1072.3
448.636	1115.69
449.01	1082.25
449.384	1135.35
449.758	1113.43
450.132	1128.57
450.506	1132.19
450.88	1154.11
451.254	1159.76
451.628	1152.98
452.002	1171.28
452.376	1200.66
452.75	1180.55
453.123	1196.59
453.497	1206.08
453.871	1195.01
454.244	1216.48
454.618	1242.92
454.992	1260.77
455.365	1265.07
455.739	1300.77
456.112	1294.22
456.486	1287.21
456.859	1305.29
457.232	1350.04
457.606	1338.96
457.979	1351.84
458.352	1362.46
458.725	1403.37
459.099	1408.34
459.472	1397.94
459.845	1444.5
460.218	1442.24
460.591	1462.35
460.964	1459.41
461.337	1493.31
461.71	1529.92
462.083	1539.41
462.456	1515
462.829	1530.6
463.201	1564.04
463.574	1585.28
463.947	1558.39
464.32	1612.18
464.692	1634.77
465.065	1625.73
465.438	1681.55
465.81	1677.48
466.183	1715.68
466.555	1727.65
466.928	1739.4
467.3	1756.35
467.672	1775.56
468.045	1819.63
468.417	1801.55
468.789	1829.34
469.161	1850.81
469.534	1848.55
469.906	1901.66
470.278	1905.5
470.65	1956.12
471.022	1989.34
471.394	1981.66
471.766	2017.81
472.138	2027.31
472.51	2042.22
472.882	2138.04
473.253	2117.02
473.625	2141.2
473.997	2171.03
474.369	2213.29
474.74	2253.97
475.112	2282.89
475.484	2319.05
475.855	2340.29
476.227	2370.35
476.598	2439.72
476.97	2422.1
477.341	2479.5
477.713	2520.63
478.084	2504.81
478.455	2559.95
478.827	2597.01
479.198	2620.51
479.569	2694.86
479.94	2754.07
480.311	2793.16
480.682	2858.7
481.053	2913.38
481.424	2931.24
481.795	2958.58
482.166	3020.95
482.537	3051.23
482.908	3045.58
483.279	3154.51
483.65	3185.92
484.021	3233.83
484.391	3258.01
484.762	3278.57
485.133	3329.64
485.503	3363.77
485.874	3423.2
486.244	3441.28
486.615	3483.31
486.985	3535.74
487.356	3678.11
487.726	3633.14
488.097	3714.94
488.467	3726.47
488.837	3794.94
489.207	3837.88
489.578	3903.87
489.948	3935.28
490.318	3975.95
490.688	4022.28
491.058	4058.44
491.428	4092.34
491.798	4154.93
492.168	4237.42
492.538	4227.7
492.908	4287.81
493.278	4333.46
493.648	4360.58
494.017	4432.89
494.387	4432.44
494.757	4501.82
495.126	4491.65
495.496	4526.45
495.866	4592.21
496.235	4614.36
496.605	4675.15
496.974	4700
497.344	4733.45
497.713	4784.3
498.082	4761.7
498.452	4860.68
498.821	4854.58
499.19	4887.8
499.559	4952.88
499.928	4969.6
500.298	5013.22
500.667	5092.99
501.036	5050.73
501.405	5064.06
501.774	5104.06
502.143	5137.51
502.512	5138.41
502.88	5238.52
503.249	5250.05
503.618	5326.43
503.987	5317.39
504.356	5336.6
504.724	5395.13
505.093	5401.68
505.462	5417.5
505.83	5497.5
506.199	5539.08
506.567	5554.9
506.936	5597.38
507.304	5658.62
507.672	5692.07
508.041	5652.97
508.409	5796.7
508.777	5761.22
509.145	5773.65
509.514	5806.64
509.882	5883.48
510.25	5916.69
510.618	5957.6
510.986	5980.65
511.354	6060.42
511.722	6069.01
512.09	6146.97
512.458	6157.37
512.826	6215.44
513.193	6251.83
513.561	6237.14
513.929	6352.62
514.297	6337.93
514.664	6356.01
515.032	6438.26
515.4	6518.49
515.767	6568.65
516.135	6583.8
516.502	6551.48
516.869	6713.06
517.237	6731.14
517.604	6685.49
517.972	6797.35
518.339	6821.3
518.706	6883.9
519.073	6926.39
519.44	6949.44
519.808	7000.28
520.175	6995.08
520.542	7076.66
520.909	7152.37
521.276	7192.59
521.643	7289.99
522.009	7309.88
522.376	7327.05
522.743	7426.26
523.11	7485.69
523.477	7561.62
523.843	7660.6
524.21	7640.04
524.577	7711.45
524.943	7787.61
525.31	7902.63
525.676	7907.83
526.043	7915.06
526.409	8007.71
526.776	8074.38
527.142	8137.43
527.508	8170.87
527.874	8235.5
528.241	8259.23
528.607	8238.22
528.973	8384.2
529.339	8407.48
529.705	8473.92
530.071	8560.92
530.437	8546
530.803	8616.96
531.169	8722.5
531.535	8703.51
531.901	8737.64
532.267	8800.46
532.632	8817.18
532.998	8868.03
533.364	8869.84
533.73	8912.55
534.095	9023.05
534.461	9050.85
534.826	9058.53
535.192	9142.37
535.557	9209.72
535.923	9204.07
536.288	9258.75
536.653	9232.31
537.019	9293.33
537.384	9338.07
537.749	9377.62
538.114	9363.84
538.479	9499.2
538.845	9494.68
539.21	9466.21
539.575	9499.2
539.94	9517.05
540.305	9621.68
540.67	9660.55
541.034	9677.27
541.399	9693.54
541.764	9787.33
542.129	9826.2
542.494	9849.02
542.858	9844.28
543.223	9869.13
543.587	9918.62
543.952	9851.96
544.316	9966.98
544.681	9864.61
545.045	9988.23
545.41	10031.16
545.774	10015.8
546.138	10043.14
546.503	10129.24
546.867	10111.84
547.231	10282.91
547.595	10217.15
547.959	10253.08
548.324	10270.48
548.688	10278.61
549.052	10359.29
549.416	10411.49
549.779	10375.11
550.143	10397.71
550.507	10561.54
550.871	10518.16
551.235	10581.88
551.599	10701.2
551.962	10653.29
552.326	10710.47
552.689	10834.76
553.053	10665.72
553.417	10740.97
553.78	10918.37
554.143	10971.7
554.507	11033.85
554.87	11097.8
555.234	11142.55
555.597	11051.25
555.96	11067.52
556.323	11118.59
556.686	11167.63
557.05	11302.77
557.413	11267.06
557.776	11284.46
558.139	11431.13
558.502	11439.71
558.865	11487.4
559.228	11527.62
559.59	11637.22
559.953	11677
560.316	11758.58
560.679	11658.69
561.041	11823.21
561.404	11883.77
561.767	11924.67
562.129	11968.06
562.492	12039.02
562.854	12026.82
563.217	12084.22
563.579	12178.9
563.941	12259.13
564.304	12226.13
564.666	12281.95
565.028	12420.7
565.39	12404.89
565.753	12502.96
566.115	12510.87
566.477	12566.92
566.839	12587.71
567.201	12601.04
567.563	12687.59
567.925	12696.4
568.287	12751.32
568.648	12791.32
569.01	12831.99
569.372	12937.08
569.734	12950.41
570.095	13071.99
570.457	13120.8
570.819	13151.31
571.18	13161.7
571.542	13195.37
571.903	13212.77
572.265	13273.79
572.626	13264.75
572.987	13338.65
573.349	13337.29
573.71	13414.35
574.071	13421.81
574.432	13481.47
574.794	13526.21
575.155	13579.54
575.516	13513.33
575.877	13545.19
576.238	13641.92
576.599	13645.08
576.96	13663.84
577.32	13767.79
577.681	13760.56
578.042	13794
578.403	13834.9
578.763	13871.06
579.124	13895.47
579.485	13893.43
579.845	13852.31
580.206	13887.56
580.566	13865.19
580.927	13890.5
581.287	13898.63
581.648	13901.57
582.008	13989.7
582.368	14004.62
582.728	14030.15
583.089	14031.28
583.449	13976.37
583.809	13965.75
584.169	14059.31
584.529	13974.11
584.889	14113.77
585.249	13962.81
585.609	13955.13
585.969	14032.64
586.329	14042.36
586.688	14075.8
587.048	14017.95
587.408	13977.73
587.768	13975.01
588.127	13987.22
588.487	13998.06
588.846	14139.98
589.206	13988.12
589.565	13994
589.925	14069.47
590.284	14056.82
590.643	14012.98
591.003	14085.07
591.362	14067.21
591.721	14026.99
592.08	14040.32
592.44	14035.35
592.799	14073.99
593.158	14100.21
593.517	14117.16
593.876	14205.52
594.235	14090.04
594.593	14166.42
594.952	14208.23
595.311	14145.63
595.67	14138.4
596.029	14279.41
596.387	14250.03
596.746	14272.18
597.104	14195.8
597.463	14207.1
597.822	14231.96
598.18	14145.63
598.538	14191.28
598.897	14237.15
599.255	14142.92
599.613	14262.69
599.972	14230.6
600.33	14314.44
600.688	14241.9
601.046	14277.83
601.404	14354.89
601.762	14306.53
602.12	14409.35
602.478	14424.95
602.836	14384.27
603.194	14273.09
603.552	14412.29
603.91	14366.42
604.268	14507.2
604.625	14318.73
604.983	14458.84
605.341	14349.02
605.698	14432.63
606.056	14476.47
606.413	14409.13
606.771	14516.02
607.128	14498.16
607.485	14450.26
607.843	14411.61
608.2	14537.26
608.557	14607.09
608.914	14587.88
609.272	14550.37
609.629	14585.39
609.986	14662.68
610.343	14610.7
610.7	14728.21
611.057	14662.91
611.414	14677.59
611.771	14756.01
612.127	14783.35
612.484	14769.34
612.841	14902
613.198	14780.19
613.554	14789.68
613.911	14833.07
614.267	14817.7
614.624	14849.57
614.98	14876.01
615.337	14844.37
615.693	14836.69
616.05	14889.79
616.406	14928.89
616.762	14872.39
617.118	14922.56
617.475	14945.16
617.831	14938.6
618.187	14989.22
618.543	14944.25
618.899	14962.11
619.255	14956.91
619.611	15051.14
619.967	15028.09
620.323	15054.53
620.678	15054.08
621.034	15028.32
621.39	15004.37
621.746	14974.31
622.101	15148.09
622.457	15047.98
622.812	15094.76
623.168	15142.21
623.523	15127.53
623.879	15063.8
624.234	14970.02
624.589	15006.63
624.945	15070.58
625.3	15196
625.655	15133.4
626.01	15140.18
626.365	15098.83
626.72	15029.68
627.075	15040.3
627.43	15006.85
627.785	15084.82
628.14	14951.49
628.495	14942.22
628.85	14935.44
629.205	14910.36
629.559	15046.62
629.914	14981.32
630.269	15020.86
630.623	14856.8
630.978	14847.99
631.332	14943.8
631.687	15028.09
632.041	14982.67
632.396	15009.56
632.75	14860.64
633.104	14894.09
633.459	14793.07
633.813	14744.03
634.167	14873.75
634.521	14784.03
634.875	14758.04
635.229	14736.12
635.583	14698.38
635.937	14632.62
636.291	14687.09
636.645	14653.41
636.999	14630.59
637.352	14647.31
637.706	14548.11
638.06	14623.58
638.413	14594.88
638.767	14524.38
639.121	14590.59
639.474	14510.82
639.828	14467.43
640.181	14488.9
640.534	14487.54
640.888	14444.83
641.241	14410.93
641.594	14433.98
641.947	14448.45
642.301	14500.88
642.654	14311.5
643.007	14381.33
643.36	14351.05
643.713	14320.77
644.066	14418.39
644.419	14244.84
644.771	14279.19
645.124	14078.74
645.477	14054.33
645.83	13867.45
646.182	13882.13
646.535	13829.48
646.888	13885.3
647.24	13859.54
647.593	13875.81
647.945	13750.16
648.298	13739.99
648.65	13714
649.002	13704.29
649.355	13697.96
649.707	13728.47
650.059	13802.14
650.411	13883.94
650.763	13972.75
651.115	14133.65
651.467	14043.71
651.819	14070.15
652.171	13987.89
652.523	13968.46
652.875	13957.84
653.227	13886.88
653.578	14100.43
653.93	13991.51
654.282	13989.93
654.633	13857.5
654.985	13867.67
655.337	13838.52
655.688	13902.47
656.039	13895.02
656.391	13732.08
656.742	13795.13
657.094	13888.46
657.445	13921.46
657.796	13895.47
658.147	13776.6
658.498	13822.25
658.849	13813.21
659.2	13804.62
659.551	13778.86
659.902	13884.62
660.253	13781.57
660.604	13825.87
660.955	13669.94
661.306	13743.38
661.656	13622.03
662.007	13747.45
662.358	13640.56
662.708	13666.55
663.059	13718.52
663.409	13565.99
663.76	13650.5
664.11	13579.09
664.461	13702.48
664.811	13715.59
665.161	13702.7
665.511	13639.43
665.862	13692.54
666.212	13743.61
666.562	13649.82
666.912	13670.16
667.262	13616.38
667.612	13682.37
667.962	13659.77
668.312	13674.23
668.662	13608.7
669.011	13678.52
669.361	13609.6
669.711	13525.76
670.06	13522.6
670.41	13458.42
670.76	13510.62
671.109	13613.22
671.459	13489.15
671.808	13459.32
672.157	13575.25
672.507	13511.07
672.856	13478.3
673.205	13496.83
673.554	13499.32
673.904	13409.15
674.253	13493.9
674.602	13456.61
674.951	13281.7
675.3	13226.78
675.649	13376.84
675.998	13407.12
676.346	13478.08
676.695	13420.9
677.044	13375.48
677.393	13417.74
677.741	13387.23
678.09	13327.8
678.438	13245.54
678.787	13264.52
679.135	13314.01
679.484	13249.61
679.832	13359.21
680.181	13156.05
680.529	13224.98
680.877	13160.12
681.225	13240.34
681.573	13287.35
681.922	13162.38
682.27	13115.83
682.618	13171.65
682.966	13170.74
683.314	13094.59
683.661	13099.56
684.009	13046
684.357	13007.36
684.705	12984.98
685.053	13009.62
685.4	12970.75
685.748	12961.71
686.095	12826.8
686.443	12749.28
686.79	12788.15
687.138	12748.61
687.485	12736.18
687.832	12678.32
688.18	12724.88
688.527	12700.92
688.874	12653.47
689.221	12598.55
689.568	12553.36
689.915	12542.74
690.262	12482.85
690.609	12417.54
690.956	12401.5
691.303	12317.2
691.65	12304.32
691.997	12341.38
692.344	12162.63
692.69	12248.05
693.037	12275.85
693.383	12159.47
693.73	12274.72
694.077	12195.85
694.423	12164.21
694.769	12110.88
695.116	12138.45
695.462	12074.27
695.808	12068.62
696.155	11982.07
696.501	11886.71
696.847	11990.43
697.193	11868.4
697.539	11929.64
697.885	11772.36
698.231	11699.82
698.577	11784.79
698.923	11769.87
699.269	11769.87
699.614	11691.91
699.96	11658.46
700.306	11564.68
700.651	11512.48
700.997	11544.12
701.342	11527.85
701.688	11458.7
702.033	11481.07
702.379	11464.35
702.724	11472.71
703.069	11465.02
703.415	11307.51
703.76	11357.91
704.105	11375.53
704.45	11240.4
704.795	11132.15
705.14	11181.64
705.485	11187.29
705.83	11134.64
706.175	11070.68
706.52	11097.35
706.865	11025.71
707.209	11100.51
707.554	11001.98
707.899	11073.62
708.243	10952.49
708.588	10914.53
708.932	10912.95
709.277	10967.86
709.621	10965.38
709.966	10825.27
710.31	10967.86
710.654	10852.84
710.998	10840.86
711.342	10852.16
711.687	10793.85
712.031	10765.15
712.375	10611.49
712.719	10635.67
713.063	10711.37
713.407	10766.96
713.75	10619.17
714.094	10643.35
714.438	10563.8
714.782	10604.93
715.125	10488.33
715.469	10566.97
715.812	10505.27
716.156	10422.56
716.499	10490.81
716.843	10482
717.186	10407.65
717.53	10463.92
717.873	10496.46
718.216	10362.23
718.559	10461.43
718.902	10367.2
719.246	10436.12
719.589	10370.59
719.932	10309.12
720.275	10326.97
720.617	10254.21
720.96	10278.16
721.303	10256.24
721.646	10223.25
721.989	10173.98
722.331	10249.91
722.674	10172.85
723.016	10127.66
723.359	10161.78
723.701	10174.89
724.044	10127.88
724.386	10030.26
724.729	10030.48
725.071	10046.98
725.413	10067.09
725.755	9985.97
726.097	9911.84
726.439	9917.49
726.782	9927.21
727.124	9982.58
727.465	9954.78
727.807	9917.72
728.149	9929.02
728.491	9870.72
728.833	9872.52
729.175	9808.34
729.516	9828.23
729.858	9795.01
730.199	9847.66
730.541	9795.24
730.882	9780.55
731.224	9743.26
731.565	9702.13
731.906	9683.38
732.248	9694.9
732.589	9635.02
732.93	9703.94
733.271	9677.73
733.612	9600.67
733.953	9617.39
734.294	9566.77
734.635	9519.09
734.976	9563.38
735.317	9536.94
735.658	9566.99
735.999	9531.97
736.339	9494.45
736.68	9470.05
737.021	9465.98
737.361	9438.64
737.702	9398.64
738.042	9392.76
738.383	9470.95
738.723	9475.92
739.063	9369.26
739.404	9399.99
739.744	9331.75
740.084	9308.47
740.424	9398.86
740.764	9323.16
741.104	9296.94
741.444	9293.56
741.784	9240.22
742.124	9261.01
742.464	9200
742.804	9237.29
743.143	9192.99
743.483	9201.81
743.823	9174.01
744.162	9218.98
744.502	9218.75
744.841	9142.6
745.181	9184.41
745.52	9103.96
745.86	9135.82
746.199	9125.65
746.538	9125.2
746.877	9146.44
747.216	9034.35
747.556	8939.67
747.895	9033.22
748.234	8992.77
748.573	8983.51
748.911	9007.23
749.25	8979.89
749.589	8957.74
749.928	8953.45
750.267	8923.4
750.605	8936.05
750.944	8915.03
751.283	8920.01
751.621	8906.22
751.96	8808.6
752.298	8830.74
752.636	8865.54
752.975	8828.71
753.313	8739.22
753.651	8850.4
753.989	8726.11
754.327	8720.46
754.666	8724.76
755.004	8673.01
755.342	8684.31
755.679	8596.85
756.017	8559.79
756.355	8577.19
756.693	8506.68
757.031	8485.21
757.368	8506.46
757.706	8525.44
758.044	8401.15
758.381	8451.32
758.719	8445.67
759.056	8379.45
759.394	8414.48
759.731	8423.97
760.068	8325.22
760.405	8300.13
760.743	8298.33
761.08	8253.13
761.417	8242.96
761.754	8309.17
762.091	8261.49
762.428	8212
762.765	8143.98
763.102	8181.04
763.438	8132
763.775	8061.72
764.112	8056.07
764.449	8052.23
764.785	8026.24
765.122	7967.94
765.458	7979.01
765.795	7951.44
766.131	8005.45
766.467	7940.6
766.804	7857.21
767.14	7848.85
767.476	7836.19
767.812	7833.48
768.148	7852.91
768.485	7793.03
768.821	7705.35
769.157	7724.56
769.492	7700.83
769.828	7679.59
770.164	7619.93
770.5	7596.65
770.836	7601.62
771.171	7522.08
771.507	7531.79
771.842	7487.05
772.178	7488.4
772.513	7484.56
772.849	7436.65
773.184	7398.01
773.519	7393.72
773.855	7302.87
774.19	7296.77
774.525	7313.04
774.86	7265.36
775.195	7221.29
775.53	7248.19
775.865	7218.58
776.2	7128.19
776.535	7078.7
776.87	7059.26
777.205	7103.1
777.539	7049.09
777.874	7082.99
778.209	7008.87
778.543	7023.33
778.878	6933.39
779.212	6947.85
779.547	6917.12
779.881	6927.06
780.215	6846.16
780.55	6774.98
780.884	6824.69
781.218	6841.87
781.552	6790.8
781.886	6778.37
782.22	6701.31
782.554	6673.74
782.888	6671.7
783.222	6599.39
783.556	6613.17
783.889	6632.16
784.223	6546.96
784.557	6569.11
784.89	6593.06
785.224	6537.02
785.557	6476.91
785.891	6492.5
786.224	6474.87
786.558	6469.45
786.891	6413.86
787.224	6388.09
787.557	6362.33
787.891	6348.1
788.224	6380.19
788.557	6367.53
788.89	6299.96
789.223	6332.28
789.556	6274.65
789.888	6341.09
790.221	6248.44
790.554	6220.64
790.887	6192.39
791.219	6173.19
791.552	6147.65
791.884	6126.63
792.217	6059.74
792.549	6072.17
792.882	6024.71
793.214	6043.02
793.546	6016.81
793.879	5977.94
794.211	5984.04
794.543	5989.01
794.875	5950.59
795.207	5977.48
795.539	5904.72
795.871	5916.02
796.203	5832.4
796.535	5766.64
796.867	5807.55
797.198	5805.96
797.53	5760.09
797.862	5707.21
798.193	5767.09
798.525	5722.12
798.856	5680.09
799.188	5722.12
799.519	5669.92
799.85	5615.23
800.182	5668.34
800.513	5656.81
800.844	5584.73
801.175	5604.61
801.506	5565.74
801.837	5594.67
802.168	5608.68
802.499	5610.49
802.83	5548.12
803.161	5545.41
803.491	5517.16
803.822	5546.31
804.153	5476.03
804.483	5398.52
804.814	5381.79
805.145	5407.78
805.475	5377.95
805.805	5383.83
806.136	5359.87
806.466	5361
806.796	5348.35
807.126	5330.72
807.457	5326.43
807.787	5311.51
808.117	5268.35
808.447	5282.59
808.777	5320.33
809.107	5274
809.436	5311.06
809.766	5272.64
810.096	5244.17
810.426	5233.77
810.755	5219.54
811.085	5191.29
811.414	5206.43
811.744	5159.43
812.073	5129.37
812.403	5169.14
812.732	5109.26
813.061	5100.67
813.39	5061.58
813.719	5114.68
814.049	5123.27
814.378	5133.21
814.707	5087.56
815.036	5054.57
815.365	5030.39
815.693	4990.62
816.022	4997.62
816.351	4934.8
816.68	4925.08
817.008	4949.71
817.337	4896.16
817.665	4873.11
817.994	4941.58
818.322	4915.59
818.651	4895.48
818.979	4838.3
819.307	4904.74
819.636	4883.28
819.964	4852.77
820.292	4907.68
820.62	4889.83
820.948	4812.54
821.276	4873.11
821.604	4860.23
821.932	4883.95
822.259	4852.77
822.587	4857.06
822.915	4830.85
823.243	4842.82
823.57	4858.42
823.898	4843.73
824.225	4873.56
824.553	4813.22
824.88	4815.71
825.207	4855.93
825.535	4830.62
825.862	4852.09
826.189	4793.33
826.516	4822.49
826.843	4874.91
827.17	4853.67
827.497	4851.64
827.824	4871.07
828.151	4831.07
828.478	4828.14
828.805	4850.28
829.131	4822.03
829.458	4840.56
829.785	4819.32
830.111	4818.19
830.438	4793.11
830.764	4824.75
831.09	4820.45
831.417	4792.2
831.743	4775.93
832.069	4773.22
832.395	4762.37
832.722	4858.42
833.048	4758.99
833.374	4737.29
833.7	4718.53
834.026	4763.05
834.351	4766.22
834.677	4758.08
835.003	4728.25
835.329	4734.35
835.654	4717.63
835.98	4669.72
836.306	4760.57
836.631	4650.97
836.956	4741.36
837.282	4687.12
837.607	4681.92
837.932	4675.15
838.258	4656.16
838.583	4637.18
838.908	4618.65
839.233	4662.72
839.558	4592.44
839.883	4602.6
840.208	4584.53
840.533	4613.45
840.858	4586.33
841.182	4541.36
841.507	4601.02
841.832	4545.66
842.156	4506.11
842.481	4560.57
842.805	4558.31
843.13	4538.88
843.454	4522.83
843.778	4500.01
844.103	4518.09
844.427	4519.44
844.751	4498.65
845.075	4463.85
845.399	4463.4
845.723	4429.73
846.047	4439.22
846.371	4423.17
846.695	4408.03
847.019	4380.24
847.343	4380.92
847.666	4389.28
847.99	4385.44
848.313	4339.56
848.637	4312.44
848.96	4295.95
849.284	4266.12
849.607	4276.29
849.931	4231.77
850.254	4249.62
850.577	4193.58
850.9	4176.63
851.223	4151.32
851.546	4175.5
851.869	4127.36
852.192	4185.67
852.515	4097.08
852.838	4086.01
853.161	4087.82
853.483	4052.34
853.806	4083.07
854.129	4003.75
854.451	4029.06
854.774	4025.45
855.096	4009.63
855.419	4014.6
855.741	3956.52
856.063	3969.18
856.385	3988.38
856.708	3903.19
857.03	3926.24
857.352	3913.36
857.674	3971.89
857.996	3899.12
858.318	3870.87
858.64	3889.63
858.961	3866.58
859.283	3861.61
859.605	3860.93
859.926	3865.45
860.248	3803.53
860.57	3838.11
860.891	3831.1
861.212	3787.94
861.534	3827.03
861.855	3789.52
862.176	3777.99
862.498	3815.51
862.819	3773.25
863.14	3817.54
863.461	3751.78
863.782	3747.71
864.103	3771.67
864.424	3708.39
864.745	3728.28
865.065	3705.23
865.386	3698
865.707	3764.89
866.027	3745
866.348	3748.84
866.668	3674.72
866.989	3681.95
867.309	3699.13
867.63	3667.04
867.95	3655.51
868.27	3652.57
868.59	3683.76
868.91	3646.92
869.23	3667.71
869.55	3639.47
869.87	3696.19
870.19	3648.96
870.51	3660.93
870.83	3648.51
871.15	3631.78
871.469	3666.81
871.789	3654.61
872.109	3621.61
872.428	3594.04
872.748	3637.88
873.067	3608.96
873.386	3644.44
873.706	3605.57
874.025	3556.3
874.344	3621.61
874.663	3526.7
874.982	3555.85
875.301	3587.26
875.62	3555.63
875.939	3575.06
876.258	3559.92
876.577	3510.43
876.896	3565.12
877.214	3523.31
877.533	3535.51
877.852	3524.67
878.17	3526.7
878.489	3543.42
878.807	3538.23
879.125	3489.41
879.444	3591.33
879.762	3504.1
880.08	3488.28
880.398	3469.98
880.716	3454.16
881.034	3478.11
881.352	3468.62
881.67	3436.08
881.988	3499.13
882.306	3454.84
882.624	3429.08
882.941	3441.05
883.259	3389.53
883.577	3438.12
883.894	3434.5
884.212	3460.26
884.529	3407.61
884.846	3469.08
885.164	3410.77
885.481	3366.93
885.798	3394.28
886.115	3345.69
886.432	3384.33
886.75	3319.02
887.067	3304.11
887.383	3279.7
887.7	3297.78
888.017	3291.9
888.334	3309.76
888.651	3317.89
888.967	3305.01
889.284	3297.78
889.6	3270.21
889.917	3267.05
890.233	3268.85
890.55	3241.96
890.866	3286.93
891.182	3221.4
891.498	3227.73
891.815	3201.06
892.131	3248.06
892.447	3215.75
892.763	3259.82
893.079	3193.6
893.395	3190.21
893.71	3213.26
894.026	3157.9
894.342	3139.59
894.657	3159.71
894.973	3199.93
895.289	3136.88
895.604	3123.32
895.92	3110.89
896.235	3105.7
896.55	3119.25
896.865	3101.85
897.181	3088.75
897.496	3085.36
897.811	3072.93
898.126	3077.9
898.441	3037.45
898.756	3025.47
899.071	3023.66
899.386	3044.68
899.7	3006.94
900.015	2981.4
900.33	3000.39
900.644	2970.78
900.959	3018.24
901.273	2972.14
901.588	2952.48
901.902	2945.93
902.216	2969.88
902.531	2926.26
902.845	2914.74
903.159	2885.81
903.473	2908.86
903.787	2888.98
904.101	2898.69
904.415	2883.55
904.729	2837.45
905.042	2839.71
905.356	2845.59
905.67	2864.12
905.984	2821.63
906.297	2827.96
906.611	2811.24
906.924	2792.94
907.237	2799.49
907.551	2764.69
907.864	2766.72
908.177	2774.4
908.491	2769.43
908.804	2726.27
909.117	2730.79
909.43	2706.38
909.743	2691.02
910.056	2677.46
910.368	2695.76
910.681	2694.18
910.994	2675.88
911.307	2639.49
911.619	2623.22
911.932	2639.72
912.244	2620.96
912.557	2637.23
912.869	2672.49
913.181	2620.06
913.494	2593.84
913.806	2560.17
914.118	2582.55
914.43	2551.81
914.742	2540.96
915.054	2519.5
915.366	2514.98
915.678	2513.17
915.99	2545.71
916.302	2483.34
916.613	2508.42
916.925	2477.24
917.236	2498.71
917.548	2428.42
917.859	2457.58
918.171	2442.21
918.482	2442.89
918.794	2437.46
919.105	2414.41
919.416	2387.75
919.727	2407.41
920.038	2427.07
920.349	2385.94
920.66	2384.36
920.971	2407.18
921.282	2358.37
921.593	2331.93
921.903	2372.61
922.214	2348.65
922.525	2361.31
922.835	2324.02
923.146	2324.02
923.456	2278.15
923.767	2295.32
924.077	2314.08
924.387	2305.04
924.697	2286.73
925.008	2239.96
925.318	2222.33
925.628	2240.18
925.938	2237.47
926.248	2221.88
926.558	2201.31
926.867	2212.84
927.177	2219.62
927.487	2179.84
927.796	2205.15
928.106	2178.49
928.416	2191.14
928.725	2161.99
929.034	2139.84
929.344	2173.06
929.653	2141.2
929.962	2127.19
930.271	2089.45
930.581	2106.4
930.89	2117.02
931.199	2074.76
931.508	2074.99
931.817	2078.15
932.125	2033.86
932.434	2074.08
932.743	2064.37
933.051	2080.41
933.36	2012.16
933.669	2011.94
933.977	2013.07
934.286	2025.5
934.594	2027.53
934.902	1998.61
935.21	1993.63
935.519	1989.34
935.827	1986.63
936.135	1957.48
936.443	1957.48
936.751	1947.53
937.059	1951.15
937.367	1921.77
937.674	1923.35
937.982	1924.71
938.29	1885.39
938.597	1885.61
938.905	1899.4
939.213	1903.24
939.52	1899.85
939.827	1891.49
940.135	1891.04
940.442	1858.95
940.749	1882
941.056	1901.66
941.363	1842.9
941.67	1819.18
941.977	1829.8
942.284	1829.8
942.591	1846.97
942.898	1814.2
943.205	1803.13
943.511	1799.51
943.818	1775.33
944.125	1784.37
944.431	1737.14
944.738	1751.61
945.044	1746.63
945.35	1751.15
945.657	1733.3
945.963	1746.18
946.269	1728.56
946.575	1750.7
946.881	1751.83
947.187	1726.3
947.493	1732.4
947.799	1705.96
948.105	1691.04
948.41	1667.77
948.716	1698.95
949.022	1689.01
949.327	1659.86
949.633	1658.05
949.938	1687.2
950.244	1682.23
950.549	1653.3
950.854	1617.37
951.16	1646.52
951.465	1648.11
951.77	1630.93
952.075	1576.47
952.38	1638.16
952.685	1595.45
952.99	1605.4
953.294	1597.49
953.599	1619.18
953.904	1586.87
954.209	1598.39
954.513	1598.39
954.818	1571.05
955.122	1573.31
955.426	1549.58
955.731	1543.7
956.035	1580.76
956.339	1550.93
956.643	1542.57
956.948	1521.1
957.252	1501.67
957.556	1492.18
957.86	1504.61
958.163	1500.77
958.467	1525.85
958.771	1516.36
959.075	1502.35
959.378	1498.05
959.682	1506.87
959.985	1482.01
960.289	1466.42
960.592	1440.88
960.896	1437.72
961.199	1448.56
961.502	1462.12
961.805	1432.07
962.108	1445.4
962.411	1456.02
962.714	1396.36
963.017	1386.64
963.32	1418.96
963.623	1399.3
963.926	1413.31
964.228	1402.24
964.531	1437.49
964.833	1403.37
965.136	1399.53
965.438	1417.83
965.741	1380.09
966.043	1352.52
966.345	1352.29
966.648	1343.71
966.95	1357.72
967.252	1343.26
967.554	1327.89
967.856	1368.34
968.158	1359.98
968.46	1327.21
968.761	1317.95
969.063	1314.56
969.365	1322.92
969.666	1306.19
969.968	1300.77
970.269	1306.87
970.571	1303.48
970.872	1272.75
971.174	1312.75
971.475	1272.75
971.776	1286.31
972.077	1272.52
972.378	1277.04
972.679	1271.85
972.98	1252.86
973.281	1277.95
973.582	1251.28
973.883	1236.14
974.183	1233.43
974.484	1237.27
974.785	1233.43
975.085	1236.82
975.386	1261.68
975.686	1230.94
975.986	1201.11
976.287	1211.28
976.587	1218.74
976.887	1200.66
977.187	1218.97
977.487	1207.21
977.787	1183.71
978.087	1195.46
978.387	1189.14
978.687	1187.78
978.987	1144.62
979.286	1159.31
979.586	1190.27
979.885	1151.17
980.185	1153.2
980.484	1157.5
980.784	1162.7
981.083	1160.21
981.382	1143.03
981.682	1136.48
981.981	1155.24
982.28	1126.99
982.579	1116.37
982.878	1124.73
983.177	1134
983.475	1117.72
983.774	1116.82
984.073	1099.42
984.372	1112.98
984.67	1086.09
984.969	1090.15
985.267	1099.65
985.566	1096.71
985.864	1062.59
986.162	1079.99
986.461	1083.6
986.759	1056.48
987.057	1083.6
987.355	1073.66
987.653	1068.69
987.951	1059.42
988.249	1063.49
988.547	1054
988.844	1056.48
989.142	1037.95
989.44	1007.67
989.737	1037.05
990.035	1036.82
990.332	1036.6
990.63	1029.37
990.927	979.2
991.224	1002.47
991.521	1000.89
991.819	997.73
992.116	1006.77
992.413	1006.09
992.71	991.85
993.006	997.5
993.303	993.21
993.6	992.98
993.897	970.84
994.193	963.15
994.49	1028.01
994.787	984.62
995.083	968.8
995.379	980.55
995.676	956.15
995.972	932.19
996.268	972.64
996.565	948.46
996.861	966.77
997.157	948.24
997.453	970.16
997.749	932.19
998.044	935.58
998.34	932.42
998.636	929.93
998.932	909.14
999.227	936.03
999.523	913.66
999.818	914.11
1000.114	904.17
1000.409	908.92
1000.704	891.97
1001	911.85
1001.295	910.5
1001.59	889.26
1001.885	898.52
1002.18	894.45
1002.475	886.32
1002.77	885.19
1003.065	852.87
1003.359	872.53
1003.654	879.99
1003.949	839.31
1004.243	873.89
1004.538	863.27
1004.832	857.62
1005.127	848.35
1005.421	844.06
1005.715	826.66
1006.009	841.57
1006.304	826.66
1006.598	825.53
1006.892	837.73
1007.186	824.4
1007.48	827.11
1007.773	814.23
1008.067	785.98
1008.361	800.22
1008.655	794.8
1008.948	845.87
1009.242	813.33
1009.535	805.42
1009.829	815.59
1010.122	802.93
1010.415	789.6
1010.708	784.63
1011.001	785.53
1011.295	780.78
1011.588	772.65
1011.881	772.65
1012.173	779.88
1012.466	787.34
1012.759	770.39
1013.052	775.81
1013.344	768.58
1013.637	753.44
1013.93	774.01
1014.222	751.63
1014.514	757.96
1014.807	764.51
1015.099	730.84
1015.391	723.38
1015.683	725.87
1015.976	737.85
1016.268	723.16
1016.56	743.05
1016.851	712.31
1017.143	703.05
1017.435	719.77
1017.727	709.83
1018.018	712.09
1018.31	703.95
1018.602	708.24
1018.893	692.65
1019.185	698.75
1019.476	693.78
1019.767	673.22
1020.058	713.44
1020.35	697.4
1020.641	673.22
1020.932	671.63
1021.223	699.2
1021.514	676.15
1021.804	651.07
1022.095	695.36
1022.386	684.52
1022.677	663.73
1022.967	658.08
1023.258	653.33
1023.548	668.25
1023.839	672.31
1024.129	630.73
1024.419	644.97
1024.709	620.56
1025	659.66
1025.29	646.78
1025.58	638.42
1025.87	633.67
1026.16	612.88
1026.449	620.79
1026.739	609.26
1027.029	635.03
1027.319	635.7
1027.608	626.44
1027.898	617.17
1028.187	628.02
1028.477	603.61
1028.766	579.66
1029.055	595.7
1029.344	588.7
1029.634	607.91
1029.923	619.21
1030.212	621.24
1030.501	592.09
1030.79	585.54
1031.078	598.64
1031.367	596.61
1031.656	583.5
1031.945	568.36
1032.233	581.92
1032.522	576.27
1032.81	569.04
1033.099	548.25
1033.387	570.85
1033.675	546.44
1033.963	564.07
1034.251	552.99
1034.54	578.98
1034.828	561.13
1035.116	559.55
1035.403	544.86
1035.691	556.84
1035.979	548.02
1036.267	537.4
1036.554	523.84
1036.842	526.1
1037.129	548.93
1037.417	539.66
1037.704	522.03
1037.992	525.42
1038.279	511.19
1038.566	529.94
1038.853	529.94
1039.14	529.94
