Data from black_plastic_tray_FLMS001491_066.txt Node
Date: Tue Feb 07 10:40:22 GMT 2017
User: dcchb
Spectrometer: FLMS00149
Trigger mode: 0
Integration Time (sec): 2.000000E-2
Scans to average: 10
Electric dark correction enabled: true
Nonlinearity correction enabled: false
Boxcar width: 0
XAxis mode: Wavelengths
Number of Pixels in Spectrum: 2048
>>>>>Begin Spectral Data<<<<<
341.393	5.4
341.776	5.4
342.16	5.4
342.543	-51.33
342.927	-70.99
343.31	-69.4
343.693	-79.8
344.077	-60.14
344.46	-72.79
344.843	-39.58
345.226	-29.63
345.61	-40.03
345.993	-11.55
346.376	4.49
346.759	7.66
347.142	21.44
347.525	40.42
347.908	44.49
348.291	77.03
348.674	98.95
349.057	108.44
349.44	113.64
349.823	129.01
350.206	158.39
350.588	176.69
350.971	176.92
351.354	195.9
351.737	208.78
352.119	226.41
352.502	255.78
352.884	259.17
353.267	250.81
353.65	277.25
354.032	259.63
354.414	281.09
354.797	284.48
355.179	296.69
355.562	325.84
355.944	320.64
356.326	331.94
356.709	305.5
357.091	325.16
357.473	313.86
357.855	307.76
358.238	319.29
358.62	338.27
359.002	316.57
359.384	330.81
359.766	305.95
360.148	316.35
360.53	317.93
360.912	315.67
361.294	315.67
361.676	324.03
362.057	307.99
362.439	305.95
362.821	336.69
363.203	318.61
363.584	315.9
363.966	322.22
364.348	312.28
364.729	319.06
365.111	314.09
365.493	308.21
365.874	297.37
366.256	299.17
366.637	302.79
367.019	311.83
367.4	316.57
367.781	294.88
368.163	306.63
368.544	302.11
368.925	320.64
369.306	306.18
369.688	300.3
370.069	296.24
370.45	285.61
370.831	297.14
371.212	312.28
371.593	313.41
371.974	305.05
372.355	304.6
372.736	314.54
373.117	319.51
373.498	324.48
373.879	304.14
374.26	318.61
374.641	301.88
375.021	302.34
375.402	303.24
375.783	303.92
376.163	324.71
376.544	317.03
376.925	327.65
377.305	324.93
377.686	313.18
378.066	319.06
378.447	326.29
378.827	324.26
379.208	331.26
379.588	320.64
379.968	322.9
380.349	328.32
380.729	341.66
381.109	342.34
381.489	341.66
381.87	324.03
382.25	334.88
382.63	318.16
383.01	356.57
383.39	346.18
383.77	347.99
384.15	325.61
384.53	349.12
384.91	328.32
385.29	352.28
385.67	333.3
386.049	364.93
386.429	343.01
386.809	343.47
387.189	345.05
387.568	356.12
387.948	350.47
388.328	376.01
388.707	369
389.087	347.76
389.466	360.19
389.846	375.78
390.225	364.71
390.605	369.45
390.984	351.6
391.363	376.46
391.743	366.06
392.122	374.2
392.501	361.32
392.881	386.18
393.26	365.84
393.639	389.57
394.018	383.69
394.397	394.99
394.776	353.63
395.155	383.92
395.534	398.61
395.913	409.45
396.292	404.71
396.671	407.87
397.05	413.75
397.429	404.03
397.808	394.09
398.186	406.74
398.565	402
398.944	411.03
399.323	393.41
399.701	405.84
400.08	414.2
400.458	416.68
400.837	423.69
401.215	405.61
401.594	410.58
401.972	439.96
402.351	437.25
402.729	406.51
403.107	426.4
403.486	425.5
403.864	426.18
404.242	441.77
404.62	427.53
404.999	452.16
405.377	437.25
405.755	451.26
406.133	449.9
406.511	460.75
406.889	464.37
407.267	484.25
407.645	461.65
408.023	466.17
408.401	471.37
408.779	461.65
409.156	469.79
409.534	466.85
409.912	481.09
410.29	487.64
410.667	462.78
411.045	511.14
411.422	496.68
411.8	503.46
412.178	492.39
412.555	512.05
412.933	516.79
413.31	508.66
413.687	499.39
414.065	515.89
414.442	532.84
414.819	530.13
415.197	530.58
415.574	543.69
415.951	531.48
416.328	527.42
416.705	516.79
417.082	539.17
417.46	556.79
417.837	565.83
418.214	558.6
418.591	543.46
418.967	563.57
419.344	571.93
419.721	567.64
420.098	574.87
420.475	574.19
420.852	582.1
421.228	569.67
421.605	604.7
421.982	595.66
422.358	591.59
422.735	621.2
423.111	611.03
423.488	609.45
423.864	603.35
424.241	639.5
424.617	633.18
424.994	623.46
425.37	653.06
425.746	621.88
426.123	632.05
426.499	653.51
426.875	640.18
427.251	662.1
427.627	670.91
428.003	654.64
428.379	663.46
428.756	679.73
429.132	681.08
429.507	683.12
429.883	673.17
430.259	694.19
430.635	690.35
431.011	699.39
431.387	725.38
431.763	749.1
432.138	725.15
432.514	749.78
432.89	750.01
433.265	776.67
433.641	774.19
434.016	766.05
434.392	753.85
434.767	779.16
435.143	780.74
435.518	811.48
435.894	780.74
436.269	799.05
436.644	818.48
437.02	837.69
437.395	833.62
437.77	834.53
438.145	852.6
438.52	852.83
438.895	884.92
439.271	842.44
439.646	884.02
440.021	889.89
440.395	881.3
440.77	892.6
441.145	899.38
441.52	907.07
441.895	895.32
442.27	916.33
442.645	882.89
443.019	913.39
443.394	905.94
443.769	924.02
444.143	922.21
444.518	940.74
444.892	923.11
445.267	946.39
445.641	956.56
446.016	944.35
446.39	959.95
446.764	958.36
447.139	972.83
447.513	981.41
447.887	978.03
448.262	1003.79
448.636	973.51
449.01	997.91
449.384	993.84
449.758	1011.02
450.132	1021.87
450.506	1039.72
450.88	1067.29
451.254	1053.5
451.628	1029.1
452.002	1055.76
452.376	1059.15
452.75	1074.75
453.123	1066.16
453.497	1093.05
453.871	1090.11
454.244	1088.76
454.618	1120.85
454.992	1133.05
455.365	1138.47
455.739	1159.04
456.112	1164.01
456.486	1154.07
456.859	1180.28
457.232	1207.62
457.606	1223.89
457.979	1241.52
458.352	1257.34
458.725	1280.62
459.099	1252.14
459.472	1292.14
459.845	1299.15
460.218	1303.21
460.591	1305.02
460.964	1340.05
461.337	1362.2
461.71	1376.66
462.083	1394.74
462.456	1397.9
462.829	1347.51
463.201	1446.26
463.574	1398.35
463.947	1463.21
464.32	1465.47
464.692	1493.94
465.065	1473.83
465.438	1470.44
465.81	1523.32
466.183	1506.15
466.555	1570.1
466.928	1563.55
467.3	1564
467.672	1612.58
468.045	1638.8
468.417	1634.73
468.789	1643.09
469.161	1655.3
469.534	1672.47
469.906	1703.66
470.278	1690.77
470.65	1740.94
471.022	1770.55
471.394	1797.89
471.766	1794.73
472.138	1811.45
472.51	1863.2
472.882	1898.45
473.253	1897.55
473.625	1892.8
473.997	1942.52
474.369	1972.58
474.74	1996.98
475.112	2027.04
475.484	2031.1
475.855	2094.38
476.227	2090.09
476.598	2156.98
476.97	2149.29
477.341	2225.22
477.713	2269.97
478.084	2255.28
478.455	2297.09
478.827	2331.44
479.198	2420.25
479.569	2398.1
479.94	2430.64
480.311	2476.06
480.682	2504.09
481.053	2563.75
481.424	2588.15
481.795	2639.68
482.166	2647.36
482.537	2689.62
482.908	2744.53
483.279	2804.42
483.65	2790.18
484.021	2874.7
484.391	2863.85
484.762	2908.14
485.133	2939.78
485.503	2998.31
485.874	3075.6
486.244	3077.63
486.615	3140.68
486.985	3148.82
487.356	3221.58
487.726	3209.15
488.097	3277.4
488.467	3288.25
488.837	3406.66
489.207	3415.7
489.578	3417.73
489.948	3462.93
490.318	3511.29
490.688	3541.8
491.058	3576.37
491.428	3684.62
491.798	3685.98
492.168	3787.89
492.538	3774.11
492.908	3845.29
493.278	3853.43
493.648	3851.4
494.017	3883.49
494.387	3937.95
494.757	3968.23
495.126	3965.07
495.496	3993.31
495.866	4048
496.235	4090.03
496.605	4083.71
496.974	4130.94
497.344	4160.77
497.713	4170.94
498.082	4210.71
498.452	4259.97
498.821	4342.23
499.19	4337.94
499.559	4344.49
499.928	4377.26
500.298	4392.17
500.667	4434.66
501.036	4412.29
501.405	4488.44
501.774	4536.8
502.143	4548.78
502.512	4525.5
502.88	4583.13
503.249	4534.32
503.618	4635.1
503.987	4645.95
504.356	4707.42
504.724	4716.23
505.093	4684.82
505.462	4740.41
505.83	4802.11
506.199	4822.22
506.567	4876
506.936	4886.62
507.304	4932.5
507.672	4924.59
508.041	4976.79
508.409	5028.54
508.777	5053.62
509.145	5128.65
509.514	5128.42
509.882	5131.14
510.25	5178.59
510.618	5219.27
510.986	5221.76
511.354	5199.84
511.722	5324.35
512.09	5419.94
512.458	5417.23
512.826	5437.34
513.193	5476.89
513.561	5480.05
513.929	5556.89
514.297	5557.79
514.664	5608.41
515.032	5659.48
515.4	5701.52
515.767	5745.13
516.135	5734.74
516.502	5762.31
516.869	5809.76
517.237	5880.5
517.604	5849.31
517.972	5921.85
518.339	5948.97
518.706	5956.43
519.073	6072.81
519.44	6055.41
519.808	6103.99
520.175	6119.81
520.542	6197.32
520.909	6238.45
521.276	6233.48
521.643	6339.24
522.009	6405
522.376	6422.4
522.743	6484.77
523.11	6494.72
523.477	6592.34
523.843	6612.91
524.21	6715.05
524.577	6763.86
524.943	6741.04
525.31	6739
525.676	6847.48
526.043	6909.17
526.409	6936.96
526.776	6981.03
527.142	6995.95
527.508	7102.84
527.874	7097.86
528.241	7090.86
528.607	7201.59
528.973	7234.36
529.339	7265.09
529.705	7323.62
530.071	7399.78
530.437	7430.28
530.803	7440.23
531.169	7484.75
531.535	7522.49
531.901	7556.16
532.267	7619.88
532.632	7718.41
532.998	7686.32
533.364	7682.48
533.73	7717.28
534.095	7724.06
534.461	7776.49
534.826	7846.77
535.192	7897.62
535.557	7904.85
535.923	7897.39
536.288	8017.84
536.653	7998.63
537.019	7950.95
537.384	8037.5
537.749	8129.02
538.114	8096.03
538.479	8111.17
538.845	8216.25
539.21	8165.18
539.575	8245.18
539.94	8246.76
540.305	8229.81
540.67	8329.02
541.034	8296.7
541.399	8337.61
541.764	8429.81
542.129	8403.14
542.494	8386.19
542.858	8456.02
543.223	8448.11
543.587	8574.66
543.952	8539.41
544.316	8612.63
544.681	8643.13
545.045	8624.6
545.41	8658.05
545.774	8655.34
546.138	8748.22
546.503	8764.04
546.867	8783.47
547.231	8817.82
547.595	8855.56
547.959	8887.2
548.324	8847.2
548.688	8874.09
549.052	8939.62
549.416	8940.98
549.779	8990.92
550.143	9038.15
550.507	9080.18
550.871	9161.31
551.235	9171.03
551.599	9221.42
551.962	9165.15
552.326	9261.2
552.689	9396.11
553.053	9270.01
553.417	9354.53
553.78	9417.58
554.143	9424.13
554.507	9444.47
554.87	9497.8
555.234	9625.48
555.597	9585.93
555.96	9554.75
556.323	9651.7
556.686	9681.53
557.05	9715.42
557.413	9772.14
557.776	9835.87
558.139	9841.52
558.502	9870.45
558.865	9884.46
559.228	9921.97
559.59	10069.09
559.953	10084.45
560.316	10101.63
560.679	10149.99
561.041	10178.24
561.404	10203.32
561.767	10317.21
562.129	10274.05
562.492	10393.82
562.854	10389.08
563.217	10371
563.579	10478.34
563.941	10488.28
564.304	10548.85
564.666	10565.8
565.028	10516.98
565.39	10613.25
565.753	10671.56
566.115	10740.48
566.477	10778.67
566.839	10772.8
567.201	10803.76
567.563	10824.32
567.925	10852.79
568.287	10934.6
568.648	10900.02
569.01	10980.25
569.372	10998.1
569.734	10990.87
570.095	11121.94
570.457	11186.8
570.819	11218.66
571.18	11149.74
571.542	11245.33
571.903	11304.31
572.265	11254.14
572.626	11337.75
572.987	11336.4
573.349	11417.75
573.71	11437.41
574.071	11405.55
574.432	11490.29
574.794	11503.4
575.155	11617.29
575.516	11565.77
575.877	11529.16
576.238	11597.63
576.599	11606.67
576.96	11602.38
577.32	11612.1
577.681	11627.24
578.042	11767.57
578.403	11705.65
578.763	11737.52
579.124	11683.51
579.485	11773.45
579.845	11830.85
580.206	11732.54
580.566	11771.64
580.927	11802.6
581.287	11950.39
581.648	11772.54
582.008	11908.81
582.368	11891.41
582.728	11851.41
583.089	11775.26
583.449	11888.92
583.809	11951.3
584.169	11936.16
584.529	11918.98
584.889	11995.14
585.249	11916.95
585.609	11840.34
585.969	11937.96
586.329	11944.06
586.688	11955.82
587.048	12004.63
587.408	11884.41
587.768	11980.9
588.127	12004.4
588.487	11932.31
588.846	11975.93
589.206	11963.5
589.565	11923.27
589.925	11990.62
590.284	11857.51
590.643	12007.11
591.003	12033.33
591.362	12064.51
591.721	12041.24
592.08	12008.7
592.44	12086.21
592.799	12061.58
593.158	12058.19
593.517	12070.16
593.876	12111.97
594.235	12097.28
594.593	12108.81
594.952	12210.5
595.311	12074.23
595.67	12089.37
596.029	12153.1
596.387	12202.14
596.746	12222.48
597.104	12112.42
597.463	12093.67
597.822	12182.02
598.18	12115.13
598.538	12154.91
598.897	12116.49
599.255	12050.73
599.613	12295.47
599.972	12136.83
600.33	12201.23
600.688	12168.69
601.046	12231.29
601.404	12248.92
601.762	12219.54
602.12	12274.68
602.478	12278.74
602.836	12340.44
603.194	12255.47
603.552	12353.09
603.91	12302.02
604.268	12333.21
604.625	12337.95
604.983	12316.03
605.341	12191.29
605.698	12345.64
606.056	12324.17
606.413	12374.56
606.771	12356.71
607.128	12343.83
607.485	12351.29
607.843	12347.22
608.2	12377.95
608.557	12411.62
608.914	12412.75
609.272	12428.35
609.629	12404.84
609.986	12468.34
610.343	12401
610.7	12520.55
611.057	12480.32
611.414	12423.83
611.771	12534.78
612.127	12474.67
612.484	12497.04
612.841	12560.55
613.198	12452.98
613.554	12566.42
613.911	12578.62
614.267	12602.35
614.624	12567.55
614.98	12512.41
615.337	12579.3
615.693	12636.02
616.05	12594.22
616.406	12729.81
616.762	12603.48
617.118	12547.66
617.475	12641.45
617.831	12650.03
618.187	12715.8
618.543	12611.17
618.899	12697.72
619.255	12730.26
619.611	12782.69
619.967	12728.45
620.323	12720.54
620.678	12640.09
621.034	12720.99
621.39	12670.6
621.746	12632.86
622.101	12887.99
622.457	12717.15
622.812	12770.03
623.168	12812.74
623.523	12754.21
623.879	12785.17
624.234	12814.55
624.589	12731.84
624.945	12755.79
625.3	12830.59
625.655	12762.57
626.01	12783.82
626.365	12726.42
626.72	12696.36
627.075	12749.47
627.43	12714.44
627.785	12715.12
628.14	12713.08
628.495	12713.08
628.85	12772.29
629.205	12590.15
629.559	12758.51
629.914	12699.07
630.269	12688.9
630.623	12603.71
630.978	12620.43
631.332	12652.29
631.687	12666.53
632.041	12629.7
632.396	12610.49
632.75	12596.7
633.104	12621.79
633.459	12499.53
633.813	12489.13
634.167	12571.17
634.521	12477.16
634.875	12522.58
635.229	12486.65
635.583	12395.8
635.937	12443.26
636.291	12344.05
636.645	12375.92
636.999	12331.85
637.352	12346.54
637.706	12345.41
638.06	12426.09
638.413	12340.66
638.767	12355.35
639.121	12325.98
639.474	12279.87
639.828	12234.45
640.181	12257.5
640.534	12212.76
640.888	12253.89
641.241	12199.65
641.594	12194.91
641.947	12199.88
642.301	12215.02
642.654	12191.74
643.007	12161.01
643.36	12144.74
643.713	12171.63
644.066	12135.02
644.419	12054.8
644.771	12028.81
645.124	11869.26
645.477	11844.86
645.83	11804.18
646.182	11750.17
646.535	11635.37
646.888	11666.78
647.24	11608.93
647.593	11674.92
647.945	11637.86
648.298	11647.8
648.65	11618.65
649.002	11518.31
649.355	11531.65
649.707	11625.65
650.059	11562.61
650.411	11741.58
650.763	11789.94
651.115	11952.43
651.467	11814.12
651.819	11859.77
652.171	11841.47
652.523	11795.82
652.875	11815.71
653.227	11720.57
653.578	11778.19
653.93	11772.54
654.282	11735.48
654.633	11714.92
654.985	11662.26
655.337	11685.77
655.688	11683.28
656.039	11713.11
656.391	11655.94
656.742	11557.41
657.094	11674.69
657.445	11712.88
657.796	11674.24
658.147	11633.34
658.498	11652.32
658.849	11705.2
659.2	11618.42
659.551	11642.38
659.902	11596.28
660.253	11555.6
660.604	11605.77
660.955	11638.31
661.306	11569.84
661.656	11511.31
662.007	11564.87
662.358	11576.62
662.708	11524.64
663.059	11451.42
663.409	11450.52
663.76	11515.38
664.11	11554.92
664.461	11541.59
664.811	11555.37
665.161	11544.98
665.511	11464.3
665.862	11434.93
666.212	11524.19
666.562	11506.34
666.912	11429.28
667.262	11507.01
667.612	11403.97
667.962	11418.88
668.312	11429.28
668.662	11417.52
669.011	11387.47
669.361	11345.21
669.711	11348.15
670.06	11323.97
670.41	11252.33
670.76	11228.15
671.109	11343.85
671.459	11288.94
671.808	11243.97
672.157	11238.77
672.507	11181.37
672.856	11201.94
673.205	11245.78
673.554	11237.87
673.904	11228.15
674.253	11224.08
674.602	11182.73
674.951	11047.36
675.3	11004.2
675.649	11123.75
675.998	11202.39
676.346	11226.34
676.695	11258.66
677.044	11144.54
677.393	11251.88
677.741	11151.99
678.09	11118.1
678.438	11060.7
678.787	11100.7
679.135	11066.35
679.484	11003.07
679.832	11089.62
680.181	11064.09
680.529	11069.06
680.877	11058.89
681.225	11019.79
681.573	11041.94
681.922	10948.84
682.27	10856.18
682.618	10975.05
682.966	10888.05
683.314	10992
683.661	10897.31
684.009	10866.35
684.357	10867.26
684.705	10800.59
685.053	10846.01
685.4	10757.2
685.748	10760.14
686.095	10805.11
686.443	10767.82
686.79	10682.4
687.138	10727.15
687.485	10713.14
687.832	10658.22
688.18	10653.25
688.527	10537.1
688.874	10599.02
689.221	10603.53
689.568	10575.74
689.915	10600.37
690.262	10561.5
690.609	10574.38
690.956	10425.69
691.303	10420.04
691.65	10438.57
691.997	10353.6
692.344	10324.22
692.69	10275.41
693.037	10334.39
693.383	10239.93
693.73	10287.38
694.077	10271.11
694.423	10214.84
694.769	10200.16
695.116	10244.67
695.462	10196.54
695.808	10138.24
696.155	10159.93
696.501	10055.3
696.847	10109.54
697.193	10028.41
697.539	10076.99
697.885	9944.57
698.231	9923.33
698.577	9943.89
698.923	9896.66
699.269	9801.97
699.614	9834.97
699.96	9814.4
700.306	9837.91
700.651	9712.94
700.997	9727.4
701.342	9729.66
701.688	9698.25
702.033	9626.61
702.379	9623.22
702.724	9707.51
703.069	9665.03
703.415	9585.26
703.76	9580.51
704.105	9503.68
704.45	9541.64
704.795	9493.06
705.14	9480.4
705.485	9375.54
705.83	9391.14
706.175	9380.74
706.52	9372.38
706.865	9373.51
707.209	9374.19
707.554	9267.52
707.899	9318.82
708.243	9211.48
708.588	9313.4
708.932	9249.67
709.277	9203.12
709.621	9187.53
709.966	9133.06
710.31	9181.43
710.654	9041.54
710.998	9086.29
711.342	9131.03
711.687	9009.9
712.031	9006.06
712.375	8940.08
712.719	8956.35
713.063	8989.79
713.407	8924.26
713.75	8911.6
714.094	8834.99
714.438	8842.68
714.782	8856.01
715.125	8838.16
715.469	8792.51
715.812	8783.02
716.156	8750.7
716.499	8806.97
716.843	8735.34
717.186	8702.79
717.53	8692.62
717.873	8679.52
718.216	8660.99
718.559	8707.77
718.902	8606.53
719.246	8689.01
719.589	8635
719.932	8606.07
720.275	8512.52
720.617	8542.57
720.96	8533.53
721.303	8492.86
721.646	8547.77
721.989	8486.75
722.331	8484.72
722.674	8517.26
723.016	8402.01
723.359	8390.49
723.701	8416.7
724.044	8368.11
724.386	8326.31
724.729	8319.3
725.071	8285.4
725.413	8311.84
725.755	8293.76
726.097	8214.67
726.439	8204.73
726.782	8247.44
727.124	8283.6
727.465	8204.5
727.807	8192.07
728.149	8206.99
728.491	8173.54
728.833	8105.75
729.175	8124.28
729.516	8156.37
729.858	8106.43
730.199	8141
730.541	8124.73
730.882	8126.54
731.224	8086.31
731.565	8074.79
731.906	8100.55
732.248	8087.22
732.589	7996.15
732.93	8048.12
733.271	8037.5
733.612	8020.33
733.953	8004.73
734.294	7936.71
734.635	7992.3
734.976	7957.5
735.317	7932.19
735.658	7959.31
735.999	7909.14
736.339	7898.97
736.68	7944.62
737.021	7873.21
737.361	7834.57
737.702	7884.51
738.042	7860.56
738.383	7846.32
738.723	7864.62
739.063	7802.93
739.404	7810.61
739.744	7734.91
740.084	7755.7
740.424	7788.69
740.764	7756.6
741.104	7788.47
741.444	7758.86
741.784	7718.19
742.124	7702.82
742.464	7691.75
742.804	7705.98
743.143	7742.14
743.483	7723.61
743.823	7675.93
744.162	7653.33
744.502	7659.21
744.841	7663.27
745.181	7702.37
745.52	7638.64
745.86	7573.11
746.199	7649.94
746.538	7557.97
746.877	7613.33
747.216	7609.26
747.556	7534.01
747.895	7488.81
748.234	7569.49
748.573	7548.47
748.911	7583.95
749.25	7574.46
749.589	7448.59
749.928	7474.8
750.267	7483.16
750.605	7402.26
750.944	7437.29
751.283	7364.98
751.621	7396.16
751.96	7395.71
752.298	7348.48
752.636	7334.24
752.975	7289.5
753.313	7295.37
753.651	7329.04
753.989	7329.27
754.327	7196.17
754.666	7220.12
755.004	7215.15
755.342	7237.52
755.679	7184.87
756.017	7216.05
756.355	7218.99
756.693	7083.63
757.031	7107.13
757.368	7117.3
757.706	7098.54
758.044	7038.2
758.381	7070.97
758.719	7069.39
759.056	7006.12
759.394	7019.9
759.731	7033.23
760.068	6991.43
760.405	6944.42
760.743	6908.94
761.08	6923.86
761.417	6845.89
761.754	6854.71
762.091	6857.64
762.428	6843.41
762.765	6755.27
763.102	6835.5
763.438	6765.9
763.775	6786.69
764.112	6727.93
764.449	6745.56
764.785	6679.12
765.122	6705.78
765.458	6631.44
765.795	6693.36
766.131	6679.8
766.467	6615.84
766.804	6525
767.14	6536.75
767.476	6534.72
767.812	6492.46
768.148	6526.35
768.485	6477.77
768.821	6499.24
769.157	6435.06
769.492	6400.48
769.828	6393.7
770.164	6360.48
770.5	6353.25
770.836	6343.08
771.171	6334.95
771.507	6276.87
771.842	6277.77
772.178	6243.88
772.513	6261.05
772.849	6232.8
773.184	6216.98
773.519	6189.41
773.855	6185.35
774.19	6126.59
774.525	6110.77
774.86	6114.84
775.195	6068.51
775.53	6005.24
775.865	6031
776.2	5974.96
776.535	5932.47
776.87	5930.21
777.205	5869.87
777.539	5892.25
777.874	5889.76
778.209	5873.72
778.543	5849.08
778.878	5813.15
779.212	5813.38
779.547	5731.57
779.881	5809.08
780.215	5741.97
780.55	5746.94
780.884	5725.24
781.218	5689.77
781.552	5687.51
781.886	5627.85
782.22	5609.32
782.554	5580.16
782.888	5525.02
783.222	5586.94
783.556	5462.88
783.889	5488.19
784.223	5464.69
784.557	5456.33
784.89	5547.85
785.224	5434.63
785.557	5395.31
785.891	5432.82
786.224	5437.34
786.558	5409.32
786.891	5310.11
787.224	5333.16
787.557	5306.05
787.891	5289.32
788.224	5268.31
788.557	5309.89
788.89	5315.31
789.223	5247.52
789.556	5262.21
789.888	5261.98
790.221	5194.64
790.554	5161.19
790.887	5191.93
791.219	5175.65
791.552	5144.02
791.884	5117.35
792.217	5061.99
792.549	5024.7
792.882	5088.2
793.214	5012.5
793.546	5033.51
793.879	4981.99
794.211	4921.2
794.543	4991.25
794.875	4919.39
795.207	4924.14
795.539	4890.01
795.871	4889.11
796.203	4859.28
796.535	4842.33
796.867	4819.51
797.198	4793.52
797.53	4838.26
797.862	4807.75
798.193	4770.47
798.525	4787.64
798.856	4831.94
799.188	4736.12
799.519	4749.45
799.85	4729.34
800.182	4718.27
800.513	4723.69
800.844	4681.2
801.175	4716.68
801.506	4689.57
801.837	4678.04
802.168	4652.73
802.499	4603.01
802.83	4614.09
803.161	4569.8
803.491	4605.27
803.822	4595.78
804.153	4588.33
804.483	4502.23
804.814	4481.66
805.145	4473.07
805.475	4467.2
805.805	4446.41
806.136	4486.86
806.466	4493.86
806.796	4453.87
807.126	4467.65
807.457	4445.73
807.787	4413.42
808.117	4411.83
808.447	4392.85
808.777	4365.28
809.107	4393.53
809.436	4363.02
809.766	4343.13
810.096	4326.86
810.426	4288.9
810.755	4294.55
811.085	4322.34
811.414	4261.1
811.744	4239.86
812.073	4205.28
812.403	4273.76
812.732	4231.95
813.061	4251.16
813.39	4211.16
813.719	4247.09
814.049	4210.71
814.378	4133.42
814.707	4177.72
815.036	4179.52
815.365	4163.7
815.693	4130.48
816.022	4110.37
816.351	4135.68
816.68	4114.67
817.008	4141.33
817.337	4074.67
817.665	4088.45
817.994	4076.47
818.322	4084.38
818.651	4036.25
818.979	4039.19
819.307	4081.67
819.636	4026.98
819.964	3993.77
820.292	4045.29
820.62	4020.88
820.948	4073.76
821.276	4045.74
821.604	4039.64
821.932	4002.8
822.259	4050.03
822.587	4026.08
822.915	4049.36
823.243	4029.7
823.57	4011.62
823.898	4017.49
824.225	3967.1
824.553	3993.99
824.88	4026.08
825.207	4038.51
825.535	4033.99
825.862	4047.55
826.189	4055.23
826.516	4028.79
826.843	4010.49
827.17	3994.67
827.497	4018.62
827.824	4034.89
828.151	4024.72
828.478	3989.47
828.805	4012.75
829.131	4008.45
829.458	3986.08
829.785	3959.19
830.111	3995.35
830.438	3978.62
830.764	4044.61
831.09	4035.8
831.417	3987.89
831.743	4038.28
832.069	3990.83
832.395	4010.26
832.722	4000.09
833.048	4009.58
833.374	4012.97
833.7	3965.74
834.026	3961.9
834.351	4008.91
834.677	3987.89
835.003	3947.89
835.329	3953.54
835.654	3983.37
835.98	3878.29
836.306	3968.68
836.631	3962.13
836.956	4012.3
837.282	3963.26
837.607	3925.52
837.932	3896.37
838.258	3954.44
838.583	3906.08
838.908	3937.5
839.233	3880.32
839.558	3963.94
839.883	3865.41
840.208	3858.63
840.533	3875.58
840.858	3848.91
841.182	3886.2
841.507	3856.14
841.832	3830.83
842.156	3829.93
842.481	3871.28
842.805	3845.29
843.13	3812.3
843.454	3848.23
843.778	3786.99
844.103	3796.26
844.427	3805.07
844.751	3761.23
845.075	3728.01
845.399	3756.94
845.723	3736.82
846.047	3749.93
846.371	3732.3
846.695	3707.9
847.019	3690.04
847.343	3692.08
847.666	3690.5
847.99	3645.75
848.313	3631.51
848.637	3587.67
848.96	3615.24
849.284	3594.68
849.607	3576.6
849.931	3560.56
850.254	3549.26
850.577	3538.41
850.9	3522.14
851.223	3527.34
851.546	3492.08
851.869	3477.39
852.192	3493.67
852.515	3465.42
852.838	3470.61
853.161	3480.78
853.483	3440.11
853.806	3385.65
854.129	3398.07
854.451	3396.04
854.774	3379.09
855.096	3388.36
855.419	3363.95
855.741	3348.36
856.063	3361.01
856.385	3347.45
856.708	3335.25
857.03	3337.29
857.352	3305.87
857.674	3263.84
857.996	3255.03
858.318	3298.19
858.64	3276.5
858.961	3276.72
859.283	3239.43
859.605	3218.42
859.926	3274.91
860.248	3238.53
860.57	3239.66
860.891	3248.25
861.212	3217.97
861.534	3237.17
861.855	3189.72
862.176	3232.66
862.498	3207.12
862.819	3226.1
863.14	3191.07
863.461	3205.09
863.782	3148.36
864.103	3177.97
864.424	3123.96
864.745	3179.1
865.065	3124.41
865.386	3174.13
865.707	3153.79
866.027	3117.18
866.348	3123.51
866.668	3099.78
866.989	3128.93
867.309	3109.04
867.63	3125.77
867.95	3110.85
868.27	3085.77
868.59	3041.02
868.91	3083.51
869.23	3093
869.55	3078.53
869.87	3113.79
870.19	3040.34
870.51	3076.28
870.83	3077.4
871.15	3042.15
871.469	3039.67
871.789	3047.12
872.109	3063.17
872.428	3030.85
872.748	3016.84
873.067	3050.29
873.386	3037.63
873.706	3042.83
874.025	2996.05
874.344	2998.31
874.663	2997.18
874.982	2986.11
875.301	2970.52
875.62	2950.63
875.939	2961.02
876.258	2967.13
876.577	2922.83
876.896	2926.45
877.214	2947.01
877.533	2966.67
877.852	2939.78
878.17	2961.25
878.489	2987.92
878.807	2982.04
879.125	2931.19
879.444	2914.92
879.762	2887.58
880.08	2878.77
880.398	2940.01
880.716	2891.42
881.034	2912.44
881.352	2905.66
881.67	2861.37
881.988	2888.48
882.306	2860.24
882.624	2870.4
882.941	2835.83
883.259	2854.36
883.577	2859.78
883.894	2848.94
884.212	2860.24
884.529	2874.92
884.846	2825.43
885.164	2835.83
885.481	2817.07
885.798	2854.81
886.115	2791.08
886.432	2782.5
886.75	2771.88
887.067	2757.41
887.383	2799.67
887.7	2746.34
888.017	2749.05
888.334	2748.83
888.651	2782.05
888.967	2742.5
889.284	2729.62
889.6	2724.42
889.917	2711.09
890.233	2713.57
890.55	2692.1
890.866	2748.83
891.182	2693.23
891.498	2684.87
891.815	2687.81
892.131	2664.31
892.447	2731.65
892.763	2673.35
893.079	2667.02
893.395	2663.63
893.71	2669.05
894.026	2634.25
894.342	2612.33
894.657	2608.94
894.973	2616.17
895.289	2603.52
895.604	2617.3
895.92	2587.7
896.235	2578.66
896.55	2602.62
896.865	2583.63
897.181	2589.96
897.496	2565.1
897.811	2558.32
898.126	2554.48
898.441	2519.23
898.756	2530.07
899.071	2499.34
899.386	2542.96
899.7	2540.92
900.015	2491.66
900.33	2493.24
900.644	2493.69
900.959	2475.16
901.273	2494.14
901.588	2426.12
901.902	2460.02
902.216	2430.87
902.531	2440.81
902.845	2430.19
903.159	2425.22
903.473	2434.48
903.787	2413.92
904.101	2432.9
904.415	2399
904.729	2403.07
905.042	2398.33
905.356	2391.55
905.67	2355.39
905.984	2366.01
906.297	2343.19
906.611	2307.26
906.924	2361.04
907.237	2364.2
907.551	2335.96
907.864	2328.27
908.177	2305.45
908.491	2341.38
908.804	2316.52
909.117	2281.04
909.43	2240.59
909.743	2266.13
910.056	2255.51
910.368	2248.5
910.681	2225.45
910.994	2249.4
911.307	2238.33
911.619	2190.65
911.932	2223.42
912.244	2214.83
912.557	2242.85
912.869	2211.21
913.181	2164.43
913.494	2185
913.806	2177.54
914.118	2181.84
914.43	2130.76
914.742	2142.97
915.054	2124.21
915.366	2137.32
915.678	2150.88
915.99	2110.2
916.302	2109.29
916.613	2082.4
916.925	2087.37
917.236	2083.76
917.548	2070.43
917.859	2077.43
918.171	2085.11
918.482	2059.58
918.794	2020.94
919.105	2044.66
919.416	2038.56
919.727	2080.37
920.038	2049.41
920.349	2042.4
920.66	2035.85
920.971	2006.02
921.282	2010.77
921.593	1977.55
921.903	1988.39
922.214	1972.58
922.525	1994.27
922.835	1940.71
923.146	1951.56
923.456	1973.48
923.767	1936.87
924.077	1927.83
924.387	1923.31
924.697	1896.87
925.008	1917.66
925.318	1894.16
925.628	1915.4
925.938	1906.59
926.248	1905.68
926.558	1870.88
926.867	1885.8
927.177	1874.5
927.487	1844.22
927.796	1848.51
928.106	1832.69
928.416	1830.88
928.725	1817.78
929.034	1830.66
929.344	1837.21
929.653	1812.13
929.962	1811.68
930.271	1793.37
930.581	1783.65
930.89	1751.56
931.199	1769.42
931.508	1785.46
931.817	1787.27
932.125	1757.89
932.434	1742.3
932.743	1729.87
933.051	1756.08
933.36	1745.69
933.669	1716.08
933.977	1731.45
934.286	1724.22
934.594	1732.58
934.902	1739.36
935.21	1684.67
935.519	1726.93
935.827	1671.57
936.135	1698.91
936.443	1679.25
936.751	1686.71
937.059	1684.9
937.367	1624.34
937.674	1653.26
937.982	1663.66
938.29	1625.24
938.597	1643.77
938.905	1644.9
939.213	1641.28
939.52	1639.25
939.827	1625.24
940.135	1594.28
940.442	1641.74
940.749	1584.79
941.056	1607.39
941.363	1573.49
941.67	1567.61
941.977	1545.47
942.284	1554.96
942.591	1551.12
942.898	1562.19
943.205	1540.95
943.511	1537.33
943.818	1560.61
944.125	1542.3
944.431	1542.53
944.738	1524
945.044	1489.2
945.35	1522.19
945.657	1502.08
945.963	1504.34
946.269	1505.02
946.575	1499.37
946.881	1493.27
947.187	1501.63
947.493	1443.32
947.799	1491.46
948.105	1431.35
948.41	1426.37
948.716	1438.13
949.022	1448.52
949.327	1440.61
949.633	1437.67
949.938	1434.06
950.244	1442.42
950.549	1410.33
950.854	1422.76
951.16	1370.56
951.465	1410.56
951.77	1379.6
952.075	1409.2
952.38	1393.61
952.685	1398.13
952.99	1391.57
953.294	1375.75
953.599	1365.13
953.904	1359.71
954.209	1345.02
954.513	1345.93
954.818	1334.85
955.122	1358.35
955.426	1326.94
955.731	1308.41
956.035	1307.73
956.339	1343.21
956.643	1320.16
956.948	1321.52
957.252	1307.28
957.556	1326.04
957.86	1307.51
958.163	1302.31
958.467	1291.92
958.771	1282.88
959.075	1297.34
959.378	1273.16
959.682	1278.13
959.985	1268.41
960.289	1272.25
960.592	1250.79
960.896	1250.11
961.199	1246.27
961.502	1233.84
961.805	1230
962.108	1228.87
962.411	1228.19
962.714	1229.32
963.017	1213.05
963.32	1214.4
963.623	1204.23
963.926	1210.56
964.228	1235.65
964.531	1230.67
964.833	1202.65
965.136	1197.91
965.438	1184.35
965.741	1215.31
966.043	1186.16
966.345	1202.88
966.648	1198.58
966.95	1155.2
967.252	1173.05
967.554	1187.06
967.856	1135.54
968.158	1151.81
968.46	1154.97
968.761	1148.64
969.063	1170.34
969.365	1119.26
969.666	1131.69
969.968	1121.98
970.269	1117.46
970.571	1119.26
970.872	1116.78
971.174	1127.85
971.475	1131.47
971.776	1114.29
972.077	1095.76
972.378	1129.43
972.679	1129.43
972.98	1104.12
973.281	1114.52
973.582	1064.12
973.883	1079.72
974.183	1078.14
974.484	1066.38
974.785	1049.89
975.085	1073.39
975.386	1076.1
975.686	1057.57
975.986	1050.79
976.287	1055.99
976.587	1058.93
976.887	1049.89
977.187	1036.55
977.487	1044.69
977.787	1029.55
978.087	1064.35
978.387	1025.71
978.687	1022.77
978.987	1058.7
979.286	1019.38
979.586	1011.7
979.885	1022.77
980.185	1016.22
980.484	984.35
980.784	1020.74
981.083	978.93
981.382	981.64
981.682	969.66
981.981	997.23
982.28	1011.02
982.579	967.18
982.878	972.38
983.177	995.65
983.475	963.11
983.774	984.35
984.073	977.8
984.372	961.3
984.67	955.65
984.969	947.74
985.267	957.69
985.566	935.31
985.864	930.57
986.162	940.29
986.461	922.21
986.759	934.64
987.057	919.5
987.355	933.96
987.653	963.34
987.951	937.35
988.249	918.82
988.547	895.54
988.844	908.87
989.142	934.41
989.44	903.45
989.737	898.48
990.035	864.13
990.332	875.65
990.63	877.01
990.927	894.41
991.224	910.91
991.521	890.57
991.819	888.54
992.116	880.85
992.413	880.85
992.71	869.33
993.006	859.16
993.303	872.72
993.6	877.69
993.897	856.45
994.193	848.54
994.49	856.22
994.787	844.47
995.083	850.12
995.379	853.73
995.676	825.94
995.972	848.54
996.268	840.63
996.565	851.25
996.861	815.54
997.157	830.01
997.453	815.32
997.749	813.96
998.044	802.21
998.34	798.59
998.636	815.09
998.932	773.51
999.227	835.88
999.523	806.73
999.818	813.51
1000.114	812.83
1000.409	790.46
1000.704	791.59
1001	778.48
1001.295	804.7
1001.59	763.12
1001.885	764.92
1002.18	783.23
1002.475	759.95
1002.77	758.82
1003.065	759.73
1003.359	774.64
1003.654	763.12
1003.949	771.25
1004.243	769.9
1004.538	760.4
1004.832	743
1005.127	770.35
1005.421	744.58
1005.715	735.09
1006.009	754.08
1006.304	720.18
1006.598	739.39
1006.892	714.98
1007.186	741.42
1007.48	752.95
1007.773	724.7
1008.067	743.91
1008.361	704.13
1008.655	703.46
1008.948	738.03
1009.242	717.02
1009.535	708.65
1009.829	714.76
1010.122	704.36
1010.415	689.45
1010.708	712.95
1011.001	738.03
1011.295	699.39
1011.588	703.23
1011.881	705.49
1012.173	677.24
1012.466	681.99
1012.759	667.52
1013.052	677.69
1013.344	682.21
1013.637	659.84
1013.93	657.13
1014.222	675.43
1014.514	644.7
1014.807	654.87
1015.099	668.88
1015.391	667.98
1015.683	648.77
1015.976	646.06
1016.268	659.16
1016.56	633.63
1016.851	627.98
1017.143	662.55
1017.435	637.92
1017.727	638.6
1018.018	623.91
1018.31	617.36
1018.602	623.23
1018.893	617.81
1019.185	624.14
1019.476	616
1019.767	620.29
1020.058	630.46
1020.35	592.27
1020.641	587.53
1020.932	630.24
1021.223	602.44
1021.514	613.51
1021.804	613.97
1022.095	594.98
1022.386	569.22
1022.677	619.84
1022.967	601.76
1023.258	584.82
1023.548	597.24
1023.839	590.92
1024.129	587.75
1024.419	585.49
1024.709	584.59
1025	553.18
1025.29	585.04
1025.58	569
1025.87	567.19
1026.16	552.05
1026.449	561.76
1026.739	561.54
1027.029	558.83
1027.319	571.03
1027.608	538.94
1027.898	549.79
1028.187	550.92
1028.477	547.53
1028.766	557.7
1029.055	536.91
1029.344	533.29
1029.634	542.1
1029.923	545.95
1030.212	537.36
1030.501	565.15
1030.79	526.96
1031.078	517.02
1031.367	528.55
1031.656	535.55
1031.945	528.55
1032.233	536
1032.522	529.68
1032.81	523.35
1033.099	514.08
1033.387	504.37
1033.675	512.73
1033.963	527.42
1034.251	498.49
1034.54	509.11
1034.828	505.72
1035.116	513.18
1035.403	512.05
1035.691	499.62
1035.979	507.3
1036.267	482.22
1036.554	491.26
1036.842	515.66
1037.129	493.97
1037.417	514.31
1037.704	494.42
1037.992	489.45
1038.279	469.34
1038.566	495.55
1038.853	495.55
1039.14	495.55
