Data from black_metal_pc_casing_FLMS001491_00055.txt Node
Date: Wed Feb 08 14:33:04 GMT 2017
User: dcchb
Spectrometer: FLMS00149
Trigger mode: 0
Integration Time (sec): 2.000000E-2
Scans to average: 10
Electric dark correction enabled: true
Nonlinearity correction enabled: false
Boxcar width: 0
XAxis mode: Wavelengths
Number of Pixels in Spectrum: 2048
>>>>>Begin Spectral Data<<<<<
341.393	-22.46
341.776	-22.46
342.16	-22.46
342.543	-44.38
342.927	-60.87
343.31	-68.56
343.693	-89.57
344.077	-68.11
344.46	-63.13
344.843	-43.47
345.226	-41.89
345.61	-25.17
345.993	-31.04
346.376	-7.99
346.759	-6.41
347.142	33.13
347.525	48.5
347.908	88.05
348.291	79.69
348.674	103.87
349.057	92.12
349.44	110.65
349.823	136.86
350.206	174.6
350.588	167.59
350.971	199.23
351.354	208.72
351.737	219.57
352.119	229.74
352.502	243.75
352.884	267.7
353.267	282.62
353.65	269.06
354.032	285.78
354.414	295.5
354.797	291.66
355.179	300.92
355.562	311.55
355.944	305.22
356.326	316.97
356.709	310.64
357.091	323.52
357.473	321.04
357.855	319.45
358.238	319.23
358.62	315.84
359.002	324.65
359.384	341.38
359.766	351.09
360.148	338.21
360.53	343.86
360.912	350.19
361.294	332.11
361.676	323.75
362.057	326.46
362.439	316.97
362.821	312.68
363.203	323.3
363.584	313.58
363.966	297.76
364.348	313.35
364.729	319.91
365.111	322.84
365.493	316.74
365.874	317.87
366.256	319.45
366.637	319.45
367.019	328.04
367.4	293.69
367.781	293.47
368.163	336.4
368.544	298.89
368.925	320.81
369.306	342.28
369.688	323.07
370.069	322.17
370.45	317.65
370.831	315.39
371.212	309.51
371.593	320.13
371.974	305.9
372.355	305.67
372.736	323.75
373.117	322.39
373.498	329.4
373.879	298.66
374.26	329.4
374.641	338.44
375.021	327.82
375.402	307.7
375.783	331.88
376.163	314.94
376.544	325.33
376.925	334.82
377.305	335.73
377.686	325.56
378.066	317.65
378.447	336.86
378.827	319.45
379.208	342.73
379.588	321.04
379.968	343.41
380.349	346.8
380.729	348.83
381.109	349.06
381.489	359.23
381.87	358.78
382.25	358.78
382.63	344.31
383.01	325.56
383.39	354.26
383.77	348.61
384.15	351.54
384.53	345.67
384.91	354.48
385.29	347.48
385.67	369.4
386.049	374.59
386.429	337.31
386.809	373.24
387.189	380.02
387.568	366.46
387.948	373.46
388.328	368.95
388.707	344.09
389.087	380.92
389.466	375.05
389.846	374.59
390.225	389.28
390.605	371.88
390.984	401.94
391.363	402.62
391.743	400.13
392.122	378.66
392.501	417.53
392.881	406.01
393.26	403.29
393.639	392
394.018	407.14
394.397	416.18
394.776	385.89
395.155	400.81
395.534	414.14
395.913	403.07
396.292	414.82
396.671	402.62
397.05	420.24
397.429	437.87
397.808	404.42
398.186	436.97
398.565	425.21
398.944	427.25
399.323	422.5
399.701	413.01
400.08	432.9
400.458	420.24
400.837	436.29
401.215	429.96
401.594	425.21
401.972	463.63
402.351	440.13
402.729	465.89
403.107	455.04
403.486	462.95
403.864	447.81
404.242	460.69
404.62	451.2
404.999	460.47
405.377	460.24
405.755	482.84
406.133	465.21
406.511	465.67
406.889	479.22
407.267	488.49
407.645	475.16
408.023	488.26
408.401	477.19
408.779	495.5
409.156	489.39
409.534	522.84
409.912	510.86
410.29	500.69
410.667	504.76
411.045	508.15
411.422	515.83
411.8	519.22
412.178	537.53
412.555	543.63
412.933	544.31
413.31	536.62
413.687	545.21
414.065	549.28
414.442	543.63
414.819	552.44
415.197	574.14
415.574	562.61
415.951	568.26
416.328	575.95
416.705	573.69
417.082	584.53
417.46	595.61
417.837	603.06
418.214	601.26
418.591	589.05
418.967	609.39
419.344	616.62
419.721	610.97
420.098	610.75
420.475	616.62
420.852	606.45
421.228	624.08
421.605	644.19
421.982	650.29
422.358	642.38
422.735	667.47
423.111	637.86
423.488	637.41
423.864	665.43
424.241	654.59
424.617	667.24
424.994	676.06
425.37	679.9
425.746	692.78
426.123	685.32
426.499	707.02
426.875	695.49
427.251	704.76
427.627	730.07
428.003	729.84
428.379	721.03
428.756	737.75
429.132	733.68
429.507	743.4
429.883	723.74
430.259	764.41
430.635	755.6
431.011	743.85
431.387	780.91
431.763	784.75
432.138	783.17
432.514	810.06
432.89	790.63
433.265	816.62
433.641	834.47
434.016	829.27
434.392	830.18
434.767	837.18
435.143	856.62
435.518	832.66
435.894	826.79
436.269	865.2
436.644	863.4
437.02	889.16
437.395	900.23
437.77	899.78
438.145	904.98
438.52	885.09
438.895	919.89
439.271	901.59
439.646	963.96
440.021	946.33
440.395	939.33
440.77	925.09
441.145	945.2
441.52	945.2
441.895	962.83
442.27	976.16
442.645	952.43
443.019	996.73
443.394	946.33
443.769	987.01
444.143	981.36
444.518	1010.74
444.892	984.07
445.267	1007.57
445.641	1015.93
446.016	1021.36
446.39	1043.73
446.764	1024.97
447.139	1031.75
447.513	1052.54
447.887	1029.49
448.262	1050.28
448.636	1064.75
449.01	1063.16
449.384	1064.75
449.758	1082.6
450.132	1103.62
450.506	1111.75
450.88	1097.51
451.254	1080.34
451.628	1105.2
452.002	1138.87
452.376	1149.49
452.75	1135.25
453.123	1147.46
453.497	1177.51
453.871	1179.09
454.244	1177.74
454.618	1198.3
454.992	1221.8
455.365	1208.25
455.739	1254.57
456.112	1281.92
456.486	1276.49
456.859	1254.35
457.232	1300.22
457.606	1283.72
457.979	1326.43
458.352	1337.73
458.725	1329.37
459.099	1359.2
459.472	1425.41
459.845	1400.1
460.218	1391.52
460.591	1414.79
460.964	1408.69
461.337	1455.92
461.71	1452.76
462.083	1488.92
462.456	1497.95
462.829	1496.15
463.201	1485.07
463.574	1509.48
463.947	1563.26
464.32	1564.39
464.692	1568.46
465.065	1603.04
465.438	1585.41
465.81	1650.27
466.183	1631.96
466.555	1648.01
466.928	1700.44
467.3	1648.23
467.672	1722.58
468.045	1737.72
468.417	1739.53
468.789	1761.68
469.161	1775.46
469.534	1792.41
469.906	1811.62
470.278	1858.85
470.65	1887.1
471.022	1882.13
471.394	1894.55
471.766	1932.07
472.138	1929.36
472.51	2011.16
472.882	2012.52
473.253	2054.78
473.625	2077.6
473.997	2118.5
474.369	2130.25
474.74	2117.37
475.112	2169.12
475.484	2171.38
475.855	2221.1
476.227	2254.77
476.598	2325.5
476.97	2322.11
477.341	2368.21
477.713	2420.42
478.084	2400.3
478.455	2455.44
478.827	2525.95
479.198	2547.87
479.569	2590.36
479.94	2627.64
480.311	2644.37
480.682	2694.76
481.053	2742.67
481.424	2819.73
481.795	2836.22
482.166	2843.23
482.537	2936.56
482.908	2930.23
483.279	2950.57
483.65	3043.23
484.021	3063.79
484.391	3073.73
484.762	3142.21
485.133	3113.51
485.503	3184.69
485.874	3278.25
486.244	3268.76
486.615	3367.28
486.985	3362.54
487.356	3460.62
487.726	3445.7
488.097	3513.27
488.467	3502.2
488.837	3614.96
489.207	3590.78
489.578	3676.88
489.948	3765.47
490.318	3775.18
490.688	3819.02
491.058	3931.34
491.428	3904.45
491.798	3929.08
492.168	3992.13
492.538	4006.14
492.908	4075.06
493.278	4122.07
493.648	4134.95
494.017	4235.06
494.387	4190.99
494.757	4240.48
495.126	4290.88
495.496	4330.2
495.866	4285.45
496.235	4327.94
496.605	4437.99
496.974	4454.94
497.344	4474.37
497.713	4510.53
498.082	4493.58
498.452	4546.91
498.821	4597.31
499.19	4595.73
499.559	4696.51
499.928	4727.93
500.298	4711.66
500.667	4761.15
501.036	4776.06
501.405	4842.27
501.774	4858.32
502.143	4857.41
502.512	4904.19
502.88	4944.42
503.249	4940.35
503.618	4990.29
503.987	5005.89
504.356	5043.17
504.724	5040.69
505.093	5087.01
505.462	5147.58
505.83	5183.96
506.199	5239.55
506.567	5296.95
506.936	5283.17
507.304	5349.61
507.672	5382.6
508.041	5453.56
508.409	5402.26
508.777	5491.97
509.145	5466.89
509.514	5548.02
509.882	5529.94
510.25	5522.26
510.618	5648.35
510.986	5655.81
511.354	5663.95
511.722	5735.36
512.09	5785.75
512.458	5823.04
512.826	5868.69
513.193	5894.45
513.561	5898.29
513.929	5939.42
514.297	5994.79
514.664	6030.94
515.032	6053.54
515.4	6125.86
515.767	6118.62
516.135	6157.72
516.502	6195.91
516.869	6285.17
517.237	6259.19
517.604	6307.55
517.972	6367.88
518.339	6392.52
518.706	6423.48
519.073	6418.28
519.44	6570.59
519.808	6623.92
520.175	6629.8
520.542	6713.19
520.909	6729.46
521.276	6719.29
521.643	6843.13
522.009	6806.52
522.376	6900.3
522.743	6930.35
523.11	7045.15
523.477	7114.08
523.843	7025.95
524.21	7196.11
524.577	7196.79
524.943	7266.16
525.31	7321.76
525.676	7388.87
526.043	7478.81
526.409	7423.67
526.776	7524.24
527.142	7610.11
527.508	7678.58
527.874	7677.91
528.241	7759.94
528.607	7785.02
528.973	7862.76
529.339	7841.74
529.705	7923.77
530.071	8006.94
530.437	7976.2
530.803	8101.17
531.169	8092.13
531.535	8099.82
531.901	8144.33
532.267	8247.16
532.632	8258.46
532.998	8283.09
533.364	8341.16
533.73	8384.1
534.095	8427.72
534.461	8427.72
534.826	8535.28
535.192	8542.52
535.557	8629.52
535.923	8624.55
536.288	8641.04
536.653	8703.42
537.019	8672.46
537.384	8758.33
537.749	8813.92
538.114	8810.31
538.479	8799.68
538.845	8890.08
539.21	8876.97
539.575	8939.79
539.94	8861.6
540.305	9018.66
540.67	9032.67
541.034	9067.47
541.399	9032.67
541.764	9169.17
542.129	9170.97
542.494	9178.88
542.858	9194.25
543.223	9216.62
543.587	9320.8
543.952	9251.2
544.316	9339.56
544.681	9375.49
545.045	9368.93
545.41	9391.76
545.774	9462.27
546.138	9421.81
546.503	9478.08
546.867	9542.72
547.231	9549.49
547.595	9552.43
547.959	9648.7
548.324	9723.5
548.688	9663.84
549.052	9745.2
549.416	9783.39
549.779	9806.89
550.143	9835.81
550.507	9893.89
550.871	9866.32
551.235	9913.1
551.599	10026.54
551.962	10024.28
552.326	10040.56
552.689	10099.31
553.053	10035.81
553.417	10128.46
553.78	10259.31
554.143	10187.9
554.507	10318.06
554.87	10293.66
555.234	10380.66
555.597	10358.51
555.96	10433.09
556.323	10408
556.686	10448.91
557.05	10586.76
557.413	10570.48
557.776	10598.96
558.139	10693.87
558.502	10766.19
558.865	10742.68
559.228	10829.24
559.59	10876.01
559.953	10899.52
560.316	11026.29
560.679	10997.37
561.041	11124.14
561.404	11107.87
561.767	11177.7
562.129	11248.89
562.492	11240.75
562.854	11294.31
563.217	11344.7
563.579	11354.64
563.941	11427.41
564.304	11408.88
564.666	11507.18
565.028	11589.89
565.39	11554.41
565.753	11679.83
566.115	11776.1
566.477	11822.66
566.839	11738.59
567.201	11862.65
567.563	11852.03
567.925	11918.92
568.287	11918.92
568.648	12032.14
569.01	12057.68
569.372	12165.02
569.734	12124.12
570.095	12259.71
570.457	12280.04
570.819	12283.66
571.18	12279.59
571.542	12350.55
571.903	12278.91
572.265	12469.42
572.626	12418.57
572.987	12451.57
573.349	12580.15
573.71	12577.44
574.071	12573.82
574.432	12655.85
574.794	12738.79
575.155	12747.6
575.516	12606.36
575.877	12730.2
576.238	12743.53
576.599	12848.84
576.96	12807.94
577.32	12859.69
577.681	13004.32
578.042	12929.52
578.403	12998.44
578.763	12974.72
579.124	12953.47
579.485	12945.79
579.845	13075.28
580.206	13065.56
580.566	13016.52
580.927	13048.84
581.287	13136.52
581.648	13084.77
582.008	13096.07
582.368	13121.38
582.728	13160.47
583.089	13148.5
583.449	13149.85
583.809	13196.63
584.169	13179.46
584.529	13164.31
584.889	13212.9
585.249	13179
585.609	13192.56
585.969	13259
586.329	13218.78
586.688	13281.37
587.048	13197.08
587.408	13182.39
587.768	13134.49
588.127	13157.31
588.487	13240.25
588.846	13315.72
589.206	13213.35
589.565	13175.84
589.925	13238.44
590.284	13208.61
590.643	13174.26
591.003	13260.36
591.362	13293.35
591.721	13281.15
592.08	13332.45
592.44	13250.41
592.799	13287.02
593.158	13272.11
593.517	13274.14
593.876	13333.12
594.235	13273.92
594.593	13293.58
594.952	13353.46
595.311	13335.61
595.67	13362.95
596.029	13462.39
596.387	13447.47
596.746	13411.31
597.104	13386
597.463	13451.31
597.822	13463.29
598.18	13329.73
598.538	13307.59
598.897	13430.97
599.255	13307.59
599.613	13605.43
599.972	13429.17
600.33	13481.37
600.688	13429.84
601.046	13589.16
601.404	13607.24
601.762	13482.72
602.12	13561.37
602.478	13594.81
602.836	13603.4
603.194	13500.13
603.552	13577.41
603.91	13540.58
604.268	13609.95
604.625	13501.26
604.983	13695.15
605.341	13488.83
605.698	13719.1
606.056	13623.96
606.413	13638.2
606.771	13652.44
607.128	13710.97
607.485	13646.79
607.843	13671.65
608.2	13760.91
608.557	13859.89
608.914	13781.02
609.272	13872.09
609.629	13745.32
609.986	13893.34
610.343	13727.92
610.7	13873.22
611.057	13888.82
611.414	13863.05
611.771	13877.74
612.127	13902.15
612.484	13804.75
612.841	14017.4
613.198	14011.52
613.554	13994.8
613.911	13968.81
614.267	14023.95
614.624	13957.51
614.98	14036.61
615.337	14063.95
615.693	14035.25
616.05	14059.66
616.406	14170.84
616.762	14061.69
617.118	14063.5
617.475	13998.64
617.831	14033.9
618.187	14082.03
618.543	14065.76
618.899	14139.43
619.255	14134.01
619.611	14145.76
619.967	14157.74
620.323	14287.68
620.678	14240.22
621.034	14150.73
621.39	14183.5
621.746	14169.94
622.101	14333.55
622.457	14174.46
622.812	14147.57
623.168	14343.49
623.523	14170.62
623.879	14289.48
624.234	14044.74
624.589	14283.38
624.945	14256.72
625.3	14222.59
625.655	14324.96
626.01	14209.03
626.365	14207.45
626.72	14213.78
627.075	14184.63
627.43	14262.37
627.785	14214.23
628.14	14277.28
628.495	14224.4
628.85	14184.4
629.205	14136.94
629.559	14208.36
629.914	14218.75
630.269	14174.23
630.623	14173.55
630.978	14148.92
631.332	14144.63
631.687	14251.97
632.041	14143.05
632.396	14120.22
632.75	14087.23
633.104	14159.54
633.459	14130.84
633.813	14064.63
634.167	14096.27
634.521	14067.12
634.875	14054.46
635.229	14048.81
635.583	13977.63
635.937	13938.31
636.291	13945.09
636.645	13993.45
636.999	13939.44
637.352	13879.32
637.706	13830.74
638.06	13877.52
638.413	13868.25
638.767	13770.85
639.121	13862.15
639.474	13776.73
639.828	13784.19
640.181	13788.71
640.534	13857.18
640.888	13684.53
641.241	13714.81
641.594	13666.67
641.947	13726.33
642.301	13704.19
642.654	13689.95
643.007	13709.61
643.36	13662.61
643.713	13601.59
644.066	13698.54
644.419	13552.33
644.771	13533.12
645.124	13424.65
645.477	13290.19
645.83	13302.84
646.182	13268.27
646.535	13188.27
646.888	13185.33
647.24	13081.61
647.593	13195.5
647.945	13179.68
648.298	13132.9
648.65	13141.72
649.002	13044.54
649.355	13150.76
649.707	13023.3
650.059	13132.23
650.411	13318.44
650.763	13268.49
651.115	13358.89
651.467	13331.09
651.819	13274.59
652.171	13285.67
652.523	13324.31
652.875	13312.79
653.227	13268.04
653.578	13348.72
653.93	13295.16
654.282	13241.15
654.633	13145.56
654.985	13224.2
655.337	13280.7
655.688	13213.58
656.039	13261.04
656.391	13125.67
656.742	13143.3
657.094	13205.44
657.445	13174.03
657.796	13145.11
658.147	13154.6
658.498	13144.43
658.849	13110.08
659.2	13158.21
659.551	13056.75
659.902	13126.58
660.253	13024.43
660.604	13109.63
660.955	13050.19
661.306	13064.2
661.656	13085.45
662.007	13079.8
662.358	13106.46
662.708	13066.01
663.059	13077.09
663.409	13043.19
663.76	13058.55
664.11	13016.3
664.461	12997.09
664.811	13090.87
665.161	12988.27
665.511	12984.21
665.862	12951.89
666.212	13022.85
666.562	13030.53
666.912	12897.43
667.262	12942.17
667.612	12887.26
667.962	13000.93
668.312	12922.74
668.662	13038.89
669.011	12860.37
669.361	13007.03
669.711	12924.32
670.06	12881.84
670.41	12930.87
670.76	12845.45
671.109	12931.78
671.459	12936.98
671.808	12905.79
672.157	12928.16
672.507	12850.65
672.856	12864.44
673.205	12786.92
673.554	12859.69
673.904	12814.49
674.253	12853.36
674.602	12811.78
674.951	12546.93
675.3	12525.91
675.649	12702.63
675.998	12793.93
676.346	12762.52
676.695	12721.61
677.044	12608.4
677.393	12787.38
677.741	12758.9
678.09	12646.36
678.438	12658.11
678.787	12705.12
679.135	12721.84
679.484	12561.84
679.832	12617.66
680.181	12530.43
680.529	12579.92
680.877	12555.07
681.225	12529.98
681.573	12564.56
681.922	12462.19
682.27	12472.58
682.618	12526.82
682.966	12417.22
683.314	12471.45
683.661	12441.17
684.009	12391
684.357	12378.57
684.705	12368.86
685.053	12390.78
685.4	12353.49
685.748	12228.97
686.095	12288.18
686.443	12233.04
686.79	12260.61
687.138	12223.1
687.485	12142.87
687.832	12124.34
688.18	12193.27
688.527	12044.8
688.874	12040.95
689.221	12105.13
689.568	12047.96
689.915	11954.63
690.262	11992.37
690.609	12043.89
690.956	11928.64
691.303	11887.06
691.65	11885.03
691.997	11842.77
692.344	11842.09
692.69	11786.72
693.037	11746.95
693.383	11703.11
693.73	11658.59
694.077	11656.56
694.423	11687.52
694.769	11610.68
695.116	11601.42
695.462	11577.92
695.808	11541.53
696.155	11528.43
696.501	11469.44
696.847	11434.87
697.193	11438.94
697.539	11384.25
697.885	11285.95
698.231	11256.34
698.577	11252.95
698.923	11262.22
699.269	11261.09
699.614	11221.54
699.96	11152.16
700.306	11198.26
700.651	11143.35
700.997	11078.95
701.342	11022.9
701.688	11001.89
702.033	11028.78
702.379	10956.24
702.724	10908.78
703.069	11031.04
703.415	10798.95
703.76	10878.27
704.105	10846.41
704.45	10802.57
704.795	10734.32
705.14	10694.32
705.485	10641.9
705.83	10711.27
706.175	10673.08
706.52	10665.4
706.865	10637.38
707.209	10562.8
707.554	10512.18
707.899	10544.95
708.243	10559.41
708.588	10531.39
708.932	10433.77
709.277	10489.36
709.621	10451.39
709.966	10387.89
710.31	10477.61
710.654	10300.44
710.998	10358.74
711.342	10326.42
711.687	10353.99
712.031	10351.96
712.375	10243.71
712.719	10251.85
713.063	10229.7
713.407	10221.79
713.75	10195.13
714.094	10179.31
714.438	10145.64
714.782	10196.94
715.125	10091.63
715.469	10169.59
715.812	10094.57
716.156	10080.55
716.499	10041.46
716.843	10056.83
717.186	9969.14
717.53	10065.19
717.873	9996.71
718.216	9956.94
718.559	9932.31
718.902	9868.58
719.246	9861.8
719.589	9852.09
719.932	9755.82
720.275	9844.4
720.617	9805.76
720.96	9787.68
721.303	9736.16
721.646	9778.64
721.989	9739.77
722.331	9752.65
722.674	9731.41
723.016	9706.55
723.359	9708.59
723.701	9685.54
724.044	9629.04
724.386	9558.53
724.729	9634.46
725.071	9667.46
725.413	9530.29
725.755	9607.12
726.097	9535.26
726.439	9540.91
726.782	9541.36
727.124	9542.72
727.465	9460.46
727.807	9516.95
728.149	9513.79
728.491	9437.86
728.833	9462.27
729.175	9460.23
729.516	9437.18
729.858	9380.01
730.199	9415.26
730.541	9356.51
730.882	9392.21
731.224	9387.69
731.565	9283.29
731.906	9322.38
732.248	9248.26
732.589	9277.19
732.93	9254.36
733.271	9197.87
733.612	9230.86
733.953	9187.92
734.294	9196.51
734.635	9238.54
734.976	9214.81
735.317	9149.73
735.658	9196.74
735.999	9145.21
736.339	9125.78
736.68	9078.09
737.021	9103.86
737.361	9051.65
737.702	9161.26
738.042	9126.45
738.383	9062.5
738.723	9040.36
739.063	9035.38
739.404	9035.61
739.744	8967.82
740.084	8952
740.424	8974.59
740.764	8975.05
741.104	8968.27
741.444	8921.04
741.784	8928.72
742.124	8923.75
742.464	8895.05
742.804	8867.93
743.143	8873.81
743.483	8846.91
743.823	8845.56
744.162	8821.38
744.502	8777.99
744.841	8760.14
745.181	8839.68
745.52	8821.15
745.86	8790.42
746.199	8707.03
746.538	8719.23
746.877	8722.85
747.216	8759.01
747.556	8700.7
747.895	8752
748.234	8595.17
748.573	8613.25
748.911	8638.33
749.25	8603.98
749.589	8591.78
749.928	8608.95
750.267	8643.76
750.605	8570.99
750.944	8532.12
751.283	8551.1
751.621	8563.08
751.96	8500.48
752.298	8506.13
752.636	8487.83
752.975	8456.19
753.313	8387.72
753.651	8433.59
753.989	8400.15
754.327	8377.55
754.666	8292.8
755.004	8327.15
755.342	8302.97
755.679	8323.76
756.017	8235.63
756.355	8259.59
756.693	8270.88
757.031	8265.46
757.368	8188.85
757.706	8184.78
758.044	8153.6
758.381	8214.61
758.719	8135.07
759.056	8133.49
759.394	8127.84
759.731	8067.05
760.068	8031.79
760.405	8032.92
760.743	7942.08
761.08	8005.81
761.417	7964.68
761.754	7985.24
762.091	7893.94
762.428	7894.85
762.765	7847.17
763.102	7789.54
763.438	7745.25
763.775	7731.92
764.112	7801.52
764.449	7729.66
764.785	7747.96
765.122	7678.36
765.458	7618.7
765.795	7621.64
766.131	7630.68
766.467	7600.17
766.804	7600.39
767.14	7471.81
767.476	7507.29
767.812	7531.69
768.148	7522.43
768.485	7491.7
768.821	7430
769.157	7443.79
769.492	7397.69
769.828	7322.66
770.164	7339.38
770.5	7290.8
770.836	7341.42
771.171	7283.57
771.507	7270.68
771.842	7222.78
772.178	7203.79
772.513	7212.83
772.849	7152.72
773.184	7104.36
773.519	7169.9
773.855	7046.74
774.19	7086.96
774.525	7055.1
774.86	7064.59
775.195	7045.83
775.53	6983.46
775.865	6920.41
776.2	6916.12
776.535	6889.45
776.87	6842
777.205	6807.42
777.539	6798.61
777.874	6774.43
778.209	6754.54
778.543	6745.95
778.878	6707.99
779.212	6695.33
779.547	6691.72
779.881	6679.29
780.215	6625.96
780.55	6666.63
780.884	6632.28
781.218	6573.3
781.552	6568.33
781.886	6536.47
782.22	6495.11
782.554	6504.38
782.888	6411.05
783.222	6397.26
783.556	6360.65
783.889	6385.06
784.223	6293.08
784.557	6315.68
784.89	6299.18
785.224	6278.17
785.557	6219.19
785.891	6231.16
786.224	6204.27
786.558	6221.45
786.891	6220.09
787.224	6130.83
787.557	6153.88
787.891	6098.74
788.224	6121.11
788.557	6133.54
788.89	6109.59
789.223	6073.2
789.556	6050.15
789.888	6009.7
790.221	6011.96
790.554	5963.15
790.887	5927.67
791.219	5938.74
791.552	5899.87
791.884	5898.52
792.217	5835.92
792.549	5818.75
792.882	5813.1
793.214	5752.98
793.546	5751.18
793.879	5735.58
794.211	5783.27
794.543	5757.5
794.875	5686.55
795.207	5737.17
795.539	5667.11
795.871	5712.99
796.203	5623.04
796.535	5611.75
796.867	5606.55
797.198	5570.62
797.53	5622.82
797.862	5542.37
798.193	5525.65
798.525	5542.59
798.856	5543.05
799.188	5473.22
799.519	5433.9
799.85	5410.85
800.182	5433.67
800.513	5433.9
800.844	5386.44
801.175	5459.21
801.506	5412.88
801.837	5373.56
802.168	5370.17
802.499	5392.54
802.83	5322.94
803.161	5278.87
803.491	5270.29
803.822	5256.73
804.153	5273.9
804.483	5222.15
804.814	5253.56
805.145	5192.32
805.475	5259.89
805.805	5188.93
806.136	5180.8
806.466	5133.11
806.796	5172.21
807.126	5164.98
807.457	5166.79
807.787	5109.61
808.117	5137.63
808.447	5098.99
808.777	5066.45
809.107	5086.34
809.436	5035.04
809.766	5043.17
810.096	5036.84
810.426	5024.19
810.755	4998.2
811.085	4979.67
811.414	4986.68
811.744	4933.57
812.073	4922.05
812.403	4921.37
812.732	4892.44
813.061	4899.45
813.39	4884.76
813.719	4833.23
814.049	4890.86
814.378	4878.21
814.707	4807.92
815.036	4840.01
815.365	4871.65
815.693	4791.88
816.022	4809.28
816.351	4800.24
816.68	4771.77
817.008	4744.65
817.337	4750.07
817.665	4701.49
817.994	4741.94
818.322	4724.76
818.651	4720.92
818.979	4672.11
819.307	4731.09
819.636	4695.84
819.964	4617.42
820.292	4676.63
820.62	4680.24
820.948	4653.58
821.276	4665.78
821.604	4645.67
821.932	4661.26
822.259	4653.8
822.587	4647.02
822.915	4607.7
823.243	4674.82
823.57	4651.32
823.898	4604.54
824.225	4624.2
824.553	4657.19
824.88	4573.35
825.207	4695.61
825.535	4683.41
825.862	4604.77
826.189	4647.93
826.516	4640.47
826.843	4670.07
827.17	4662.62
827.497	4597.31
827.824	4627.59
828.151	4622.84
828.478	4584.88
828.805	4640.25
829.131	4620.58
829.458	4616.29
829.785	4587.59
830.111	4611.32
830.438	4607.7
830.764	4586.01
831.09	4615.61
831.417	4592.11
831.743	4582.62
832.069	4659
832.395	4614.26
832.722	4623.75
833.048	4608.61
833.374	4591.88
833.7	4579.91
834.026	4561.6
834.351	4571.55
834.677	4555.28
835.003	4593.92
835.329	4546.91
835.654	4570.64
835.98	4571.77
836.306	4539.23
836.631	4487.03
836.956	4568.38
837.282	4514.15
837.607	4541.04
837.932	4525.45
838.258	4520.93
838.583	4534.03
838.908	4467.59
839.233	4550.98
839.558	4483.19
839.883	4463.3
840.208	4475.73
840.533	4443.64
840.858	4452.45
841.182	4464.66
841.507	4435.28
841.832	4454.49
842.156	4398.44
842.481	4450.42
842.805	4404.55
843.13	4457.88
843.454	4403.64
843.778	4368.39
844.103	4357.77
844.427	4365.45
844.751	4340.59
845.075	4370.2
845.399	4331.33
845.723	4317.54
846.047	4309.18
846.371	4276.41
846.695	4257.88
847.019	4252.01
847.343	4267.83
847.666	4223.53
847.99	4213.82
848.313	4173.36
848.637	4150.31
848.96	4165.23
849.284	4151.67
849.607	4146.7
849.931	4096.98
850.254	4032.8
850.577	4085.68
850.9	4029.41
851.223	4075.29
851.546	4052.69
851.869	4027.38
852.192	4012.01
852.515	3925.24
852.838	3966.59
853.161	3954.84
853.483	3913.94
853.806	3925.01
854.129	3922.52
854.451	3915.52
854.774	3882.53
855.096	3854.73
855.419	3871.68
855.741	3896.99
856.063	3851.57
856.385	3825.13
856.708	3870.77
857.03	3819.25
857.352	3847.72
857.674	3776.31
857.996	3834.84
858.318	3779.02
858.64	3783.09
858.961	3762.08
859.283	3746.48
859.605	3735.64
859.926	3709.65
860.248	3748.07
860.57	3699.93
860.891	3722.53
861.212	3700.16
861.534	3678.91
861.855	3707.16
862.176	3712.59
862.498	3702.19
862.819	3707.16
863.14	3636.2
863.461	3624
863.782	3664.23
864.103	3642.76
864.424	3694.51
864.745	3637.56
865.065	3602.08
865.386	3621.74
865.707	3625.36
866.027	3614.96
866.348	3585.13
866.668	3632.14
866.989	3584.68
867.309	3611.57
867.63	3592.36
867.95	3563.21
868.27	3575.19
868.59	3557.34
868.91	3571.57
869.23	3566.38
869.55	3535.64
869.87	3536.32
870.19	3496.55
870.51	3544.45
870.83	3540.84
871.15	3498.13
871.469	3520.5
871.789	3548.07
872.109	3513.72
872.428	3464
872.748	3497
873.067	3500.84
873.386	3516.43
873.706	3493.83
874.025	3474.4
874.344	3455.64
874.663	3441.41
874.982	3442.54
875.301	3465.59
875.62	3453.38
875.939	3428.07
876.258	3435.76
876.577	3433.27
876.896	3405.25
877.214	3428.53
877.533	3426.27
877.852	3435.08
878.17	3413.61
878.489	3406.15
878.807	3455.42
879.125	3398.24
879.444	3418.81
879.762	3413.84
880.08	3347.17
880.398	3349.21
880.716	3384.46
881.034	3330
881.352	3347.17
881.67	3359.15
881.988	3337.68
882.306	3311.24
882.624	3322.31
882.941	3325.7
883.259	3302.65
883.577	3281.18
883.894	3300.17
884.212	3331.58
884.529	3305.59
884.846	3280.96
885.164	3277.8
885.481	3247.29
885.798	3262.88
886.115	3278.25
886.432	3282.31
886.75	3243.9
887.067	3241.64
887.383	3206.38
887.7	3187.4
888.017	3198.7
888.334	3190.34
888.651	3208.64
888.967	3201.41
889.284	3202.54
889.6	3192.6
889.917	3136.1
890.233	3176.55
890.55	3135.88
890.866	3160.51
891.182	3139.49
891.498	3130.91
891.815	3083.22
892.131	3097.46
892.447	3051.36
892.763	3130
893.079	3054.98
893.395	3039.38
893.71	3078.93
894.026	3049.1
894.342	3021.98
894.657	3032.38
894.973	3032.38
895.289	3033.06
895.604	3031.93
895.92	3002.1
896.235	2954.64
896.55	2977.92
896.865	2934.98
897.181	3001.87
897.496	2976.56
897.811	2971.81
898.126	2954.19
898.441	2942.89
898.756	2910.8
899.071	2928.43
899.386	2887.3
899.7	2861.76
900.015	2908.09
900.33	2824.7
900.644	2841.2
900.959	2843.91
901.273	2819.73
901.588	2834.42
901.902	2856.56
902.216	2834.64
902.531	2784.7
902.845	2791.48
903.159	2815.66
903.473	2790.8
903.787	2797.58
904.101	2746.96
904.415	2761.2
904.729	2770.92
905.042	2711.26
905.356	2699.96
905.67	2737.7
905.984	2728.66
906.297	2738.6
906.611	2675.1
906.924	2665.83
907.237	2671.94
907.551	2685.49
907.864	2676.68
908.177	2653.18
908.491	2645.95
908.804	2646.85
909.117	2584.93
909.43	2621.54
909.743	2583.12
910.056	2609.79
910.368	2572.5
910.681	2555.33
910.994	2575.44
911.307	2539.96
911.619	2570.02
911.932	2544.26
912.244	2526.85
912.557	2509.23
912.869	2481.21
913.181	2489.34
913.494	2511.04
913.806	2513.97
914.118	2474.43
914.43	2479.62
914.742	2472.84
915.054	2478.04
915.366	2431.04
915.678	2466.07
915.99	2444.82
916.302	2388.33
916.613	2386.07
916.925	2413.19
917.236	2426.07
917.548	2389
917.859	2388.78
918.171	2355.33
918.482	2358.72
918.794	2329.57
919.105	2318.72
919.416	2326.18
919.727	2321.21
920.038	2314.66
920.349	2284.83
920.66	2280.53
920.971	2301.55
921.282	2285.96
921.593	2246.86
921.903	2262.23
922.214	2250.25
922.525	2244.15
922.835	2216.81
923.146	2230.82
923.456	2247.31
923.767	2210.7
924.077	2184.72
924.387	2185.17
924.697	2168.22
925.008	2193.3
925.318	2177.26
925.628	2144.27
925.938	2199.41
926.248	2122.12
926.558	2120.99
926.867	2148.33
927.177	2125.96
927.487	2102.23
927.796	2072.86
928.106	2109.69
928.416	2075.34
928.725	2067.88
929.034	2036.25
929.344	2055.23
929.653	2073.53
929.962	2025.4
930.271	2022.69
930.581	2012.52
930.89	2044.38
931.199	2013.87
931.508	2033.53
931.817	2008.22
932.125	2000.31
932.434	1959.41
932.743	1990.82
933.051	1959.41
933.36	1956.47
933.669	1944.5
933.977	1937.94
934.286	1946.08
934.594	1948.11
934.902	1908.34
935.21	1935.23
935.519	1882.13
935.827	1911.73
936.135	1942.46
936.443	1895.01
936.751	1874.89
937.059	1901.11
937.367	1858.17
937.674	1875.8
937.982	1871.05
938.29	1856.59
938.597	1864.05
938.905	1804.39
939.213	1824.27
939.52	1791.05
939.827	1819.98
940.135	1827.21
940.442	1806.87
940.749	1807.78
941.056	1816.14
941.363	1817.04
941.67	1779.76
941.977	1790.38
942.284	1756.48
942.591	1756.71
942.898	1722.13
943.205	1765.29
943.511	1728.23
943.818	1710.6
944.125	1714.22
944.431	1715.35
944.738	1730.49
945.044	1731.4
945.35	1695.46
945.657	1677.16
945.963	1691.17
946.269	1652.3
946.575	1663.6
946.881	1702.92
947.187	1677.39
947.493	1656.14
947.799	1640.1
948.105	1632.41
948.41	1666.54
948.716	1644.39
949.022	1664.73
949.327	1615.01
949.633	1613.21
949.938	1616.6
950.244	1629.93
950.549	1589.93
950.854	1596.94
951.16	1587.67
951.465	1586.99
951.77	1558.07
952.075	1589.25
952.38	1554.45
952.685	1578.86
952.99	1557.39
953.294	1547.67
953.599	1552.19
953.904	1527.56
954.209	1534.34
954.513	1539.08
954.818	1531.17
955.122	1530.04
955.426	1508.12
955.731	1495.02
956.035	1499.31
956.339	1506.99
956.643	1503.15
956.948	1476.26
957.252	1472.87
957.556	1494.11
957.86	1493.66
958.163	1476.94
958.467	1475.81
958.771	1414.12
959.075	1461.8
959.378	1440.56
959.682	1427.67
959.985	1418.86
960.289	1418.86
960.592	1431.52
960.896	1450.27
961.199	1383.16
961.502	1411.63
961.805	1385.19
962.108	1424.96
962.411	1385.87
962.714	1394
963.017	1396.49
963.32	1369.14
963.623	1344.29
963.926	1378.41
964.228	1348.35
964.531	1334.12
964.833	1345.64
965.136	1352.2
965.438	1332.54
965.741	1342.25
966.043	1325.76
966.345	1331.63
966.648	1323.95
966.95	1353.33
967.252	1298.86
967.554	1311.97
967.856	1328.02
968.158	1283.72
968.46	1306.77
968.761	1283.05
969.063	1284.18
969.365	1276.72
969.666	1267.9
969.968	1257.06
970.269	1287.34
970.571	1259.77
970.872	1244.4
971.174	1274.46
971.475	1235.14
971.776	1250.05
972.077	1235.59
972.378	1235.14
972.679	1200.34
972.98	1214.57
973.281	1230.62
973.582	1233.56
973.883	1222.03
974.183	1224.29
974.484	1211.41
974.785	1194.46
975.085	1198.53
975.386	1193.56
975.686	1201.01
975.986	1178.19
976.287	1186.32
976.587	1184.29
976.887	1141.13
977.187	1187.45
977.487	1183.39
977.787	1153.78
978.087	1160.56
978.387	1147.91
978.687	1165.31
978.987	1153.11
979.286	1136.38
979.586	1146.55
979.885	1147.68
980.185	1128.93
980.484	1121.24
980.784	1110.17
981.083	1106.55
981.382	1134.12
981.682	1119.21
981.981	1096.84
982.28	1105.87
982.579	1101.13
982.878	1081.69
983.177	1084.41
983.475	1099.32
983.774	1087.34
984.073	1079.43
984.372	1078.98
984.67	1081.02
984.969	1076.05
985.267	1069.27
985.566	1076.5
985.864	1039.89
986.162	1076.05
986.461	1060.45
986.759	1028.59
987.057	1050.06
987.355	1040.57
987.653	1032.66
987.951	1043.05
988.249	1017.06
988.547	1015.03
988.844	1037.63
989.142	1020.23
989.44	1027.23
989.737	1006.89
990.035	986.33
990.332	993.34
990.63	982.71
990.927	962.83
991.224	1000.34
991.521	996.5
991.819	990.17
992.116	959.66
992.413	977.29
992.71	977.29
993.006	964.41
993.303	938.87
993.6	978.87
993.897	957.4
994.193	964.18
994.49	950.85
994.787	988.14
995.083	956.5
995.379	928.48
995.676	937.07
995.972	941.13
996.268	922.6
996.565	918.08
996.861	919.89
997.157	896.16
997.453	897.29
997.749	908.82
998.044	915.6
998.34	917.86
998.636	913.11
998.932	884.41
999.227	897.97
999.523	893.9
999.818	890.51
1000.114	906.56
1000.409	899.33
1000.704	879.67
1001	888.25
1001.295	886.9
1001.59	867.01
1001.885	830.18
1002.18	831.31
1002.475	872.43
1002.77	883.73
1003.065	848.03
1003.359	828.59
1003.654	845.54
1003.949	853
1004.243	840.12
1004.538	847.58
1004.832	827.92
1005.127	807.58
1005.421	839.89
1005.715	836.73
1006.009	804.41
1006.304	818.88
1006.598	810.97
1006.892	815.04
1007.186	785.66
1007.48	804.87
1007.773	795.83
1008.067	811.87
1008.361	781.36
1008.655	797.41
1008.948	791.98
1009.242	784.08
1009.535	778.43
1009.829	775.71
1010.122	772.32
1010.415	787.47
1010.708	745.66
1011.001	752.89
1011.295	754.7
1011.588	759.9
1011.881	744.98
1012.173	745.21
1012.466	758.54
1012.759	741.59
1013.052	749.5
1013.344	744.75
1013.637	727.58
1013.93	734.81
1014.222	728.03
1014.514	716.05
1014.807	730.52
1015.099	718.99
1015.391	709.28
1015.683	713.79
1015.976	707.47
1016.268	718.77
1016.56	715.15
1016.851	709.28
1017.143	733
1017.435	701.14
1017.727	688.71
1018.018	712.21
1018.31	665.21
1018.602	699.78
1018.893	678.09
1019.185	680.12
1019.476	670.18
1019.767	670.18
1020.058	669.95
1020.35	667.02
1020.641	665.89
1020.932	660.24
1021.223	653.46
1021.514	646.9
1021.804	657.75
1022.095	637.41
1022.386	654.81
1022.677	637.41
1022.967	633.8
1023.258	625.66
1023.548	638.99
1023.839	633.8
1024.129	634.93
1024.419	629.73
1024.709	611.42
1025	643.06
1025.29	644.42
1025.58	659.56
1025.87	618.66
1026.16	619.11
1026.449	621.37
1026.739	618.43
1027.029	601.48
1027.319	606.45
1027.608	613.01
1027.898	614.81
1028.187	599.22
1028.477	610.97
1028.766	603.29
1029.055	573.23
1029.344	584.08
1029.634	562.61
1029.923	551.31
1030.212	583.63
1030.501	572.1
1030.79	588.83
1031.078	573.91
1031.367	561.03
1031.656	559.9
1031.945	564.42
1032.233	571.43
1032.522	559.22
1032.81	571.2
1033.099	551.77
1033.387	555.15
1033.675	559.67
1033.963	532.1
1034.251	553.57
1034.54	546.12
1034.828	553.12
1035.116	559
1035.403	552.22
1035.691	525.55
1035.979	521.71
1036.267	537.75
1036.554	544.76
1036.842	521.26
1037.129	544.31
1037.417	512.44
1037.704	521.03
1037.992	509.51
1038.279	519.45
1038.566	500.47
1038.853	500.47
1039.14	500.47
