Data from black_metal_pc_casing_FLMS001491_00095.txt Node
Date: Wed Feb 08 14:33:48 GMT 2017
User: dcchb
Spectrometer: FLMS00149
Trigger mode: 0
Integration Time (sec): 2.000000E-2
Scans to average: 10
Electric dark correction enabled: true
Nonlinearity correction enabled: false
Boxcar width: 0
XAxis mode: Wavelengths
Number of Pixels in Spectrum: 2048
>>>>>Begin Spectral Data<<<<<
341.393	-30.23
341.776	-30.23
342.16	-30.23
342.543	-42.65
342.927	-62.54
343.31	-80.39
343.693	-75.42
344.077	-67.29
344.46	-52.6
344.843	-67.29
345.226	-50.79
345.61	-6.27
345.993	-16.44
346.376	14.97
346.759	25.14
347.142	38.93
347.525	39.15
347.908	53.39
348.291	69.43
348.674	88.42
349.057	87.06
349.44	113.73
349.823	146.49
350.206	155.53
350.588	198.24
350.971	182.65
351.354	213.38
351.737	238.69
352.119	244.57
352.502	263.1
352.884	276.66
353.267	280.5
353.65	266.26
354.032	305.13
354.414	302.87
354.797	322.31
355.179	318.24
355.562	312.82
355.944	334.06
356.326	336.32
356.709	318.24
357.091	306.26
357.473	339.03
357.855	327.51
358.238	336.77
358.62	359.82
359.002	352.36
359.384	348.3
359.766	333.38
360.148	341.74
360.53	337.45
360.912	331.12
361.294	324.34
361.676	331.35
362.057	315.75
362.439	328.41
362.821	299.26
363.203	336.54
363.584	344.23
363.966	329.31
364.348	323.89
364.729	326.15
365.111	324.34
365.493	313.72
365.874	297.22
366.256	320.5
366.637	320.95
367.019	306.26
367.4	313.95
367.781	338.58
368.163	297
368.544	317.79
368.925	308.52
369.306	314.4
369.688	307.85
370.069	317.34
370.45	314.4
370.831	315.75
371.212	316.21
371.593	300.39
371.974	335.64
372.355	321.86
372.736	304.46
373.117	322.08
373.498	323.44
373.879	318.69
374.26	310.33
374.641	308.3
375.021	317.11
375.402	346.49
375.783	346.26
376.163	346.94
376.544	351.23
376.925	336.77
377.305	318.24
377.686	333.61
378.066	351.91
378.447	349.43
378.827	337.45
379.208	349.43
379.588	333.61
379.968	345.58
380.349	350.56
380.729	370.22
381.109	354.17
381.489	332.03
381.87	335.41
382.25	372.02
382.63	349.2
383.01	344.45
383.39	341.74
383.77	372.7
384.15	340.16
384.53	374.06
384.91	361.18
385.29	373.15
385.67	360.27
386.049	354.62
386.429	367.05
386.809	381.29
387.189	372.48
387.568	366.6
387.948	363.66
388.328	387.16
388.707	385.58
389.087	378.13
389.466	372.25
389.846	396.66
390.225	390.33
390.605	372.02
390.984	388.97
391.363	386.71
391.743	417.45
392.122	401.63
392.501	400.95
392.881	435.3
393.26	399.14
393.639	398.46
394.018	400.95
394.397	421.74
394.776	413.6
395.155	420.38
395.534	432.59
395.913	439.59
396.292	429.2
396.671	439.82
397.05	445.02
397.429	447.28
397.808	471.68
398.186	453.38
398.565	445.02
398.944	441.17
399.323	454.96
399.701	438.24
400.08	447.5
400.458	467.16
400.837	447.05
401.215	463.32
401.594	471
401.972	452.93
402.351	466.26
402.729	470.78
403.107	460.16
403.486	464.9
403.864	486.15
404.242	478.69
404.62	496.77
404.999	481.63
405.377	487.95
405.755	488.86
406.133	504.9
406.511	504.45
406.889	487.95
407.267	508.07
407.645	515.3
408.023	536.77
408.401	511.46
408.779	526.82
409.156	529.31
409.534	541.29
409.912	556.88
410.29	525.47
410.667	538.8
411.045	555.07
411.422	567.05
411.8	558.91
412.178	569.76
412.555	565.24
412.933	568.18
413.31	580.61
413.687	586.71
414.065	600.72
414.442	598.46
414.819	609.76
415.197	615.86
415.574	629.87
415.951	617.67
416.328	611.79
416.705	630.55
417.082	626.48
417.46	650.89
417.837	656.54
418.214	661.73
418.591	673.94
418.967	645.01
419.344	659.7
419.721	666.03
420.098	664.45
420.475	687.5
420.852	659.25
421.228	700.6
421.605	649.3
421.982	676.2
422.358	710.77
422.735	709.64
423.111	713.94
423.488	715.07
423.864	722.3
424.241	753.93
424.617	726.14
424.994	712.81
425.37	768.85
425.746	745.35
426.123	708.29
426.499	732.92
426.875	765.46
427.251	779.25
427.627	785.12
428.003	795.97
428.379	800.71
428.756	803.2
429.132	829.64
429.507	808.85
429.883	812.24
430.259	833.93
430.635	819.47
431.011	858.34
431.387	841.62
431.763	872.35
432.138	860.37
432.514	909.41
432.89	903.54
433.265	896.53
433.641	925.91
434.016	925.68
434.392	948.51
434.767	957.32
435.143	919.81
435.518	971.1
435.894	930.2
436.269	974.95
436.644	975.4
437.02	958.9
437.395	991.67
437.77	1013.14
438.145	1015.85
438.52	1018.33
438.895	1026.02
439.271	1047.03
439.646	1057.43
440.021	1054.27
440.395	1065.34
440.77	1073.25
441.145	1080.93
441.52	1105.34
441.895	1094.27
442.27	1098.56
442.645	1132.46
443.019	1103.76
443.394	1094.49
443.769	1115.73
444.143	1130.2
444.518	1146.02
444.892	1145.79
445.267	1162.51
445.641	1150.99
446.016	1174.71
446.39	1174.04
446.764	1180.36
447.139	1206.8
447.513	1180.36
447.887	1206.8
448.262	1197.31
448.636	1231.21
449.01	1212.45
449.384	1209.29
449.758	1205.45
450.132	1256.52
450.506	1231.44
450.88	1270.76
451.254	1240.48
451.628	1298.78
452.002	1287.03
452.376	1308.04
452.75	1305.56
453.123	1322.06
453.497	1335.16
453.871	1328.16
454.244	1360.7
454.618	1370.87
454.992	1377.42
455.365	1404.99
455.739	1450.64
456.112	1468.94
456.486	1470.53
456.859	1471.2
457.232	1469.4
457.606	1490.19
457.979	1549.62
458.352	1538.1
458.725	1539.68
459.099	1554.82
459.472	1597.3
459.845	1620.58
460.218	1609.73
460.591	1603.18
460.964	1624.19
461.337	1683.18
461.71	1679.33
462.083	1694.7
462.456	1718.88
462.829	1743.06
463.201	1754.36
463.574	1762.04
463.947	1780.35
464.32	1798.88
464.692	1819.9
465.065	1821.03
465.438	1865.54
465.81	1896.05
466.183	1887.01
466.555	1926.56
466.928	1960.23
467.3	1952.55
467.672	1976.28
468.045	2026.44
468.417	2018.08
468.789	2009.27
469.161	2059.89
469.534	2112.09
469.906	2154.58
470.278	2171.52
470.65	2152.54
471.022	2241.58
471.394	2267.79
471.766	2264.86
472.138	2336.27
472.51	2328.13
472.882	2356.38
473.253	2390.28
473.625	2439.31
473.997	2476.83
474.369	2508.69
474.74	2508.69
475.112	2540.78
475.484	2625.3
475.855	2641.12
476.227	2640.89
476.598	2715.69
476.97	2733.77
477.341	2759.98
477.713	2818.74
478.084	2825.74
478.455	2905.06
478.827	2932.86
479.198	3039.52
479.569	3031.62
479.94	3119.52
480.311	3158.84
480.682	3205.4
481.053	3201.33
481.424	3309.8
481.795	3328.1
482.166	3376.24
482.537	3437.93
482.908	3523.58
483.279	3535.78
483.65	3596.12
484.021	3644.93
484.391	3705.72
484.762	3727.64
485.133	3790.92
485.503	3817.36
485.874	3905.72
486.244	3885.15
486.615	4002.89
486.985	4058.25
487.356	4117.24
487.726	4161.08
488.097	4207.18
488.467	4219.38
488.837	4339.38
489.207	4338.25
489.578	4438.58
489.948	4476.77
490.318	4548.86
490.688	4504.8
491.058	4636.77
491.428	4695.3
491.798	4701.63
492.168	4815.3
492.538	4743.21
492.908	4854.39
493.278	4855.3
493.648	4917.67
494.017	5040.15
494.387	5031.34
494.757	5086.48
495.126	5161.95
495.496	5193.59
495.866	5196.08
496.235	5301.61
496.605	5262.97
496.974	5318.79
497.344	5412.57
497.713	5443.76
498.082	5473.13
498.452	5503.87
498.821	5549.29
499.19	5564.88
499.559	5617.31
499.928	5668.16
500.298	5680.13
500.667	5674.71
501.036	5749.74
501.405	5833.12
501.774	5836.51
502.143	5855.95
502.512	5881.03
502.88	5980.01
503.249	5939.79
503.618	6009.16
503.987	6024.3
504.356	6140.69
504.724	6125.55
505.093	6163.51
505.462	6202.38
505.83	6167.35
506.199	6285.99
506.567	6349.95
506.936	6367.8
507.304	6407.8
507.672	6453.9
508.041	6507.23
508.409	6542.48
508.777	6540.22
509.145	6713.1
509.514	6689.15
509.882	6718.75
510.25	6779.31
510.618	6814.11
510.986	6831.52
511.354	6835.58
511.722	6977.95
512.09	7023.37
512.458	6949.48
512.826	7045.29
513.193	7056.82
513.561	7137.5
513.929	7198.51
514.297	7309.47
514.664	7316.47
515.032	7349.47
515.4	7405.96
515.767	7522.8
516.135	7484.61
516.502	7453.65
516.869	7694.54
517.237	7642.79
517.604	7651.38
517.972	7739.29
518.339	7869.68
518.706	7806.4
519.073	7885.5
519.44	7957.36
519.808	8034.65
520.175	8026.96
520.542	8144.25
520.909	8148.77
521.276	8195.32
521.643	8308.31
522.009	8348.99
522.376	8400.97
522.743	8472.83
523.11	8560.51
523.477	8613.16
523.843	8693.16
524.21	8702.43
524.577	8787.62
524.943	8846.15
525.31	8951.46
525.676	9029.42
526.043	9096.09
526.409	9184.22
526.776	9234.84
527.142	9264.9
527.508	9319.81
527.874	9358.68
528.241	9434.16
528.607	9500.82
528.973	9540.14
529.339	9538.79
529.705	9677.77
530.071	9781.27
530.437	9771.78
530.803	9868.95
531.169	9890.19
531.535	9932
531.901	9910.3
532.267	10011.32
532.632	10079.11
532.998	10075.72
533.364	10208.83
533.73	10221.93
534.095	10282.95
534.461	10350.74
534.826	10366.34
535.192	10459.44
535.557	10528.82
535.923	10485.88
536.288	10503.28
536.653	10615.82
537.019	10626.22
537.384	10635.26
537.749	10673.22
538.114	10757.74
538.479	10661.47
538.845	10799.55
539.21	10838.42
539.575	10866.21
539.94	10949.83
540.305	11016.94
540.67	11061.46
541.034	11056.71
541.399	11091.97
541.764	11114.11
542.129	11145.07
542.494	11179.2
542.858	11253.55
543.223	11257.16
543.587	11305.3
543.952	11301.91
544.316	11335.13
544.681	11448.34
545.045	11442.02
545.41	11552.52
545.774	11589.58
546.138	11486.99
546.503	11631.16
546.867	11670.26
547.231	11749.8
547.595	11747.32
547.959	11790.03
548.324	11784.83
548.688	11862.12
549.052	11811.27
549.416	11882.91
549.779	11878.61
550.143	11926.52
550.507	12154.54
550.871	12105.05
551.235	12109.34
551.599	12190.7
551.962	12168.1
552.326	12221.66
552.689	12387.53
553.053	12314.99
553.417	12386.4
553.78	12499.16
554.143	12553.85
554.507	12559.95
554.87	12635.66
555.234	12701.64
555.597	12666.16
555.96	12696.45
556.323	12789.78
556.686	12732.6
557.05	12934.63
557.413	12883.56
557.776	12975.08
558.139	13048.98
558.502	13112.25
558.865	13124.91
559.228	13224.57
559.59	13312.02
559.953	13319.48
560.316	13415.75
560.679	13458.69
561.041	13488.74
561.404	13580.26
561.767	13710.2
562.129	13668.85
562.492	13867.04
562.854	13825.91
563.217	13821.84
563.579	13853.48
563.941	13990.2
564.304	14024.77
564.666	14106.13
565.028	14197.42
565.39	14158.78
565.753	14328.72
566.115	14390.86
566.477	14424.76
566.839	14491.43
567.201	14548.83
567.563	14622.27
567.925	14641.48
568.287	14640.35
568.648	14609.39
569.01	14770.74
569.372	14888.48
569.734	14885.99
570.095	14948.82
570.457	14943.84
570.819	15093.22
571.18	14992.66
571.542	15177.28
571.903	15172.09
572.265	15236.04
572.626	15290.28
572.987	15310.39
573.349	15296.38
573.71	15390.84
574.071	15438.97
574.432	15462.25
574.794	15644.16
575.155	15642.13
575.516	15527.56
575.877	15603.94
576.238	15605.97
576.599	15723.03
576.96	15781.11
577.32	15795.12
577.681	15756.7
578.042	15870.15
578.403	15801.22
578.763	15833.31
579.124	15900.43
579.485	15921.45
579.845	16000.99
580.206	15868.57
580.566	16016.13
580.927	16062.68
581.287	16078.73
581.648	16035.34
582.008	16133.42
582.368	16044.61
582.728	16090.03
583.089	16065.17
583.449	16098.16
583.809	16051.39
584.169	16189.24
584.529	16057.04
584.889	16164.38
585.249	16113.08
585.609	16049.8
585.969	16198.27
586.329	16132.06
586.688	16183.59
587.048	16197.37
587.408	16161.21
587.768	16105.17
588.127	16127.99
588.487	16113.08
588.846	16151.95
589.206	16194.21
589.565	16137.94
589.925	16281.66
590.284	16208.44
590.643	16257.03
591.003	16190.59
591.362	16313.3
591.721	16289.35
592.08	16261.32
592.44	16311.72
592.799	16244.38
593.158	16320.53
593.517	16308.1
593.876	16247.99
594.235	16299.06
594.593	16241.21
594.952	16306.75
595.311	16276.69
595.67	16297.93
596.029	16434.88
596.387	16424.94
596.746	16399.63
597.104	16318.72
597.463	16334.77
597.822	16466.74
598.18	16405.5
598.538	16420.42
598.897	16484.59
599.255	16325.28
599.613	16629.22
599.972	16546.51
600.33	16513.52
600.688	16535.21
601.046	16506.06
601.404	16563.46
601.762	16535.89
602.12	16622.44
602.478	16568.89
602.836	16724.81
603.194	16497.25
603.552	16611.15
603.91	16654.53
604.268	16740.18
604.625	16620.86
604.983	16720.75
605.341	16631.94
605.698	16725.49
606.056	16740.18
606.413	16693.4
606.771	16789.22
607.128	16811.82
607.485	16679.17
607.843	16759.62
608.2	16761.65
608.557	16770.01
608.914	16777.02
609.272	16871.48
609.629	16965.49
609.986	17041.42
610.343	16906.5
610.7	17137.01
611.057	17040.74
611.414	17054.52
611.771	17014.3
612.127	17078.48
612.484	17017.91
612.841	17073.96
613.198	17119.15
613.554	17051.81
613.911	17184.92
614.267	17152.83
614.624	17235.99
614.98	17140.85
615.337	17201.41
615.693	17171.13
616.05	17178.59
616.406	17309.21
616.762	17243.9
617.118	17256.33
617.475	17284.12
617.831	17383.78
618.187	17374.97
618.543	17385.36
618.899	17401.63
619.255	17366.83
619.611	17315.31
619.967	17337.45
620.323	17541.52
620.678	17407.28
621.034	17316.89
621.39	17447.06
621.746	17365.93
622.101	17555.3
622.457	17385.36
622.812	17344.69
623.168	17544.45
623.523	17518.69
623.879	17616.32
624.234	17433.27
624.589	17460.61
624.945	17514.85
625.3	17548.07
625.655	17506.49
626.01	17598.69
626.365	17536.09
626.72	17492.48
627.075	17485.92
627.43	17494.96
627.785	17433.5
628.14	17529.09
628.495	17488.41
628.85	17439.6
629.205	17380.16
629.559	17519.6
629.914	17340.62
630.269	17457.68
630.623	17385.59
630.978	17327.28
631.332	17445.25
631.687	17485.02
632.041	17391.92
632.396	17312.6
632.75	17268.75
633.104	17232.82
633.459	17097.91
633.813	17255.65
634.167	17214.97
634.521	17250
634.875	17198.25
635.229	17275.76
635.583	17078.03
635.937	17101.98
636.291	17143.11
636.645	17133.62
636.999	17121.87
637.352	17107.63
637.706	17044.35
638.06	17094.3
638.413	17054.98
638.767	16994.86
639.121	17062.21
639.474	16919.61
639.828	16851.36
640.181	16910.8
640.534	16860.63
640.888	16931.81
641.241	16840.52
641.594	16857.24
641.947	16937.46
642.301	16835.77
642.654	16859.95
643.007	16910.8
643.36	16848.43
643.713	16712.61
644.066	16828.99
644.419	16710.35
644.771	16607.76
645.124	16404.14
645.477	16432.62
645.83	16289.57
646.182	16146.98
646.535	16063.36
646.888	16196.01
647.24	16052.52
647.593	16204.83
647.945	16133.19
648.298	16081.44
648.65	16116.47
649.002	16000.99
649.355	16096.36
649.707	15994.21
650.059	16185.85
650.411	16236.24
650.763	16276.01
651.115	16456.8
651.467	16452.73
651.819	16308.1
652.171	16366.63
652.523	16445.5
652.875	16352.85
653.227	16284.83
653.578	16374.09
653.93	16290.02
654.282	16240.76
654.633	16088
654.985	16145.39
655.337	16229.46
655.688	16211.38
656.039	16266.52
656.391	16095
656.742	16199.86
657.094	16149.01
657.445	16243.7
657.796	16178.39
658.147	16152.4
658.498	16214.77
658.849	16186.3
659.2	16167.99
659.551	16080.76
659.902	16128.9
660.253	16114.66
660.604	16162.57
660.955	16008.45
661.306	16050.93
661.656	16099.75
662.007	16033.99
662.358	16012.97
662.708	15973.65
663.059	16013.87
663.409	15898.17
663.76	16039.63
664.11	16024.04
664.461	16000.09
664.811	16018.84
665.161	15960.54
665.511	15881.22
665.862	15912.41
666.212	15868.79
666.562	16057.49
666.912	15974.33
667.262	15955.34
667.612	15873.76
667.962	15918.96
668.312	15883.25
668.662	15931.39
669.011	15947.43
669.361	15853.42
669.711	15904.27
670.06	15778.85
670.41	15774.33
670.76	15922.8
671.109	15910.82
671.459	15890.94
671.808	15831.5
672.157	15841.9
672.507	15730.49
672.856	15745.63
673.205	15792.86
673.554	15802.58
673.904	15735.91
674.253	15756.25
674.602	15649.59
674.951	15575.24
675.3	15442.36
675.649	15673.77
675.998	15667.44
676.346	15716.71
676.695	15644.62
677.044	15485.07
677.393	15642.36
677.741	15659.98
678.09	15601.23
678.438	15516.71
678.787	15562.36
679.135	15514.45
679.484	15410.5
679.832	15521
680.181	15422.7
680.529	15467.9
680.877	15332.53
681.225	15321.69
681.573	15429.71
681.922	15311.07
682.27	15330.73
682.618	15266.1
682.966	15392.65
683.314	15356.04
683.661	15279.88
684.009	15162.37
684.357	15152.2
684.705	15192.88
685.053	15194.69
685.4	15115.37
685.748	15035.37
686.095	15019.55
686.443	15011.41
686.79	15010.96
687.138	15165.99
687.485	15091.64
687.832	14888.48
688.18	14923.73
688.527	14825.2
688.874	14925.77
689.221	14812.77
689.568	14801.48
689.915	14814.36
690.262	14627.24
690.609	14671.76
690.956	14586.11
691.303	14613.46
691.65	14540.24
691.997	14511.09
692.344	14410.07
692.69	14448.04
693.037	14421.37
693.383	14423.63
693.73	14415.5
694.077	14334.37
694.423	14278.33
694.769	14232.22
695.116	14189.51
695.462	14189.74
695.808	14120.14
696.155	14164.2
696.501	13960.37
696.847	13995.62
697.193	13916.53
697.539	14013.7
697.885	13929.63
698.231	13792.91
698.577	13874.27
698.923	13870.88
699.269	13763.54
699.614	13692.13
699.96	13685.8
700.306	13669.53
700.651	13640.38
700.997	13556.99
701.342	13534.84
701.688	13544.56
702.033	13528.29
702.379	13470.89
702.724	13429.31
703.069	13480.61
703.415	13339.14
703.76	13303.89
704.105	13377.78
704.45	13250.33
704.795	13263.21
705.14	13224.34
705.485	13232.93
705.83	13135.08
706.175	13126.04
706.52	13044.46
706.865	13040.84
707.209	12964.91
707.554	12981.86
707.899	13050.33
708.243	12877.91
708.588	12915.65
708.932	12770.57
709.277	12816.67
709.621	12832.26
709.966	12790.23
710.31	12691.47
710.654	12637.46
710.998	12660.51
711.342	12645.15
711.687	12693.96
712.031	12607.63
712.375	12494.42
712.719	12557.92
713.063	12549.33
713.407	12519.95
713.75	12471.59
714.094	12445.6
714.438	12491.48
714.782	12430.01
715.125	12390.24
715.469	12459.16
715.812	12374.42
716.156	12283.58
716.499	12258.04
716.843	12204.93
717.186	12193.18
717.53	12268.21
717.873	12273.86
718.216	12182.11
718.559	12166.74
718.902	12081.55
719.246	12072.73
719.589	12051.94
719.932	12044.03
720.275	12076.8
720.617	11997.26
720.96	11920.2
721.303	12003.13
721.646	11902.57
721.989	11918.61
722.331	11981.44
722.674	11927.43
723.016	11918.84
723.359	11785.28
723.701	11948.44
724.044	11786.19
724.386	11749.13
724.729	11801.1
725.071	11716.36
725.413	11707.77
725.755	11769.24
726.097	11721.78
726.439	11658.51
726.782	11636.59
727.124	11688.11
727.465	11621.67
727.807	11537.15
728.149	11650.6
728.491	11599.98
728.833	11578.74
729.175	11605.18
729.516	11523.37
729.858	11516.82
730.199	11573.31
730.541	11496.25
730.882	11413.77
731.224	11524.73
731.565	11443.37
731.906	11355.92
732.248	11495.57
732.589	11336.26
732.93	11313.21
733.271	11316.37
733.612	11341.91
733.953	11249.25
734.294	11294.67
734.635	11282.47
734.976	11251.74
735.317	11274.11
735.658	11250.16
735.999	11213.55
736.339	11175.13
736.68	11104.85
737.021	11160.44
737.361	11130.84
737.702	11144.62
738.042	11100.56
738.383	11112.76
738.723	11143.27
739.063	11061.23
739.404	11118.63
739.744	11079.99
740.084	10980.78
740.424	11006.77
740.764	11054.68
741.104	11058.75
741.444	10952.54
741.784	10946.89
742.124	10892.43
742.464	10919.09
742.804	10896.49
743.143	10951.63
743.483	10831.86
743.823	10846.55
744.162	10781.69
744.502	10830.96
744.841	10850.62
745.181	10819.43
745.52	10791.64
745.86	10809.04
746.199	10798.19
746.538	10715.93
746.877	10809.04
747.216	10670.74
747.556	10654.01
747.895	10646.56
748.234	10588.93
748.573	10577.41
748.911	10607.01
749.25	10527.69
749.589	10616.95
749.928	10596.61
750.267	10599.55
750.605	10558.2
750.944	10433.45
751.283	10453.11
751.621	10440.69
751.96	10320.92
752.298	10401.36
752.636	10380.8
752.975	10324.08
753.313	10303.29
753.651	10336.28
753.989	10217.19
754.327	10228.71
754.666	10226.45
755.004	10248.6
755.342	10152.11
755.679	10233.23
756.017	10100.13
756.355	10121.82
756.693	10106.01
757.031	10117.76
757.368	10080.92
757.706	10012.67
758.044	10002.28
758.381	10024.88
758.719	9947.59
759.056	9971.09
759.394	9971.55
759.731	9796.86
760.068	9848.39
760.405	9829.18
760.743	9807.03
761.08	9767.48
761.417	9712.34
761.754	9713.02
762.091	9708.05
762.428	9631.44
762.765	9545.12
763.102	9563.87
763.438	9516.19
763.775	9507.83
764.112	9486.81
764.449	9484.33
764.785	9445.23
765.122	9383.76
765.458	9354.39
765.795	9360.49
766.131	9322.52
766.467	9276.42
766.804	9289.98
767.14	9249.53
767.476	9193.49
767.812	9223.99
768.148	9176.76
768.485	9159.36
768.821	9089.08
769.157	9044.11
769.492	9140.16
769.828	9101.51
770.164	9019.03
770.5	8976.77
770.836	8934.74
771.171	8904.23
771.507	8909.65
771.842	8812.48
772.178	8854.51
772.513	8825.81
772.849	8779.03
773.184	8723.44
773.519	8703.56
773.855	8668.76
774.19	8661.3
774.525	8619.94
774.86	8640.73
775.195	8594.41
775.53	8568.64
775.865	8542.66
776.2	8409.33
776.535	8449.55
776.87	8417.01
777.205	8442.32
777.539	8371.36
777.874	8297.69
778.209	8245.94
778.543	8325.04
778.878	8183.8
779.212	8176.56
779.547	8172.72
779.881	8181.99
780.215	8035.33
780.55	8112.16
780.884	8068.54
781.218	8017.7
781.552	7996.68
781.886	7922.33
782.22	7912.84
782.554	7974.76
782.888	7884.59
783.222	7817.03
783.556	7778.84
783.889	7807.31
784.223	7751.49
784.557	7721.21
784.89	7702.68
785.224	7687.31
785.557	7643.25
785.891	7603.47
786.224	7548.56
786.558	7631.04
786.891	7519.63
787.224	7455.91
787.557	7495
787.891	7449.13
788.224	7445.51
788.557	7447.32
788.89	7485.96
789.223	7429.01
789.556	7323.48
789.888	7313.31
790.221	7247.78
790.554	7258.85
790.887	7241.9
791.219	7193.77
791.552	7225.86
791.884	7157.38
792.217	7186.76
792.549	7116.03
792.882	7119.87
793.214	7080.1
793.546	7074.9
793.879	7008.91
794.211	6997.39
794.543	6962.36
794.875	6974.11
795.207	7014.34
795.539	6948.35
795.871	6874.9
796.203	6855.02
796.535	6788.13
796.867	6835.81
797.198	6754.91
797.53	6833.55
797.862	6765.75
798.193	6815.02
798.525	6727.56
798.856	6778.41
799.188	6670.84
799.519	6673.33
799.85	6631.52
800.182	6620.22
800.513	6566.44
800.844	6589.94
801.175	6641.69
801.506	6612.54
801.837	6557.85
802.168	6527.12
802.499	6515.59
802.83	6447.57
803.161	6432.88
803.491	6496.61
803.822	6443.73
804.153	6427.01
804.483	6335.26
804.814	6408.02
805.145	6380.68
805.475	6374.35
805.805	6301.36
806.136	6335.48
806.466	6333.68
806.796	6256.39
807.126	6247.8
807.457	6214.81
807.787	6204.64
808.117	6235.6
808.447	6213.23
808.777	6183.62
809.107	6159.22
809.436	6153.57
809.766	6146.79
810.096	6076.05
810.426	6061.82
810.755	6093.23
811.085	6090.29
811.414	5996.96
811.744	6004.64
812.073	5994.7
812.403	5965.1
812.732	5994.02
813.061	5948.6
813.39	5886.23
813.719	5935.49
814.049	5978.66
814.378	5894.82
814.707	5911.99
815.036	5911.77
815.365	5872.22
815.693	5814.14
816.022	5801.03
816.351	5852.33
816.68	5777.31
817.008	5864.31
817.337	5735.27
817.665	5801.26
817.994	5765.33
818.322	5712
818.651	5714.71
818.979	5702.73
819.307	5716.06
819.636	5692.11
819.964	5625.67
820.292	5654.37
820.62	5681.72
820.948	5652.79
821.276	5627.48
821.604	5621.83
821.932	5639
822.259	5667.03
822.587	5635.84
822.915	5645.11
823.243	5679.68
823.57	5632.68
823.898	5591.32
824.225	5608.72
824.553	5593.36
824.88	5596.52
825.207	5648.5
825.535	5606.69
825.862	5598.1
826.189	5643.75
826.516	5624.99
826.843	5653.47
827.17	5602.62
827.497	5605.33
827.824	5617.31
828.151	5592
828.478	5646.46
828.805	5618.44
829.131	5572.34
829.458	5569.63
829.785	5555.84
830.111	5636.07
830.438	5648.5
830.764	5603.75
831.09	5598.33
831.417	5653.02
831.743	5604.2
832.069	5558.78
832.395	5601.49
832.722	5613.02
833.048	5561.94
833.374	5627.48
833.7	5544.32
834.026	5553.81
834.351	5595.62
834.677	5597.65
835.003	5600.14
835.329	5590.42
835.654	5543.64
835.98	5516.3
836.306	5536.63
836.631	5500.7
836.956	5521.72
837.282	5463.19
837.607	5535.28
837.932	5508.84
838.258	5512.68
838.583	5489.86
838.908	5467.71
839.233	5473.81
839.558	5447.37
839.883	5411.44
840.208	5479.01
840.533	5402.85
840.858	5390.88
841.182	5445.56
841.507	5416.86
841.832	5363.31
842.156	5371.21
842.481	5337.77
842.805	5344.55
843.13	5377.09
843.454	5325.34
843.778	5275.17
844.103	5314.94
844.427	5276.3
844.751	5310.65
845.075	5307.94
845.399	5211.67
845.723	5201.28
846.047	5237.66
846.371	5201.95
846.695	5172.12
847.019	5123.09
847.343	5123.09
847.666	5083.31
847.99	5132.58
848.313	5092.13
848.637	5043.31
848.96	5038.34
849.284	5042.18
849.607	5083.09
849.931	5009.19
850.254	4975.97
850.577	4964.45
850.9	4942.75
851.223	4858.69
851.546	4883.54
851.869	4829.76
852.192	4886.71
852.515	4825.47
852.838	4837.22
853.161	4805.35
853.483	4820.72
853.806	4732.14
854.129	4757.9
854.451	4771
854.774	4727.62
855.096	4722.42
855.419	4724.9
855.741	4662.08
856.063	4661.18
856.385	4677
856.708	4652.82
857.03	4681.06
857.352	4676.54
857.674	4614.17
857.996	4606.26
858.318	4628.64
858.64	4566.49
858.961	4538.47
859.283	4564.68
859.605	4524.23
859.926	4538.69
860.248	4494.18
860.57	4462.76
860.891	4570.78
861.212	4524.01
861.534	4524.01
861.855	4450.79
862.176	4482.2
862.498	4453.95
862.819	4468.87
863.14	4422.54
863.461	4388.42
863.782	4411.69
864.103	4397.91
864.424	4401.97
864.745	4424.8
865.065	4360.62
865.386	4388.42
865.707	4355.65
866.027	4397.45
866.348	4359.26
866.668	4353.39
866.989	4336.67
867.309	4311.13
867.63	4339.15
867.95	4331.92
868.27	4326.04
868.59	4275.2
868.91	4279.27
869.23	4342.99
869.55	4284.01
869.87	4317.46
870.19	4294.41
870.51	4272.26
870.83	4291.02
871.15	4254.41
871.469	4273.62
871.789	4259.61
872.109	4234.97
872.428	4159.27
872.748	4232.49
873.067	4176.67
873.386	4202.88
873.706	4210.79
874.025	4187.07
874.344	4186.61
874.663	4215.99
874.982	4181.19
875.301	4155.2
875.62	4098.03
875.939	4165.37
876.258	4162.21
876.577	4111.59
876.896	4129.67
877.214	4089.44
877.533	4105.03
877.852	4141.42
878.17	4113.39
878.489	4142.55
878.807	4110.23
879.125	4094.19
879.444	4101.87
879.762	4100.97
880.08	4084.69
880.398	4067.75
880.716	4070.23
881.034	4054.87
881.352	4072.04
881.67	4058.71
881.988	4041.31
882.306	4044.7
882.624	4022.32
882.941	3952.27
883.259	3996.79
883.577	3997.01
883.894	3962.66
884.212	3979.39
884.529	3958.37
884.846	3969.9
885.164	3920.18
885.481	3971.7
885.798	3924.7
886.115	3934.42
886.432	3913.4
886.75	3905.49
887.067	3882.67
887.383	3878.82
887.7	3862.33
888.017	3827.07
888.334	3814.65
888.651	3808.77
888.967	3849.22
889.284	3861.2
889.6	3819.62
889.917	3781.88
890.233	3825.72
890.55	3809.9
890.866	3825.27
891.182	3810.13
891.498	3778.94
891.815	3775.55
892.131	3733.97
892.447	3763.57
892.763	3734.42
893.079	3674.99
893.395	3682.45
893.71	3692.61
894.026	3694.42
894.342	3662.79
894.657	3642.9
894.973	3650.81
895.289	3616.91
895.604	3657.81
895.92	3620.98
896.235	3636.35
896.55	3606.06
896.865	3571.71
897.181	3609
897.496	3602.67
897.811	3561.77
898.126	3554.77
898.441	3550.7
898.756	3495.33
899.071	3497.82
899.386	3514.77
899.7	3482.68
900.015	3443.13
900.33	3434.54
900.644	3403.36
900.959	3456.01
901.273	3406.07
901.588	3421.66
901.902	3389.35
902.216	3360.87
902.531	3400.87
902.845	3371.95
903.159	3379.18
903.473	3355
903.787	3368.78
904.101	3358.61
904.415	3344.6
904.729	3307.77
905.042	3311.38
905.356	3292.4
905.67	3249.01
905.984	3268.9
906.297	3260.08
906.611	3209.24
906.924	3222.8
907.237	3223.47
907.551	3239.29
907.864	3218.95
908.177	3170.37
908.491	3135.79
908.804	3195.9
909.117	3142.8
909.43	3150.93
909.743	3151.16
910.056	3138.05
910.368	3129.47
910.681	3095.34
910.994	3070.71
911.307	3095.34
911.619	3035.23
911.932	3083.37
912.244	3046.3
912.557	3020.77
912.869	3020.32
913.181	2992.52
913.494	2969.24
913.806	2984.16
914.118	2972.41
914.43	2966.31
914.742	2971.73
915.054	2953.65
915.366	2920.88
915.678	2908.23
915.99	2900.09
916.302	2869.13
916.613	2861.68
916.925	2846.08
917.236	2884.95
917.548	2861
917.859	2839.98
918.171	2836.59
918.482	2792.53
918.794	2812.86
919.105	2796.37
919.416	2766.31
919.727	2790.94
920.038	2802.92
920.349	2735.58
920.66	2786.2
920.971	2727.67
921.282	2740.32
921.593	2736.71
921.903	2694.67
922.214	2674.34
922.525	2657.61
922.835	2661.23
923.146	2640.44
923.456	2650.16
923.767	2645.86
924.077	2647.44
924.387	2630.04
924.697	2600.21
925.008	2613.1
925.318	2562.25
925.628	2608.12
925.938	2584.62
926.248	2563.38
926.558	2550.5
926.867	2583.04
927.177	2552.53
927.487	2552.76
927.796	2501.69
928.106	2487.22
928.416	2475.92
928.725	2472.08
929.034	2481.57
929.344	2486.09
929.653	2478.86
929.962	2493.32
930.271	2419.43
930.581	2439.54
930.89	2425.3
931.199	2423.04
931.508	2397.51
931.817	2400.22
932.125	2395.25
932.434	2377.4
932.743	2358.19
933.051	2367
933.36	2340.79
933.669	2353.89
933.977	2303.5
934.286	2308.47
934.594	2277.74
934.902	2310.5
935.21	2275.93
935.519	2281.58
935.827	2281.58
936.135	2249.49
936.443	2236.16
936.751	2231.64
937.059	2237.74
937.367	2230.73
937.674	2253.1
937.982	2226.66
938.29	2184.18
938.597	2202.48
938.905	2181.69
939.213	2161.81
939.52	2156.61
939.827	2171.75
940.135	2158.87
940.442	2115.26
940.749	2149.15
941.056	2159.55
941.363	2122.49
941.67	2128.36
941.977	2125.88
942.284	2092.2
942.591	2077.52
942.898	2101.24
943.205	2097.18
943.511	2090.4
943.818	2078.87
944.125	2073.9
944.431	2012.21
944.738	2047.46
945.044	2037.74
945.35	1988.93
945.657	2035.71
945.963	2011.76
946.269	1962.94
946.575	1996.16
946.881	1983.28
947.187	2000.46
947.493	1936.5
947.799	1938.08
948.105	1932.89
948.41	1943.73
948.716	1945.77
949.022	1910.29
949.327	1907.8
949.633	1885.66
949.938	1915.71
950.244	1910.97
950.549	1871.19
950.854	1896.5
951.16	1861.02
951.465	1852.21
951.77	1863.74
952.075	1878.43
952.38	1857.41
952.685	1869.39
952.99	1819.67
953.294	1830.06
953.599	1818.99
953.904	1814.02
954.209	1793.23
954.513	1795.94
954.818	1807.01
955.122	1812.66
955.426	1805.43
955.731	1782.83
956.035	1763.63
956.339	1773.34
956.643	1774.25
956.948	1736.73
957.252	1763.85
957.556	1763.63
957.86	1737.86
958.163	1723.18
958.467	1722.5
958.771	1682.72
959.075	1721.14
959.378	1712.55
959.682	1714.14
959.985	1672.33
960.289	1675.49
960.592	1707.13
960.896	1690.41
961.199	1634.14
961.502	1629.39
961.805	1667.13
962.108	1622.84
962.411	1643.86
962.714	1613.57
963.017	1619.22
963.32	1625.55
963.623	1629.39
963.926	1590.3
964.228	1612.67
964.531	1605.44
964.833	1574.03
965.136	1609.28
965.438	1566.34
965.741	1596.85
966.043	1581.71
966.345	1562.5
966.648	1530.64
966.95	1563.18
967.252	1539
967.554	1592.56
967.856	1529.96
968.158	1524.31
968.46	1506.01
968.761	1499.45
969.063	1526.12
969.365	1516.4
969.666	1519.34
969.968	1479.79
970.269	1474.14
970.571	1456.97
970.872	1451.32
971.174	1466.01
971.475	1466.91
971.776	1458.1
972.077	1462.16
972.378	1450.87
972.679	1441.15
972.98	1428.72
973.281	1434.14
973.582	1423.07
973.883	1436.18
974.183	1437.08
974.484	1406.12
974.785	1431.88
975.085	1413.35
975.386	1420.13
975.686	1417.19
975.986	1391.88
976.287	1390.08
976.587	1338.78
976.887	1369.96
977.187	1376.52
977.487	1382.84
977.787	1341.26
978.087	1362.51
978.387	1310.98
978.687	1337.42
978.987	1341.04
979.286	1320.25
979.586	1336.29
979.885	1318.67
980.185	1322.28
980.484	1307.59
980.784	1298.55
981.083	1317.08
981.382	1332.45
981.682	1299.91
981.981	1322.73
982.28	1290.87
982.579	1277.76
982.878	1272.34
983.177	1277.76
983.475	1259.68
983.774	1280.25
984.073	1263.75
984.372	1234.37
984.67	1243.19
984.969	1241.38
985.267	1244.32
985.566	1269.63
985.864	1225.34
986.162	1225.34
986.461	1224.88
986.759	1251.55
987.057	1199.57
987.355	1204.09
987.653	1202.28
987.951	1181.27
988.249	1187.6
988.547	1182.85
988.844	1175.39
989.142	1187.14
989.44	1161.16
989.737	1173.58
990.035	1179.01
990.332	1161.16
990.63	1137.43
990.927	1146.02
991.224	1164.55
991.521	1141.72
991.819	1146.47
992.116	1136.75
992.413	1132.23
992.71	1097.65
993.006	1103.98
993.303	1097.2
993.6	1112.12
993.897	1091.78
994.193	1109.41
994.49	1123.19
994.787	1110.08
995.083	1093.59
995.379	1077.77
995.676	1080.93
995.972	1092.23
996.268	1075.51
996.565	1079.12
996.861	1079.58
997.157	1046.58
997.453	1056.98
997.749	1067.15
998.044	1056.3
998.34	1043.42
998.636	1018.33
998.932	1028.05
999.227	1036.19
999.523	1033.7
999.818	1035.06
1000.114	1028.5
1000.409	1031.22
1000.704	1015.4
1001	1004.32
1001.295	1010.65
1001.59	991.89
1001.885	984.44
1002.18	959.13
1002.475	975.62
1002.77	1004.55
1003.065	985.12
1003.359	986.02
1003.654	974.72
1003.949	965.23
1004.243	974.49
1004.538	948.73
1004.832	957.09
1005.127	944.89
1005.421	959.58
1005.715	960.26
1006.009	954.83
1006.304	923.87
1006.598	932.69
1006.892	936.98
1007.186	927.94
1007.48	922.07
1007.773	928.85
1008.067	904.67
1008.361	907.83
1008.655	915.06
1008.948	913.7
1009.242	877.77
1009.535	881.39
1009.829	878.9
1010.122	882.52
1010.415	882.07
1010.708	861.5
1011.001	872.35
1011.295	876.19
1011.588	855.18
1011.881	849.98
1012.173	867.6
1012.466	857.21
1012.759	840.94
1013.052	838.68
1013.344	823.99
1013.637	844.1
1013.93	796.87
1014.222	821.05
1014.514	797.32
1014.807	800.94
1015.099	819.47
1015.391	786.25
1015.683	779.25
1015.976	823.09
1016.268	787.61
1016.56	791.45
1016.851	773.82
1017.143	789.64
1017.435	815.85
1017.727	815.63
1018.018	780.83
1018.31	766.14
1018.602	769.08
1018.893	769.3
1019.185	782.18
1019.476	774.05
1019.767	767.04
1020.058	732.47
1020.35	740.83
1020.641	762.52
1020.932	741.73
1021.223	748.74
1021.514	738.12
1021.804	740.83
1022.095	721.62
1022.386	716.65
1022.677	721.62
1022.967	723.43
1023.258	711.22
1023.548	722.75
1023.839	717.55
1024.129	709.64
1024.419	695.18
1024.709	716.2
1025	709.87
1025.29	704.67
1025.58	691.56
1025.87	693.6
1026.16	672.81
1026.449	673.26
1026.739	669.87
1027.029	681.39
1027.319	665.8
1027.608	662.64
1027.898	671
1028.187	670.55
1028.477	643.43
1028.766	644.11
1029.055	646.82
1029.344	659.7
1029.634	627.16
1029.923	640.49
1030.212	642.53
1030.501	642.75
1030.79	624.45
1031.078	630.32
1031.367	637.33
1031.656	620.38
1031.945	630.1
1032.233	607.27
1032.522	624.22
1032.81	638.23
1033.099	613.37
1033.387	590.55
1033.675	592.58
1033.963	629.87
1034.251	604.56
1034.54	587.16
1034.828	621.06
1035.116	621.06
1035.403	579.93
1035.691	581.96
1035.979	596.65
1036.267	578.35
1036.554	571.57
1036.842	589.87
1037.129	574.96
1037.417	564.79
1037.704	574.28
1037.992	561.62
1038.279	577.22
1038.566	578.12
1038.853	578.12
1039.14	578.12
