Data from black_metal_pc_casing_FLMS001491_00023.txt Node
Date: Wed Feb 08 14:32:14 GMT 2017
User: dcchb
Spectrometer: FLMS00149
Trigger mode: 0
Integration Time (sec): 2.000000E-2
Scans to average: 10
Electric dark correction enabled: true
Nonlinearity correction enabled: false
Boxcar width: 0
XAxis mode: Wavelengths
Number of Pixels in Spectrum: 2048
>>>>>Begin Spectral Data<<<<<
341.393	-15.99
341.776	-15.99
342.16	-15.99
342.543	-52.6
342.927	-64.57
343.31	-55.08
343.693	-80.85
344.077	-62.54
344.46	-58.02
344.843	-45.37
345.226	-37.46
345.61	-33.39
345.993	-10.79
346.376	-12.82
346.759	7.74
347.142	31.02
347.525	39.6
347.908	52.94
348.291	79.83
348.674	76.89
349.057	108.3
349.44	150.11
349.823	161.18
350.206	184.46
350.588	215.87
350.971	201.86
351.354	223.78
351.737	226.72
352.119	240.05
352.502	257.22
352.884	283.89
353.267	263.1
353.65	279.82
354.032	300.61
354.414	304.68
354.797	315.53
355.179	329.77
355.562	293.83
355.944	323.44
356.326	339.26
356.709	331.57
357.091	304.68
357.473	317.79
357.855	329.99
358.238	326.38
358.62	329.09
359.002	315.08
359.384	351.01
359.766	322.08
360.148	324.34
360.53	347.62
360.912	337.45
361.294	334.06
361.676	340.61
362.057	310.78
362.439	335.64
362.821	334.74
363.203	336.54
363.584	317.34
363.966	308.07
364.348	308.3
364.729	322.53
365.111	311.91
365.493	347.62
365.874	330.9
366.256	300.61
366.637	294.51
367.019	304
367.4	311.69
367.781	301.07
368.163	288.86
368.544	331.8
368.925	318.24
369.306	305.36
369.688	315.53
370.069	303.78
370.45	329.77
370.831	316.43
371.212	332.48
371.593	329.77
371.974	317.79
372.355	307.17
372.736	302.42
373.117	314.17
373.498	323.66
373.879	332.03
374.26	321.4
374.641	341.06
375.021	302.87
375.402	334.06
375.783	335.41
376.163	326.38
376.544	313.27
376.925	329.09
377.305	320.73
377.686	324.57
378.066	335.19
378.447	320.27
378.827	355.53
379.208	325.25
379.588	348.52
379.968	337.9
380.349	341.06
380.729	346.49
381.109	326.83
381.489	344.23
381.87	339.03
382.25	349.88
382.63	331.57
383.01	344.45
383.39	361.63
383.77	338.8
384.15	343.55
384.53	332.93
384.91	338.35
385.29	336.09
385.67	377.9
386.049	363.21
386.429	348.52
386.809	357.79
387.189	361.63
387.568	370.89
387.948	375.19
388.328	393.94
388.707	387.62
389.087	361.18
389.466	353.04
389.846	372.25
390.225	394.62
390.605	381.29
390.984	403.44
391.363	379.03
391.743	407.5
392.122	399.82
392.501	406.15
392.881	390.1
393.26	395.3
393.639	386.49
394.018	413.15
394.397	393.49
394.776	419.03
395.155	386.04
395.534	407.73
395.913	418.12
396.292	395.98
396.671	418.58
397.05	402.08
397.429	422.87
397.808	409.54
398.186	413.83
398.565	406.15
398.944	416.32
399.323	397.56
399.701	381.06
400.08	416.54
400.458	449.99
400.837	421.06
401.215	436.2
401.594	439.14
401.972	452.02
402.351	444.11
402.729	445.92
403.107	445.47
403.486	432.36
403.864	458.8
404.242	463.55
404.62	452.7
404.999	479.37
405.377	457.45
405.755	469.65
406.133	467.61
406.511	478.01
406.889	476.65
407.267	458.12
407.645	478.91
408.023	489.54
408.401	491.79
408.779	501.06
409.156	482.3
409.534	485.02
409.912	484.79
410.29	486.82
410.667	501.29
411.045	503.77
411.422	489.99
411.8	509.2
412.178	519.82
412.555	526.37
412.933	507.39
413.31	525.24
413.687	540.61
414.065	520.27
414.442	528.18
414.819	542.87
415.197	537.9
415.574	563.88
415.951	577.44
416.328	571.34
416.705	572.24
417.082	580.61
417.46	575.63
417.837	574.28
418.214	564.79
418.591	560.27
418.967	571.11
419.344	592.81
419.721	551.23
420.098	594.84
420.475	595.75
420.852	610.66
421.228	611.79
421.605	598.23
421.982	626.48
422.358	621.06
422.735	627.38
423.111	626.25
423.488	636.2
423.864	639.36
424.241	641.85
424.617	626.71
424.994	644.56
425.37	668.74
425.746	656.76
426.123	686.59
426.499	674.16
426.875	652.92
427.251	675.52
427.627	670.1
428.003	704.9
428.379	707.83
428.756	695.18
429.132	718.23
429.507	733.14
429.883	714.16
430.259	708.96
430.635	728.62
431.011	724.56
431.387	737.66
431.763	769.75
432.138	753.48
432.514	771.56
432.89	750.55
433.265	778.34
433.641	783.76
434.016	794.61
434.392	809.75
434.767	810.66
435.143	816.31
435.518	824.44
435.894	830.54
436.269	855.85
436.644	843.42
437.02	854.72
437.395	843.42
437.77	859.47
438.145	870.77
438.52	860.15
438.895	862.18
439.271	876.64
439.646	882.75
440.021	921.39
440.395	913.7
440.77	903.76
441.145	922.07
441.52	943.99
441.895	932.24
442.27	936.53
442.645	932.91
443.019	953.25
443.394	949.41
443.769	985.34
444.143	972.01
444.518	959.13
444.892	965.68
445.267	952.8
445.641	969.07
446.016	963.2
446.39	980.82
446.764	969.75
447.139	1012.69
447.513	1023.53
447.887	997.32
448.262	1015.85
448.636	1005
449.01	1040.93
449.384	1063.08
449.758	1046.58
450.132	1053.36
450.506	1054.27
450.88	1060.82
451.254	1054.49
451.628	1097.43
452.002	1082.74
452.376	1096.07
452.75	1079.35
453.123	1106.92
453.497	1133.13
453.871	1136.52
454.244	1158.44
454.618	1135.62
454.992	1180.59
455.365	1183.3
455.739	1200.48
456.112	1204.32
456.486	1222.4
456.859	1245
457.232	1227.14
457.606	1219.46
457.979	1257.65
458.352	1268.27
458.725	1324.32
459.099	1294.94
459.472	1318.44
459.845	1353.24
460.218	1302.17
460.591	1351.66
460.964	1364.77
461.337	1379
461.71	1400.47
462.083	1415.16
462.456	1414.93
462.829	1451.77
463.201	1457.65
463.574	1475.5
463.947	1487.93
464.32	1486.12
464.692	1497.87
465.065	1529.51
465.438	1548.49
465.81	1568.38
466.183	1526.57
466.555	1587.59
466.928	1592.11
467.3	1625.32
467.672	1629.62
468.045	1663.52
468.417	1699.22
468.789	1679.11
469.161	1697.64
469.534	1730.86
469.906	1741.71
470.278	1774.47
470.65	1785.77
471.022	1807.47
471.394	1866
471.766	1842.95
472.138	1875.04
472.51	1899.44
472.882	1918.2
473.253	1953.68
473.625	1960
473.997	2026.44
474.369	2030.29
474.74	2032.55
475.112	2092.2
475.484	2120.68
475.855	2146.67
476.227	2181.02
476.598	2214.24
476.97	2211.98
477.341	2256.72
477.713	2289.94
478.084	2311.41
478.455	2390.28
478.827	2404.97
479.198	2426.21
479.569	2424.4
479.94	2534.23
480.311	2576.71
480.682	2596.37
481.053	2638.18
481.424	2669.14
481.795	2726.99
482.166	2747.1
482.537	2756.59
482.908	2826.2
483.279	2826.2
483.65	2915.01
484.021	2926.08
484.391	3019.19
484.762	2980.09
485.133	3025.97
485.503	3069.81
485.874	3120.88
486.244	3198.84
486.615	3213.53
486.985	3243.36
487.356	3269.8
487.726	3336.92
488.097	3391.38
488.467	3412.62
488.837	3444.03
489.207	3489.91
489.578	3523.13
489.948	3615.55
490.318	3590.24
490.688	3657.81
491.058	3660.98
491.428	3742.56
491.798	3759.96
492.168	3894.87
492.538	3848.77
492.908	3882.67
493.278	3909.33
493.648	3962.21
494.017	4002.21
494.387	4050.57
494.757	4048.99
495.126	4086.95
495.496	4147.97
495.866	4195.88
496.235	4215.09
496.605	4207.18
496.974	4286.27
497.344	4311.58
497.713	4359.72
498.082	4343.9
498.452	4412.37
498.821	4455.31
499.19	4445.59
499.559	4500.96
499.928	4541.18
500.298	4569.43
500.667	4568.3
501.036	4596.55
501.405	4660.5
501.774	4690.78
502.143	4712.7
502.512	4705.02
502.88	4739.59
503.249	4781.85
503.618	4816.2
503.987	4795.18
504.356	4841.06
504.724	4883.32
505.093	4897.33
505.462	4954.5
505.83	4951.34
506.199	5001.51
506.567	5017.55
506.936	5033.14
507.304	5107.49
507.672	5170.32
508.041	5181.16
508.409	5225
508.777	5276.53
509.145	5288.96
509.514	5303.87
509.882	5352.46
510.25	5408.5
510.618	5417.77
510.986	5390.88
511.354	5469.52
511.722	5539.57
512.09	5551.32
512.458	5605.11
512.826	5639.23
513.193	5625.45
513.561	5688.72
513.929	5740.47
514.297	5780.7
514.664	5785.67
515.032	5822.05
515.4	5891.88
515.767	5918.77
516.135	5964.65
516.502	5875.38
516.869	5958.54
517.237	6055.04
517.604	6047.36
517.972	6146.11
518.339	6188.82
518.706	6202.15
519.073	6282.15
519.44	6262.26
519.808	6289.16
520.175	6330.96
520.542	6462.03
520.909	6501.13
521.276	6490.51
521.643	6528.47
522.009	6649.15
522.376	6638.07
522.743	6704.96
523.11	6743.83
523.477	6831.74
523.843	6813.89
524.21	6885.3
524.577	6944.05
524.943	6965.98
525.31	7050.49
525.676	7062.92
526.043	7129.59
526.409	7157.61
526.776	7231.96
527.142	7258.85
527.508	7269.47
527.874	7343.59
528.241	7420.65
528.607	7473.98
528.973	7496.58
529.339	7519.63
529.705	7586.52
530.071	7669.01
530.437	7709.23
530.803	7711.49
531.169	7734.09
531.535	7786.52
531.901	7820.19
532.267	7844.6
532.632	7891.83
532.998	7997.59
533.364	7967.3
533.73	8107.64
534.095	8113.52
534.461	8142.89
534.826	8160.07
535.192	8124.81
535.557	8268.31
535.923	8224.25
536.288	8287.07
536.653	8301.31
537.019	8370.91
537.384	8375.2
537.749	8384.69
538.114	8421.98
538.479	8386.73
538.845	8471.25
539.21	8490.45
539.575	8618.36
539.94	8610.9
540.305	8689.09
540.67	8605.71
541.034	8685.48
541.399	8713.5
541.764	8759.6
542.129	8745.59
542.494	8732.03
542.858	8771.58
543.223	8782.88
543.587	8897.45
543.952	8908.52
544.316	8901.29
544.681	8945.13
545.045	8946.71
545.41	9023.77
545.774	9038.01
546.138	9125.47
546.503	9089.08
546.867	9036.66
547.231	9243.2
547.595	9182.64
547.959	9246.14
548.324	9240.04
548.688	9235.29
549.052	9341.51
549.416	9320.26
549.779	9286.59
550.143	9379.92
550.507	9393.93
550.871	9502.18
551.235	9414.05
551.599	9566.13
551.962	9583.31
552.326	9643.42
552.689	9643.64
553.053	9636.41
553.417	9678.22
553.78	9830.76
554.143	9823.98
554.507	9817.65
554.87	9819.23
555.234	9870.98
555.597	9896.97
555.96	9924.77
556.323	9984.65
556.686	9994.37
557.05	10086.34
557.413	10055.84
557.776	10136.74
558.139	10141.03
558.502	10230.52
558.865	10273.01
559.228	10331.99
559.59	10324.98
559.953	10394.36
560.316	10374.02
560.679	10424.19
561.041	10505.54
561.404	10545.99
561.767	10675.26
562.129	10617.4
562.492	10732.88
562.854	10709.83
563.217	10724.52
563.579	10736.05
563.941	10851.3
564.304	10880.67
564.666	10979.2
565.028	10981.46
565.39	11009.94
565.753	11102.36
566.115	11009.26
566.477	11156.37
566.839	11165.86
567.201	11250.83
567.563	11310.72
567.925	11317.27
568.287	11322.02
568.648	11419.42
569.01	11511.39
569.372	11531.96
569.734	11524.73
570.095	11549.58
570.457	11605.63
570.819	11678.85
571.18	11710.26
571.542	11849.46
571.903	11753.19
572.265	11894.43
572.626	11818.73
572.987	11869.35
573.349	11826.86
573.71	11929.23
574.071	11994.32
574.432	11972.4
574.794	12129.91
575.155	12033.19
575.516	11972.17
575.877	12035.22
576.238	12104.6
576.599	12159.74
576.96	12199.06
577.32	12179.62
577.681	12249
578.042	12329.22
578.403	12342.56
578.763	12372.39
579.124	12337.81
579.485	12348.66
579.845	12409.67
580.206	12407.41
580.566	12329.45
580.927	12409.9
581.287	12496.45
581.648	12453.51
582.008	12498.26
582.368	12401.76
582.728	12475.89
583.089	12436.57
583.449	12496.45
583.809	12387.53
584.169	12401.76
584.529	12400.41
584.889	12584.13
585.249	12524.7
585.609	12363.12
585.969	12503.46
586.329	12468.43
586.688	12534.64
587.048	12512.04
587.408	12496.45
587.768	12523.57
588.127	12477.24
588.487	12543.46
588.846	12565.6
589.206	12490.8
589.565	12516.79
589.925	12561.99
590.284	12545.72
590.643	12562.44
591.003	12600.4
591.362	12540.29
591.721	12602.66
592.08	12577.13
592.44	12577.8
592.799	12601.08
593.158	12624.58
593.517	12565.6
593.876	12695.32
594.235	12521.31
594.593	12572.83
594.952	12542.78
595.311	12522.89
595.67	12644.7
596.029	12709.1
596.387	12618.26
596.746	12674.3
597.104	12592.04
597.463	12677.01
597.822	12744.35
598.18	12682.21
598.538	12689.21
598.897	12791.36
599.255	12596.56
599.613	12808.53
599.972	12750
600.33	12724.92
600.688	12710.68
601.046	12772.83
601.404	12808.53
601.762	12763.11
602.12	12838.14
602.478	12889.44
602.836	12863.45
603.194	12826.84
603.552	12852.83
603.91	12775.09
604.268	12902.54
604.625	12717.91
604.983	12884.92
605.341	12857.8
605.698	12910.23
606.056	12989.55
606.413	12930.56
606.771	12988.87
607.128	13038.36
607.485	12897.12
607.843	12985.93
608.2	13038.58
608.557	13053.27
608.914	13037.91
609.272	13147.51
609.629	13149.77
609.986	13096.21
610.343	12986.16
610.7	13202.65
611.057	13151.58
611.414	13106.38
611.771	13213.27
612.127	13204.68
612.484	13251.69
612.841	13278.13
613.198	13259.14
613.554	13167.17
613.911	13267.5
614.267	13317.45
614.624	13262.31
614.98	13249.65
615.337	13296.66
615.693	13201.52
616.05	13353.83
616.406	13384.56
616.762	13421.4
617.118	13387.95
617.475	13374.62
617.831	13447.61
618.187	13448.06
618.543	13416.43
618.899	13522.86
619.255	13471.57
619.611	13415.3
619.967	13498.91
620.323	13507.5
620.678	13396.31
621.034	13391.34
621.39	13437.67
621.746	13439.25
622.101	13638.79
622.457	13474.05
622.812	13549.53
623.168	13545.69
623.523	13543.2
623.879	13514.73
624.234	13523.77
624.589	13477.67
624.945	13468.63
625.3	13535.29
625.655	13573.26
626.01	13578.68
626.365	13516.54
626.72	13540.04
627.075	13434.51
627.43	13448.29
627.785	13425.92
628.14	13461.85
628.495	13456.65
628.85	13488.29
629.205	13445.13
629.559	13490.1
629.914	13482.64
630.269	13487.16
630.623	13445.35
630.978	13496.42
631.332	13470.21
631.687	13493.71
632.041	13315.41
632.396	13466.14
632.75	13371.23
633.104	13326.26
633.459	13295.98
633.813	13360.16
634.167	13224.57
634.521	13289.2
634.875	13310.21
635.229	13265.92
635.583	13217.79
635.937	13156.77
636.291	13237.67
636.645	13247.84
636.999	13153.38
637.352	13232.02
637.706	13127.39
638.06	13106.38
638.413	13084.23
638.767	13084.91
639.121	13117.9
639.474	13102.31
639.828	13145.47
640.181	13115.87
640.534	13152.48
640.888	13023.22
641.241	12922.65
641.594	12940.28
641.947	13001.07
642.301	13054.85
642.654	12940.28
643.007	13038.36
643.36	12973.05
643.713	12921.3
644.066	12982.77
644.419	12874.75
644.771	12833.17
645.124	12709.78
645.477	12714.75
645.83	12620.97
646.182	12535.55
646.535	12441.54
646.888	12441.76
647.24	12399.05
647.593	12507.07
647.945	12418.71
648.298	12358.83
648.65	12330.13
649.002	12272.73
649.355	12451.71
649.707	12283.35
650.059	12364.03
650.411	12598.82
650.763	12537.13
651.115	12664.36
651.467	12631.36
651.819	12630.46
652.171	12538.48
652.523	12538.26
652.875	12496.68
653.227	12495.32
653.578	12551.59
653.93	12557.92
654.282	12541.2
654.633	12452.16
654.985	12498.48
655.337	12542.33
655.688	12475.89
656.039	12551.82
656.391	12348.21
656.742	12455.1
657.094	12482.44
657.445	12463.91
657.796	12426.62
658.147	12386.62
658.498	12445.83
658.849	12404.25
659.2	12480.86
659.551	12281.77
659.902	12401.09
660.253	12325.38
660.604	12473.17
660.955	12331.48
661.306	12416
661.656	12317.47
662.007	12362.22
662.358	12293.74
662.708	12444.93
663.059	12358.6
663.409	12214.88
663.76	12347.98
664.11	12368.09
664.461	12300.07
664.811	12305.27
665.161	12327.64
665.511	12307.3
665.862	12239.96
666.212	12342.1
666.562	12337.81
666.912	12247.87
667.262	12262.56
667.612	12314.53
667.962	12256.68
668.312	12148.44
668.662	12216.01
669.011	12298.49
669.361	12233.41
669.711	12238.6
670.06	12146.18
670.41	12205.16
670.76	12239.51
671.109	12262.78
671.459	12170.13
671.808	12136.91
672.157	12197.7
672.507	12169.23
672.856	12159.74
673.205	12121.09
673.554	12172.84
673.904	12143.24
674.253	12190.02
674.602	12196.8
674.951	11944.83
675.3	11878.61
675.649	12109.57
675.998	12081.09
676.346	12052.85
676.695	12109.57
677.044	11998.61
677.393	12058.72
677.741	12022.11
678.09	11974.43
678.438	11950.7
678.787	12004.49
679.135	11987.54
679.484	11951.61
679.832	11972.85
680.181	11909.57
680.529	11984.83
680.877	11893.98
681.225	11895.11
681.573	11936.92
681.922	11785.51
682.27	11795.23
682.618	11780.76
682.966	11838.62
683.314	11778.5
683.661	11748
684.009	11717.26
684.357	11713.87
684.705	11658.96
685.053	11769.01
685.4	11605.18
685.748	11589.36
686.095	11604.95
686.443	11567.89
686.79	11547.55
687.138	11605.4
687.485	11641.11
687.832	11541.45
688.18	11491.73
688.527	11480.88
688.874	11468.46
689.221	11402.92
689.568	11442.69
689.915	11387.1
690.262	11364.28
690.609	11286.54
690.956	11316.14
691.303	11254
691.65	11212.42
691.997	11277.73
692.344	11129.03
692.69	11168.12
693.037	11094.91
693.383	11051.74
693.73	11117.73
694.077	11077.28
694.423	10997.28
694.769	11010.61
695.116	10887.23
695.462	11028.47
695.808	10898.3
696.155	10976.94
696.501	10815.14
696.847	10873.89
697.193	10808.36
697.539	10863.73
697.885	10694.46
698.231	10746.89
698.577	10760.68
698.923	10724.52
699.269	10587.57
699.614	10603.85
699.96	10509.16
700.306	10562.26
700.651	10528.59
700.997	10509.38
701.342	10478.88
701.688	10497.63
702.033	10490.18
702.379	10429.84
702.724	10357.75
703.069	10370.63
703.415	10253.35
703.76	10312.1
704.105	10308.71
704.45	10261.71
704.795	10240.47
705.14	10228.94
705.485	10096.74
705.83	10037.53
706.175	10121.15
706.52	10098.32
706.865	10037.76
707.209	10082.28
707.554	10020.58
707.899	9979.68
708.243	10040.02
708.588	9987.14
708.932	9945.11
709.277	9866.01
709.621	9951.43
709.966	9819.01
710.31	9856.97
710.654	9836.63
710.998	9781.04
711.342	9758.67
711.687	9806.13
712.031	9700.14
712.375	9720.48
712.719	9748.95
713.063	9701.27
713.407	9687.26
713.75	9637.32
714.094	9657.2
714.438	9600.26
714.782	9557.55
715.125	9594.61
715.469	9571.33
715.812	9497.21
716.156	9482.07
716.499	9517.09
716.843	9505.57
717.186	9499.69
717.53	9525.91
717.873	9415.63
718.216	9463.08
718.559	9433.25
718.902	9318.68
719.246	9387.38
719.589	9379.02
719.932	9303.31
720.275	9372.92
720.617	9352.13
720.96	9272.13
721.303	9350.55
721.646	9233.26
721.989	9161.4
722.331	9252.24
722.674	9167.73
723.016	9172.47
723.359	9187.61
723.701	9201.85
724.044	9053.6
724.386	9060.16
724.729	9102.87
725.071	9096.31
725.413	9029.2
725.755	9097.44
726.097	9003.44
726.439	9042.98
726.782	8963.44
727.124	9054.51
727.465	8924.79
727.807	8976.77
728.149	8975.64
728.491	8978.13
728.833	8900.61
729.175	8918.47
729.516	8894.51
729.858	8904.23
730.199	8890.9
730.541	8780.84
730.882	8842.08
731.224	8836.89
731.565	8822.65
731.906	8827.62
732.248	8780.62
732.589	8790.79
732.93	8680.05
733.271	8685.25
733.612	8784.46
733.953	8732.93
734.294	8779.03
734.635	8716.44
734.976	8737.45
735.317	8683.67
735.658	8657.46
735.999	8651.35
736.339	8671.01
736.68	8670.56
737.021	8637.34
737.361	8572.71
737.702	8602.09
738.042	8560.74
738.383	8574.75
738.723	8597.34
739.063	8597.8
739.404	8584.46
739.744	8512.38
740.084	8542.66
740.424	8437.35
740.764	8494.52
741.104	8476.9
741.444	8430.34
741.784	8403.45
742.124	8495.2
742.464	8428.54
742.804	8391.93
743.143	8402.1
743.483	8440.51
743.823	8322.78
744.162	8349.44
744.502	8339.05
744.841	8212.27
745.181	8287.3
745.52	8271.93
745.86	8329.33
746.199	8258.37
746.538	8226.05
746.877	8271.03
747.216	8248.65
747.556	8293.4
747.895	8286.84
748.234	8198.26
748.573	8246.17
748.911	8221.31
749.25	8171.14
749.589	8177.02
749.928	8105.83
750.267	8205.49
750.605	8140.63
750.944	8075.32
751.283	8064.7
751.621	8099.28
751.96	8052.73
752.298	8033.29
752.636	8013.86
752.975	7971.82
753.313	7986.51
753.651	8002.33
753.989	7929.79
754.327	7902
754.666	7908.55
755.004	7881.66
755.342	7857.7
755.679	7900.41
756.017	7846.63
756.355	7838.72
756.693	7857.7
757.031	7777.71
757.368	7806.86
757.706	7778.16
758.044	7673.98
758.381	7694.77
758.719	7631.49
759.056	7729.12
759.394	7680.08
759.731	7623.36
760.068	7603.7
760.405	7603.25
760.743	7614.32
761.08	7561.89
761.417	7512.4
761.754	7516.02
762.091	7499.52
762.428	7462.01
762.765	7470.37
763.102	7440.09
763.438	7451.61
763.775	7323.48
764.112	7365.74
764.449	7375.23
764.785	7358.51
765.122	7300.88
765.458	7261.33
765.795	7264.72
766.131	7246.42
766.467	7249.36
766.804	7165.52
767.14	7115.12
767.476	7137.04
767.812	7055.01
768.148	7117.84
768.485	7066.09
768.821	6977.27
769.157	7010.95
769.492	6959.65
769.828	6996.93
770.164	6950.16
770.5	6925.98
770.836	6877.84
771.171	6813.66
771.507	6807.11
771.842	6791.06
772.178	6756.49
772.513	6812.53
772.849	6794.68
773.184	6686.89
773.519	6700.45
773.855	6690.95
774.19	6676.49
774.525	6610.05
774.86	6668.81
775.195	6581.58
775.53	6598.98
775.865	6546.55
776.2	6477.4
776.535	6502.03
776.87	6455.93
777.205	6469.94
777.539	6427.01
777.874	6499.77
778.209	6438.31
778.543	6363.96
778.878	6373
779.212	6357.63
779.547	6342.04
779.881	6314.69
780.215	6278.54
780.55	6261.36
780.884	6227.92
781.218	6182.49
781.552	6188.59
781.886	6186.33
782.22	6115.38
782.554	6152.44
782.888	6096.62
783.222	6095.72
783.556	6014.81
783.889	6042.38
784.223	5998.54
784.557	6018.43
784.89	5970.75
785.224	5971.2
785.557	5928.71
785.891	5920.8
786.224	5881.03
786.558	5898.66
786.891	5810.53
787.224	5855.5
787.557	5783.63
787.891	5790.19
788.224	5762.84
788.557	5721.94
788.89	5752.45
789.223	5791.77
789.556	5697.53
789.888	5712.67
790.221	5684.88
790.554	5674.94
790.887	5653.24
791.219	5579.34
791.552	5574.37
791.884	5573.92
792.217	5585.45
792.549	5510.87
792.882	5499.12
793.214	5472.91
793.546	5504.54
793.879	5484.66
794.211	5416.19
794.543	5460.25
794.875	5405.56
795.207	5396.75
795.539	5347.49
795.871	5380.25
796.203	5335.51
796.535	5360.59
796.867	5249.41
797.198	5265.68
797.53	5296.64
797.862	5220.94
798.193	5250.09
798.525	5235.63
798.856	5199.02
799.188	5180.94
799.519	5189.98
799.85	5146.59
800.182	5136.64
800.513	5150.88
800.844	5081.73
801.175	5163.08
801.506	5060.26
801.837	5126.02
802.168	5063.2
802.499	5091.67
802.83	5075.18
803.161	5049.19
803.491	5020.94
803.822	5061.84
804.153	4989.3
804.483	4928.74
804.814	4952.24
805.145	4977.78
805.475	4936.88
805.805	4919.02
806.136	4959.02
806.466	4921.28
806.796	4880.61
807.126	4891.91
807.457	4858.46
807.787	4813.49
808.117	4836.99
808.447	4769.2
808.777	4825.24
809.107	4778.91
809.436	4753.15
809.766	4785.02
810.096	4732.59
810.426	4755.41
810.755	4705.92
811.085	4734.85
811.414	4705.02
811.744	4692.14
812.073	4664.79
812.403	4644
812.732	4620.27
813.061	4628.18
813.39	4668.86
813.719	4609.65
814.049	4639.26
814.378	4608.75
814.707	4600.84
815.036	4567.62
815.365	4605.59
815.693	4540.05
816.022	4567.85
816.351	4517.45
816.68	4469.09
817.008	4495.98
817.337	4483.55
817.665	4442.65
817.994	4509.09
818.322	4446.72
818.651	4429.32
818.979	4433.84
819.307	4462.99
819.636	4442.2
819.964	4415.99
820.292	4421.86
820.62	4400.17
820.948	4418.02
821.276	4432.03
821.604	4397.45
821.932	4380.05
822.259	4418.47
822.587	4438.13
822.915	4387.29
823.243	4411.24
823.57	4388.87
823.898	4384.35
824.225	4336.89
824.553	4373.95
824.88	4352.48
825.207	4403.78
825.535	4373.73
825.862	4369.21
826.189	4380.96
826.516	4398.81
826.843	4385.48
827.17	4376.44
827.497	4392.03
827.824	4366.72
828.151	4419.38
828.478	4373.27
828.805	4376.21
829.131	4354.97
829.458	4371.69
829.785	4332.82
830.111	4341.41
830.438	4396.1
830.764	4369.43
831.09	4390.9
831.417	4365.14
831.743	4373.5
832.069	4337.57
832.395	4344.58
832.722	4363.33
833.048	4316.55
833.374	4319.49
833.7	4344.8
834.026	4313.39
834.351	4300.28
834.677	4350.45
835.003	4339.83
835.329	4310.23
835.654	4315.88
835.98	4278.59
836.306	4278.36
836.631	4337.12
836.956	4273.16
837.282	4278.59
837.607	4293.5
837.932	4289.89
838.258	4254.41
838.583	4260.74
838.908	4254.63
839.233	4242.88
839.558	4216.89
839.883	4205.14
840.208	4185.71
840.533	4237.69
840.858	4213.96
841.182	4187.29
841.507	4215.09
841.832	4185.71
842.156	4162.21
842.481	4133.06
842.805	4143.22
843.13	4170.34
843.454	4131.47
843.778	4104.58
844.103	4132.15
844.427	4144.13
844.751	4101.64
845.075	4092.83
845.399	4061.42
845.723	4039.72
846.047	4079.72
846.371	4022.55
846.695	4001.99
847.019	3983.68
847.343	3979.61
847.666	4000.63
847.99	3963.79
848.313	3984.13
848.637	3953.62
848.96	3928.54
849.284	3955.66
849.607	3933.96
849.931	3894.42
850.254	3886.73
850.577	3842.67
850.9	3816
851.223	3845.38
851.546	3797.7
851.869	3775.78
852.192	3802.22
852.515	3783.23
852.838	3742.56
853.161	3779.17
853.483	3731.26
853.806	3721.09
854.129	3699.85
854.451	3700.52
854.774	3666.63
855.096	3700.98
855.419	3671.6
855.741	3699.17
856.063	3629.57
856.385	3632.73
856.708	3647.42
857.03	3602.22
857.352	3610.36
857.674	3615.1
857.996	3603.13
858.318	3581.88
858.64	3597.25
858.961	3568.55
859.283	3551.6
859.605	3600.19
859.926	3525.84
860.248	3543.69
860.57	3574.43
860.891	3524.03
861.212	3499.17
861.534	3481.32
861.855	3473.41
862.176	3463.92
862.498	3481.32
862.819	3437.48
863.14	3478.61
863.461	3437.03
863.782	3451.27
864.103	3381.66
864.424	3451.27
864.745	3447.2
865.065	3435.22
865.386	3437.48
865.707	3443.13
866.027	3393.41
866.348	3415.79
866.668	3366.75
866.989	3356.35
867.309	3342.79
867.63	3341.21
867.95	3363.81
868.27	3345.51
868.59	3388.22
868.91	3363.36
869.23	3371.04
869.55	3351.15
869.87	3326.97
870.19	3343.25
870.51	3340.31
870.83	3348.67
871.15	3317.03
871.469	3291.72
871.789	3333.08
872.109	3302.12
872.428	3310.25
872.748	3321.78
873.067	3329.23
873.386	3270.25
873.706	3277.48
874.025	3231.84
874.344	3252.85
874.663	3259.63
874.982	3248.78
875.301	3246.75
875.62	3230.93
875.939	3267.54
876.258	3246.52
876.577	3235
876.896	3257.37
877.214	3233.42
877.533	3241.78
877.852	3253.53
878.17	3226.41
878.489	3267.32
878.807	3227.09
879.125	3223.7
879.444	3236.36
879.762	3193.42
880.08	3225.96
880.398	3188.67
880.716	3206.53
881.034	3171.5
881.352	3179.18
881.67	3202.68
881.988	3108.22
882.306	3148.9
882.624	3169.69
882.941	3131.73
883.259	3105.96
883.577	3151.84
883.894	3130.37
884.212	3105.74
884.529	3083.59
884.846	3094.21
885.164	3097.38
885.481	3081.11
885.798	3072.07
886.115	3075.91
886.432	3112.29
886.75	3048.56
887.067	3046.08
887.383	3065.29
887.7	3067.32
888.017	3045.4
888.334	3045.17
888.651	3046.3
888.967	3032.97
889.284	2974.22
889.6	2941.22
889.917	3015.34
890.233	2956.14
890.55	2954.1
890.866	2957.94
891.182	2982.58
891.498	2981.45
891.815	2954.33
892.131	2941.9
892.447	2919.3
892.763	2917.72
893.079	2907.1
893.395	2917.27
893.71	2911.84
894.026	2879.3
894.342	2910.04
894.657	2869.59
894.973	2878.17
895.289	2864.61
895.604	2821.68
895.92	2845.63
896.235	2835.01
896.55	2832.98
896.865	2825.52
897.181	2776.71
897.496	2820.77
897.811	2825.97
898.126	2791.4
898.441	2762.92
898.756	2767.22
899.071	2767.67
899.386	2760.21
899.7	2708.01
900.015	2734.67
900.33	2731.74
900.644	2688.57
900.959	2739.87
901.273	2690.83
901.588	2665.75
901.902	2677.5
902.216	2676.14
902.531	2635.69
902.845	2683.6
903.159	2630.95
903.473	2623.94
903.787	2616.03
904.101	2595.92
904.415	2603.6
904.729	2609.93
905.042	2575.36
905.356	2618.97
905.67	2591.4
905.984	2550.95
906.297	2570.61
906.611	2568.35
906.924	2538.97
907.237	2564.73
907.551	2543.04
907.864	2514.79
908.177	2506.21
908.491	2479.09
908.804	2512.76
909.117	2504.85
909.43	2470.95
909.743	2472.76
910.056	2462.14
910.368	2485.64
910.681	2442.93
910.994	2424.4
911.307	2404.74
911.619	2414
911.932	2393.67
912.244	2393.44
912.557	2409.71
912.869	2402.48
913.181	2373.55
913.494	2366.77
913.806	2374.23
914.118	2343.72
914.43	2383.04
914.742	2349.37
915.054	2328.13
915.366	2304.18
915.678	2352.99
915.99	2272.31
916.302	2305.31
916.613	2267.12
916.925	2263.5
917.236	2250.39
917.548	2246.1
917.859	2249.94
918.171	2233.9
918.482	2239.32
918.794	2276.38
919.105	2223.95
919.416	2182.15
919.727	2178.53
920.038	2175.59
920.349	2168.36
920.66	2169.94
920.971	2179.21
921.282	2138.98
921.593	2164.75
921.903	2141.02
922.214	2093.56
922.525	2110.51
922.835	2117.06
923.146	2086.78
923.456	2082.49
923.767	2111.64
924.077	2091.75
924.387	2087.23
924.697	2036.84
925.008	2077.74
925.318	2060.79
925.628	2059.21
925.938	2071.64
926.248	2047.01
926.558	2046.56
926.867	2020.57
927.177	2027.12
927.487	2002.04
927.796	1997.07
928.106	1976.73
928.416	1990.06
928.725	1977.86
929.034	1971.53
929.344	1993.9
929.653	1938.76
929.962	1938.31
930.271	1955.94
930.581	1946.45
930.89	1941.02
931.199	1880.69
931.508	1944.41
931.817	1908.03
932.125	1891.53
932.434	1922.27
932.743	1895.15
933.051	1873.91
933.36	1837.97
933.669	1846.56
933.977	1872.78
934.286	1863.06
934.594	1870.06
934.902	1846.79
935.21	1830.97
935.519	1826.9
935.827	1797.98
936.135	1835.04
936.443	1777.18
936.751	1794.36
937.059	1807.24
937.367	1804.08
937.674	1801.82
937.982	1781.7
938.29	1785.77
938.597	1790.97
938.905	1767.92
939.213	1745.32
939.52	1739.22
939.827	1756.62
940.135	1738.32
940.442	1737.41
940.749	1715.72
941.056	1736.96
941.363	1687.92
941.67	1708.94
941.977	1700.58
942.284	1680.92
942.591	1673.01
942.898	1689.28
943.205	1683.85
943.511	1668.49
943.818	1652.44
944.125	1673.68
944.431	1644.76
944.738	1622.16
945.044	1603.18
945.35	1614.25
945.657	1599.56
945.963	1606.79
946.269	1598.66
946.575	1640.92
946.881	1586
947.187	1606.12
947.493	1600.01
947.799	1585.33
948.105	1571.99
948.41	1561.82
948.716	1568.38
949.022	1562.05
949.327	1549.85
949.633	1541.94
949.938	1561.6
950.244	1514.82
950.549	1525.89
950.854	1519.56
951.16	1531.77
951.465	1488.15
951.77	1501.71
952.075	1485.67
952.38	1531.99
952.685	1514.37
952.99	1499.23
953.294	1503.29
953.599	1496.29
953.904	1479.34
954.209	1483.86
954.513	1482.5
954.818	1446.8
955.122	1478.44
955.426	1457.19
955.731	1421.71
956.035	1445.89
956.339	1444.99
956.643	1436.63
956.948	1425.1
957.252	1442.28
957.556	1428.04
957.86	1434.6
958.163	1408.83
958.467	1391.66
958.771	1390.53
959.075	1380.13
959.378	1367.03
959.682	1385.56
959.985	1400.7
960.289	1356.18
960.592	1380.13
960.896	1360.7
961.199	1345.11
961.502	1342.17
961.805	1347.59
962.108	1333.58
962.411	1336.07
962.714	1322.28
963.017	1333.58
963.32	1306.01
963.623	1322.28
963.926	1308.27
964.228	1286.12
964.531	1298.78
964.833	1297.88
965.136	1302.62
965.438	1295.84
965.741	1272.79
966.043	1266.01
966.345	1301.94
966.648	1271.44
966.95	1261.27
967.252	1249.97
967.554	1263.75
967.856	1270.98
968.158	1254.94
968.46	1263.98
968.761	1229.4
969.063	1231.66
969.365	1232.34
969.666	1226.01
969.968	1211.32
970.269	1235.05
970.571	1226.46
970.872	1213.81
971.174	1215.17
971.475	1211.1
971.776	1215.84
972.077	1214.94
972.378	1188.27
972.679	1172.23
972.98	1178.33
973.281	1193.47
973.582	1145.79
973.883	1174.04
974.183	1174.94
974.484	1155.28
974.785	1160.03
975.085	1162.96
975.386	1147.37
975.686	1143.53
975.986	1124.77
976.287	1122.74
976.587	1136.52
976.887	1136.98
977.187	1135.17
977.487	1115.51
977.787	1114.38
978.087	1106.69
978.387	1117.77
978.687	1105.56
978.987	1093.81
979.286	1069.41
979.586	1095.39
979.885	1082.06
980.185	1073.47
980.484	1070.31
980.784	1064.21
981.083	1054.72
981.382	1086.36
981.682	1094.27
981.981	1059.92
982.28	1059.92
982.579	1046.36
982.878	1056.75
983.177	1049.97
983.475	1041.61
983.774	1040.48
984.073	1036.87
984.372	1038.9
984.67	1030.76
984.969	1033.48
985.267	1025.11
985.566	1028.28
985.864	1001.39
986.162	1021.05
986.461	974.72
986.759	1018.11
987.057	994.38
987.355	995.28
987.653	1014.72
987.951	1036.87
988.249	1005.23
988.547	985.34
988.844	1004.78
989.142	1003.65
989.44	986.92
989.737	969.75
990.035	975.4
990.332	974.27
990.63	974.27
990.927	973.82
991.224	963.2
991.521	951.9
991.819	961.84
992.116	951.9
992.413	941.27
992.71	949.41
993.006	912.12
993.303	927.26
993.6	929.98
993.897	942.4
994.193	922.52
994.49	928.17
994.787	908.73
995.083	908.73
995.379	914.16
995.676	886.36
995.972	908.51
996.268	903.99
996.565	898.56
996.861	877.55
997.157	910.99
997.453	904.89
997.749	904.44
998.044	896.76
998.34	873.25
998.636	881.62
998.932	864.67
999.227	868.28
999.523	859.47
999.818	859.92
1000.114	879.36
1000.409	849.98
1000.704	861.05
1001	861.73
1001.295	844.33
1001.59	849.75
1001.885	859.92
1002.18	829.87
1002.475	855.18
1002.77	846.14
1003.065	822.86
1003.359	823.99
1003.654	809.07
1003.949	810.66
1004.243	817.21
1004.538	820.83
1004.832	804.78
1005.127	802.3
1005.421	822.41
1005.715	785.35
1006.009	806.14
1006.304	814.05
1006.598	805.91
1006.892	785.35
1007.186	792.35
1007.48	776.31
1007.773	794.61
1008.067	780.83
1008.361	771.79
1008.655	767.27
1008.948	760.04
1009.242	789.64
1009.535	744.9
1009.829	746.93
1010.122	762.75
1010.415	740.15
1010.708	740.15
1011.001	747.83
1011.295	726.14
1011.588	750.09
1011.881	720.49
1012.173	721.17
1012.466	739.47
1012.759	679.81
1013.052	758.91
1013.344	709.42
1013.637	714.39
1013.93	724.11
1014.222	693.82
1014.514	729.53
1014.807	734.27
1015.099	713.71
1015.391	717.55
1015.683	709.64
1015.976	700.15
1016.268	693.15
1016.56	680.26
1016.851	684.78
1017.143	714.84
1017.435	684.11
1017.727	679.59
1018.018	684.56
1018.31	654.5
1018.602	645.69
1018.893	683.43
1019.185	674.16
1019.476	654.05
1019.767	668.51
1020.058	666.71
1020.35	647.95
1020.641	647.72
1020.932	661.73
1021.223	645.46
1021.514	630.77
1021.804	658.12
1022.095	637.33
1022.386	655.18
1022.677	656.99
1022.967	639.36
1023.258	601.85
1023.548	608.63
1023.839	642.75
1024.129	612.02
1024.419	623.99
1024.709	621.96
1025	635.29
1025.29	627.38
1025.58	610.66
1025.87	616.99
1026.16	615.41
1026.449	603.88
1026.739	606.59
1027.029	581.06
1027.319	596.88
1027.608	591.68
1027.898	589.42
1028.187	608.63
1028.477	584.67
1028.766	589.19
1029.055	592.58
1029.344	578.12
1029.634	595.07
1029.923	588.74
1030.212	568.63
1030.501	563.66
1030.79	564.34
1031.078	549.42
1031.367	558.23
1031.656	549.19
1031.945	564.79
1032.233	567.73
1032.522	584.9
1032.81	570.21
1033.099	545.8
1033.387	551.23
1033.675	542.87
1033.963	538.57
1034.251	555.52
1034.54	539.93
1034.828	549.19
1035.116	536.99
1035.403	549.65
1035.691	522.08
1035.979	515.98
1036.267	519.36
1036.554	550.32
1036.842	515.75
1037.129	536.77
1037.417	528.4
1037.704	525.92
1037.992	520.27
1038.279	515.52
1038.566	487.05
1038.853	487.05
1039.14	487.05
