Data from black_plastic_tray_FLMS001491_062.txt Node
Date: Tue Feb 07 10:40:21 GMT 2017
User: dcchb
Spectrometer: FLMS00149
Trigger mode: 0
Integration Time (sec): 2.000000E-2
Scans to average: 10
Electric dark correction enabled: true
Nonlinearity correction enabled: false
Boxcar width: 0
XAxis mode: Wavelengths
Number of Pixels in Spectrum: 2048
>>>>>Begin Spectral Data<<<<<
341.393	0.27
341.776	0.27
342.16	0.27
342.543	-81.99
342.927	-83.57
343.31	-70.92
343.693	-76.34
344.077	-49.67
344.46	-74.31
344.843	-57.81
345.226	-44.93
345.61	-33.63
345.993	-28.43
346.376	-8.77
346.759	11.79
347.142	40.27
347.525	53.37
347.908	46.82
348.291	87.27
348.674	99.7
349.057	105.58
349.44	109.19
349.823	146.93
350.206	158.68
350.588	193.48
350.971	198.46
351.354	218.12
351.737	223.54
352.119	257.89
352.502	264.44
352.884	256.08
353.267	270.77
353.65	276.87
354.032	290.66
354.414	296.08
354.797	316.87
355.179	281.39
355.562	327.72
355.944	292.24
356.326	314.84
356.709	309.64
357.091	315.74
357.473	319.13
357.855	322.52
358.238	326.14
358.62	332.46
359.002	309.41
359.384	336.3
359.766	325.68
360.148	325.68
360.53	339.24
360.912	307.15
361.294	315.97
361.676	320.71
362.057	299.92
362.439	310.32
362.821	316.42
363.203	321.62
363.584	315.29
363.966	316.42
364.348	313.03
364.729	320.03
365.111	301.05
365.493	315.51
365.874	322.97
366.256	302.63
366.637	298.79
367.019	313.48
367.4	322.29
367.781	293.59
368.163	307.38
368.544	305.57
368.925	289.98
369.306	312.8
369.688	308.51
370.069	313.25
370.45	308.28
370.831	325.68
371.212	311.22
371.593	303.31
371.974	306.02
372.355	296.98
372.736	315.97
373.117	295.85
373.498	310.54
373.879	341.95
374.26	278.23
374.641	300.83
375.021	316.42
375.402	322.75
375.783	309.41
376.163	312.12
376.544	328.4
376.925	333.59
377.305	334.5
377.686	330.88
378.066	326.14
378.447	336.53
378.827	323.2
379.208	339.92
379.588	326.59
379.968	322.75
380.349	321.62
380.729	320.26
381.109	337.21
381.489	327.49
381.87	329.07
382.25	331.11
382.63	339.92
383.01	365
383.39	335.63
383.77	338.34
384.15	358
384.53	338.34
384.91	332.91
385.29	349.64
385.67	345.57
386.049	360.48
386.429	322.97
386.809	340.6
387.189	348.96
387.568	356.42
387.948	356.64
388.328	342.18
388.707	369.52
389.087	377.43
389.466	356.19
389.846	388.28
390.225	393.93
390.605	362.29
390.984	380.82
391.363	368.62
391.743	381.5
392.122	393.03
392.501	401.16
392.881	394.16
393.26	365.68
393.639	367.26
394.018	397.77
394.397	391.9
394.776	393.7
395.155	384.67
395.534	398.9
395.913	374.72
396.292	385.34
396.671	376.08
397.05	394.61
397.429	403.65
397.808	402.74
398.186	405.23
398.565	434.61
398.944	407.49
399.323	398.45
399.701	432.57
400.08	421.5
400.458	400.94
400.837	412.69
401.215	429.86
401.594	422.86
401.972	417.66
402.351	426.25
402.729	442.97
403.107	425.57
403.486	415.4
403.864	452.23
404.242	430.77
404.62	433.25
404.999	445.91
405.377	449.75
405.755	457.21
406.133	437.09
406.511	445.45
406.889	470.76
407.267	460.37
407.645	466.47
408.023	478.45
408.401	460.14
408.779	452.69
409.156	476.87
409.534	490.2
409.912	469.86
410.29	501.27
410.667	489.97
411.045	487.94
411.422	499.24
411.8	509.86
412.178	498.79
412.555	509.18
412.933	522.29
413.31	527.03
413.687	509.41
414.065	521.16
414.442	506.02
414.819	520.48
415.197	509.41
415.574	520.93
415.951	536.75
416.328	526.58
416.705	530.88
417.082	544.43
417.46	544.89
417.837	559.35
418.214	559.12
418.591	559.58
418.967	567.94
419.344	584.43
419.721	584.66
420.098	572.23
420.475	576.3
420.852	587.15
421.228	586.47
421.605	601.38
421.982	587.82
422.358	602.74
422.735	576.52
423.111	610.42
423.488	633.7
423.864	608.84
424.241	621.49
424.617	624.21
424.994	636.86
425.37	643.64
425.746	621.27
426.123	640.48
426.499	648.84
426.875	639.35
427.251	663.08
427.627	648.16
428.003	683.64
428.379	692.68
428.756	677.54
429.132	678.22
429.507	690.42
429.883	699.46
430.259	712.11
430.635	713.24
431.011	715.96
431.387	743.07
431.763	746.92
432.138	740.14
432.514	746.46
432.89	753.47
433.265	766.58
433.641	755.28
434.016	788.95
434.392	784.2
434.767	788.5
435.143	794.6
435.518	802.73
435.894	807.93
436.269	810.87
436.644	811.09
437.02	836.18
437.395	847.03
437.77	847.48
438.145	859
438.52	835.73
438.895	868.95
439.271	858.55
439.646	869.4
440.021	887.02
440.395	871.21
440.77	881.15
441.145	896.52
441.52	902.39
441.895	879.79
442.27	889.28
442.645	933.35
443.019	930.41
443.394	943.07
443.769	938.77
444.143	939.68
444.518	943.75
444.892	925.44
445.267	958.44
445.641	960.92
446.016	980.58
446.39	968.83
446.764	970.41
447.139	974.71
447.513	989.85
447.887	976.97
448.262	994.82
448.636	985.33
449.01	1002.95
449.384	1009.73
449.758	1016.96
450.132	1039.56
450.506	1031.43
450.88	1044.31
451.254	1065.33
451.628	1021.48
452.002	1062.61
452.376	1094.02
452.75	1066
453.123	1091.77
453.497	1090.86
453.871	1098.32
454.244	1140.35
454.618	1126.34
454.992	1135.83
455.365	1155.27
455.739	1192.1
456.112	1169.05
456.486	1192.55
456.859	1180.12
457.232	1216.06
457.606	1226.22
457.979	1215.83
458.352	1253.34
458.725	1285.43
459.099	1263.96
459.472	1281.36
459.845	1297.64
460.218	1325.88
460.591	1316.84
460.964	1328.14
461.337	1342.61
461.71	1353.68
462.083	1419.44
462.456	1397.75
462.829	1374.24
463.201	1400.68
463.574	1435.94
463.947	1458.76
464.32	1482.26
464.692	1482.72
465.065	1479.1
465.438	1510.51
465.81	1541.02
466.183	1547.12
466.555	1575.37
466.928	1580.11
467.3	1583.5
467.672	1595.48
468.045	1639.77
468.417	1619.43
468.789	1652.65
469.161	1693.33
469.534	1702.14
469.906	1695.14
470.278	1727.91
470.65	1734.69
471.022	1753.89
471.394	1804.51
471.766	1800.45
472.138	1819.66
472.51	1837.96
472.882	1892.65
473.253	1891.52
473.625	1942.36
473.997	1945.75
474.369	2005.19
474.74	2014.68
475.112	2030.95
475.484	2041.34
475.855	2088.35
476.227	2098.52
476.598	2143.04
476.97	2162.02
477.341	2216.26
477.713	2229.14
478.084	2224.62
478.455	2314.78
478.827	2340.77
479.198	2371.96
479.569	2379.87
479.94	2440.43
480.311	2444.5
480.682	2486.3
481.053	2564.04
481.424	2587.09
481.795	2589.8
482.166	2657.83
482.537	2701.21
482.908	2770.14
483.279	2778.5
483.65	2818.5
484.021	2877.25
484.391	2898.27
484.762	2908.89
485.133	2930.13
485.503	2997.25
485.874	3083.13
486.244	3049.23
486.615	3105.05
486.985	3161.09
487.356	3206.74
487.726	3242.44
488.097	3286.06
488.467	3313.63
488.837	3432.04
489.207	3390.91
489.578	3428.43
489.948	3462.1
490.318	3518.82
490.688	3528.31
491.058	3603.11
491.428	3627.52
491.798	3655.77
492.168	3717.91
492.538	3767.63
492.908	3814.63
493.278	3831.81
493.648	3838.13
494.017	3905.25
494.387	3901.18
494.757	3939.15
495.126	4009.2
495.496	4009.2
495.866	4067.73
496.235	4110.89
496.605	4081.97
496.974	4119.48
497.344	4160.84
497.713	4155.87
498.082	4211.23
498.452	4286.94
498.821	4279.25
499.19	4325.35
499.559	4349.98
499.928	4376.42
500.298	4343.43
500.667	4460.49
501.036	4446.71
501.405	4470.43
501.774	4494.39
502.143	4531.22
502.512	4558.34
502.88	4556.53
503.249	4585.68
503.618	4643.54
503.987	4705.68
504.356	4681.05
504.724	4671.11
505.093	4745
505.462	4771.22
505.83	4759.92
506.199	4800.37
506.567	4863.64
506.936	4903.42
507.304	4913.13
507.672	4987.71
508.041	5014.6
508.409	5069.29
508.777	4997.65
509.145	5075.84
509.514	5115.39
509.882	5154.26
510.25	5200.81
510.618	5204.65
510.986	5222.28
511.354	5295.95
511.722	5326.23
512.09	5384.31
512.458	5379.34
512.826	5386.12
513.193	5464.76
513.561	5470.86
513.929	5507.02
514.297	5551.76
514.664	5610.06
515.032	5665.2
515.4	5678.76
515.767	5742.49
516.135	5756.28
516.502	5683.73
516.869	5856.16
517.237	5775.03
517.604	5856.61
517.972	5940.45
518.339	5977.96
518.706	5991.07
519.073	6009.15
519.44	6102.25
519.808	6117.4
520.175	6142.48
520.542	6229.71
520.909	6271.74
521.276	6271.06
521.643	6329.59
522.009	6401.46
522.376	6455.69
522.743	6477.16
523.11	6546.31
523.477	6597.83
523.843	6667.44
524.21	6688.91
524.577	6751.05
524.943	6732.29
525.31	6800.09
525.676	6887.77
526.043	6876.02
526.409	6960.76
526.776	7001.67
527.142	7026.75
527.508	7073.75
527.874	7084.38
528.241	7162.79
528.607	7229.23
528.973	7232.62
529.339	7236.24
529.705	7325.5
530.071	7403.24
530.437	7424.25
530.803	7457.7
531.169	7553.06
531.535	7478.94
531.901	7557.81
532.267	7641.2
532.632	7630.58
532.998	7649.33
533.364	7669.9
533.73	7759.16
534.095	7764.36
534.461	7785.37
534.826	7878.71
535.192	7805.26
535.557	7938.82
535.923	7924.81
536.288	7935.2
536.653	7998.93
537.019	7978.14
537.384	8017.68
537.749	8070.79
538.114	8106.72
538.479	8173.39
538.845	8211.13
539.21	8206.15
539.575	8178.81
539.94	8198.92
540.305	8331.12
540.67	8275.76
541.034	8349.88
541.399	8427.62
541.764	8405.92
542.129	8462.42
542.494	8495.41
542.858	8469.65
543.223	8459.25
543.587	8513.49
543.952	8567.95
544.316	8612.47
544.681	8596.43
545.045	8637.56
545.41	8651.34
545.774	8692.7
546.138	8684.79
546.503	8735.41
546.867	8770.21
547.231	8814.27
547.595	8843.2
547.959	8875.74
548.324	8848.85
548.688	8921.62
549.052	8990.54
549.416	8917.55
549.779	8941.73
550.143	9078.22
550.507	9129.29
550.871	9038.9
551.235	9074.15
551.599	9221.95
551.962	9226.24
552.326	9235.51
552.689	9319.35
553.053	9257.2
553.417	9402.28
553.78	9509.85
554.143	9406.57
554.507	9512.11
554.87	9543.97
555.234	9577.42
555.597	9519.11
555.96	9590.07
556.323	9654.7
556.686	9643.4
557.05	9693.8
557.413	9739.45
557.776	9738.32
558.139	9905.32
558.502	9869.84
558.865	9843.85
559.228	10004.3
559.59	10032.32
559.953	10028.48
560.316	10165.65
560.679	10139.21
561.041	10167.23
561.404	10215.82
561.767	10216.04
562.129	10226.44
562.492	10387.57
562.854	10327.23
563.217	10338.3
563.579	10366.1
563.941	10518.18
564.304	10506.88
564.666	10571.52
565.028	10625.07
565.39	10584.4
565.753	10697.61
566.115	10717.5
566.477	10731.29
566.839	10722.7
567.201	10859.42
567.563	10845.63
567.925	10901.22
568.287	10939.87
568.648	10921.11
569.01	11073.2
569.372	11009.47
569.734	11009.92
570.095	11171.73
570.457	11176.7
570.819	11141.44
571.18	11252.85
571.542	11333.76
571.903	11286.75
572.265	11339.86
572.626	11303.47
572.987	11383.92
573.349	11393.42
573.71	11477.25
574.071	11455.33
574.432	11487.65
574.794	11564.26
575.155	11541.89
575.516	11550.02
575.877	11583.92
576.238	11573.98
576.599	11645.39
576.96	11661.43
577.32	11674.76
577.681	11655.56
578.042	11702.33
578.403	11722.67
578.763	11765.16
579.124	11844.48
579.485	11794.76
579.845	11831.82
580.206	11850.35
580.566	11874.08
580.927	11761.99
581.287	11885.61
581.648	11769
582.008	11874.08
582.368	11829.56
582.728	11911.37
583.089	11798.83
583.449	11860.97
583.809	11853.52
584.169	11908.43
584.529	11878.6
584.889	11968.77
585.249	11898.94
585.609	11910.92
585.969	11951.14
586.329	11875.89
586.688	11959.28
587.048	11947.07
587.408	11950.24
587.768	11933.06
588.127	11901.2
588.487	11953.85
588.846	12076.34
589.206	11929.67
589.565	11978.26
589.925	12023.68
590.284	12036.79
590.643	12013.74
591.003	12046.05
591.362	12082.21
591.721	11991.14
592.08	11994.08
592.44	12071.59
592.799	12124.02
593.158	12099.16
593.517	12045.6
593.876	12129.89
594.235	12157.46
594.593	12156.11
594.952	12093.28
595.311	12073.17
595.67	12082.89
596.029	12181.64
596.387	12159.27
596.746	12082.44
597.104	12188.65
597.463	12102.32
597.822	12158.59
598.18	12152.04
598.538	12143.68
598.897	12145.03
599.255	12087.63
599.613	12341.41
599.972	12192.26
600.33	12164.92
600.688	12159.27
601.046	12247.18
601.404	12318.14
601.762	12278.59
602.12	12231.59
602.478	12332.6
602.836	12299.38
603.194	12278.82
603.552	12304.35
603.91	12272.94
604.268	12359.27
604.625	12303.9
604.983	12380.96
605.341	12255.99
605.698	12335.31
606.056	12359.49
606.413	12314.07
606.771	12391.58
607.128	12333.96
607.485	12305.93
607.843	12309.1
608.2	12324.24
608.557	12387.51
608.914	12387.29
609.272	12534.4
609.629	12490.11
609.986	12505.7
610.343	12449.88
610.7	12519.94
611.057	12452.37
611.414	12479.94
611.771	12432.94
612.127	12443.56
612.484	12505.48
612.841	12499.6
613.198	12511.13
613.554	12596.55
613.911	12621.86
614.267	12557.23
614.624	12578.47
614.98	12545.02
615.337	12602.65
615.693	12600.16
616.05	12571.69
616.406	12658.47
616.762	12638.81
617.118	12632.03
617.475	12554.74
617.831	12695.75
618.187	12742.76
618.543	12629.31
618.899	12788.86
619.255	12705.02
619.611	12666.6
619.967	12778.24
620.323	12654.4
620.678	12757
621.034	12656.66
621.39	12742.53
621.746	12643.1
622.101	12921.74
622.457	12772.59
622.812	12826.37
623.168	12796.77
623.523	12723.32
623.879	12762.19
624.234	12691.46
624.589	12786.37
624.945	12783.66
625.3	12820.72
625.655	12817.33
626.01	12748.63
626.365	12837.22
626.72	12789.31
627.075	12784.11
627.43	12716.77
627.785	12736.2
628.14	12721.06
628.495	12730.56
628.85	12779.82
629.205	12674.96
629.559	12723.32
629.914	12682.87
630.269	12672.48
630.623	12631.35
630.978	12565.36
631.332	12611.24
631.687	12671.8
632.041	12604.91
632.396	12634.51
632.75	12568.53
633.104	12585.93
633.459	12491.69
633.813	12525.14
634.167	12543.22
634.521	12482.88
634.875	12511.13
635.229	12546.38
635.583	12396.78
635.937	12455.99
636.291	12338.02
636.645	12392.71
636.999	12420.51
637.352	12378.93
637.706	12356.55
638.06	12381.41
638.413	12270.23
638.767	12253.73
639.121	12378.25
639.474	12329.44
639.828	12258.03
640.181	12284.69
640.534	12307.29
640.888	12209.89
641.241	12191.36
641.594	12196.33
641.947	12232.72
642.301	12153.17
642.654	12220.29
643.007	12216.22
643.36	12170.8
643.713	12118.14
644.066	12152.94
644.419	12088.31
644.771	12025.71
645.124	11874.76
645.477	11881.76
645.83	11811.48
646.182	11756.34
646.535	11688.1
646.888	11690.58
647.24	11615.1
647.593	11739.62
647.945	11672.96
648.298	11638.15
648.65	11482.9
649.002	11634.76
649.355	11642.9
649.707	11609.91
650.059	11651.04
650.411	11721.32
650.763	11858.94
651.115	11921.54
651.467	11881.76
651.819	11860.07
652.171	11877.02
652.523	11842.67
652.875	11779.39
653.227	11729.45
653.578	11781.43
653.93	11810.35
654.282	11730.13
654.633	11618.95
654.985	11745.5
655.337	11695.55
655.688	11703.69
656.039	11686.97
656.391	11621.88
656.742	11643.35
657.094	11637.02
657.445	11680.19
657.796	11696.91
658.147	11664.14
658.498	11697.36
658.849	11613.52
659.2	11697.81
659.551	11621.66
659.902	11593.18
660.253	11609.45
660.604	11612.62
660.955	11560.64
661.306	11545.73
661.656	11511.38
662.007	11477.93
662.358	11547.54
662.708	11602.68
663.059	11516.8
663.409	11527.65
663.76	11468.44
664.11	11561.32
664.461	11551.6
664.811	11490.14
665.161	11493.53
665.511	11518.16
665.862	11498.5
666.212	11536.46
666.562	11495.56
666.912	11425.96
667.262	11389.8
667.612	11366.07
667.962	11399.74
668.312	11383.25
668.662	11401.32
669.011	11424.37
669.361	11315.45
669.711	11376.47
670.06	11344.83
670.41	11296.92
670.76	11292.4
671.109	11330.82
671.459	11193.87
671.808	11282.23
672.157	11285.62
672.507	11177.6
672.856	11178.05
673.205	11226.41
673.554	11228.45
673.904	11208.34
674.253	11249.92
674.602	11268.67
674.951	11058.06
675.3	10975.35
675.649	11097.6
675.998	11095.12
676.346	11147.32
676.695	11207.66
677.044	11170.37
677.393	11199.75
677.741	11144.16
678.09	11087.66
678.438	11020.77
678.787	11121.11
679.135	11141.44
679.484	11060.32
679.832	11044.72
680.181	11006.76
680.529	11093.31
680.877	11062.8
681.225	11033.65
681.573	11037.04
681.922	11003.59
682.27	10944.84
682.618	10965.4
682.966	10947.33
683.314	10959.08
683.661	10929.92
684.009	10901.22
684.357	10903.48
684.705	10844.28
685.053	10838.18
685.4	10891.28
685.748	10791.62
686.095	10712.08
686.443	10717.5
686.79	10659.65
687.138	10638.63
687.485	10685.41
687.832	10644.28
688.18	10642.47
688.527	10598.63
688.874	10587.56
689.221	10585.75
689.568	10534
689.915	10533.32
690.262	10517.96
690.609	10489.94
690.956	10448.81
691.303	10452.87
691.65	10436.38
691.997	10413.78
692.344	10319.09
692.69	10338.98
693.037	10376.27
693.383	10258.98
693.73	10339.21
694.077	10302.82
694.423	10245.65
694.769	10167.23
695.116	10197.74
695.462	10234.35
695.808	10127.46
696.155	10218.98
696.501	10089.95
696.847	10107.12
697.193	10049.04
697.539	10127.23
697.885	9989.84
698.231	9889.27
698.577	9981.25
698.923	9876.39
699.269	9918.65
699.614	9862.16
699.96	9833
700.306	9815.15
700.651	9773.8
700.997	9770.18
701.342	9711.65
701.688	9725.21
702.033	9676.4
702.379	9659.22
702.724	9605.89
703.069	9659
703.415	9543.75
703.76	9632.78
704.105	9588.26
704.45	9530.64
704.795	9492.22
705.14	9488.38
705.485	9472.56
705.83	9409.29
706.175	9417.2
706.52	9346.24
706.865	9333.58
707.209	9342.4
707.554	9270.31
707.899	9272.57
708.243	9264.66
708.588	9228.73
708.932	9197.09
709.277	9211.33
709.621	9211.33
709.966	9156.41
710.31	9133.81
710.654	9080.71
710.998	9065.79
711.342	9087.49
711.687	9085.68
712.031	8942.18
712.375	8920.49
712.719	8987.38
713.063	8915.74
713.407	8965.91
713.75	8931.11
714.094	8920.71
714.438	8833.48
714.782	8806.82
715.125	8880.26
715.469	8786.25
715.812	8724.33
716.156	8728.4
716.499	8738.34
716.843	8713.49
717.186	8634.17
717.53	8704.45
717.873	8734.5
718.216	8689.53
718.559	8678.91
718.902	8643.2
719.246	8602.3
719.589	8620.15
719.932	8547.39
720.275	8572.7
720.617	8564.56
720.96	8549.65
721.303	8518.46
721.646	8520.95
721.989	8456.77
722.331	8519.59
722.674	8445.7
723.016	8502.19
723.359	8478.69
723.701	8473.49
724.044	8373.16
724.386	8300.84
724.729	8399.6
725.071	8340.16
725.413	8285.7
725.755	8317.34
726.097	8244.12
726.439	8216.32
726.782	8174.74
727.124	8274.63
727.465	8196.44
727.807	8209.32
728.149	8175.65
728.491	8150.79
728.833	8167.96
729.175	8170
729.516	8126.16
729.858	8155.53
730.199	8159.15
730.541	8126.61
730.882	8136.1
731.224	8138.81
731.565	8095.42
731.906	8036.67
732.248	8065.14
732.589	8040.06
732.93	7993.73
733.271	7979.04
733.612	8073.73
733.953	8042.09
734.294	7977.91
734.635	7986.05
734.976	8023.79
735.317	7966.16
735.658	7972.26
735.999	7932.04
736.339	7932.26
736.68	7942.66
737.021	7892.94
737.361	7855.43
737.702	7895.43
738.042	7894.98
738.383	7819.5
738.723	7800.06
739.063	7815.43
739.404	7779.27
739.744	7762.1
740.084	7768.2
740.424	7774.75
740.764	7768.2
741.104	7742.89
741.444	7723.23
741.784	7743.79
742.124	7761.65
742.464	7711.25
742.804	7693.85
743.143	7679.61
743.483	7651.37
743.823	7664.47
744.162	7686.39
744.502	7645.27
744.841	7662.67
745.181	7633.97
745.52	7696.79
745.86	7606.4
746.199	7601.2
746.538	7632.38
746.877	7580.86
747.216	7596.68
747.556	7552.61
747.895	7553.29
748.234	7538.6
748.573	7476.46
748.911	7467.42
749.25	7503.57
749.589	7482.11
749.928	7500.64
750.267	7448.66
750.605	7468.55
750.944	7427.42
751.283	7403.69
751.621	7440.75
751.96	7384.48
752.298	7335.89
752.636	7367.98
752.975	7318.27
753.313	7346.97
753.651	7333.41
753.989	7313.07
754.327	7305.39
754.666	7183.13
755.004	7226.29
755.342	7207.08
755.679	7171.61
756.017	7196.46
756.355	7175.9
756.693	7180.19
757.031	7098.84
757.368	7075.79
757.706	7092.06
758.044	7053.87
758.381	7152.4
758.719	7034.21
759.056	7029.69
759.394	7069.69
759.731	6992.85
760.068	6965.28
760.405	6965.96
760.743	6922.12
761.08	6903.59
761.417	6894.55
761.754	6894.78
762.091	6896.36
762.428	6827.43
762.765	6812.74
763.102	6839.86
763.438	6816.13
763.775	6799.86
764.112	6736.59
764.449	6703.59
764.785	6719.64
765.122	6709.92
765.458	6681.22
765.795	6693.88
766.131	6693.65
766.467	6639.64
766.804	6567.1
767.14	6554.67
767.476	6528.46
767.812	6521.23
768.148	6502.24
768.485	6549.25
768.821	6494.79
769.157	6492.75
769.492	6395.35
769.828	6411.4
770.164	6277.62
770.5	6330.27
770.836	6281.91
771.171	6330.95
771.507	6302.48
771.842	6270.16
772.178	6282.14
772.513	6268.8
772.849	6267.22
773.184	6215.02
773.519	6146.32
773.855	6143.16
774.19	6134.8
774.525	6155.13
774.86	6098.87
775.195	6085.98
775.53	6050.05
775.865	5997.17
776.2	5944.97
776.535	5932.09
776.87	5921.02
777.205	5897.51
777.539	5902.71
777.874	5940.23
778.209	5860.91
778.543	5855.26
778.878	5779.1
779.212	5828.14
779.547	5776.61
779.881	5803.96
780.215	5720.34
780.55	5710.4
780.884	5673.57
781.218	5710.4
781.552	5657.07
781.886	5654.81
782.22	5645.09
782.554	5575.49
782.888	5550.4
783.222	5523.06
783.556	5558.77
783.889	5495.94
784.223	5481.71
784.557	5481.03
784.89	5460.24
785.224	5437.87
785.557	5456.62
785.891	5455.72
786.224	5393.57
786.558	5423.4
786.891	5326.46
787.224	5357.64
787.557	5343.86
787.891	5351.99
788.224	5293.69
788.557	5319.22
788.89	5269.51
789.223	5303.63
789.556	5260.24
789.888	5245.78
790.221	5246.91
790.554	5204.88
790.887	5192.22
791.219	5122.39
791.552	5088.04
791.884	5136.18
792.217	5069.29
792.549	5042.62
792.882	5035.39
793.214	4991.1
793.546	5028.61
793.879	4963.3
794.211	4978.89
794.543	4998.1
794.875	4960.82
795.207	4957.43
795.539	4927.14
795.871	4918.11
796.203	4876.52
796.535	4833.81
796.867	4828.62
797.198	4820.03
797.53	4800.14
797.862	4794.72
798.193	4783.87
798.525	4776.19
798.856	4776.19
799.188	4733.03
799.519	4714.27
799.85	4698.9
800.182	4670.2
800.513	4715.4
800.844	4670.2
801.175	4725.12
801.506	4687.83
801.837	4639.24
802.168	4632.46
802.499	4629.75
802.83	4648.06
803.161	4577.78
803.491	4578.45
803.822	4535.29
804.153	4568.06
804.483	4546.82
804.814	4539.81
805.145	4512.47
805.475	4508.4
805.805	4460.94
806.136	4492.58
806.466	4502.75
806.796	4519.25
807.126	4471.79
807.457	4391.34
807.787	4431.79
808.117	4411.9
808.447	4405.12
808.777	4414.39
809.107	4389.76
809.436	4409.42
809.766	4386.59
810.096	4345.01
810.426	4326.26
810.755	4310.66
811.085	4331.91
811.414	4315.64
811.744	4232.25
812.073	4260.27
812.403	4282.42
812.732	4194.73
813.061	4242.42
813.39	4211.01
813.719	4196.77
814.049	4206.03
814.378	4200.61
814.707	4181.4
815.036	4189.99
815.365	4184.11
815.693	4161.06
816.022	4141.63
816.351	4132.36
816.68	4083.32
817.008	4154.28
817.337	4120.16
817.665	4092.14
817.994	4068.18
818.322	4092.14
818.651	4067.96
818.979	4038.13
819.307	4049.88
819.636	4046.72
819.964	4028.86
820.292	4049.88
820.62	4028.86
820.948	4031.35
821.276	4086.04
821.604	4068.18
821.932	4041.07
822.259	4025.47
822.587	4062.08
822.915	4031.12
823.243	4071.35
823.57	4008.75
823.898	4052.37
824.225	4017.56
824.553	4023.89
824.88	4070.22
825.207	4056.66
825.535	4057.79
825.862	4049.88
826.189	4049.43
826.516	4065.25
826.843	4065.47
827.17	4008.75
827.497	3998.58
827.824	4019.6
828.151	4028.64
828.478	4031.12
828.805	4046.49
829.131	4002.87
829.458	4010.78
829.785	4005.13
830.111	4011.24
830.438	4007.39
830.764	4065.47
831.09	4051.01
831.417	3999.94
831.743	3986.15
832.069	4030.44
832.395	3982.08
832.722	4004
833.048	3989.09
833.374	3979.6
833.7	3986.6
834.026	3975.31
834.351	3994.06
834.677	3950.9
835.003	3991.12
835.329	3992.25
835.654	3981.86
835.98	3925.59
836.306	3933.05
836.631	3942.09
836.956	3945.48
837.282	3943.22
837.607	3935.98
837.932	3914.74
838.258	3900.96
838.583	3955.87
838.908	3880.84
839.233	3951.35
839.558	3918.36
839.883	3874.06
840.208	3805.37
840.533	3887.62
840.858	3892.6
841.182	3893.5
841.507	3873.39
841.832	3857.12
842.156	3841.3
842.481	3788.42
842.805	3840.62
843.13	3825.03
843.454	3796.1
843.778	3817.8
844.103	3803.78
844.427	3798.59
844.751	3799.94
845.075	3745.93
845.399	3751.13
845.723	3712.04
846.047	3735.54
846.371	3714.97
846.695	3721.07
847.019	3703
847.343	3701.64
847.666	3677.69
847.99	3665.48
848.313	3655.09
848.637	3628.2
848.96	3584.81
849.284	3639.49
849.607	3613.05
849.931	3588.87
850.254	3536.67
850.577	3544.36
850.9	3532.38
851.223	3504.13
851.546	3448.77
851.869	3438.37
852.192	3492.83
852.515	3464.36
852.838	3447.86
853.161	3431.36
853.483	3478.37
853.806	3425.04
854.129	3419.16
854.451	3385.94
854.774	3397.92
855.096	3373.51
855.419	3346.4
855.741	3385.49
856.063	3405.83
856.385	3357.47
856.708	3345.27
857.03	3330.58
857.352	3328.09
857.674	3308.88
857.996	3335.55
858.318	3294.87
858.64	3312.72
858.961	3271.82
859.283	3258.71
859.605	3296.9
859.926	3225.72
860.248	3223.91
860.57	3203.57
860.891	3216.45
861.212	3182.33
861.534	3245.38
861.855	3187.3
862.176	3232.95
862.498	3201.99
862.819	3176.23
863.14	3216.45
863.461	3185.72
863.782	3135.78
864.103	3153.63
864.424	3143.01
864.745	3197.92
865.065	3166.06
865.386	3156.8
865.707	3173.07
866.027	3145.72
866.348	3127.64
866.668	3144.82
866.989	3123.12
867.309	3109.11
867.63	3099.4
867.95	3097.14
868.27	3085.16
868.59	3112.5
868.91	3126.97
869.23	3079.28
869.55	3051.71
869.87	3089
870.19	3075.44
870.51	3075.22
870.83	3095.33
871.15	3044.93
871.469	3076.8
871.789	3060.98
872.109	3055.56
872.428	3048.78
872.748	3046.29
873.067	3024.14
873.386	3036.12
873.706	3057.82
874.025	2987.99
874.344	2962.68
874.663	2999.51
874.982	2975.56
875.301	2964.03
875.62	2962.68
875.939	2954.54
876.258	2956.8
876.577	2954.77
876.896	2927.87
877.214	2952.51
877.533	2917.48
877.852	2944.15
878.17	2956.12
878.489	2942.56
878.807	2954.54
879.125	2886.97
879.444	2956.8
879.762	2880.64
880.08	2886.07
880.398	2906.18
880.716	2908.67
881.034	2906.18
881.352	2886.97
881.67	2887.2
881.988	2868.89
882.306	2891.72
882.624	2896.01
882.941	2849.01
883.259	2844.71
883.577	2869.8
883.894	2879.06
884.212	2863.02
884.529	2859.85
884.846	2836.13
885.164	2823.02
885.481	2839.97
885.798	2827.99
886.115	2792.74
886.432	2793.87
886.75	2756.81
887.067	2770.14
887.383	2776.01
887.7	2753.87
888.017	2733.3
888.334	2745.51
888.651	2728.78
888.967	2735.56
889.284	2738.73
889.6	2728.78
889.917	2700.54
890.233	2737.6
890.55	2717.26
890.866	2729.69
891.182	2681.33
891.498	2691.05
891.815	2704.6
892.131	2691.27
892.447	2710.03
892.763	2710.93
893.079	2691.95
893.395	2658.5
893.71	2665.96
894.026	2638.62
894.342	2658.73
894.657	2645.62
894.973	2634.32
895.289	2599.97
895.604	2637.94
895.92	2606.53
896.235	2603.82
896.55	2578.51
896.865	2601.33
897.181	2574.66
897.496	2570.14
897.811	2560.65
898.126	2571.5
898.441	2534.66
898.756	2504.61
899.071	2529.69
899.386	2536.02
899.7	2497.15
900.015	2513.65
900.33	2516.59
900.644	2484.72
900.959	2504.38
901.273	2505.51
901.588	2467.77
901.902	2472.07
902.216	2453.76
902.531	2455.57
902.845	2434.1
903.159	2418.74
903.473	2392.97
903.787	2408.34
904.101	2402.47
904.415	2398.4
904.729	2391.39
905.042	2385.52
905.356	2372.18
905.67	2389.13
905.984	2358.17
906.297	2385.97
906.611	2376.7
906.924	2344.61
907.237	2335.8
907.551	2309.81
907.864	2311.62
908.177	2360.43
908.491	2295.8
908.804	2326.99
909.117	2276.37
909.43	2267.55
909.743	2286.99
910.056	2234.33
910.368	2242.92
910.681	2247.67
910.994	2232.75
911.307	2255.35
911.619	2238.85
911.932	2237.05
912.244	2201.11
912.557	2254.9
912.869	2194.56
913.181	2232.53
913.494	2194.11
913.806	2192.98
914.118	2159.53
914.43	2172.64
914.742	2142.81
915.054	2128.12
915.366	2141
915.678	2128.8
915.99	2128.35
916.302	2120.89
916.613	2062.59
916.925	2112.53
917.236	2101.46
917.548	2071.85
917.859	2091.06
918.171	2046.32
918.482	2057.16
918.794	2076.6
919.105	2060.55
919.416	2059.42
919.727	2059.65
920.038	2056.26
920.349	2006.09
920.66	2032.31
920.971	2028.24
921.282	2015.58
921.593	2007.67
921.903	1996.15
922.214	1987.79
922.525	1996.37
922.835	1940.56
923.146	1944.17
923.456	1957.28
923.767	1965.64
924.077	1978.3
924.387	1923.83
924.697	1938.75
925.008	1911.4
925.318	1947.34
925.628	1911.4
925.938	1901.24
926.248	1868.47
926.558	1885.42
926.867	1857.85
927.177	1899.65
927.487	1866.43
927.796	1855.81
928.106	1836.38
928.416	1861.01
928.725	1835.93
929.034	1804.06
929.344	1816.04
929.653	1793.44
929.962	1790.05
930.271	1801.35
930.581	1776.94
930.89	1804.06
931.199	1763.16
931.508	1814.46
931.817	1749.6
932.125	1745.53
932.434	1795.02
932.743	1747.57
933.051	1753.44
933.36	1732.65
933.669	1744.63
933.977	1698.08
934.286	1720.22
934.594	1725.42
934.902	1712.09
935.21	1729.26
935.519	1712.99
935.827	1684.29
936.135	1669.38
936.443	1667.34
936.751	1686.78
937.059	1672.99
937.367	1669.38
937.674	1672.77
937.982	1645.42
938.29	1651.07
938.597	1657.63
938.905	1626.21
939.213	1629.38
939.52	1623.28
939.827	1661.69
940.135	1615.37
940.442	1640.45
940.749	1609.72
941.056	1622.37
941.363	1562.26
941.67	1592.32
941.977	1572.88
942.284	1558.65
942.591	1544.18
942.898	1586.22
943.205	1569.72
943.511	1553.22
943.818	1543.96
944.125	1525.2
944.431	1508.7
944.738	1505.54
945.044	1514.35
945.35	1527.46
945.657	1511.64
945.963	1493.79
946.269	1493.79
946.575	1497.18
946.881	1471.19
947.187	1463.51
947.493	1475.71
947.799	1494.92
948.105	1454.92
948.41	1444.3
948.716	1452.89
949.022	1457.18
949.327	1423.06
949.633	1399.1
949.938	1454.69
950.244	1421.02
950.549	1409.95
950.854	1421.7
951.16	1412.66
951.465	1420.57
951.77	1400.23
952.075	1357.52
952.38	1390.97
952.685	1377.41
952.99	1371.53
953.294	1405.66
953.599	1377.18
953.904	1363.17
954.209	1329.5
954.513	1362.04
954.818	1372.21
955.122	1336.73
955.426	1345.09
955.731	1340.12
956.035	1346.45
956.339	1329.27
956.643	1312.78
956.948	1311.87
957.252	1300.35
957.556	1314.81
957.86	1317.75
958.163	1318.65
958.467	1281.59
958.771	1300.8
959.075	1295.15
959.378	1299.22
959.682	1259.67
959.985	1288.37
960.289	1273.46
960.592	1288.82
960.896	1274.36
961.199	1291.08
961.502	1266
961.805	1222.16
962.108	1240.46
962.411	1240.24
962.714	1216.96
963.017	1218.99
963.32	1224.19
963.623	1207.02
963.926	1234.36
964.228	1205.21
964.531	1220.8
964.833	1220.58
965.136	1172.67
965.438	1185.77
965.741	1199.56
966.043	1196.4
966.345	1200.01
966.648	1196.85
966.95	1184.64
967.252	1153.68
967.554	1164.76
967.856	1148.94
968.158	1172.21
968.46	1173.12
968.761	1139.45
969.063	1144.42
969.365	1141.03
969.666	1134.25
969.968	1126.57
970.269	1149.84
970.571	1155.27
970.872	1121.82
971.174	1143.29
971.475	1125.66
971.776	1126.79
972.077	1107.58
972.378	1108.04
972.679	1108.49
972.98	1081.82
973.281	1101.48
973.582	1082.95
973.883	1095.83
974.183	1110.97
974.484	1062.16
974.785	1060.35
975.085	1083.18
975.386	1082.95
975.686	1058.32
975.986	1067.13
976.287	1061.94
976.587	1059.68
976.887	1052.9
977.187	1041.14
977.487	1048.38
977.787	1039.79
978.087	1031.65
978.387	1033.24
978.687	1023.29
978.987	1026.91
979.286	1021.26
979.586	1001.6
979.885	1011.77
980.185	994.59
980.484	1022.84
980.784	1030.07
981.083	997.53
981.382	1004.99
981.682	1002.73
981.981	999.34
982.28	1000.47
982.579	1000.02
982.878	976.06
983.177	986.23
983.475	992.78
983.774	987.59
984.073	973.58
984.372	976.74
984.67	956.85
984.969	947.59
985.267	950.75
985.566	956.18
985.864	934.03
986.162	955.5
986.461	922.28
986.759	945.55
987.057	927.93
987.355	911.43
987.653	968.38
987.951	927.7
988.249	918.66
988.547	932
988.844	904.43
989.142	927.48
989.44	900.13
989.737	888.83
990.035	905.78
990.332	916.4
990.63	896.29
990.927	903.3
991.224	894.93
991.521	907.82
991.819	878.89
992.116	876.18
992.413	872.34
992.71	865.78
993.006	866.01
993.303	892.9
993.6	879.57
993.897	867.82
994.193	852.68
994.49	859
994.787	839.34
995.083	868.04
995.379	863.97
995.676	868.49
995.972	847.7
996.268	834.6
996.565	852
996.861	838.44
997.157	845.44
997.453	842.73
997.749	820.59
998.044	790.3
998.34	828.5
998.636	818.33
998.932	817.87
999.227	842.05
999.523	831.43
999.818	807.48
1000.114	812.45
1000.409	804.09
1000.704	789.63
1001	802.06
1001.295	793.69
1001.59	801.38
1001.885	801.83
1002.18	779.91
1002.475	783.75
1002.77	755.73
1003.065	766.35
1003.359	765.9
1003.654	759.34
1003.949	765.45
1004.243	779.91
1004.538	761.15
1004.832	765.9
1005.127	762.06
1005.421	755.28
1005.715	743.98
1006.009	750.31
1006.304	744.43
1006.598	728.84
1006.892	721.15
1007.186	759.57
1007.48	734.49
1007.773	737.2
1008.067	744.43
1008.361	736.52
1008.655	724.77
1008.948	707.37
1009.242	717.31
1009.535	717.31
1009.829	719.35
1010.122	724.54
1010.415	727.71
1010.708	746.69
1011.001	709.18
1011.295	699.68
1011.588	696.3
1011.881	690.65
1012.173	695.84
1012.466	697.43
1012.759	692
1013.052	680.93
1013.344	665.56
1013.637	688.16
1013.93	662.85
1014.222	663.3
1014.514	661.49
1014.807	666.01
1015.099	653.36
1015.391	656.75
1015.683	657.88
1015.976	668.73
1016.268	639.35
1016.56	644.55
1016.851	646.81
1017.143	637.54
1017.435	641.38
1017.727	652.23
1018.018	656.97
1018.31	642.74
1018.602	619.46
1018.893	638.9
1019.185	632.34
1019.476	626.47
1019.767	610.42
1020.058	645.22
1020.35	610.65
1020.641	607.94
1020.932	604.32
1021.223	594.83
1021.514	596.18
1021.804	622.62
1022.095	606.58
1022.386	607.48
1022.677	586.92
1022.967	603.64
1023.258	583.3
1023.548	602.06
1023.839	598.44
1024.129	595.73
1024.419	585.79
1024.709	560.03
1025	600.48
1025.29	567.26
1025.58	583.98
1025.87	583.76
1026.16	578.11
1026.449	575.62
1026.739	572.68
1027.029	582.4
1027.319	579.24
1027.608	578.11
1027.898	551.44
1028.187	562.51
1028.477	568.16
1028.766	550.54
1029.055	547.37
1029.344	542.18
1029.634	543.53
1029.923	548.95
1030.212	546.69
1030.501	540.37
1030.79	521.16
1031.078	552.8
1031.367	525.9
1031.656	521.61
1031.945	546.47
1032.233	542.85
1032.522	546.92
1032.81	517.32
1033.099	518.67
1033.387	526.81
1033.675	508.05
1033.963	532.01
1034.251	523.19
1034.54	499.92
1034.828	505.79
1035.116	507.6
1035.403	477.54
1035.691	515.51
1035.979	498.33
1036.267	476.19
1036.554	499.01
1036.842	505.79
1037.129	504.21
1037.417	489.75
1037.704	509.41
1037.992	501.72
1038.279	502.18
1038.566	485.68
1038.853	485.68
1039.14	485.68
