Data from black_plastic_tray_FLMS001491_012.txt Node
Date: Tue Feb 07 10:39:21 GMT 2017
User: dcchb
Spectrometer: FLMS00149
Trigger mode: 0
Integration Time (sec): 2.000000E-2
Scans to average: 10
Electric dark correction enabled: true
Nonlinearity correction enabled: false
Boxcar width: 0
XAxis mode: Wavelengths
Number of Pixels in Spectrum: 2048
>>>>>Begin Spectral Data<<<<<
341.393	-4.51
341.776	-4.51
342.16	-4.51
342.543	-60.55
342.927	-71.4
343.31	-60.55
343.693	-73.2
344.077	-65.75
344.46	-65.97
344.843	-57.16
345.226	-52.64
345.61	-20.32
345.993	-24.17
346.376	-7.22
346.759	-2.02
347.142	28.49
347.525	46.34
347.908	57.87
348.291	79.79
348.674	88.6
349.057	127.92
349.44	137.41
349.823	138.99
350.206	161.82
350.588	193.23
350.971	167.02
351.354	204.3
351.737	234.81
352.119	240.23
352.502	248.14
352.884	240.23
353.267	275.71
353.65	270.97
354.032	289.05
354.414	299.44
354.797	293.34
355.179	277.97
355.562	306.9
355.944	325.43
356.326	316.39
356.709	317.29
357.091	330.85
357.473	324.3
357.855	327.69
358.238	320.01
358.62	328.82
359.002	316.39
359.384	325.66
359.766	305.32
360.148	323.4
360.53	319.78
360.912	323.85
361.294	328.37
361.676	322.27
362.057	329.95
362.439	311.64
362.821	307.8
363.203	306.45
363.584	329.05
363.966	305.09
364.348	298.54
364.729	306.22
365.111	305.77
365.493	301.25
365.874	312.32
366.256	313.9
366.637	287.69
367.019	298.99
367.4	315.26
367.781	311.42
368.163	303.96
368.544	282.04
368.925	298.54
369.306	316.16
369.688	315.71
370.069	299.67
370.45	311.42
370.831	307.58
371.212	303.96
371.593	297.18
371.974	298.76
372.355	292.66
372.736	300.57
373.117	299.67
373.498	298.76
373.879	311.19
374.26	318.65
374.641	327.01
375.021	310.29
375.402	327.24
375.783	316.16
376.163	320.46
376.544	297.18
376.925	322.72
377.305	306.45
377.686	319.33
378.066	333.11
378.447	330.85
378.827	316.84
379.208	324.75
379.588	320.46
379.968	322.72
380.349	325.88
380.729	346.45
381.109	331.3
381.489	331.53
381.87	326.79
382.25	347.12
382.63	336.05
383.01	333.11
383.39	354.58
383.77	350.97
384.15	317.07
384.53	329.05
384.91	334.02
385.29	356.61
385.67	343.73
386.049	327.46
386.429	353.23
386.809	346.9
387.189	356.16
387.568	357.07
387.948	340.12
388.328	363.62
388.707	337.63
389.087	369.72
389.466	350.51
389.846	336.73
390.225	373.34
390.605	373.11
390.984	360.91
391.363	355.03
391.743	363.85
392.122	369.5
392.501	362.49
392.881	363.39
393.26	365.65
393.639	359.33
394.018	359.33
394.397	357.97
394.776	377.41
395.155	362.26
395.534	368.82
395.913	375.15
396.292	385.77
396.671	382.83
397.05	396.16
397.429	379.67
397.808	393.45
398.186	387.57
398.565	371.3
398.944	406.11
399.323	400.46
399.701	395.48
400.08	385.99
400.458	392.55
400.837	399.55
401.215	381.7
401.594	386.9
401.972	397.07
402.351	422.38
402.729	404.75
403.107	418.76
403.486	400.91
403.864	422.83
404.242	414.24
404.62	424.18
404.999	409.27
405.377	427.57
405.755	433
406.133	452.88
406.511	427.35
406.889	456.95
407.267	429.16
407.645	437.52
408.023	444.3
408.401	458.76
408.779	465.09
409.156	444.52
409.534	429.83
409.912	453.34
410.29	444.75
410.667	467.57
411.045	473.67
411.422	496.05
411.8	457.4
412.178	458.53
412.555	482.04
412.933	470.06
413.31	475.26
413.687	485.88
414.065	459.21
414.442	497.18
414.819	489.04
415.197	492.88
415.574	510.28
415.951	517.97
416.328	496.95
416.705	543.73
417.082	509.15
417.46	521.58
417.837	501.47
418.214	524.52
418.591	505.76
418.967	528.36
419.344	498.76
419.721	506.22
420.098	527.01
420.475	547.34
420.852	529.94
421.228	529.49
421.605	527.68
421.982	547.34
422.358	558.42
422.735	538.76
423.111	571.98
423.488	571.75
423.864	580.11
424.241	563.39
424.617	573.78
424.994	571.07
425.37	586.67
425.746	602.94
426.123	580.79
426.499	587.8
426.875	591.41
427.251	600.22
427.627	618.98
428.003	614.46
428.379	608.59
428.756	630.05
429.132	637.74
429.507	629.6
429.883	642.71
430.259	648.13
430.635	632.99
431.011	664.4
431.387	686.55
431.763	676.61
432.138	687.45
432.514	691.3
432.89	681.13
433.265	689.04
433.641	699.2
434.016	715.93
434.392	729.49
434.767	726.77
435.143	720.9
435.518	720.22
435.894	727
436.269	747.79
436.644	728.58
437.02	738.07
437.395	764.29
437.77	772.88
438.145	766.77
438.52	788.02
438.895	792.31
439.271	792.54
439.646	799.77
440.021	806.32
440.395	811.97
440.77	796.38
441.145	799.32
441.52	821.24
441.895	802.25
442.27	822.37
442.645	802.7
443.019	838.64
443.394	817.39
443.769	844.29
444.143	823.5
444.518	825.76
444.892	861.46
445.267	840.67
445.641	842.48
446.016	839.99
446.39	853.78
446.764	873.66
447.139	868.92
447.513	860.78
447.887	882.93
448.262	901.91
448.636	876.15
449.01	894.45
449.384	899.43
449.758	903.49
450.132	942.59
450.506	926.77
450.88	919.99
451.254	931.52
451.628	946.66
452.002	954.34
452.376	943.72
452.75	925.64
453.123	979.65
453.497	966.99
453.871	957.05
454.244	985.3
454.618	994.11
454.992	1035.69
455.365	1026.2
455.739	1033.66
456.112	1031.4
456.486	1038.86
456.859	1065.97
457.232	1077.95
457.606	1079.76
457.979	1070.72
458.352	1101
458.725	1104.62
459.099	1129.48
459.472	1129.48
459.845	1135.58
460.218	1148.68
460.591	1159.98
460.964	1185.97
461.337	1197.5
461.71	1231.17
462.083	1211.73
462.456	1219.87
462.829	1230.04
463.201	1246.76
463.574	1236.59
463.947	1223.03
464.32	1279.08
464.692	1301.9
465.065	1303.93
465.438	1325.4
465.81	1336.93
466.183	1336.02
466.555	1357.49
466.928	1389.58
467.3	1374.67
467.672	1398.62
468.045	1411.05
468.417	1435.46
468.789	1455.34
469.161	1433.2
469.534	1475.91
469.906	1509.13
470.278	1485.4
470.65	1525.4
471.022	1540.76
471.394	1553.42
471.766	1561.33
472.138	1594.55
472.51	1636.13
472.882	1670.93
473.253	1639.97
473.625	1664.6
473.997	1692.62
474.369	1697.37
474.74	1724.04
475.112	1749.12
475.484	1792.51
475.855	1804.94
476.227	1829.12
476.598	1885.16
476.97	1914.09
477.341	1908.44
477.713	1936.23
478.084	1979.4
478.455	2004.93
478.827	2034.31
479.198	2087.87
479.569	2064.59
479.94	2127.87
480.311	2138.94
480.682	2159.28
481.053	2229.11
481.424	2281.08
481.795	2296.68
482.166	2322.89
482.537	2317.47
482.908	2374.64
483.279	2392.04
483.65	2441.53
484.021	2473.85
484.391	2495.54
484.762	2527.63
485.133	2536.9
485.503	2545.94
485.874	2641.98
486.244	2607.86
486.615	2721.3
486.985	2731.47
487.356	2767.17
487.726	2780.28
488.097	2849.43
488.467	2858.92
488.837	2916.55
489.207	2916.32
489.578	2941.86
489.948	2966.49
490.318	3027.28
490.688	3068.41
491.058	3127.62
491.428	3109.31
491.798	3159.71
492.168	3222.98
492.538	3213.26
492.908	3249.19
493.278	3286.26
493.648	3328.74
494.017	3342.07
494.387	3368.74
494.757	3366.93
495.126	3440.15
495.496	3455.74
495.866	3492.8
496.235	3513.37
496.605	3532.35
496.974	3564.67
497.344	3561.28
497.713	3576.42
498.082	3605.8
498.452	3655.96
498.821	3671.1
499.19	3693.48
499.559	3787.49
499.928	3746.13
500.298	3806.69
500.667	3817.09
501.036	3805.79
501.405	3869.52
501.774	3903.64
502.143	3898.67
502.512	3890.53
502.88	3896.41
503.249	3930.53
503.618	3980.02
503.987	4003.07
504.356	4031.77
504.724	4053.24
505.093	4041.26
505.462	4126.23
505.83	4122.39
506.199	4221.6
506.567	4193.35
506.936	4220.47
507.304	4274.93
507.672	4271.31
508.041	4308.83
508.409	4303.18
508.777	4328.94
509.145	4369.84
509.514	4396.51
509.882	4410.29
510.25	4460.01
510.618	4426.11
510.986	4500.01
511.354	4548.14
511.722	4618.88
512.09	4629.72
512.458	4616.62
512.826	4654.13
513.193	4709.49
513.561	4748.59
513.929	4769.38
514.297	4821.36
514.664	4838.76
515.032	4825.42
515.4	4872.88
515.767	4903.39
516.135	4917.4
516.502	4912.88
516.869	5010.05
517.237	5016.15
517.604	5046.21
517.972	5092.54
518.339	5126.66
518.706	5179.99
519.073	5197.62
519.44	5225.87
519.808	5240.55
520.175	5237.16
520.542	5341.34
520.909	5365.07
521.276	5351.74
521.643	5482.13
522.009	5482.58
522.376	5518.51
522.743	5536.14
523.11	5578.4
523.477	5611.84
523.843	5745.17
524.21	5773.42
524.577	5789.24
524.943	5788.11
525.31	5856.13
525.676	5867.2
526.043	5955.11
526.409	5981.78
526.776	6044.37
527.142	6040.53
527.508	6076.24
527.874	6127.54
528.241	6200.08
528.607	6199.63
528.973	6276.91
529.339	6283.69
529.705	6319.85
530.071	6360.75
530.437	6378.83
530.803	6428.32
531.169	6488.21
531.535	6468.54
531.901	6459.05
532.267	6530.01
532.632	6567.53
532.998	6654.98
533.364	6617.92
533.73	6661.99
534.095	6699.95
534.461	6704.24
534.826	6781.53
535.192	6817.69
535.557	6794.19
535.923	6814.52
536.288	6873.28
536.653	6924.8
537.019	6898.82
537.384	6939.27
537.749	6984.46
538.114	7010.45
538.479	7028.08
538.845	7028.3
539.21	7099.71
539.575	7075.08
539.94	7125.48
540.305	7212.93
540.67	7158.92
541.034	7205.7
541.399	7230.11
541.764	7262.87
542.129	7276.21
542.494	7312.14
542.858	7367.96
543.223	7310.1
543.587	7368.18
543.952	7334.28
544.316	7383.1
544.681	7494.73
545.045	7434.39
545.41	7507.84
545.774	7547.16
546.138	7469.42
546.503	7542.87
546.867	7571.57
547.231	7656.31
547.595	7644.33
547.959	7645.24
548.324	7633.26
548.688	7736.31
549.052	7739.02
549.416	7800.71
549.779	7754.61
550.143	7808.4
550.507	7883.2
550.871	7848.85
551.235	7806.59
551.599	7914.16
551.962	7960.03
552.326	7960.93
552.689	8045.23
553.053	8014.27
553.417	7992.35
553.78	8140.14
554.143	8134.94
554.507	8148.05
554.87	8150.99
555.234	8236.63
555.597	8223.98
555.96	8242.74
556.323	8273.02
556.686	8340.59
557.05	8391.66
557.413	8433.69
557.776	8391.66
558.139	8486.12
558.502	8524.54
558.865	8511.43
559.228	8595.27
559.59	8659.67
559.953	8693.8
560.316	8716.62
560.679	8724.98
561.041	8766.11
561.404	8813.79
561.767	8822.16
562.129	8863.74
562.492	8953.9
562.854	8976.28
563.217	9044.07
563.579	9026.44
563.941	9025.09
564.304	9103.5
564.666	9091.07
565.028	9150.96
565.39	9221.47
565.753	9270.96
566.115	9275.48
566.477	9308.92
566.839	9335.59
567.201	9376.94
567.563	9424.63
567.925	9444.29
568.287	9474.12
568.648	9539.2
569.01	9569.71
569.372	9565.19
569.734	9600.44
570.095	9697.61
570.457	9692.64
570.819	9746.88
571.18	9759.08
571.542	9832.98
571.903	9754.56
572.265	9831.62
572.626	9824.16
572.987	9899.41
573.349	9868.46
573.71	9960.2
574.071	9951.39
574.432	10064.83
574.794	10060.54
575.155	10042.24
575.516	10055.12
575.877	10078.39
576.238	10145.96
576.599	10101.44
576.96	10079.75
577.32	10142.57
577.681	10250.14
578.042	10184.38
578.403	10223.7
578.763	10267.09
579.124	10279.29
579.485	10303.92
579.845	10340.76
580.206	10280.42
580.566	10321.1
580.927	10302.12
581.287	10343.24
581.648	10290.59
582.008	10333.08
582.368	10272.29
582.728	10353.41
583.089	10306.86
583.449	10298.95
583.809	10409.23
584.169	10376.24
584.529	10341.44
584.889	10444.71
585.249	10402
585.609	10317.26
585.969	10383.92
586.329	10388.44
586.688	10425.95
587.048	10355.22
587.408	10321.55
587.768	10395.9
588.127	10350.93
588.487	10338.05
588.846	10447.2
589.206	10324.49
589.565	10346.86
589.925	10399.29
590.284	10351.61
590.643	10365.62
591.003	10451.49
591.362	10443.81
591.721	10428.21
592.08	10435.45
592.44	10485.39
592.799	10412.85
593.158	10379.63
593.517	10434.99
593.876	10490.59
594.235	10502.11
594.593	10469.8
594.952	10510.02
595.311	10453.3
595.67	10542.56
596.029	10533.97
596.387	10513.18
596.746	10524.94
597.104	10491.94
597.463	10475.22
597.822	10517.93
598.18	10448.33
598.538	10505.95
598.897	10508.21
599.255	10494.88
599.613	10646.97
599.972	10557.02
600.33	10554.54
600.688	10539.62
601.046	10541.21
601.404	10586.85
601.762	10672.95
602.12	10643.58
602.478	10698.26
602.836	10748.43
603.194	10636.34
603.552	10706.85
603.91	10623.69
604.268	10657.36
604.625	10675.21
604.983	10722.67
605.341	10614.2
605.698	10699.39
606.056	10676.8
606.413	10675.21
606.771	10752.27
607.128	10717.7
607.485	10730.81
607.843	10731.71
608.2	10770.13
608.557	10796.57
608.914	10785.04
609.272	10787.98
609.629	10779.17
609.986	10830.92
610.343	10820.07
610.7	10887.19
611.057	10865.04
611.414	10811.26
611.771	10888.54
612.127	10902.78
612.484	10877.69
612.841	10920.63
613.198	10922.66
613.554	10944.36
613.911	10944.81
614.267	10939.61
614.624	10900.74
614.98	10900.97
615.337	11019.61
615.693	11002.66
616.05	10979.39
616.406	11034.3
616.762	10987.52
617.118	11040.18
617.475	10977.8
617.831	11066.39
618.187	11081.98
618.543	11095.09
618.899	11098.48
619.255	11128.76
619.611	11192.26
619.967	11120.63
620.323	11206.73
620.678	11131.25
621.034	11081.98
621.39	11133.73
621.746	11061.42
622.101	11083.56
622.457	11074.98
622.812	11046.28
623.168	11179.61
623.523	11132.83
623.879	11233.17
624.234	11021.19
624.589	11103.45
624.945	11127.86
625.3	11123.56
625.655	11196.1
626.01	11130.12
626.365	11166.27
626.72	11145.71
627.075	11159.49
627.43	11077.01
627.785	11103.23
628.14	11130.57
628.495	11104.58
628.85	11108.87
629.205	11065.49
629.559	11150
629.914	11091.7
630.269	11035.88
630.623	11084.47
630.978	11027.52
631.332	11033.62
631.687	11057.8
632.041	11073.17
632.396	11111.36
632.75	10996.56
633.104	11058.71
633.459	10899.39
633.813	10967.64
634.167	10935.77
634.521	10882.44
634.875	10965.38
635.229	10965.15
635.583	10889.45
635.937	10861.88
636.291	10877.69
636.645	10871.59
636.999	10926.51
637.352	10782.1
637.706	10715.44
638.06	10803.8
638.413	10826.62
638.767	10809.45
639.121	10767.87
639.474	10697.36
639.828	10721.77
640.181	10770.58
640.534	10783.01
640.888	10709.11
641.241	10577.59
641.594	10620.53
641.947	10740.3
642.301	10586.85
642.654	10567.65
643.007	10639.06
643.36	10623.46
643.713	10596.57
644.066	10582.79
644.419	10557.02
644.771	10531.49
645.124	10423.69
645.477	10432.28
645.83	10254.21
646.182	10235.68
646.535	10216.47
646.888	10236.58
647.24	10184.38
647.593	10192.51
647.945	10156.36
648.298	10095.57
648.65	10098.05
649.002	10125.62
649.355	10149.35
649.707	10156.36
650.059	10152.97
650.411	10299.63
650.763	10334.88
651.115	10464.6
651.467	10305.96
651.819	10448.1
652.171	10394.09
652.523	10308.67
652.875	10305.96
653.227	10256.24
653.578	10347.76
653.93	10268.9
654.282	10338.73
654.633	10237.26
654.985	10242.46
655.337	10194.77
655.688	10190.48
656.039	10226.19
656.391	10163.14
656.742	10217.82
657.094	10197.94
657.445	10232.74
657.796	10215.34
658.147	10247.88
658.498	10245.85
658.849	10168.33
659.2	10130.14
659.551	10171.05
659.902	10232.29
660.253	10129.24
660.604	10190.93
660.955	10143.7
661.306	10229.8
661.656	10129.69
662.007	10163.36
662.358	10110.48
662.708	10089.69
663.059	10044.95
663.409	10099.64
663.76	10103.93
664.11	10167.66
664.461	10189.12
664.811	10075.68
665.161	10101.22
665.511	10100.54
665.862	10114.1
666.212	10128.34
666.562	10059.64
666.912	10094.21
667.262	10137.15
667.612	10093.31
667.962	10134.21
668.312	10044.72
668.662	10064.61
669.011	10050.82
669.361	9951.39
669.711	9980.77
670.06	9944.39
670.41	9976.25
670.76	9958.4
671.109	9966.08
671.459	9962.69
671.808	9959.53
672.157	9946.19
672.507	9832.52
672.856	9931.28
673.205	9960.2
673.554	9860.32
673.904	9857.61
674.253	9922.01
674.602	9894.67
674.951	9761.11
675.3	9662.58
675.649	9829.81
675.998	9838.4
676.346	9860.55
676.695	9881.79
677.044	9849.25
677.393	9798.63
677.741	9776.93
678.09	9835.46
678.438	9822.58
678.787	9810.6
679.135	9829.13
679.484	9727.22
679.832	9765.41
680.181	9655.13
680.529	9797.72
680.877	9745.97
681.225	9658.07
681.573	9759.98
681.922	9661.23
682.27	9692.64
682.618	9624.62
682.966	9637.05
683.314	9686.54
683.661	9668.23
684.009	9621.68
684.357	9518.63
684.705	9532.64
685.053	9527.67
685.4	9498.3
685.748	9463.27
686.095	9495.58
686.443	9414.91
686.79	9383.5
687.138	9389.82
687.485	9411.97
687.832	9405.19
688.18	9350.95
688.527	9346.89
688.874	9326.32
689.221	9297.85
689.568	9289.26
689.915	9299.2
690.262	9227.79
690.609	9210.17
690.956	9168.13
691.303	9149.15
691.65	9102.83
691.997	9117.06
692.344	9015.6
692.69	9104.63
693.037	9040.45
693.383	9006.33
693.73	9028.7
694.077	8983.28
694.423	9008.59
694.769	8959.55
695.116	8975.15
695.462	8891.76
695.808	8949.16
696.155	8894.92
696.501	8785.32
696.847	8793
697.193	8823.28
697.539	8790.97
697.885	8795.04
698.231	8765.21
698.577	8710.07
698.923	8678.43
699.269	8633.46
699.614	8611.54
699.96	8572.44
700.306	8599.34
700.651	8488.83
700.997	8568.38
701.342	8525.21
701.688	8442.28
702.033	8433.01
702.379	8495.38
702.724	8488.15
703.069	8415.61
703.415	8389.17
703.76	8329.74
704.105	8416.06
704.45	8361.38
704.795	8324.77
705.14	8256.52
705.485	8264.66
705.83	8291.77
706.175	8261.27
706.52	8242.28
706.865	8212.23
707.209	8179.91
707.554	8142.62
707.899	8186.47
708.243	8139.46
708.588	8120.7
708.932	8066.47
709.277	8032.12
709.621	8115.96
709.966	8029.41
710.31	8025.57
710.654	7980.37
710.998	7917.77
711.342	7990.31
711.687	7907.38
712.031	7953.25
712.375	7860.82
712.719	7861.28
713.063	7915.06
713.407	7907.83
713.75	7877.32
714.094	7770.66
714.438	7841.84
714.782	7781.28
715.125	7768.4
715.469	7766.36
715.812	7662.64
716.156	7650.43
716.499	7693.37
716.843	7692.92
717.186	7671.68
717.53	7682.3
717.873	7707.38
718.216	7602.75
718.559	7654.73
718.902	7606.37
719.246	7568.63
719.589	7576.76
719.932	7543.77
720.275	7558.91
720.617	7554.17
720.96	7513.26
721.303	7554.17
721.646	7576.31
721.989	7438.69
722.331	7492.7
722.674	7446.37
723.016	7414.28
723.359	7491.34
723.701	7437.78
724.044	7315.98
724.386	7374.06
724.729	7409.76
725.071	7373.38
725.413	7342.87
725.755	7309.2
726.097	7323.89
726.439	7282.99
726.782	7299.71
727.124	7264
727.465	7317.79
727.807	7234.63
728.149	7271.46
728.491	7225.13
728.833	7238.69
729.175	7130.9
729.516	7183.33
729.858	7140.39
730.199	7193.95
730.541	7153.05
730.882	7191.46
731.224	7176.55
731.565	7106.27
731.906	7090.9
732.248	7007.06
732.589	7046.38
732.93	7026.95
733.271	7043.44
733.612	7094.06
733.953	7022.65
734.294	7032.82
734.635	7057.46
734.976	7071.69
735.317	6962.77
735.658	6958.48
735.999	6986.27
736.339	6923
736.68	6997.12
737.021	6894.75
737.361	6864.47
737.702	6968.87
738.042	6856.56
738.383	6896.33
738.723	6864.01
739.063	6794.41
739.404	6846.84
739.744	6850.68
740.084	6894.75
740.424	6873.51
740.764	6875.77
741.104	6869.89
741.444	6777.24
741.784	6808.42
742.124	6792.38
742.464	6793.51
742.804	6761.19
743.143	6757.58
743.483	6748.09
743.823	6741.76
744.162	6712.15
744.502	6784.47
744.841	6668.31
745.181	6679.61
745.52	6682.78
745.86	6628.99
746.199	6702.89
746.538	6663.79
746.877	6656.56
747.216	6610.01
747.556	6638.71
747.895	6601.65
748.234	6572.95
748.573	6596.22
748.911	6560.97
749.25	6581.31
749.589	6563.46
749.928	6593.06
750.267	6601.42
750.605	6544.7
750.944	6540.41
751.283	6497.7
751.621	6533.18
751.96	6419.28
752.298	6490.24
752.636	6461.54
752.975	6415.89
753.313	6392.39
753.651	6471.71
753.989	6402.33
754.327	6373.86
754.666	6379.06
755.004	6428.32
755.342	6390.81
755.679	6366.63
756.017	6317.36
756.355	6238.72
756.693	6277.82
757.031	6301.77
757.368	6223.81
757.706	6210.47
758.044	6191.49
758.381	6198.27
758.719	6202.79
759.056	6208.66
759.394	6189
759.731	6110.14
760.068	6132.73
760.405	6078.05
760.743	6092.06
761.08	6083.92
761.417	6026.3
761.754	6056.13
762.091	6046.63
762.428	6031.95
762.765	5957.37
763.102	5983.13
763.438	5929.8
763.775	5899.07
764.112	5930.25
764.449	5891.38
764.785	5947.2
765.122	5828.79
765.458	5864.49
765.795	5858.84
766.131	5822.01
766.467	5821.56
766.804	5823.14
767.14	5747.43
767.476	5748.34
767.812	5691.16
768.148	5743.37
768.485	5673.31
768.821	5645.97
769.157	5646.42
769.492	5700.2
769.828	5625.63
770.164	5586.76
770.5	5556.93
770.836	5625.85
771.171	5558.51
771.507	5554.9
771.842	5519.64
772.178	5477.38
772.513	5485.97
772.849	5479.19
773.184	5461.11
773.519	5403.94
773.855	5450.04
774.19	5365.07
774.525	5382.25
774.86	5365.97
775.195	5370.04
775.53	5312.19
775.865	5291.4
776.2	5216.37
776.535	5259.08
776.87	5190.84
777.205	5258.41
777.539	5194.68
777.874	5239.88
778.209	5158.75
778.543	5132.08
778.878	5098.64
779.212	5116.04
779.547	5097.28
779.881	5057.06
780.215	5067.9
780.55	5031.52
780.884	5048.47
781.218	5010.96
781.552	4999.66
781.886	4965.53
782.22	4984.06
782.554	4942.94
782.888	4896.83
783.222	4868.36
783.556	4878.3
783.889	4866.33
784.223	4838.76
784.557	4858.87
784.89	4816.61
785.224	4781.81
785.557	4828.81
785.891	4793.11
786.224	4757.86
786.558	4732.55
786.891	4721.92
787.224	4721.02
787.557	4722.6
787.891	4700.46
788.224	4720.12
788.557	4667.24
788.89	4657.97
789.223	4669.27
789.556	4638.08
789.888	4625.88
790.221	4614.36
790.554	4564.64
790.887	4582.72
791.219	4537.3
791.552	4478.54
791.884	4497.75
792.217	4512.21
792.549	4512.21
792.882	4451.42
793.214	4446.22
793.546	4439.45
793.879	4435.38
794.211	4417.53
794.543	4428.37
794.875	4418.66
795.207	4379.11
795.539	4387.92
795.871	4395.38
796.203	4310.64
796.535	4300.01
796.867	4278.32
797.198	4338.66
797.53	4304.99
797.862	4270.18
798.193	4276.51
798.525	4215.04
798.856	4277.42
799.188	4242.39
799.519	4156.29
799.85	4150.87
800.182	4185.67
800.513	4186.8
800.844	4139.79
801.175	4140.47
801.506	4117.42
801.837	4097.99
802.168	4103.64
802.499	4136.18
802.83	4063.18
803.161	4056.86
803.491	4065.44
803.822	4113.8
804.153	4042.62
804.483	4033.58
804.814	3979.8
805.145	3979.34
805.475	3971.89
805.805	3960.81
806.136	3986.12
806.466	3984.09
806.796	3994.71
807.126	3925.11
807.457	3952.45
807.787	3928.95
808.117	3961.04
808.447	3926.01
808.777	3907.71
809.107	3893.25
809.436	3885.56
809.766	3832.68
810.096	3834.72
810.426	3815.06
810.755	3863.42
811.085	3820.25
811.414	3834.04
811.744	3783.42
812.073	3769.41
812.403	3794.49
812.732	3756.3
813.061	3746.13
813.39	3728.96
813.719	3742.51
814.049	3768.73
814.378	3744.77
814.707	3737.99
815.036	3707.49
815.365	3724.21
815.693	3658.67
816.022	3688.28
816.351	3689.63
816.68	3645.57
817.008	3663.87
817.337	3641.95
817.665	3638.11
817.994	3627.72
818.322	3662.52
818.651	3631.33
818.979	3594.27
819.307	3628.85
819.636	3593.59
819.964	3599.24
820.292	3581.84
820.62	3592.01
820.948	3573.71
821.276	3579.81
821.604	3554.04
821.932	3543.2
822.259	3582.29
822.587	3560.6
822.915	3579.13
823.243	3589.98
823.57	3535.74
823.898	3566.25
824.225	3590.2
824.553	3593.14
824.88	3575.06
825.207	3566.7
825.535	3583.65
825.862	3585.68
826.189	3545.01
826.516	3521.73
826.843	3528.51
827.17	3524.22
827.497	3591.56
827.824	3553.82
828.151	3557.43
828.478	3558.34
828.805	3550.43
829.131	3572.35
829.458	3523.99
829.785	3555.17
830.111	3568.73
830.438	3535.97
830.764	3541.39
831.09	3529.41
831.417	3532.12
831.743	3526.48
832.069	3527.15
832.395	3552.24
832.722	3517.44
833.048	3528.96
833.374	3524.67
833.7	3481.73
834.026	3509.53
834.351	3564.89
834.677	3543.88
835.003	3534.16
835.329	3505.46
835.654	3532.12
835.98	3489.64
836.306	3512.01
836.631	3493.03
836.956	3470.66
837.282	3479.02
837.607	3455.74
837.932	3389.3
838.258	3430.66
838.583	3439.02
838.908	3427.04
839.233	3458.68
839.558	3420.94
839.883	3438.79
840.208	3449.19
840.533	3432.01
840.858	3414.39
841.182	3418
841.507	3393.6
841.832	3365.35
842.156	3392.92
842.481	3410.09
842.805	3364.22
843.13	3335.52
843.454	3359.02
843.778	3375.74
844.103	3366.93
844.427	3338.01
844.751	3335.52
845.075	3317.22
845.399	3338.01
845.723	3293.26
846.047	3308.85
846.371	3308.18
846.695	3279.7
847.019	3275.63
847.343	3258.01
847.666	3243.32
847.99	3284.67
848.313	3221.4
848.637	3227.73
848.96	3221.62
849.284	3226.6
849.607	3191.79
849.931	3169.65
850.254	3156.77
850.577	3122.87
850.9	3083.77
851.223	3094.62
851.546	3072.93
851.869	3063.21
852.192	3088.52
852.515	3057.33
852.838	3002.87
853.161	3044
853.483	3031.57
853.806	3032.02
854.129	3024.12
854.451	3018.47
854.774	3032.7
855.096	2976.89
855.419	2956.55
855.741	3003.78
856.063	2944.57
856.385	2933.27
856.708	2921.97
857.03	2921.75
857.352	2930.56
857.674	2933.27
857.996	2949.77
858.318	2936.89
858.64	2921.52
858.961	2874.06
859.283	2896.66
859.605	2894.4
859.926	2890.79
860.248	2858.7
860.57	2871.58
860.891	2836.1
861.212	2886.94
861.534	2878.36
861.855	2852.37
862.176	2851.01
862.498	2869.32
862.819	2809.66
863.14	2804.91
863.461	2870
863.782	2775.76
864.103	2797.68
864.424	2792.48
864.745	2806.04
865.065	2794.74
865.386	2784.35
865.707	2761.75
866.027	2828.87
866.348	2779.38
866.668	2773.05
866.989	2750.45
867.309	2797
867.63	2748.42
867.95	2735.99
868.27	2726.72
868.59	2759.04
868.91	2758.59
869.23	2749.32
869.55	2722.43
869.87	2738.47
870.19	2715.2
870.51	2730.79
870.83	2716.1
871.15	2747.74
871.469	2692.37
871.789	2762.65
872.109	2702.32
872.428	2709.77
872.748	2703.45
873.067	2673.39
873.386	2685.82
873.706	2654.63
874.025	2681.07
874.344	2671.36
874.663	2688.76
874.982	2686.27
875.301	2646.27
875.62	2651.24
875.939	2644.69
876.258	2613.5
876.577	2620.28
876.896	2623.22
877.214	2595.65
877.533	2607.4
877.852	2632.71
878.17	2637.46
878.489	2624.8
878.807	2613.96
879.125	2592.04
879.444	2623.67
879.762	2627.52
880.08	2597.69
880.398	2594.52
880.716	2589.55
881.034	2600.85
881.352	2600.4
881.67	2588.87
881.988	2590.23
882.306	2560.85
882.624	2528.08
882.941	2560.62
883.259	2582.09
883.577	2578.03
883.894	2554.98
884.212	2579.83
884.529	2542.32
884.846	2541.19
885.164	2553.62
885.481	2537.35
885.798	2556.33
886.115	2507.07
886.432	2522.89
886.75	2466.16
887.067	2484.47
887.383	2511.59
887.7	2477.01
888.017	2477.46
888.334	2459.38
888.651	2449.22
888.967	2425.26
889.284	2488.08
889.6	2445.6
889.917	2451.02
890.233	2444.47
890.55	2399.5
890.866	2431.14
891.182	2414.64
891.498	2402.89
891.815	2414.87
892.131	2429.55
892.447	2377.13
892.763	2401.31
893.079	2392.95
893.395	2381.65
893.71	2381.87
894.026	2365.38
894.342	2375.77
894.657	2340.52
894.973	2362.89
895.289	2312.27
895.604	2347.97
895.92	2338.48
896.235	2312.72
896.55	2319.73
896.865	2317.02
897.181	2317.69
897.496	2323.79
897.811	2317.02
898.126	2244.7
898.441	2292.38
898.756	2273.17
899.071	2258.71
899.386	2248.77
899.7	2266.85
900.015	2269.11
900.33	2238.83
900.644	2251.93
900.959	2210.35
901.273	2218.49
901.588	2239.5
901.902	2183.46
902.216	2187.53
902.531	2182.1
902.845	2198.6
903.159	2183.69
903.473	2159.51
903.787	2140.97
904.101	2157.02
904.415	2149.34
904.729	2143.91
905.042	2100.3
905.356	2127.87
905.67	2133.52
905.984	2094.65
906.297	2101.2
906.611	2073.86
906.924	2098.72
907.237	2104.14
907.551	2110.47
907.864	2108.21
908.177	2086.51
908.491	2098.04
908.804	2047.42
909.117	2016.23
909.43	2028.66
909.743	2045.16
910.056	2015.78
910.368	2039.06
910.681	2004.03
910.994	1985.72
911.307	2004.93
911.619	1991.37
911.932	1973.3
912.244	1993.63
912.557	1995.22
912.869	1973.3
913.181	1946.4
913.494	1947.31
913.806	1975.33
914.118	1958.83
914.43	1931.94
914.742	1922.9
915.054	1895.78
915.366	1929.45
915.678	1910.92
915.99	1911.83
916.302	1868.44
916.613	1854.65
916.925	1875.9
917.236	1844.71
917.548	1899.4
917.859	1861.66
918.171	1812.4
918.482	1831.15
918.794	1829.12
919.105	1856.01
919.416	1847.2
919.727	1799.06
920.038	1765.39
920.349	1838.38
920.66	1779.4
920.971	1789.35
921.282	1770.59
921.593	1727.65
921.903	1825.05
922.214	1768.56
922.525	1759.06
922.835	1749.57
923.146	1722.68
923.456	1758.16
923.767	1743.7
924.077	1762.23
924.387	1742.57
924.697	1692.62
925.008	1732.4
925.318	1705.96
925.628	1700.53
925.938	1680.42
926.248	1714.77
926.558	1682.68
926.867	1674.55
927.177	1652.85
927.487	1651.5
927.796	1649.46
928.106	1667.99
928.416	1638.39
928.725	1637.26
929.034	1631.16
929.344	1634.77
929.653	1596.13
929.962	1601.78
930.271	1590.71
930.581	1592.06
930.89	1603.14
931.199	1583.25
931.508	1567.66
931.817	1602.01
932.125	1587.09
932.434	1580.09
932.743	1570.82
933.051	1560.65
933.36	1559.3
933.669	1578.5
933.977	1543.25
934.286	1520.65
934.594	1550.26
934.902	1524.49
935.21	1516.58
935.519	1535.57
935.827	1516.81
936.135	1513.87
936.443	1507.09
936.751	1502.12
937.059	1495.12
937.367	1488.11
937.674	1494.89
937.982	1482.91
938.29	1462.35
938.597	1469.81
938.905	1463.93
939.213	1443.14
939.52	1450.15
939.827	1483.36
940.135	1447.89
940.442	1431.16
940.749	1467.09
941.056	1456.7
941.363	1407.89
941.67	1418.73
941.977	1398.62
942.284	1432.29
942.591	1422.58
942.898	1387.32
943.205	1413.54
943.511	1386.64
943.818	1383.93
944.125	1366.53
944.431	1354.33
944.738	1362.46
945.044	1371.96
945.35	1333.76
945.657	1334.44
945.963	1358.62
946.269	1325.63
946.575	1356.59
946.881	1346.42
947.187	1328.57
947.493	1349.81
947.799	1303.93
948.105	1321.56
948.41	1306.42
948.716	1303.03
949.022	1295.57
949.327	1326.08
949.633	1292.41
949.938	1299.87
950.244	1303.48
950.549	1270.49
950.854	1282.47
951.16	1271.39
951.465	1269.59
951.77	1270.72
952.075	1271.85
952.38	1253.54
952.685	1273.2
952.99	1274.78
953.294	1238.63
953.599	1244.5
953.904	1254.67
954.209	1244.5
954.513	1238.63
954.818	1234.33
955.122	1212.41
955.426	1223.71
955.731	1225.29
956.035	1209.47
956.339	1185.52
956.643	1202.24
956.948	1216.03
957.252	1192.3
957.556	1183.71
957.86	1150.94
958.163	1185.29
958.467	1186.65
958.771	1183.49
959.075	1199.53
959.378	1147.1
959.682	1149.81
959.985	1141.45
960.289	1118.18
960.592	1154.33
960.896	1165.41
961.199	1124.73
961.502	1131.96
961.805	1107.1
962.108	1105.75
962.411	1130.61
962.714	1106.88
963.017	1109.59
963.32	1116.59
963.623	1086.54
963.926	1119.31
964.228	1105.3
964.531	1062.81
964.833	1105.52
965.136	1064.39
965.438	1086.31
965.741	1074.79
966.043	1088.35
966.345	1065.75
966.648	1063.49
966.95	1094
967.252	1082.25
967.554	1061.46
967.856	1058.97
968.158	1025.07
968.46	1052.42
968.761	1051.51
969.063	1070.95
969.365	1058.97
969.666	1036.37
969.968	1035.69
970.269	1071.85
970.571	1036.37
970.872	1027.56
971.174	1044.51
971.475	1016.94
971.776	1031.85
972.077	1002.7
972.378	997.28
972.679	1008.12
972.98	1015.58
973.281	1019.87
973.582	992.53
973.883	1000.67
974.183	1021.46
974.484	992.53
974.785	988.46
975.085	969.25
975.386	992.08
975.686	978.97
975.986	956.37
976.287	955.92
976.587	963.38
976.887	973.55
977.187	965.19
977.487	966.09
977.787	963.15
978.087	945.3
978.387	963.15
978.687	961.8
978.987	942.36
979.286	948.24
979.586	931.06
979.885	938.07
980.185	930.16
980.484	929.48
980.784	946.88
981.083	920.89
981.382	914.57
981.682	910.27
981.981	905.98
982.28	917.73
982.579	904.85
982.878	924.51
983.177	908.92
983.475	894.68
983.774	879.99
984.073	918.18
984.372	897.39
984.67	875.7
984.969	885.87
985.267	854.45
985.566	898.52
985.864	847.68
986.162	850.39
986.461	878.18
986.759	866.66
987.057	888.13
987.355	872.76
987.653	854.23
987.951	851.74
988.249	844.06
988.547	863.95
988.844	863.95
989.142	843.61
989.44	844.51
989.737	849.26
990.035	803.16
990.332	815.81
990.63	808.58
990.927	833.66
991.224	837.96
991.521	815.81
991.819	813.78
992.116	821.69
992.413	826.21
992.71	822.82
993.006	813.78
993.303	811.07
993.6	810.39
993.897	825.98
994.193	796.83
994.49	798.19
994.787	811.29
995.083	803.16
995.379	766.32
995.676	791.18
995.972	802.48
996.268	785.98
996.565	790.05
996.861	796.83
997.157	781.69
997.453	762.03
997.749	774.91
998.044	741.46
998.34	746.44
998.636	745.53
998.932	742.37
999.227	725.19
999.523	748.92
999.818	763.38
1000.114	762.48
1000.409	736.94
1000.704	730.84
1001	741.01
1001.295	730.39
1001.59	717.96
1001.885	752.08
1002.18	727.68
1002.475	740.79
1002.77	709.15
1003.065	729.03
1003.359	714.57
1003.654	733.55
1003.949	712.99
1004.243	704.18
1004.538	720.67
1004.832	680.22
1005.127	708.47
1005.421	697.17
1005.715	701.24
1006.009	690.62
1006.304	716.83
1006.598	689.71
1006.892	671.18
1007.186	684.97
1007.48	679.32
1007.773	678.41
1008.067	655.36
1008.361	665.76
1008.655	658.3
1008.948	685.65
1009.242	662.37
1009.535	680.45
1009.829	647
1010.122	675.93
1010.415	672.54
1010.708	666.44
1011.001	639.55
1011.295	654.46
1011.588	658.98
1011.881	644.74
1012.173	632.77
1012.466	638.19
1012.759	659.43
1013.052	634.12
1013.344	632.99
1013.637	629.6
1013.93	619.43
1014.222	632.99
1014.514	628.7
1014.807	632.54
1015.099	638.64
1015.391	619.88
1015.683	614.24
1015.976	602.26
1016.268	620.56
1016.56	611.3
1016.851	614.69
1017.143	588.25
1017.435	604.29
1017.727	590.51
1018.018	625.53
1018.31	590.28
1018.602	619.43
1018.893	606.33
1019.185	607.91
1019.476	602.26
1019.767	576.72
1020.058	589.15
1020.35	602.03
1020.641	547.12
1020.932	575.59
1021.223	562.03
1021.514	584.41
1021.804	573.56
1022.095	582.15
1022.386	584.86
1022.677	561.81
1022.967	560
1023.258	563.62
1023.548	547.8
1023.839	548.25
1024.129	575.82
1024.419	541.02
1024.709	546.21
1025	559.32
1025.29	535.59
1025.58	539.89
1025.87	543.5
1026.16	548.7
1026.449	536.5
1026.739	544.18
1027.029	517.51
1027.319	537.18
1027.608	523.84
1027.898	524.29
1028.187	522.94
1028.477	531.98
1028.766	525.88
1029.055	512.77
1029.344	539.43
1029.634	536.27
1029.923	496.05
1030.212	513.22
1030.501	512.32
1030.79	510.96
1031.078	523.39
1031.367	504.41
1031.656	526.78
1031.945	516.38
1032.233	490.62
1032.522	495.14
1032.81	500.34
1033.099	485.43
1033.387	502.83
1033.675	496.72
1033.963	496.05
1034.251	500.57
1034.54	483.62
1034.828	475.71
1035.116	488.14
1035.403	481.36
1035.691	503.96
1035.979	484.75
1036.267	498.76
1036.554	459.44
1036.842	481.13
1037.129	468.93
1037.417	478.65
1037.704	465.99
1037.992	481.13
1038.279	471.87
1038.566	456.95
1038.853	456.95
1039.14	456.95
