Data from black_plastic_tray_FLMS001491_019.txt Node
Date: Tue Feb 07 10:39:22 GMT 2017
User: dcchb
Spectrometer: FLMS00149
Trigger mode: 0
Integration Time (sec): 2.000000E-2
Scans to average: 10
Electric dark correction enabled: true
Nonlinearity correction enabled: false
Boxcar width: 0
XAxis mode: Wavelengths
Number of Pixels in Spectrum: 2048
>>>>>Begin Spectral Data<<<<<
341.393	-24.89
341.776	-24.89
342.16	-24.89
342.543	-78.44
342.927	-43.64
343.31	-68.28
343.693	-47.48
344.077	-77.54
344.46	-69.86
344.843	-55.39
345.226	-62.17
345.61	-39.58
345.993	-23.53
346.376	8.11
346.759	23.25
347.142	33.42
347.525	37.26
347.908	54.21
348.291	77.03
348.674	102.79
349.057	107.77
349.44	117.71
349.823	120.65
350.206	156.8
350.588	177.37
350.971	181.21
351.354	201.1
351.737	234.54
352.119	237.71
352.502	247.87
352.884	241.77
353.267	264.37
353.65	271.38
354.032	264.15
354.414	281.55
354.797	314.99
355.179	303.92
355.562	293.52
355.944	300.98
356.326	311.83
356.709	300.08
357.091	322
357.473	321.77
357.855	309.34
358.238	324.03
358.62	326.74
359.002	303.47
359.384	309.79
359.766	310.25
360.148	319.96
360.53	320.64
360.912	324.93
361.294	315.22
361.676	335.1
362.057	308.44
362.439	300.08
362.821	312.05
363.203	289.23
363.584	294.88
363.966	299.17
364.348	296.24
364.729	315.9
365.111	296.91
365.493	278.83
365.874	307.08
366.256	300.53
366.637	288.33
367.019	313.41
367.4	299.85
367.781	308.21
368.163	319.51
368.544	278.38
368.925	308.89
369.306	294.2
369.688	304.14
370.069	276.35
370.45	274.77
370.831	306.4
371.212	296.24
371.593	289.68
371.974	307.76
372.355	294.65
372.736	305.05
373.117	308.21
373.498	303.92
373.879	300.53
374.26	286.52
374.641	284.03
375.021	295.33
375.402	309.34
375.783	307.76
376.163	307.53
376.544	307.31
376.925	310.47
377.305	301.88
377.686	311.15
378.066	308.44
378.447	313.86
378.827	334.65
379.208	313.86
379.588	303.92
379.968	313.86
380.349	314.31
380.729	324.03
381.109	325.16
381.489	336.46
381.87	324.03
382.25	356.8
382.63	326.97
383.01	329.68
383.39	344.82
383.77	314.99
384.15	327.65
384.53	325.16
384.91	330.36
385.29	338.72
385.67	352.5
386.049	343.47
386.429	340.3
386.809	346.63
387.189	339.62
387.568	346.4
387.948	354.99
388.328	349.12
388.707	339.17
389.087	343.01
389.466	345.05
389.846	350.47
390.225	361.77
390.605	341.88
390.984	370.36
391.363	375.56
391.743	347.99
392.122	355.22
392.501	367.42
392.881	357.48
393.26	358.61
393.639	374.2
394.018	363.8
394.397	377.14
394.776	369.23
395.155	384.82
395.534	386.4
395.913	368.78
396.292	406.29
396.671	375.78
397.05	389.34
397.429	370.13
397.808	369.45
398.186	384.37
398.565	384.59
398.944	401.09
399.323	379.85
399.701	379.62
400.08	399.06
400.458	398.61
400.837	420.98
401.215	420.53
401.594	383.24
401.972	408.32
402.351	399.74
402.729	389.79
403.107	407.42
403.486	398.61
403.864	403.58
404.242	416.46
404.62	432.05
404.999	423.92
405.377	415.78
405.755	426.4
406.133	423.24
406.511	428.66
406.889	433.18
407.267	426.85
407.645	424.14
408.023	432.73
408.401	442.45
408.779	425.27
409.156	454.2
409.534	445.61
409.912	463.91
410.29	455.78
410.667	449.45
411.045	446.06
411.422	482.9
411.8	453.75
412.178	441.99
412.555	465.72
412.933	475.21
413.31	490.13
413.687	487.19
414.065	494.87
414.442	467.3
414.819	510.69
415.197	500.07
415.574	489.68
415.951	508.66
416.328	529.45
416.705	510.69
417.082	498.49
417.46	492.61
417.837	500.98
418.214	494.87
418.591	519.28
418.967	516.57
419.344	527.42
419.721	538.49
420.098	526.51
420.475	532.16
420.852	520.86
421.228	545.49
421.605	569
421.982	521.09
422.358	558.6
422.735	545.49
423.111	547.98
423.488	548.66
423.864	554.53
424.241	573.52
424.617	564.7
424.994	583.91
425.37	567.19
425.746	574.42
426.123	591.14
426.499	604.02
426.875	579.62
427.251	590.69
427.627	599.5
428.003	613.74
428.379	600.41
428.756	622.78
429.132	637.02
429.507	620.75
429.883	610.58
430.259	632.27
430.635	636.11
431.011	642.89
431.387	670.24
431.763	638.37
432.138	667.75
432.514	670.69
432.89	674.76
433.265	689.45
433.641	708.88
434.016	698.71
434.392	706.17
434.767	709.11
435.143	692.83
435.518	719.27
435.894	727.41
436.269	727.64
436.644	731.25
437.02	730.8
437.395	771.02
437.77	745.49
438.145	753.17
438.52	757.92
438.895	782.55
439.271	762.89
439.646	786.62
440.021	787.97
440.395	780.29
440.77	797.46
441.145	790.46
441.52	802.44
441.895	808.54
442.27	826.84
442.645	825.03
443.019	825.71
443.394	818.71
443.769	830.46
444.143	823.45
444.518	832.72
444.892	824.36
445.267	835.66
445.641	843.11
446.016	841.98
446.39	859.16
446.764	863.45
447.139	853.06
447.513	850.12
447.887	854.64
448.262	887.86
448.636	874.98
449.01	899.16
449.384	894.86
449.758	916.78
450.132	913.39
450.506	913.85
450.88	909.55
451.254	919.04
451.628	920.4
452.002	925.37
452.376	942.09
452.75	966.05
453.123	958.14
453.497	963.34
453.871	970.12
454.244	998.14
454.618	977.35
454.992	1018.93
455.365	1018.7
455.739	1052.83
456.112	1042.2
456.486	1043.79
456.859	1047.85
457.232	1053.5
457.606	1071.13
457.979	1076.1
458.352	1075.65
458.725	1088.53
459.099	1110.23
459.472	1115.42
459.845	1132.6
460.218	1151.35
460.591	1132.37
460.964	1162.65
461.337	1170.56
461.71	1179.38
462.083	1184.8
462.456	1200.39
462.829	1207.4
463.201	1227.28
463.574	1230.67
463.947	1253.5
464.32	1269.99
464.692	1293.95
465.065	1309.54
465.438	1342.08
465.81	1317
466.183	1333.72
466.555	1348.86
466.928	1361.29
467.3	1381.63
467.672	1367.39
468.045	1421.86
468.417	1439.26
468.789	1421.4
469.161	1422.31
469.534	1434.96
469.906	1489.88
470.278	1498.92
470.65	1508.86
471.022	1565.35
471.394	1577.11
471.766	1572.59
472.138	1592.02
472.51	1609.87
472.882	1622.3
473.253	1664.33
473.625	1683.09
473.997	1694.62
474.369	1727.84
474.74	1710.89
475.112	1744.78
475.484	1761.96
475.855	1800.83
476.227	1799.02
476.598	1854.84
476.97	1874.27
477.341	1913.37
477.713	1947.04
478.084	1943.88
478.455	2006.25
478.827	2031.56
479.198	2072.91
479.569	2055.74
479.94	2113.59
480.311	2102.29
480.682	2191.55
481.053	2223.42
481.424	2231.55
481.795	2262.29
482.166	2321.04
482.537	2297.76
482.908	2373.69
483.279	2376.63
483.65	2453.69
484.021	2469.74
484.391	2510.41
484.762	2508.38
485.133	2514.26
485.503	2555.16
485.874	2617.08
486.244	2663.63
486.615	2721.26
486.985	2706.57
487.356	2772.78
487.726	2770.97
488.097	2814.81
488.467	2841.25
488.837	2939.1
489.207	2919.89
489.578	2986.33
489.948	3016.39
490.318	3026.56
490.688	3011.42
491.058	3061.59
491.428	3137.74
491.798	3157.18
492.168	3187.68
492.538	3227.68
492.908	3268.36
493.278	3346.78
493.648	3314.01
494.017	3359.43
494.387	3377.96
494.757	3410.05
495.126	3391.75
495.496	3431.75
495.866	3475.81
496.235	3471.52
496.605	3533.44
496.974	3543.61
497.344	3565.98
497.713	3600.1
498.082	3632.64
498.452	3699.99
498.821	3688.46
499.19	3654.79
499.559	3714
499.928	3749.93
500.298	3838.29
500.667	3812.53
501.036	3800.32
501.405	3840.1
501.774	3889.36
502.143	3917.61
502.512	3877.61
502.88	3957.38
503.249	3949.7
503.618	4002.35
503.987	4030.6
504.356	4053.65
504.724	4071.96
505.093	4061.56
505.462	4109.92
505.83	4146.76
506.199	4158.73
506.567	4227.66
506.936	4221.33
507.304	4237.37
507.672	4277.6
508.041	4269.46
508.409	4320.54
508.777	4342.23
509.145	4360.99
509.514	4416.8
509.882	4419.52
510.25	4409.8
510.618	4487.76
510.986	4535.9
511.354	4550.59
511.722	4620.64
512.09	4586.74
512.458	4626.97
512.826	4716.91
513.193	4669.68
513.561	4722.56
513.929	4745.16
514.297	4787.87
514.664	4795.33
515.032	4805.04
515.4	4892.27
515.767	4880.75
516.135	4943.57
516.502	4909.45
516.869	5011.59
517.237	5077.35
517.604	4999.84
517.972	5075.32
518.339	5152.6
518.706	5166.62
519.073	5186.73
519.44	5231.47
519.808	5265.6
520.175	5315.54
520.542	5355.09
520.909	5339.72
521.276	5383.78
521.643	5435.31
522.009	5452.94
522.376	5490.9
522.743	5559.37
523.11	5587.17
523.477	5647.51
523.843	5648.41
524.21	5801.85
524.577	5799.37
524.943	5788.75
525.31	5847.73
525.676	5840.5
526.043	5892.47
526.409	5998.01
526.776	6040.26
527.142	6044.56
527.508	6064.45
527.874	6150.09
528.241	6171.33
528.607	6211.33
528.973	6238.23
529.339	6247.27
529.705	6308.05
530.071	6332.91
530.437	6407.26
530.803	6405.23
531.169	6485
531.535	6494.26
531.901	6533.36
532.267	6532
532.632	6558.67
532.998	6595.05
533.364	6640.7
533.73	6617.42
534.095	6715.73
534.461	6724.31
534.826	6758.44
535.192	6838.21
535.557	6821.71
535.923	6861.03
536.288	6855.84
536.653	6882.73
537.019	6906.23
537.384	6965.44
537.749	7003.4
538.114	7003.18
538.479	7030.97
538.845	7070.29
539.21	7117.52
539.575	7095.38
539.94	7118.88
540.305	7176.05
540.67	7089.5
541.034	7159.11
541.399	7247.69
541.764	7236.17
542.129	7254.24
542.494	7273.68
542.858	7339.21
543.223	7313.9
543.587	7390.06
543.952	7379.44
544.316	7443.17
544.681	7419.66
545.045	7463.05
545.41	7465.54
545.774	7484.29
546.138	7493.11
546.503	7511.41
546.867	7586.89
547.231	7630.73
547.595	7625.08
547.959	7675.7
548.324	7664.4
548.688	7696.27
549.052	7683.16
549.416	7748.92
549.779	7769.71
550.143	7797.73
550.507	7858.75
550.871	7837.28
551.235	7891.52
551.599	7900.33
551.962	7942.14
552.326	7997.73
552.689	8011.51
553.053	7962.47
553.417	8062.13
553.78	8200.21
554.143	8149.36
554.507	8148.46
554.87	8239.53
555.234	8211.28
555.597	8191.85
555.96	8315.23
556.323	8301.22
556.686	8344.61
557.05	8351.39
557.413	8368.79
557.776	8411.5
558.139	8463.48
558.502	8523.36
558.865	8501.9
559.228	8622.12
559.59	8646.3
559.953	8616.92
560.316	8679.74
560.679	8826.63
561.041	8829.8
561.404	8792.96
561.767	8847.65
562.129	8832.28
562.492	9006.97
562.854	8978.04
563.217	8964.03
563.579	9003.35
563.941	9082.22
564.304	9064.37
564.666	9155.21
565.028	9146.17
565.39	9204.7
565.753	9263.23
566.115	9231.14
566.477	9281.31
566.839	9292.61
567.201	9394.75
567.563	9396.11
567.925	9461.87
568.287	9486.73
568.648	9467.97
569.01	9468.42
569.372	9601.98
569.734	9636.78
570.095	9653.5
570.457	9661.19
570.819	9757.91
571.18	9737.12
571.542	9771.69
571.903	9806.27
572.265	9802.43
572.626	9875.64
572.987	9803.1
573.349	9871.8
573.71	9932.59
574.071	9995.87
574.432	9991.12
574.794	10092.14
575.155	10057.33
575.516	10094.4
575.877	10074.74
576.238	10029.54
576.599	10151.8
576.96	10128.97
577.32	10106.15
577.681	10125.36
578.042	10180.95
578.403	10239.48
578.763	10246.26
579.124	10300.94
579.485	10257.78
579.845	10275.63
580.206	10238.8
580.566	10289.64
580.927	10325.35
581.287	10284.9
581.648	10310.44
582.008	10325.12
582.368	10306.37
582.728	10323.54
583.089	10307.72
583.449	10350.43
583.809	10334.16
584.169	10369.87
584.529	10369.19
584.889	10481.28
585.249	10307.95
585.609	10385.24
585.969	10398.57
586.329	10296.42
586.688	10410.55
587.048	10341.39
587.408	10368.51
587.768	10388.63
588.127	10354.05
588.487	10383.88
588.846	10412.58
589.206	10329.42
589.565	10306.82
589.925	10443.09
590.284	10429.98
590.643	10397.66
591.003	10412.81
591.362	10406.48
591.721	10453.93
592.08	10396.08
592.44	10415.07
592.799	10422.75
593.158	10418.91
593.517	10448.96
593.876	10451
594.235	10516.31
594.593	10509.75
594.952	10479.24
595.311	10444.89
595.67	10423.65
596.029	10511.11
596.387	10442.86
596.746	10464.1
597.104	10425.46
597.463	10495.06
597.822	10561.5
598.18	10526.25
598.538	10460.04
598.897	10602.4
599.255	10469.53
599.613	10561.95
599.972	10575.29
600.33	10516.98
600.688	10543.2
601.046	10555.63
601.404	10675.17
601.762	10582.29
602.12	10652.8
602.478	10670.88
602.836	10640.6
603.194	10645.34
603.552	10598.56
603.91	10607.6
604.268	10709.75
604.625	10623.87
604.983	10716.98
605.341	10650.99
605.698	10660.93
606.056	10723.53
606.413	10693.02
606.771	10699.8
607.128	10661.84
607.485	10714.72
607.843	10669.75
608.2	10740.25
608.557	10825
608.914	10793.36
609.272	10859.12
609.629	10816.41
609.986	10860.03
610.343	10773.47
610.7	10858.22
611.057	10767.6
611.414	10803.53
611.771	10858.22
612.127	10868.84
612.484	10869.97
612.841	10881.72
613.198	10865.45
613.554	10976.18
613.911	10931.66
614.267	10911.1
614.624	10944.09
614.98	10906.8
615.337	10949.06
615.693	10916.29
616.05	10999.91
616.406	11020.02
616.762	10985.45
617.118	10997.42
617.475	11029.96
617.831	11072.22
618.187	10999.91
618.543	10987.25
618.899	11168.04
619.255	11134.59
619.611	11128.49
619.967	11144.31
620.323	11187.25
620.678	11054.37
621.034	11111.09
621.39	11092.34
621.746	11000.81
622.101	11165.1
622.457	11112.22
622.812	11099.11
623.168	11157.42
623.523	11095.73
623.879	11163.75
624.234	11028.61
624.589	11149.28
624.945	11097.99
625.3	11170.07
625.655	11130.3
626.01	11133.69
626.365	11121.04
626.72	11128.04
627.075	11135.72
627.43	11097.08
627.785	11135.95
628.14	11036.52
628.495	11132.56
628.85	11027.93
629.205	11090.08
629.559	11156.29
629.914	11071.77
630.269	11072.9
630.623	11092.11
630.978	11036.29
631.332	11148.61
631.687	11090.08
632.041	11046.23
632.396	11028.38
632.75	11047.82
633.104	10999.23
633.459	10888.05
633.813	10967.14
634.167	10902.74
634.521	10921.94
634.875	10889.63
635.229	10827.94
635.583	10909.06
635.937	10807.82
636.291	10855.28
636.645	10848.27
636.999	10745.9
637.352	10814.15
637.706	10764.21
638.06	10737.54
638.413	10816.18
638.767	10700.71
639.121	10730.54
639.474	10706.58
639.828	10686.92
640.181	10717.2
640.534	10701.16
640.888	10646.7
641.241	10565.12
641.594	10572.8
641.947	10624.78
642.301	10629.52
642.654	10649.18
643.007	10628.39
643.36	10606.7
643.713	10532.35
644.066	10629.3
644.419	10485.12
644.771	10467.27
645.124	10460.94
645.477	10434.27
645.83	10307.5
646.182	10281.74
646.535	10172.81
646.888	10303.43
647.24	10223.43
647.593	10238.35
647.945	10153.38
648.298	10140.5
648.65	10106.6
649.002	10117.22
649.355	10166.71
649.707	10159.7
650.059	10095.98
650.411	10295.97
650.763	10305.46
651.115	10411.9
651.467	10403.77
651.819	10425.69
652.171	10291
652.523	10302.3
652.875	10347.27
653.227	10284
653.578	10357.67
653.93	10291.23
654.282	10348.63
654.633	10220.04
654.985	10241.74
655.337	10220.95
655.688	10227.27
656.039	10288.06
656.391	10149.31
656.742	10133.26
657.094	10112.47
657.445	10218.01
657.796	10191.57
658.147	10142.3
658.498	10140.27
658.849	10218.69
659.2	10177.33
659.551	10191.57
659.902	10171.91
660.253	10170.55
660.604	10138.91
660.955	10108.63
661.306	10151.57
661.656	10012.59
662.007	10074.06
662.358	10111.8
662.708	10020.95
663.059	10066.6
663.409	10003.55
663.76	10011.01
664.11	10047.17
664.461	10092.14
664.811	10108.63
665.161	10025.7
665.511	10038.8
665.862	10074.06
666.212	10129.65
666.562	10056.43
666.912	10092.36
667.262	10068.86
667.612	10112.25
667.962	10055.07
668.312	10048.52
668.662	10035.19
669.011	10059.59
669.361	10071.12
669.711	9930.11
670.06	9965.59
670.41	9933.72
670.76	9941.86
671.109	9982.99
671.459	9915.87
671.808	9910.9
672.157	9933.04
672.507	9912.71
672.856	9919.26
673.205	9908.19
673.554	9892.14
673.904	9817.79
674.253	9886.94
674.602	9925.59
674.951	9772.37
675.3	9686.95
675.649	9846.49
675.998	9854.4
676.346	9881.29
676.695	9936.66
677.044	9805.59
677.393	9784.12
677.741	9813.73
678.09	9823.22
678.438	9769.43
678.787	9794.97
679.135	9801.3
679.484	9771.01
679.832	9754.74
680.181	9709.77
680.529	9774.63
680.877	9674.97
681.225	9699.6
681.573	9691.02
681.922	9702.99
682.27	9639.27
682.618	9662.09
682.966	9662.09
683.314	9679.49
683.661	9653.5
684.009	9549.33
684.357	9529.66
684.705	9557.91
685.053	9585.93
685.4	9540.74
685.748	9446.28
686.095	9453.28
686.443	9413.06
686.79	9391.36
687.138	9381.87
687.485	9411.02
687.832	9335.32
688.18	9422.77
688.527	9301.87
688.874	9321.31
689.221	9270.91
689.568	9290.8
689.915	9278.82
690.262	9197.24
690.609	9204.7
690.956	9226.17
691.303	9140.3
691.65	9125.16
691.997	9123.8
692.344	9051.49
692.69	9086.51
693.037	9049.23
693.383	8982.56
693.73	8986.4
694.077	8965.16
694.423	9014.42
694.769	8959.51
695.116	8933.52
695.462	8871.83
695.808	8844.03
696.155	8917.25
696.501	8862.34
696.847	8781.89
697.193	8756.8
697.539	8808.1
697.885	8721.78
698.231	8676.81
698.577	8735.11
698.923	8629.12
699.269	8646.75
699.614	8546.19
699.96	8614.89
700.306	8515
700.651	8530.14
700.997	8521.33
701.342	8507.77
701.688	8531.95
702.033	8472.07
702.379	8455.79
702.724	8468.22
703.069	8532.63
703.415	8391.62
703.76	8331.28
704.105	8387.77
704.45	8324.27
704.795	8269.81
705.14	8239.98
705.485	8241.79
705.83	8221.45
706.175	8251.51
706.52	8187.1
706.865	8214.45
707.209	8115.69
707.554	8178.29
707.899	8184.16
708.243	8066.2
708.588	8116.59
708.932	8014.45
709.277	8019.87
709.621	8044.28
709.966	8035.24
710.31	7990.04
710.654	7931.29
710.998	7981
711.342	7941.68
711.687	7897.62
712.031	7939.88
712.375	7897.39
712.719	7886.09
713.063	7911.63
713.407	7872.99
713.75	7833.44
714.094	7789.37
714.438	7787.79
714.782	7750.28
715.125	7760.22
715.469	7767.68
715.812	7769.26
716.156	7687
716.499	7654.01
716.843	7664.85
717.186	7590.05
717.53	7642.93
717.873	7653.78
718.216	7638.41
718.559	7674.12
718.902	7566.55
719.246	7541.02
719.589	7614.91
719.932	7571.52
720.275	7580.34
720.617	7572.2
720.96	7537.17
721.303	7570.85
721.646	7531.07
721.989	7550.96
722.331	7566.1
722.674	7427.57
723.016	7484.97
723.359	7455.37
723.701	7426.44
724.044	7427.57
724.386	7336.5
724.729	7423.51
725.071	7363.39
725.413	7301.93
725.755	7325.2
726.097	7288.59
726.439	7244.75
726.782	7238.2
727.124	7272.77
727.465	7237.07
727.807	7242.95
728.149	7200.23
728.491	7242.49
728.833	7194.58
729.175	7153
729.516	7168.6
729.858	7166.34
730.199	7157.07
730.541	7093.8
730.882	7149.39
731.224	7138.32
731.565	7090.63
731.906	7096.96
732.248	7144.19
732.589	7086.11
732.93	7047.02
733.271	7081.37
733.612	7039.79
733.953	7022.16
734.294	7040.69
734.635	6976.74
734.976	7091.54
735.317	7031.2
735.658	7004.08
735.999	6988.04
736.339	6952.33
736.68	6983.74
737.021	6921.37
737.361	6947.13
737.702	6932.44
738.042	6899.68
738.383	6894.71
738.723	6925.44
739.063	6797.31
739.404	6893.58
739.744	6845.22
740.084	6805.89
740.424	6835.5
740.764	6795.5
741.104	6857.64
741.444	6829.4
741.784	6799.57
742.124	6817.87
742.464	6773.58
742.804	6803.18
743.143	6726.57
743.483	6766.57
743.823	6758.66
744.162	6718.67
744.502	6749.17
744.841	6678.67
745.181	6732.9
745.52	6729.06
745.86	6658.55
746.199	6661.49
746.538	6643.41
746.877	6697.65
747.216	6628.5
747.556	6615.17
747.895	6650.19
748.234	6579.01
748.573	6578.33
748.911	6584.21
749.25	6613.36
749.589	6530.2
749.928	6541.72
750.267	6560.48
750.605	6553.7
750.944	6531.33
751.283	6510.08
751.621	6522.29
751.96	6475.28
752.298	6439.8
752.636	6427.37
752.975	6395.74
753.313	6368.17
753.651	6375.17
753.989	6352.35
754.327	6438.67
754.666	6299.69
755.004	6388.96
755.342	6328.17
755.679	6275.06
756.017	6275.96
756.355	6303.31
756.693	6269.41
757.031	6262.86
757.368	6240.94
757.706	6274.38
758.044	6221.96
758.381	6188.96
758.719	6150.77
759.056	6172.01
759.394	6197.1
759.731	6131.34
760.068	6063.32
760.405	6075.97
760.743	6054.5
761.08	6062.64
761.417	6024.9
761.754	6047.95
762.091	6061.51
762.428	5969.31
762.765	6024.67
763.102	5973.15
763.438	5920.49
763.775	5950.78
764.112	5927.95
764.449	5907.84
764.785	5882.98
765.122	5844.11
765.458	5840.27
765.795	5843.66
766.131	5812.7
766.467	5770.22
766.804	5807.05
767.14	5756.88
767.476	5698.35
767.812	5717.11
768.148	5721.18
768.485	5697.45
768.821	5655.64
769.157	5688.86
769.492	5663.1
769.828	5596.43
770.164	5605.7
770.5	5606.6
770.836	5576.55
771.171	5536.55
771.507	5515.98
771.842	5521.86
772.178	5493.39
772.513	5504.91
772.849	5447.51
773.184	5404.35
773.519	5461.98
773.855	5464.91
774.19	5368.19
774.525	5388.76
774.86	5394.41
775.195	5377.68
775.53	5328.42
775.865	5313.96
776.2	5259.72
776.535	5233.28
776.87	5210
777.205	5236.22
777.539	5200.06
777.874	5224.02
778.209	5210.46
778.543	5149.44
778.878	5116.67
779.212	5167.07
779.547	5087.3
779.881	5105.83
780.215	5093.17
780.55	5078.03
780.884	5003
781.218	5019.05
781.552	4993.06
781.886	4963.23
782.22	4984.47
782.554	4946.96
782.888	4880.75
783.222	4852.95
783.556	4878.26
783.889	4876.68
784.223	4824.93
784.557	4821.77
784.89	4854.53
785.224	4800.52
785.557	4779.73
785.891	4805.04
786.224	4791.71
786.558	4726.85
786.891	4707.64
787.224	4706.97
787.557	4665.16
787.891	4749.23
788.224	4693.63
788.557	4696.12
788.89	4691.6
789.223	4704.71
789.556	4592.39
789.888	4630.58
790.221	4604.6
790.554	4572.28
790.887	4525.28
791.219	4533.41
791.552	4569.12
791.884	4518.5
792.217	4470.59
792.549	4466.52
792.882	4504.49
793.214	4420.19
793.546	4477.14
793.879	4377.03
794.211	4362.79
794.543	4388.56
794.875	4356.92
795.207	4399.18
795.539	4377.26
795.871	4365.05
796.203	4345.17
796.535	4322.57
796.867	4330.25
797.198	4288.9
797.53	4273.76
797.862	4226.3
798.193	4225.62
798.525	4263.81
798.856	4264.49
799.188	4194.89
799.519	4166.87
799.85	4179.97
800.182	4173.65
800.513	4171.61
800.844	4134.55
801.175	4139.75
801.506	4129.35
801.837	4147.89
802.168	4129.58
802.499	4116.93
802.83	4104.04
803.161	4062.92
803.491	4068.57
803.822	4069.24
804.153	4047.1
804.483	4025.18
804.814	3983.37
805.145	3919.19
805.475	3968.91
805.805	3977.95
806.136	3983.14
806.466	3956.7
806.796	3968.23
807.126	3954.44
807.457	3921.9
807.787	3921.68
808.117	3942.01
808.447	3902.47
808.777	3876.48
809.107	3844.84
809.436	3859.31
809.766	3879.19
810.096	3839.19
810.426	3829.93
810.755	3778.63
811.085	3838.74
811.414	3797.61
811.744	3798.52
812.073	3759.19
812.403	3783.6
812.732	3772.08
813.061	3753.32
813.39	3728.69
813.719	3757.39
814.049	3763.04
814.378	3730.5
814.707	3722.13
815.036	3702.7
815.365	3659.54
815.693	3691.4
816.022	3669.25
816.351	3682.81
816.68	3635.58
817.008	3649.37
817.337	3590.84
817.665	3611.85
817.994	3646.88
818.322	3615.92
818.651	3604.85
818.979	3610.95
819.307	3571.63
819.636	3624.96
819.964	3528.47
820.292	3593.32
820.62	3557.39
820.948	3548.35
821.276	3559.65
821.604	3559.43
821.932	3581.57
822.259	3579.99
822.587	3525.53
822.915	3526.43
823.243	3576.15
823.57	3567.79
823.898	3575.02
824.225	3551.74
824.553	3553.32
824.88	3572.76
825.207	3557.39
825.535	3543.83
825.862	3580.89
826.189	3570.95
826.516	3544.06
826.843	3563.72
827.17	3573.21
827.497	3531.4
827.824	3543.38
828.151	3529.14
828.478	3568.69
828.805	3549.71
829.131	3550.16
829.458	3565.3
829.785	3547.22
830.111	3512.42
830.438	3528.01
830.764	3528.47
831.09	3562.82
831.417	3500.67
831.743	3517.39
832.069	3521.01
832.395	3492.31
832.722	3536.83
833.048	3499.77
833.374	3546.77
833.7	3512.2
834.026	3530.95
834.351	3525.53
834.677	3527.34
835.003	3542.25
835.329	3499.99
835.654	3523.04
835.98	3487.11
836.306	3491.41
836.631	3457.51
836.956	3464.29
837.282	3482.82
837.607	3477.85
837.932	3493.67
838.258	3449.37
838.583	3433.1
838.908	3384.29
839.233	3462.48
839.558	3435.36
839.883	3440.56
840.208	3390.39
840.533	3438.53
840.858	3434.46
841.182	3420.22
841.507	3401.69
841.832	3394.23
842.156	3373.22
842.481	3361.24
842.805	3385.19
843.13	3363.27
843.454	3361.47
843.778	3356.04
844.103	3351.75
844.427	3323.5
844.751	3325.31
845.075	3342.48
845.399	3329.83
845.723	3266.55
846.047	3286.89
846.371	3295.48
846.695	3289.15
847.019	3288.02
847.343	3257.74
847.666	3254.8
847.99	3239.21
848.313	3200.57
848.637	3243.28
848.96	3215.48
849.284	3232.66
849.607	3180.45
849.931	3176.16
850.254	3118.76
850.577	3090.51
850.9	3103.62
851.223	3090.96
851.546	3116.05
851.869	3057.29
852.192	3060.68
852.515	3064.52
852.838	3054.58
853.161	3022.49
853.483	3056.39
853.806	3007.58
854.129	3054.35
854.451	2996.96
854.774	3028.82
855.096	2970.97
855.419	3004.19
855.741	2974.81
856.063	3010.97
856.385	2922.15
856.708	2941.59
857.03	2948.37
857.352	2927.58
857.674	2924.41
857.996	2921.48
858.318	2909.27
858.64	2935.49
858.961	2901.14
859.283	2908.6
859.605	2864.76
859.926	2881.03
860.248	2885.32
860.57	2856.62
860.891	2850.29
861.212	2824.76
861.534	2864.08
861.855	2857.52
862.176	2835.6
862.498	2833.12
862.819	2862.72
863.14	2840.12
863.461	2794.02
863.782	2790.86
864.103	2788.6
864.424	2806.9
864.745	2779.79
865.065	2770.52
865.386	2789.95
865.707	2778.2
866.027	2794.7
866.348	2780.92
866.668	2750.18
866.989	2744.31
867.309	2717.64
867.63	2756.28
867.95	2740.46
868.27	2712.44
868.59	2791.31
868.91	2747.7
869.23	2736.85
869.55	2725.32
869.87	2716.74
870.19	2740.92
870.51	2722.61
870.83	2733.23
871.15	2701.6
871.469	2692.33
871.789	2700.47
872.109	2686.68
872.428	2650.3
872.748	2661.6
873.067	2702.27
873.386	2705.66
873.706	2675.38
874.025	2662.05
874.344	2646.91
874.663	2671.54
874.982	2621.82
875.301	2655.72
875.62	2618.66
875.939	2656.4
876.258	2620.69
876.577	2621.6
876.896	2622.28
877.214	2642.39
877.533	2611.65
877.852	2624.99
878.17	2631.54
878.489	2638.32
878.807	2626.8
879.125	2586.34
879.444	2589.96
879.762	2613.46
880.08	2571.2
880.398	2586.57
880.716	2600.58
881.034	2584.54
881.352	2638.77
881.67	2572.56
881.988	2568.27
882.306	2572.11
882.624	2557.42
882.941	2563.07
883.259	2582.95
883.577	2508.83
883.894	2551.77
884.212	2505.89
884.529	2529.4
884.846	2516.29
885.164	2541.6
885.481	2520.81
885.798	2550.19
886.115	2504.99
886.432	2491.43
886.75	2519.23
887.067	2507.93
887.383	2498.44
887.7	2485.33
888.017	2466.8
888.334	2445.56
888.651	2473.35
888.967	2496.86
889.284	2427.48
889.6	2402.17
889.917	2417.54
890.233	2426.8
890.55	2432
890.866	2466.57
891.182	2440.59
891.498	2401.72
891.815	2420.7
892.131	2459.79
892.447	2414.15
892.763	2429.51
893.079	2364.43
893.395	2363.07
893.71	2384.99
894.026	2354.71
894.342	2372.79
894.657	2327.82
894.973	2368.5
895.289	2327.82
895.604	2335.73
895.92	2331.21
896.235	2312.45
896.55	2319.01
896.865	2327.14
897.181	2299.12
897.496	2294.83
897.811	2282.4
898.126	2252.57
898.441	2259.12
898.756	2259.35
899.071	2214.6
899.386	2234.04
899.7	2235.39
900.015	2245.56
900.33	2227.48
900.644	2206.47
900.959	2226.35
901.273	2177.99
901.588	2209.63
901.902	2165.34
902.216	2185.23
902.531	2175.73
902.845	2200.14
903.159	2178.22
903.473	2164.21
903.787	2162.85
904.101	2168.95
904.415	2155.4
904.729	2160.14
905.042	2115.85
905.356	2096.41
905.67	2121.72
905.984	2125.79
906.297	2098.9
906.611	2100.93
906.924	2108.84
907.237	2106.58
907.551	2084.66
907.864	2048.73
908.177	2087.15
908.491	2061.16
908.804	2048.05
909.117	2057.09
909.43	2040.37
909.743	2033.59
910.056	2040.6
910.368	2025.68
910.681	1982.29
910.994	2035.62
911.307	1977.32
911.619	1984.33
911.932	1998.11
912.244	1966.02
912.557	1940.94
912.869	1972.12
913.181	1927.15
913.494	1943.65
913.806	1926.7
914.118	1929.19
914.43	1909.3
914.742	1936.42
915.054	1913.37
915.366	1898.45
915.678	1871.56
915.99	1875.63
916.302	1882.18
916.613	1877.66
916.925	1872.46
917.236	1862.07
917.548	1829.53
917.859	1865.91
918.171	1868.17
918.482	1859.81
918.794	1811.68
919.105	1846.02
919.416	1830.66
919.727	1792.02
920.038	1826.59
920.349	1789.98
920.66	1773.48
920.971	1782.07
921.282	1799.02
921.593	1777.55
921.903	1750.66
922.214	1757.89
922.525	1773.03
922.835	1740.49
923.146	1762.86
923.456	1743.2
923.767	1694.16
924.077	1745.01
924.387	1713.37
924.697	1720.15
925.008	1723.77
925.318	1712.7
925.628	1686.03
925.938	1686.03
926.248	1668.18
926.558	1711.11
926.867	1673.83
927.177	1675.63
927.487	1658.01
927.796	1652.81
928.106	1629.99
928.416	1693.26
928.725	1636.99
929.034	1627.73
929.344	1661.62
929.653	1618.01
929.962	1615.97
930.271	1559.03
930.581	1601.29
930.89	1608.07
931.199	1577.56
931.508	1572.36
931.817	1601.06
932.125	1576.43
932.434	1573.26
932.743	1597.67
933.051	1557.44
933.36	1538.91
933.669	1533.72
933.977	1522.19
934.286	1541.63
934.594	1547.5
934.902	1513.38
935.21	1510.21
935.519	1507.95
935.827	1518.35
936.135	1515.64
936.443	1482.19
936.751	1496.66
937.059	1463.66
937.367	1483.1
937.674	1472.02
937.982	1477.67
938.29	1469.09
938.597	1453.04
938.905	1457.11
939.213	1465.92
939.52	1453.49
939.827	1444.68
940.135	1446.49
940.442	1429.09
940.749	1473.15
941.056	1440.61
941.363	1399.26
941.67	1408.75
941.977	1412.36
942.284	1395.64
942.591	1403.55
942.898	1394.51
943.205	1398.58
943.511	1392.25
943.818	1391.35
944.125	1362.87
944.431	1354.96
944.738	1364.68
945.044	1365.13
945.35	1351.57
945.657	1322.87
945.963	1336.21
946.269	1317.23
946.575	1328.75
946.881	1326.72
947.187	1341.18
947.493	1315.87
947.799	1317.68
948.105	1323.1
948.41	1307.06
948.716	1307.96
949.022	1278.81
949.327	1297.56
949.633	1269.09
949.938	1282.65
950.244	1269.32
950.549	1296.43
950.854	1261.18
951.16	1246.49
951.465	1287.85
951.77	1264.8
952.075	1261.86
952.38	1266.83
952.685	1231.8
952.99	1234.52
953.294	1247.17
953.599	1221.41
953.904	1215.53
954.209	1222.09
954.513	1219.6
954.818	1232.71
955.122	1223.44
955.426	1233.84
955.731	1213.73
956.035	1203.33
956.339	1205.14
956.643	1204.46
956.948	1210.34
957.252	1200.39
957.556	1166.04
957.86	1176.44
958.163	1173.5
958.467	1168.08
958.771	1154.52
959.075	1178.7
959.378	1164.91
959.682	1161.07
959.985	1156.55
960.289	1138.7
960.592	1130.56
960.896	1165.14
961.199	1140.05
961.502	1123.33
961.805	1116.55
962.108	1122.2
962.411	1116.1
962.714	1109.55
963.017	1081.07
963.32	1125.37
963.623	1080.17
963.926	1110.9
964.228	1095.76
964.531	1091.24
964.833	1117.23
965.136	1083.33
965.438	1093.73
965.741	1088.76
966.043	1098.93
966.345	1067.51
966.648	1070.45
966.95	1070
967.252	1044.46
967.554	1041.53
967.856	1074.52
968.158	1046.05
968.46	1054.41
968.761	1059.38
969.063	1060.06
969.365	1043.11
969.666	1029.78
969.968	1040.85
970.269	1018.02
970.571	1023
970.872	1023.22
971.174	1026.39
971.475	1008.08
971.776	1034.52
972.077	1013.73
972.378	1012.15
972.679	1019.61
972.98	997.23
973.281	987.97
973.582	1014.41
973.883	995.43
974.183	1003.11
974.484	996.33
974.785	992.04
975.085	992.04
975.386	996.56
975.686	951.13
975.986	969.66
976.287	941.87
976.587	961.3
976.887	950
977.187	980.96
977.487	964.24
977.787	937.35
978.087	959.27
978.387	945.26
978.687	946.16
978.987	919.04
979.286	945.26
979.586	927.86
979.885	947.29
980.185	913.85
980.484	905.48
980.784	898.03
981.083	889.21
981.382	874.53
981.682	901.64
981.981	914.3
982.28	870.46
982.579	905.26
982.878	915.88
983.177	909.78
983.475	897.58
983.774	875.88
984.073	863.68
984.372	890.57
984.67	874.75
984.969	858.48
985.267	871.81
985.566	874.75
985.864	893.73
986.162	858.71
986.461	858.71
986.759	857.35
987.057	884.02
987.355	838.14
987.653	845.15
987.951	860.06
988.249	863.9
988.547	869.1
988.844	856.22
989.142	827.29
989.44	829.33
989.737	833.62
990.035	865.26
990.332	819.39
990.63	814.64
990.927	811.25
991.224	816.67
991.521	812.61
991.819	828.88
992.116	804.24
992.413	811.02
992.71	814.19
993.006	812.15
993.303	815.77
993.6	796.56
993.897	794.53
994.193	794.75
994.49	771.25
994.787	788.88
995.083	788.88
995.379	776.9
995.676	797.01
995.972	781.65
996.268	788.88
996.565	759.5
996.861	779.84
997.157	783.91
997.453	760.63
997.749	769.44
998.044	745.71
998.34	746.84
998.636	761.53
998.932	766.51
999.227	725.38
999.523	759.73
999.818	746.62
1000.114	740.52
1000.409	742.33
1000.704	709.11
1001	731.48
1001.295	730.35
1001.59	752.72
1001.885	746.62
1002.18	731.93
1002.475	695.77
1002.77	724.47
1003.065	711.59
1003.359	725.6
1003.654	718.82
1003.949	712.72
1004.243	720.18
1004.538	699.61
1004.832	691.48
1005.127	710.01
1005.421	720.18
1005.715	705.49
1006.009	706.62
1006.304	682.67
1006.598	683.34
1006.892	677.02
1007.186	693.96
1007.48	677.69
1007.773	673.4
1008.067	668.43
1008.361	656.23
1008.655	652.61
1008.948	663.68
1009.242	665.04
1009.535	656.45
1009.829	655.1
1010.122	644.93
1010.415	662.1
1010.708	644.25
1011.001	634.53
1011.295	666.39
1011.588	643.12
1011.881	641.31
1012.173	637.47
1012.466	635.44
1012.759	635.21
1013.052	625.27
1013.344	638.15
1013.637	637.92
1013.93	619.62
1014.222	629.33
1014.514	614.64
1014.807	637.24
1015.099	620.29
1015.391	607.41
1015.683	609.22
1015.976	624.14
1016.268	609.45
1016.56	626.4
1016.851	600.63
1017.143	594.53
1017.435	589.56
1017.727	582.56
1018.018	611.48
1018.31	604.48
1018.602	614.42
1018.893	595.89
1019.185	592.5
1019.476	591.82
1019.767	609.45
1020.058	589.56
1020.35	596.11
1020.641	569.9
1020.932	586.62
1021.223	561.09
1021.514	582.78
1021.804	576.45
1022.095	579.62
1022.386	577.13
1022.677	550.92
1022.967	550.24
1023.258	557.02
1023.548	542.1
1023.839	556.34
1024.129	554.31
1024.419	559.51
1024.709	542.56
1025	543.23
1025.29	545.04
1025.58	540.07
1025.87	521.77
1026.16	519.51
1026.449	521.09
1026.739	532.39
1027.029	521.99
1027.319	526.51
1027.608	535.1
1027.898	524.25
1028.187	530.13
1028.477	519.96
1028.766	541.88
1029.055	509.34
1029.344	536.23
1029.634	503.91
1029.923	506.63
1030.212	519.28
1030.501	510.01
1030.79	518.83
1031.078	507.08
1031.367	516.12
1031.656	498.26
1031.945	500.3
1032.233	493.07
1032.522	485.83
1032.81	480.64
1033.099	488.09
1033.387	475.44
1033.675	498.26
1033.963	458.94
1034.251	502.33
1034.54	499.17
1034.828	513.4
1035.116	478.38
1035.403	481.09
1035.691	487.42
1035.979	479.73
1036.267	494.65
1036.554	491.71
1036.842	488.55
1037.129	468.89
1037.417	466.63
1037.704	480.41
1037.992	460.07
1038.279	462.56
1038.566	478.38
1038.853	478.38
1039.14	478.38
