Data from black_plastic_tray_FLMS001491_005.txt Node
Date: Tue Feb 07 10:39:10 GMT 2017
User: dcchb
Spectrometer: FLMS00149
Trigger mode: 0
Integration Time (sec): 2.000000E-2
Scans to average: 10
Electric dark correction enabled: true
Nonlinearity correction enabled: false
Boxcar width: 0
XAxis mode: Wavelengths
Number of Pixels in Spectrum: 2048
>>>>>Begin Spectral Data<<<<<
341.393	-21.24
341.776	-21.24
342.16	-21.24
342.543	-55.59
342.927	-58.53
343.31	-72.31
343.693	-69.83
344.077	-69.38
344.46	-47.23
344.843	-50.85
345.226	-40.45
345.61	-44.74
345.993	4.29
346.376	-17.17
346.759	13.33
347.142	26.21
347.525	39.77
347.908	67.12
348.291	65.54
348.674	90.17
349.057	105.53
349.44	119.77
349.823	134.69
350.206	155.7
350.588	181.01
350.971	194.35
351.354	210.84
351.737	213.55
352.119	216.72
352.502	236.83
352.884	279.54
353.267	242.71
353.65	267.56
354.032	275.02
354.414	297.85
354.797	322.03
355.179	292.65
355.562	318.41
355.944	294.68
356.326	319.99
356.709	309.6
357.091	308.47
357.473	340.78
357.855	322.7
358.238	313.44
358.62	343.49
359.002	341.46
359.384	326.32
359.766	324.06
360.148	327.22
360.53	313.89
360.912	333.32
361.294	330.84
361.676	303.95
362.057	309.6
362.439	305.08
362.821	300.56
363.203	307.11
363.584	304.62
363.966	292.65
364.348	320.22
364.729	317.96
365.111	315.7
365.493	310.27
365.874	312.31
366.256	311.4
366.637	300.11
367.019	304.62
367.4	303.95
367.781	308.47
368.163	310.95
368.544	292.2
368.925	302.59
369.306	322.48
369.688	296.04
370.069	309.14
370.45	274.57
370.831	301.46
371.212	290.39
371.593	294.91
371.974	291.97
372.355	299.88
372.736	295.13
373.117	301.69
373.498	291.07
373.879	295.13
374.26	319.31
374.641	323.38
375.021	314.34
375.402	325.42
375.783	303.49
376.163	338.3
376.544	316.83
376.925	313.66
377.305	320.9
377.686	327.45
378.066	316.15
378.447	299.88
378.827	325.42
379.208	324.06
379.588	315.25
379.968	327.67
380.349	318.64
380.729	334.91
381.109	335.58
381.489	333.78
381.87	354.57
382.25	329.93
382.63	318.18
383.01	336.94
383.39	331.97
383.77	340.1
384.15	315.92
384.53	329.03
384.91	327.22
385.29	344.62
385.67	371.74
386.049	350.95
386.429	345.98
386.809	332.87
387.189	342.36
387.568	338.75
387.948	345.3
388.328	373.78
388.707	352.99
389.087	362.25
389.466	357.28
389.846	369.48
390.225	385.75
390.605	352.76
390.984	356.83
391.363	355.24
391.743	363.61
392.122	381.23
392.501	379.88
392.881	380.33
393.26	357.73
393.639	385.3
394.018	411.97
394.397	390.72
394.776	386.43
395.155	387.79
395.534	381.46
395.913	383.27
396.292	388.92
396.671	405.64
397.05	388.92
397.429	384.4
397.808	396.15
398.186	396.6
398.565	395.92
398.944	389.14
399.323	393.21
399.701	385.75
400.08	383.72
400.458	394.57
400.837	436.82
401.215	436.6
401.594	420.78
401.972	417.62
402.351	422.59
402.729	437.5
403.107	438.63
403.486	427.79
403.864	424.17
404.242	465.07
404.62	432.31
404.999	438.63
405.377	435.92
405.755	426.66
406.133	442.93
406.511	465.52
406.889	446.77
407.267	451.29
407.645	464.39
408.023	464.85
408.401	457.39
408.779	448.35
409.156	476.37
409.534	470.5
409.912	483.6
410.29	452.64
410.667	481.34
411.045	497.16
411.422	483.38
411.8	491.96
412.178	476.15
412.555	486.09
412.933	508.46
413.31	515.24
413.687	506.43
414.065	500.1
414.442	538.52
414.819	540.32
415.197	533.09
415.574	538.52
415.951	544.84
416.328	523.83
416.705	524.51
417.082	538.06
417.46	539.87
417.837	581.23
418.214	575.8
418.591	566.99
418.967	540.1
419.344	560.89
419.721	559.08
420.098	585.07
420.475	564.73
420.852	585.3
421.228	585.07
421.605	595.01
421.982	587.56
422.358	580.55
422.735	595.46
423.111	619.19
423.488	599.31
423.864	595.69
424.241	611.96
424.617	622.58
424.994	612.87
425.37	610.61
425.746	635.24
426.123	649.7
426.499	630.72
426.875	646.31
427.251	644.95
427.627	651.73
428.003	677.27
428.379	669.59
428.756	690.38
429.132	693.77
429.507	695.57
429.883	710.49
430.259	700.55
430.635	716.37
431.011	705.52
431.387	753.43
431.763	739.64
432.138	731.05
432.514	753.43
432.89	746.87
433.265	762.01
433.641	758.85
434.016	793.2
434.392	772.18
434.767	776.7
435.143	779.41
435.518	797.49
435.894	797.49
436.269	823.26
436.644	808.79
437.02	817.38
437.395	841.33
437.77	838.17
438.145	831.39
438.52	844.27
438.895	881.33
439.271	845.18
439.646	888.56
440.021	862.12
440.395	876.59
440.77	889.47
441.145	893.08
441.52	916.36
441.895	919.75
442.27	928.11
442.645	916.81
443.019	885.63
443.394	906.87
443.769	936.47
444.143	919.75
444.518	928.79
444.892	931.5
445.267	933.76
445.641	971.73
446.016	950.03
446.39	951.84
446.764	953.87
447.139	992.74
447.513	991.84
447.887	1000.65
448.262	990.03
448.636	996.36
449.01	1008.79
449.384	999.52
449.758	999.75
450.132	1021.44
450.506	1042.46
450.88	1020.54
451.254	1009.92
451.628	1054.89
452.002	1071.38
452.376	1060.99
452.75	1054.66
453.123	1075.23
453.497	1085.17
453.871	1119.52
454.244	1106.41
454.618	1134.89
454.992	1147.77
455.365	1114.77
455.739	1173.53
456.112	1206.07
456.486	1179.18
456.859	1207.2
457.232	1196.35
457.606	1216.69
457.979	1230.48
458.352	1216.69
458.725	1261.89
459.099	1243.81
459.472	1286.97
459.845	1296.01
460.218	1286.97
460.591	1308.89
460.964	1310.93
461.337	1337.59
461.71	1375.56
462.083	1371.94
462.456	1380.3
462.829	1353.64
463.201	1426.63
463.574	1400.42
463.947	1446.52
464.32	1452.62
464.692	1459.62
465.065	1474.09
465.438	1476.8
465.81	1484.25
466.183	1544.14
466.555	1556.12
466.928	1545.27
467.3	1558.15
467.672	1590.24
468.045	1627.75
468.417	1617.36
468.789	1638.6
469.161	1665.94
469.534	1700.29
469.906	1696.9
470.278	1712.5
470.65	1739.84
471.022	1762.44
471.394	1800.18
471.766	1817.13
472.138	1857.35
472.51	1851.02
472.882	1903.68
473.253	1880.63
473.625	1921.08
473.997	1950.91
474.369	1974.19
474.74	1981.19
475.112	2011.25
475.484	2057.35
475.855	2077.01
476.227	2094.63
476.598	2159.04
476.97	2155.42
477.341	2225.7
477.713	2244.23
478.084	2241.75
478.455	2305.93
478.827	2296.66
479.198	2387.28
479.569	2398.58
479.94	2492.59
480.311	2470.44
480.682	2480.61
481.053	2594.06
481.424	2556.99
481.795	2623.66
482.166	2650.1
482.537	2698.23
482.908	2746.59
483.279	2776.2
483.65	2858.68
484.021	2874.5
484.391	2900.94
484.762	2945.01
485.133	2953.82
485.503	2993.37
485.874	3034.27
486.244	3062.52
486.615	3155.4
486.985	3160.59
487.356	3204.44
487.726	3226.58
488.097	3313.59
488.467	3299.8
488.837	3363.3
489.207	3408.05
489.578	3444.2
489.948	3462.28
490.318	3497.31
490.688	3511.09
491.058	3561.04
491.428	3602.62
491.798	3659.11
492.168	3739.56
492.538	3749.51
492.908	3810.52
493.278	3820.24
493.648	3832.44
494.017	3841.48
494.387	3932.33
494.757	3921.03
495.126	4012.32
495.496	4003.96
495.866	4025.43
496.235	4074.7
496.605	4093.45
496.974	4104.07
497.344	4170.74
497.713	4200.79
498.082	4214.13
498.452	4292.09
498.821	4284.18
499.19	4292.99
499.559	4328.02
499.928	4370.28
500.298	4423.39
500.667	4420.67
501.036	4421.58
501.405	4486.44
501.774	4485.08
502.143	4532.54
502.512	4564.85
502.88	4601.91
503.249	4584.29
503.618	4690.27
503.987	4706.77
504.356	4714
504.724	4736.15
505.093	4781.34
505.462	4779.76
505.83	4803.26
506.199	4820.89
506.567	4908.12
506.936	4945.18
507.304	4988.57
507.672	4991.28
508.041	5022.47
508.409	5040.09
508.777	5071.51
509.145	5134.1
509.514	5116.48
509.882	5161.67
510.25	5201.45
510.618	5218.62
510.986	5256.13
511.354	5239.86
511.722	5303.14
512.09	5419.07
512.458	5412.29
512.826	5412.51
513.193	5504.49
513.561	5492.51
513.929	5567.09
514.297	5591.94
514.664	5636.91
515.032	5663.58
515.4	5719.17
515.767	5744.93
516.135	5749.45
516.502	5711.04
516.869	5869.9
517.237	5833.52
517.604	5876.46
517.972	5933.18
518.339	5925.27
518.706	5957.36
519.073	5985.83
519.44	6030.58
519.808	6102.44
520.175	6110.35
520.542	6215.66
520.909	6253.85
521.276	6241.64
521.643	6353.05
522.009	6396.22
522.376	6445.71
522.743	6511.69
523.11	6483.67
523.477	6571.8
523.843	6660.16
524.21	6652.48
524.577	6737
524.943	6734.51
525.31	6834.17
525.676	6881.63
526.043	6896.54
526.409	6931.34
526.776	7045.24
527.142	7004.34
527.508	7052.47
527.874	7125.24
528.241	7163.88
528.607	7184.67
528.973	7275.29
529.339	7235.74
529.705	7363.87
530.071	7354.83
530.437	7405.23
530.803	7472.8
531.169	7534.94
531.535	7480.03
531.901	7569.29
532.267	7676.41
532.632	7673.24
532.998	7694.03
533.364	7705.11
533.73	7828.49
534.095	7816.52
534.461	7879.57
534.826	7896.74
535.192	7982.39
535.557	8008.38
535.923	8028.26
536.288	8076.62
536.653	8047.92
537.019	8075.72
537.384	8075.27
537.749	8113.46
538.114	8170.18
538.479	8181.93
538.845	8171.99
539.21	8212.44
539.575	8224.19
539.94	8267.13
540.305	8292.66
540.67	8290.63
541.034	8354.13
541.399	8346.22
541.764	8462.38
542.129	8478.42
542.494	8525.43
542.858	8528.14
543.223	8496.05
543.587	8547.57
543.952	8583.28
544.316	8606.1
544.681	8664.86
545.045	8688.59
545.41	8741.92
545.774	8730.62
546.138	8832.31
546.503	8838.64
546.867	8833.89
547.231	8886.32
547.595	8990.72
547.959	8966.77
548.324	8941.46
548.688	8959.76
549.052	9000.22
549.416	8977.62
549.779	9016.26
550.143	9029.82
550.507	9131.29
550.871	9082.02
551.235	9132.87
551.599	9241.34
551.962	9249.02
552.326	9263.26
552.689	9263.26
553.053	9190.72
553.417	9326.99
553.78	9385.74
554.143	9398.62
554.507	9448.34
554.87	9500.99
555.234	9623.93
555.597	9474.78
555.96	9559.07
556.323	9641.78
556.686	9692.17
557.05	9760.2
557.413	9731.27
557.776	9787.77
558.139	9844.94
558.502	9895.33
558.865	9929.91
559.228	10010.58
559.59	10011.71
559.953	10055.1
560.316	10138.72
560.679	10138.26
561.041	10248.32
561.404	10200.86
561.767	10251.48
562.129	10266.85
562.492	10348.88
562.854	10387.07
563.217	10307.3
563.579	10443.34
563.941	10511.59
564.304	10493.51
564.666	10516.79
565.028	10526.28
565.39	10642.88
565.753	10652.6
566.115	10630.45
566.477	10682.66
566.839	10839.71
567.201	10883.56
567.563	10846.49
567.925	10963.78
568.287	10925.14
568.648	10976.89
569.01	11049.43
569.372	11130.78
569.734	11047.17
570.095	11175.3
570.457	11315.63
570.819	11260.72
571.18	11301.17
571.542	11373.71
571.903	11444.44
572.265	11419.36
572.626	11405.58
572.987	11479.25
573.349	11567.83
573.71	11486.93
574.071	11543.43
574.432	11544.56
574.794	11585.23
575.155	11600.6
575.516	11646.02
575.877	11635.17
576.238	11654.38
576.599	11683.53
576.96	11675.4
577.32	11711.78
577.681	11710.65
578.042	11733.25
578.403	11719.01
578.763	11775.74
579.124	11889.63
579.485	11887.82
579.845	11909.07
580.206	11933.47
580.566	11807.37
580.927	11915.62
581.287	11936.18
581.648	11867.26
582.008	11987.93
582.368	11932.12
582.728	11998.1
583.089	12054.15
583.449	11974.6
583.809	12067.25
584.169	11907.03
584.529	11984.77
584.889	12154.71
585.249	11995.16
585.609	11975.28
585.969	12057.08
586.329	12076.52
586.688	12074.26
587.048	12033.13
587.408	12036.07
587.768	12094.6
588.127	12054.37
588.487	12001.49
588.846	12063.19
589.206	11912.46
589.565	11975.05
589.925	11969.4
590.284	12036.75
590.643	11994.49
591.003	11999.46
591.362	11981.15
591.721	12024.99
592.08	11964.66
592.44	11991.32
592.799	11985
593.158	12029.51
593.517	12077.42
593.876	12023.19
594.235	12082.39
594.593	12018.22
594.952	12097.76
595.311	11951.55
595.67	12006.92
596.029	12090.98
596.387	12157.19
596.746	12167.59
597.104	12155.61
597.463	12165.78
597.822	12192.9
598.18	12127.59
598.538	12243.75
598.897	12206.91
599.255	12152.9
599.613	12347.02
599.972	12260.47
600.33	12315.38
600.688	12232.67
601.046	12286.91
601.404	12290.52
601.762	12316.29
602.12	12361.26
602.478	12359.9
602.836	12395.15
603.194	12254.37
603.552	12320.58
603.91	12229.73
604.268	12300.69
604.625	12293.69
604.983	12292.56
605.341	12203.52
605.698	12288.94
606.056	12328.72
606.413	12252.11
606.771	12313.8
607.128	12365.78
607.485	12361.93
607.843	12301.37
608.2	12413.46
608.557	12434.02
608.914	12401.26
609.272	12507.24
609.629	12474.7
609.986	12466.79
610.343	12488.49
610.7	12580.23
611.057	12568.48
611.414	12505.43
611.771	12567.35
612.127	12605.54
612.484	12590.18
612.841	12683.96
613.198	12631.08
613.554	12645.77
613.911	12632.44
614.267	12751.08
614.624	12706.11
614.98	12738.65
615.337	12735.94
615.693	12746.11
616.05	12692.32
616.406	12853.67
616.762	12746.78
617.118	12687.35
617.475	12686.67
617.831	12720.57
618.187	12749.72
618.543	12737.52
618.899	12823.62
619.255	12805.76
619.611	12833.79
619.967	12855.26
620.323	12863.62
620.678	12764.41
621.034	12734.81
621.39	12769.38
621.746	12762.15
622.101	12869.04
622.457	12824.75
622.812	12794.69
623.168	12835.14
623.523	12890.28
623.879	12893.9
624.234	12786.78
624.589	12762.38
624.945	12858.87
625.3	12829.27
625.655	12843.96
626.01	12898.19
626.365	12910.62
626.72	12780.68
627.075	12846.67
627.43	12829.04
627.785	12772.55
628.14	12858.42
628.495	12959.43
628.85	12813.9
629.205	12756.95
629.559	12830.85
629.914	12828.59
630.269	12796.27
630.623	12828.14
630.978	12716.95
631.332	12828.14
631.687	12855.93
632.041	12802.83
632.396	12737.74
632.75	12667.46
633.104	12754.01
633.459	12634.47
633.813	12669.05
634.167	12592.66
634.521	12632.44
634.875	12608.48
635.229	12597.41
635.583	12573.23
635.937	12562.83
636.291	12510.63
636.645	12573
636.999	12438.77
637.352	12444.64
637.706	12500.24
638.06	12448.94
638.413	12455.72
638.767	12388.83
639.121	12424.76
639.474	12354.7
639.828	12385.66
640.181	12367.13
640.534	12317.87
640.888	12298.43
641.241	12312.67
641.594	12230.86
641.947	12340.92
642.301	12332.11
642.654	12264.99
643.007	12293.69
643.36	12258.66
643.713	12287.13
644.066	12326.46
644.419	12190.64
644.771	12090.3
645.124	12123.07
645.477	12052.11
645.83	11968.27
646.182	11820.03
646.535	11860.25
646.888	11806.92
647.24	11867.94
647.593	11913.81
647.945	11730.99
648.298	11708.39
648.65	11700.94
649.002	11645.12
649.355	11734.15
649.707	11621.84
650.059	11747.49
650.411	11913.59
650.763	11934.38
651.115	12013.47
651.467	11941.38
651.819	11953.36
652.171	11908.16
652.523	11865.68
652.875	11834.27
653.227	11806.47
653.578	11958.56
653.93	11897.31
654.282	11795.62
654.633	11800.37
654.985	11809.41
655.337	11798.79
655.688	11792.23
656.039	11902.96
656.391	11772.8
656.742	11798.11
657.094	11817.54
657.445	11846.47
657.796	11754.49
658.147	11814.38
658.498	11759.01
658.849	11793.81
659.2	11790.2
659.551	11799.46
659.902	11800.37
660.253	11762.63
660.604	11725.57
660.955	11755.62
661.306	11788.84
661.656	11684.89
662.007	11745.23
662.358	11681.95
662.708	11661.39
663.059	11625.01
663.409	11606.47
663.76	11620.03
664.11	11637.43
664.461	11700.48
664.811	11641.73
665.161	11584.78
665.511	11648.28
665.862	11552.24
666.212	11637.43
666.562	11570.32
666.912	11529.87
667.262	11571
667.612	11553.37
667.962	11451
668.312	11513.14
668.662	11557.21
669.011	11514.73
669.361	11537.32
669.711	11448.29
670.06	11526.25
670.41	11444.22
670.76	11382.3
671.109	11474.5
671.459	11468.85
671.808	11450.77
672.157	11375.07
672.507	11387.72
672.856	11482.41
673.205	11401.96
673.554	11465.91
673.904	11489.64
674.253	11463.43
674.602	11349.98
674.951	11222.3
675.3	11102.31
675.649	11321.06
675.998	11345.24
676.346	11467.5
676.695	11379.59
677.044	11337.78
677.393	11319.48
677.741	11365.35
678.09	11353.83
678.438	11210.1
678.787	11334.62
679.135	11250.1
679.484	11241.96
679.832	11299.14
680.181	11191.34
680.529	11202.42
680.877	11169.65
681.225	11164.45
681.573	11228.18
681.922	11160.84
682.27	11138.92
682.618	11146.6
682.966	11089.88
683.314	11101.63
683.661	11014.85
684.009	11033.38
684.357	10979.82
684.705	10946.83
685.053	10947.73
685.4	10942.31
685.748	10864.57
686.095	10820.05
686.443	10870.67
686.79	10812.6
687.138	10822.09
687.485	10740.73
687.832	10728.31
688.18	10781.41
688.527	10646.27
688.874	10667.52
689.221	10705.71
689.568	10610.57
689.915	10677.91
690.262	10596.56
690.609	10555.65
690.956	10611.92
691.303	10528.76
691.65	10474.3
691.997	10535.09
692.344	10444.7
692.69	10381.42
693.037	10441.76
693.383	10340.07
693.73	10418.48
694.077	10390.91
694.423	10390.24
694.769	10361.54
695.116	10385.49
695.462	10266.62
695.808	10240.63
696.155	10220.75
696.501	10196.12
696.847	10150.47
697.193	10110.02
697.539	10058.04
697.885	10089.9
698.231	9991.38
698.577	10009.68
698.923	10018.72
699.269	9911.15
699.614	9915.67
699.96	9879.51
700.306	9859.85
700.651	9843.13
700.997	9793.87
701.342	9803.13
701.688	9770.36
702.033	9741.66
702.379	9695.56
702.724	9703.7
703.069	9718.39
703.415	9625.74
703.76	9597.71
704.105	9540.99
704.45	9562.91
704.795	9530.14
705.14	9503.25
705.485	9480.88
705.83	9476.14
706.175	9430.26
706.52	9415.12
706.865	9406.98
707.209	9432.97
707.554	9340.32
707.899	9315.24
708.243	9271.39
708.588	9339.19
708.932	9243.37
709.277	9192.53
709.621	9246.99
709.966	9221.9
710.31	9223.03
710.654	9151.17
710.998	9163.37
711.342	9186.43
711.687	9213.54
712.031	9110.72
712.375	9100.55
712.719	9098.29
713.063	9064.85
713.407	8980.78
713.75	9044.06
714.094	9125.86
714.438	8982.81
714.782	8982.36
715.125	8972.19
715.469	8924.06
715.812	8888.58
716.156	8815.81
716.499	8824.63
716.843	8869.6
717.186	8819.66
717.53	8888.13
717.873	8847
718.216	8924.96
718.559	8800.45
718.902	8684.07
719.246	8720.67
719.589	8693.78
719.932	8723.84
720.275	8644.74
720.617	8644.07
720.96	8581.47
721.303	8620.79
721.646	8710.73
721.989	8565.42
722.331	8532.88
722.674	8598.19
723.016	8586.89
723.359	8509.83
723.701	8498.76
724.044	8499.66
724.386	8425.09
724.729	8487.69
725.071	8423.06
725.413	8474.35
725.755	8459.89
726.097	8357.75
726.439	8395.94
726.782	8406.56
727.124	8425.09
727.465	8387.12
727.807	8361.36
728.149	8303.06
728.491	8295.38
728.833	8361.36
729.175	8270.74
729.516	8249.95
729.858	8284.75
730.199	8291.31
730.541	8305.54
730.882	8269.61
731.224	8233
731.565	8192.78
731.906	8240.46
732.248	8268.03
732.589	8170.86
732.93	8192.78
733.271	8206.56
733.612	8137.41
733.953	8138.32
734.294	8117.75
734.635	8054.03
734.976	8152.78
735.317	8064.42
735.658	8115.04
735.999	8082.05
736.339	8056.29
736.68	8072.78
737.021	7998.66
737.361	7960.24
737.702	8023.97
738.042	8024.65
738.383	7969.73
738.723	8021.94
739.063	7965.21
739.404	7956.17
739.744	7934.93
740.084	7915.95
740.424	7871.21
740.764	7892.22
741.104	7892.67
741.444	7863.07
741.784	7858.55
742.124	7857.19
742.464	7850.64
742.804	7829.85
743.143	7786.91
743.483	7698.55
743.823	7721.38
744.162	7731.55
744.502	7696.29
744.841	7743.75
745.181	7722.28
745.52	7668.72
745.86	7727.25
746.199	7684.54
746.538	7651.55
746.877	7649.06
747.216	7629.4
747.556	7638.67
747.895	7664.43
748.234	7591.89
748.573	7547.15
748.911	7543.76
749.25	7614.49
749.589	7525.9
749.928	7539.46
750.267	7551.21
750.605	7444.55
750.944	7504.21
751.283	7454.27
751.621	7499.69
751.96	7536.07
752.298	7408.84
752.636	7437.32
752.975	7432.12
753.313	7383.99
753.651	7478.9
753.989	7358.9
754.327	7314.61
754.666	7327.26
755.004	7323.88
755.342	7304.67
755.679	7198.45
756.017	7205.91
756.355	7240.04
756.693	7174.05
757.031	7244.1
757.368	7159.81
757.706	7150.09
758.044	7142.86
758.381	7112.58
758.719	7064.45
759.056	7173.14
759.394	7020.15
759.731	7038.68
760.068	7057.89
760.405	6991
760.743	6967.5
761.08	7023.09
761.417	7006.37
761.754	6972.25
762.091	6969.08
762.428	6952.81
762.765	6943.55
763.102	6921.85
763.438	6858.58
763.775	6815.19
764.112	6859.03
764.449	6804.11
764.785	6772.48
765.122	6743.78
765.458	6751.01
765.795	6762.53
766.131	6703.33
766.467	6659.71
766.804	6613.84
767.14	6614.97
767.476	6647.96
767.812	6545.14
768.148	6589.88
768.485	6528.19
768.821	6467.17
769.157	6519.83
769.492	6475.08
769.828	6453.84
770.164	6410.45
770.5	6432.15
770.836	6395.09
771.171	6343.79
771.507	6308.08
771.842	6310.57
772.178	6328.2
772.513	6316.22
772.849	6238.71
773.184	6233.96
773.519	6277.58
773.855	6204.13
774.19	6221.31
774.525	6204.81
774.86	6192.83
775.195	6168.43
775.53	6129.33
775.865	6047.75
776.2	6070.12
776.535	6017.47
776.87	5992.38
777.205	6002.78
777.539	5983.12
777.874	5968.66
778.209	5931.14
778.543	5918.26
778.878	5865.38
779.212	5894.99
779.547	5859.51
779.881	5851.6
780.215	5766.18
780.55	5805.27
780.884	5753.75
781.218	5761.88
781.552	5732.73
781.886	5713.3
782.22	5748.1
782.554	5694.31
782.888	5660.42
783.222	5656.35
783.556	5632.62
783.889	5585.62
784.223	5591.04
784.557	5517.14
784.89	5599.85
785.224	5545.39
785.557	5526.41
785.891	5491.16
786.224	5466.3
786.558	5478.73
786.891	5437.15
787.224	5438.28
787.557	5395.56
787.891	5421.33
788.224	5422.91
788.557	5365.06
788.89	5338.39
789.223	5303.59
789.556	5309.01
789.888	5283.48
790.221	5228.34
790.554	5267.66
790.887	5230.82
791.219	5211.84
791.552	5195.12
791.884	5132.75
792.217	5135.91
792.549	5113.99
792.882	5115.57
793.214	5138.62
793.546	5133.88
793.879	5047.32
794.211	5047.32
794.543	5054.33
794.875	5064.27
795.207	5047.55
795.539	5021.34
795.871	5045.97
796.203	5009.36
796.535	4918.29
796.867	4940.44
797.198	4940.21
797.53	4909.48
797.862	4861.57
798.193	4918.97
798.525	4837.61
798.856	4810.04
799.188	4799.87
799.519	4791.29
799.85	4750.38
800.182	4751.51
800.513	4741.12
800.844	4721.68
801.175	4718.97
801.506	4741.12
801.837	4751.06
802.168	4688.01
802.499	4687.11
802.83	4698.63
803.161	4643.27
803.491	4639.65
803.822	4649.37
804.153	4619.31
804.483	4587
804.814	4571.86
805.145	4596.72
805.475	4527.34
805.805	4546.77
806.136	4566.21
806.466	4537.96
806.796	4539.32
807.126	4548.58
807.457	4506.55
807.787	4521.92
808.117	4470.62
808.447	4488.47
808.777	4473.55
809.107	4497.51
809.436	4459.32
809.766	4401.01
810.096	4437.85
810.426	4387.68
810.755	4431.52
811.085	4402.14
811.414	4386.78
811.744	4316.04
812.073	4326.44
812.403	4359.21
812.732	4321.69
813.061	4296.16
813.39	4305.65
813.719	4285.31
814.049	4265.42
814.378	4303.62
814.707	4275.37
815.036	4262.71
815.365	4230.17
815.693	4218.65
816.022	4213.67
816.351	4178.2
816.68	4140.68
817.008	4154.69
817.337	4132.77
817.665	4142.04
817.994	4113.56
818.322	4163.96
818.651	4111.08
818.979	4138.42
819.307	4137.52
819.636	4119.67
819.964	4059.78
820.292	4047.35
820.62	4075.15
820.948	4043.51
821.276	4141.36
821.604	4082.83
821.932	4095.71
822.259	4073.11
822.587	4121.7
822.915	4070.18
823.243	4120.34
823.57	4075.83
823.898	4054.81
824.225	4050.74
824.553	4095.49
824.88	4074.47
825.207	4090.74
825.535	4083.51
825.862	4097.75
826.189	4071.31
826.516	4068.82
826.843	4064.98
827.17	4103.85
827.497	4071.08
827.824	4062.04
828.151	4064.98
828.478	4055.49
828.805	4107.46
829.131	4092.77
829.458	4055.03
829.785	4059.1
830.111	4084.64
830.438	4089.16
830.764	4097.75
831.09	4087.58
831.417	4081.25
831.743	4106.78
832.069	4056.62
832.395	4089.16
832.722	4088.71
833.048	4004.19
833.374	4014.81
833.7	3999.22
834.026	4024.07
834.351	4011.65
834.677	4032.44
835.003	4010.97
835.329	4020.69
835.654	4024.07
835.98	3992.44
836.306	4018.2
836.631	3995.38
836.956	4037.86
837.282	3970.52
837.607	3978.88
837.932	4011.42
838.258	3989.27
838.583	3986.56
838.908	3964.19
839.233	3971.65
839.558	3956.73
839.883	3913.57
840.208	3905.43
840.533	3909.73
840.858	3879.22
841.182	3939.78
841.507	3891.42
841.832	3858.2
842.156	3865.66
842.481	3867.92
842.805	3878.54
843.13	3842.16
843.454	3858.2
843.778	3828.83
844.103	3814.36
844.427	3822.05
844.751	3817.53
845.075	3880.8
845.399	3833.8
845.723	3801.03
846.047	3782.73
846.371	3753.12
846.695	3753.12
847.019	3770.75
847.343	3713.12
847.666	3732.33
847.99	3702.95
848.313	3708.83
848.637	3709.06
848.96	3645.78
849.284	3679.45
849.607	3567.82
849.931	3615.27
850.254	3595.84
850.577	3572.11
850.9	3510.87
851.223	3530.53
851.546	3521.26
851.869	3471.1
852.192	3542.51
852.515	3509.51
852.838	3455.5
853.161	3499.57
853.483	3481.26
853.806	3485.11
854.129	3427.93
854.451	3458.21
854.774	3432.68
855.096	3412.79
855.419	3428.84
855.741	3410.76
856.063	3402.62
856.385	3392.45
856.708	3387.71
857.03	3396.75
857.352	3369.85
857.674	3367.82
857.996	3357.2
858.318	3314.94
858.64	3361.04
858.961	3315.62
859.283	3319.01
859.605	3307.03
859.926	3347.03
860.248	3297.99
860.57	3283.76
860.891	3291.44
861.212	3261.16
861.534	3250.08
861.855	3240.14
862.176	3291.89
862.498	3261.38
862.819	3250.76
863.14	3262.97
863.461	3274.72
863.782	3210.76
864.103	3227.03
864.424	3173.25
864.745	3212.12
865.065	3201.95
865.386	3201.95
865.707	3170.99
866.027	3204.89
866.348	3194.94
866.668	3125.57
866.989	3169.86
867.309	3118.34
867.63	3169.86
867.95	3180.93
868.27	3131.9
868.59	3148.17
868.91	3166.24
869.23	3132.57
869.55	3092.8
869.87	3155.85
870.19	3112.69
870.51	3138.22
870.83	3122.4
871.15	3080.37
871.469	3063.65
871.789	3108.62
872.109	3069.98
872.428	3050.09
872.748	3127.15
873.067	3087.15
873.386	3071.78
873.706	3093.48
874.025	3063.2
874.344	3045.12
874.663	3030.88
874.982	3036.98
875.301	3001.95
875.62	3017.77
875.939	2997.66
876.258	3000.83
876.577	2990.88
876.896	3013.25
877.214	2971.67
877.533	2983.2
877.852	3004.67
878.17	3011.22
878.489	3010.54
878.807	2989.53
879.125	2969.41
879.444	2988.85
879.762	2964.44
880.08	2954.05
880.398	2920.6
880.716	2939.81
881.034	2940.49
881.352	2945.46
881.67	2930.77
881.988	2927.38
882.306	2967.83
882.624	2902.07
882.941	2915.18
883.259	2916.31
883.577	2923.09
883.894	2913.14
884.212	2948.85
884.529	2912.01
884.846	2898
885.164	2896.42
885.481	2895.97
885.798	2881.96
886.115	2842.19
886.432	2863.65
886.75	2869.3
887.067	2850.55
887.383	2828.4
887.7	2802.41
888.017	2810.77
888.334	2805.8
888.651	2815.29
888.967	2786.37
889.284	2789.76
889.6	2790.21
889.917	2779.59
890.233	2761.06
890.55	2758.57
890.866	2756.31
891.182	2735.75
891.498	2757.67
891.815	2775.29
892.131	2755.63
892.447	2766.71
892.763	2731.91
893.079	2725.35
893.395	2726.03
893.71	2696.88
894.026	2738.23
894.342	2687.39
894.657	2658.46
894.973	2658.91
895.289	2692.36
895.604	2644.22
895.92	2644
896.235	2618.01
896.55	2646.03
896.865	2629.99
897.181	2604.9
897.496	2616.88
897.811	2569.2
898.126	2586.6
898.441	2568.07
898.756	2581.18
899.071	2568.52
899.386	2571.23
899.7	2569.42
900.015	2548.63
900.33	2543.66
900.644	2532.59
900.959	2538.01
901.273	2524.91
901.588	2521.06
901.902	2497.34
902.216	2470.9
902.531	2509.99
902.845	2476.32
903.159	2490.1
903.473	2472.25
903.787	2441.97
904.101	2441.07
904.415	2452.14
904.729	2436.77
905.042	2420.05
905.356	2413.5
905.67	2394.74
905.984	2402.2
906.297	2384.12
906.611	2380.5
906.924	2381.41
907.237	2364.23
907.551	2349.99
907.864	2344.12
908.177	2340.96
908.491	2358.58
908.804	2332.14
909.117	2341.41
909.43	2276.32
909.743	2255.08
910.056	2293.05
910.368	2274.52
910.681	2280.17
910.994	2229.32
911.307	2257.34
911.619	2253.27
911.932	2206.72
912.244	2222.54
912.557	2224.57
912.869	2214.41
913.181	2190.68
913.494	2215.31
913.806	2179.83
914.118	2194.29
914.43	2205.37
914.742	2194.07
915.054	2167.85
915.366	2165.37
915.678	2146.16
915.99	2129.21
916.302	2128.76
916.613	2116.78
916.925	2126.5
917.236	2122.88
917.548	2145.25
917.859	2110.68
918.171	2083.56
918.482	2084.69
918.794	2088.53
919.105	2073.17
919.416	2068.42
919.727	2052.38
920.038	2072.49
920.349	2035.88
920.66	2054.41
920.971	2052.38
921.282	1998.14
921.593	1991.13
921.903	2024.58
922.214	1987.52
922.525	2021.19
922.835	1978.93
923.146	1947.97
923.456	1968.31
923.767	1938.48
924.077	1938.48
924.387	1942.1
924.697	1934.41
925.008	1904.58
925.318	1936.22
925.628	1895.09
925.938	1919.5
926.248	1908.2
926.558	1881.53
926.867	1881.31
927.177	1877.01
927.487	1874.53
927.796	1859.16
928.106	1844.25
928.416	1879.27
928.725	1865.49
929.034	1862.78
929.344	1829.33
929.653	1822.32
929.962	1800.86
930.271	1824.58
930.581	1790.01
930.89	1798.37
931.199	1786.17
931.508	1786.17
931.817	1779.39
932.125	1777.13
932.434	1781.2
932.743	1732.38
933.051	1745.49
933.36	1740.07
933.669	1789.56
933.977	1760.86
934.286	1735.77
934.594	1747.75
934.902	1716.34
935.21	1710.01
935.519	1723.34
935.827	1711.59
936.135	1700.97
936.443	1702.78
936.751	1715.66
937.059	1674.76
937.367	1651.71
937.674	1647.19
937.982	1660.97
938.29	1657.13
938.597	1654.19
938.905	1621.2
939.213	1630.69
939.52	1650.13
939.827	1618.04
940.135	1632.5
940.442	1598.83
940.749	1608.55
941.056	1606.96
941.363	1589.79
941.67	1569.9
941.977	1590.92
942.284	1557.47
942.591	1565.83
942.898	1550.69
943.205	1558.15
943.511	1559.73
943.818	1546.63
944.125	1534.87
944.431	1507.98
944.738	1536
945.044	1531.26
945.35	1528.32
945.657	1537.13
945.963	1537.36
946.269	1498.72
946.575	1510.92
946.881	1451.71
947.187	1483.12
947.493	1476.12
947.799	1476.8
948.105	1486.51
948.41	1473.63
948.716	1464.59
949.022	1456.01
949.327	1452.62
949.633	1427.76
949.938	1448.32
950.244	1442.45
950.549	1439.51
950.854	1421.66
951.16	1410.36
951.465	1415.78
951.77	1419.62
952.075	1391.6
952.38	1372.85
952.685	1387.76
952.99	1410.36
953.294	1376.69
953.599	1376.46
953.904	1377.36
954.209	1387.08
954.513	1350.7
954.818	1374.65
955.122	1355.22
955.426	1391.15
955.731	1377.82
956.035	1334.43
956.339	1333.98
956.643	1334.65
956.948	1335.78
957.252	1323.81
957.556	1328.78
957.86	1313.41
958.163	1327.65
958.467	1296.92
958.771	1329.91
959.075	1310.25
959.378	1296.92
959.682	1275.67
959.985	1291.49
960.289	1278.16
960.592	1294.43
960.896	1242.91
961.199	1283.13
961.502	1257.37
961.805	1250.81
962.108	1283.36
962.411	1252.4
962.714	1245.62
963.017	1234.54
963.32	1248.55
963.623	1230.7
963.926	1245.39
964.228	1218.5
964.531	1219.63
964.833	1225.05
965.136	1252.17
965.438	1212.4
965.741	1218.27
966.043	1199.97
966.345	1225.28
966.648	1218.73
966.95	1216.01
967.252	1187.09
967.554	1165.39
967.856	1164.72
968.158	1166.97
968.46	1166.3
968.761	1189.35
969.063	1164.72
969.365	1202.45
969.666	1155.22
969.968	1139.63
970.269	1144.83
970.571	1157.94
970.872	1135.56
971.174	1147.31
971.475	1128.56
971.776	1129.24
972.077	1104.15
972.378	1124.94
972.679	1111.16
972.98	1086.75
973.281	1117.71
973.582	1114.32
973.883	1112.97
974.183	1109.58
974.484	1071.84
974.785	1087.66
975.085	1088.33
975.386	1077.71
975.686	1081.55
975.986	1077.49
976.287	1062.34
976.587	1049.69
976.887	1070.93
977.187	1071.61
977.487	1041.78
977.787	1060.54
978.087	1042.68
978.387	1072.06
978.687	1032.52
978.987	1035.45
979.286	1033.19
979.586	1048.33
979.885	1034.55
980.185	1039.52
980.484	1020.54
980.784	1005.17
981.083	1016.47
981.382	1017.37
981.682	1002.91
981.981	968.11
982.28	995.91
982.579	997.49
982.878	992.52
983.177	978.28
983.475	993.19
983.774	1004.04
984.073	974.21
984.372	978.05
984.67	952.74
984.969	969.92
985.267	954.1
985.566	972.18
985.864	949.13
986.162	946.87
986.461	968.11
986.759	950.94
987.057	958.84
987.355	936.92
987.653	974.44
987.951	928.34
988.249	936.47
988.547	955.46
988.844	931.73
989.142	923.37
989.44	942.35
989.737	912.97
990.035	917.72
990.332	905.51
990.63	909.35
990.927	883.82
991.224	889.24
991.521	899.64
991.819	926.53
992.116	899.86
992.413	908
992.71	898.06
993.006	890.82
993.303	881.78
993.6	858.51
993.897	866.42
994.193	887.21
994.49	866.19
994.787	850.15
995.083	869.58
995.379	845.85
995.676	895.34
995.972	879.07
996.268	852.18
996.565	861.67
996.861	843.59
997.157	841.11
997.453	854.21
997.749	856.47
998.044	871.62
998.34	831.84
998.636	802.92
998.932	804.72
999.227	828.9
999.523	826.64
999.818	826.19
1000.114	820.09
1000.409	821.22
1000.704	812.63
1001	805.4
1001.295	810.37
1001.59	785.52
1001.885	788.68
1002.18	797.27
1002.475	797.27
1002.77	767.44
1003.065	771.28
1003.359	788.45
1003.654	801.11
1003.949	786.19
1004.243	773.99
1004.538	750.94
1004.832	743.71
1005.127	753.65
1005.421	754.78
1005.715	763.14
1006.009	775.8
1006.304	758.17
1006.598	763.14
1006.892	751.62
1007.186	724.05
1007.48	713.88
1007.773	739.87
1008.067	741.68
1008.361	729.92
1008.655	709.13
1008.948	735.8
1009.242	739.87
1009.535	716.59
1009.829	710.72
1010.122	703.94
1010.415	726.31
1010.708	702.81
1011.001	668.46
1011.295	732.64
1011.588	712.3
1011.881	699.42
1012.173	701
1012.466	722.24
1012.759	689.47
1013.052	679.3
1013.344	684.05
1013.637	665.52
1013.93	679.3
1014.222	666.2
1014.514	679.76
1014.807	675.01
1015.099	662.58
1015.391	667.55
1015.683	667.1
1015.976	685.86
1016.268	661
1016.56	675.91
1016.851	645.63
1017.143	648.8
1017.435	659.64
1017.727	653.09
1018.018	639.08
1018.31	649.25
1018.602	616.03
1018.893	638.18
1019.185	652.64
1019.476	642.69
1019.767	613.09
1020.058	609.7
1020.35	617.84
1020.641	616.25
1020.932	615.35
1021.223	607.22
1021.514	593.88
1021.804	608.8
1022.095	589.59
1022.386	610.83
1022.677	610.83
1022.967	609.48
1023.258	596.59
1023.548	593.43
1023.839	584.39
1024.129	581
1024.419	604.05
1024.709	580.32
1025	573.09
1025.29	571.74
1025.58	584.17
1025.87	580.78
1026.16	576.48
1026.449	583.04
1026.739	577.61
1027.029	549.59
1027.319	559.31
1027.608	569.7
1027.898	566.09
1028.187	566.09
1028.477	554.56
1028.766	567.44
1029.055	566.54
1029.344	536.94
1029.634	548.46
1029.923	560.66
1030.212	529.03
1030.501	542.58
1030.79	545.3
1031.078	550.95
1031.367	524.51
1031.656	540.78
1031.945	545.3
1032.233	542.81
1032.522	540.78
1032.81	518.63
1033.099	544.17
1033.387	505.52
1033.675	506.88
1033.963	528.12
1034.251	533.09
1034.54	513.88
1034.828	509.14
1035.116	527.9
1035.403	508.01
1035.691	517.05
1035.979	511.17
1036.267	515.69
1036.554	502.81
1036.842	504.39
1037.129	516.6
1037.417	506.43
1037.704	495.35
1037.992	509.37
1038.279	481.57
1038.566	503.72
1038.853	503.72
1039.14	503.72
