Data from black_metal_pc_casing_FLMS001491_00038.txt Node
Date: Wed Feb 08 14:32:35 GMT 2017
User: dcchb
Spectrometer: FLMS00149
Trigger mode: 0
Integration Time (sec): 2.000000E-2
Scans to average: 10
Electric dark correction enabled: true
Nonlinearity correction enabled: false
Boxcar width: 0
XAxis mode: Wavelengths
Number of Pixels in Spectrum: 2048
>>>>>Begin Spectral Data<<<<<
341.393	-26.16
341.776	-26.16
342.16	-26.16
342.543	-67.06
342.927	-61.18
343.31	-58.25
343.693	-68.19
344.077	-69.32
344.46	-76.33
344.843	-40.17
345.226	-69.77
345.61	-36.1
345.993	-31.58
346.376	2.54
346.759	17.46
347.142	24.24
347.525	27.85
347.908	59.49
348.291	91.58
348.674	109.66
349.057	116.89
349.44	120.96
349.823	145.14
350.206	140.39
350.588	166.83
350.971	197.57
351.354	205.7
351.737	230.78
352.119	245.93
352.502	248.41
352.884	250.67
353.267	266.94
353.65	279.15
354.032	282.76
354.414	295.42
354.797	289.54
355.179	297.45
355.562	291.57
355.944	315.3
356.326	330.22
356.709	346.04
357.091	347.39
357.473	318.92
357.855	316.66
358.238	344.45
358.62	327.51
359.002	320.05
359.384	336.09
359.766	325.92
360.148	337.67
360.53	335.19
360.912	325.47
361.294	332.48
361.676	319.6
362.057	306.26
362.439	332.93
362.821	316.66
363.203	337
363.584	319.6
363.966	324.57
364.348	308.07
364.729	313.27
365.111	315.08
365.493	302.2
365.874	311.69
366.256	294.96
366.637	314.62
367.019	306.72
367.4	301.07
367.781	307.85
368.163	309.2
368.544	298.58
368.925	292.25
369.306	317.56
369.688	301.97
370.069	299.26
370.45	301.07
370.831	299.48
371.212	291.12
371.593	320.27
371.974	298.35
372.355	301.52
372.736	321.18
373.117	315.3
373.498	316.21
373.879	305.36
374.26	320.95
374.641	299.26
375.021	314.17
375.402	309.43
375.783	319.6
376.163	310.33
376.544	334.06
376.925	320.5
377.305	323.66
377.686	306.04
378.066	334.06
378.447	324.12
378.827	306.94
379.208	332.25
379.588	327.51
379.968	344.45
380.349	311.46
380.729	329.77
381.109	331.57
381.489	339.03
381.87	329.54
382.25	340.61
382.63	334.96
383.01	343.1
383.39	339.93
383.77	363.89
384.15	335.64
384.53	340.84
384.91	357.11
385.29	338.35
385.67	372.48
386.049	371.35
386.429	350.56
386.809	393.04
387.189	353.27
387.568	346.94
387.948	358.01
388.328	368.63
388.707	355.08
389.087	355.98
389.466	378.8
389.846	362.31
390.225	355.75
390.605	351.46
390.984	368.63
391.363	385.36
391.743	382.87
392.122	370.44
392.501	379.71
392.881	378.58
393.26	379.93
393.639	371.35
394.018	391.68
394.397	396.88
394.776	371.35
395.155	387.84
395.534	402.08
395.913	378.13
396.292	394.62
396.671	393.04
397.05	398.01
397.429	405.92
397.808	412.25
398.186	384.45
398.565	401.4
398.944	400.95
399.323	425.58
399.701	421.74
400.08	394.17
400.458	421.97
400.837	409.09
401.215	402.31
401.594	430.1
401.972	414.51
402.351	439.14
402.729	438.01
403.107	448.63
403.486	433.49
403.864	415.86
404.242	433.72
404.62	430.55
404.999	438.24
405.377	436.43
405.755	461.74
406.133	450.21
406.511	449.08
406.889	466.71
407.267	468.07
407.645	447.28
408.023	479.82
408.401	468.97
408.779	493.38
409.156	490.21
409.534	487.95
409.912	473.94
410.29	476.65
410.667	467.84
411.045	482.3
411.422	483.66
411.8	489.08
412.178	520.49
412.555	496.54
412.933	541.06
413.31	538.8
413.687	512.81
414.065	531.79
414.442	530.21
414.819	515.07
415.197	542.19
415.574	541.96
415.951	515.52
416.328	547.16
416.705	537.67
417.082	544
417.46	553.04
417.837	550.78
418.214	547.61
418.591	567.5
418.967	556.43
419.344	563.66
419.721	587.16
420.098	585.58
420.475	574.05
420.852	584.9
421.228	582.41
421.605	588.52
421.982	600.94
422.358	579.93
422.735	605.01
423.111	623.99
423.488	616.76
423.864	605.92
424.241	628.97
424.617	614.05
424.994	619.25
425.37	620.83
425.746	612.7
426.123	634.84
426.499	639.36
426.875	629.87
427.251	658.12
427.627	656.31
428.003	663.09
428.379	671.23
428.756	663.32
429.132	680.94
429.507	684.56
429.883	677.78
430.259	721.39
430.635	704.22
431.011	684.78
431.387	703.09
431.763	724.11
432.138	734.27
432.514	739.25
432.89	717.55
433.265	732.69
433.641	761.39
434.016	754.61
434.392	767.49
434.767	762.75
435.143	783.99
435.518	765.69
435.894	805.91
436.269	776.53
436.644	802.97
437.02	785.57
437.395	814.05
437.77	797.32
438.145	814.27
438.52	824.89
438.895	847.94
439.271	829.87
439.646	849.75
440.021	838.23
440.395	867.83
440.77	850.43
441.145	873.71
441.52	868.28
441.895	888.39
442.27	878.9
442.645	888.39
443.019	886.13
443.394	901.05
443.769	893.82
444.143	903.99
444.518	919.35
444.892	896.76
445.267	898.34
445.641	924.55
446.016	929.3
446.39	916.64
446.764	936.3
447.139	954.38
447.513	948.28
447.887	967.49
448.262	936.98
448.636	953.48
449.01	985.79
449.384	953.7
449.758	976.53
450.132	973.36
450.506	996.64
450.88	999.35
451.254	1001.39
451.628	1000.93
452.002	1020.37
452.376	1038.22
452.75	1019.24
453.123	1025.57
453.497	1050.42
453.871	1038.22
454.244	1078.22
454.618	1084.32
454.992	1089.97
455.365	1076.19
455.739	1121.16
456.112	1132.91
456.486	1123.64
456.859	1142.63
457.232	1177.88
457.606	1151.89
457.979	1160.48
458.352	1215.39
458.725	1183.98
459.099	1246.13
459.472	1218.33
459.845	1219.46
460.218	1256.52
460.591	1246.13
460.964	1253.36
461.337	1280.02
461.71	1285.22
462.083	1336.74
462.456	1334.26
462.829	1321.83
463.201	1349.63
463.574	1347.82
463.947	1358.66
464.32	1378.78
464.692	1401.38
465.065	1420.13
465.438	1417.42
465.81	1441.37
466.183	1449.06
466.555	1506.23
466.928	1466.46
467.3	1486.57
467.672	1502.39
468.045	1560.24
468.417	1533.8
468.789	1547.59
469.161	1562.73
469.534	1592.56
469.906	1607.25
470.278	1612.22
470.65	1649.5
471.022	1682.5
471.394	1704.87
471.766	1701.93
472.138	1741.48
472.51	1744.64
472.882	1781.7
473.253	1795.49
473.625	1832.32
473.997	1847.69
474.369	1866
474.74	1864.41
475.112	1872.1
475.484	1971.3
475.855	1961.13
476.227	1993.68
476.598	2038.42
476.97	2047.23
477.341	2064.63
477.713	2080.68
478.084	2115.93
478.455	2198.87
478.827	2187.34
479.198	2244.52
479.569	2232.99
479.94	2289.49
480.311	2301.01
480.682	2356.38
481.053	2399.99
481.424	2439.77
481.795	2453.55
482.166	2485.19
482.537	2482.03
482.908	2581.91
483.279	2593.21
483.65	2661.91
484.021	2691.74
484.391	2700.32
484.762	2734.9
485.133	2743.04
485.503	2772.64
485.874	2847.89
486.244	2841.34
486.615	2913.65
486.985	2988.23
487.356	3010.15
487.726	3021.45
488.097	3062.35
488.467	3088.11
488.837	3139.63
489.207	3182.35
489.578	3245.39
489.948	3225.96
490.318	3279.52
490.688	3278.16
491.058	3356.58
491.428	3379.18
491.798	3420.76
492.168	3497.59
492.538	3506.63
492.908	3513.18
493.278	3559.74
493.648	3576.23
494.017	3588.89
494.387	3645.61
494.757	3654.42
495.126	3709.34
495.496	3746.4
495.866	3793.4
496.235	3775.1
496.605	3847.64
496.974	3837.24
497.344	3926.73
497.713	3925.6
498.082	3961.31
498.452	3958.14
498.821	3982.32
499.19	4001.53
499.559	4043.79
499.928	4029.78
500.298	4081.98
500.667	4104.13
501.036	4130.12
501.405	4183.9
501.774	4208.99
502.143	4215.09
502.512	4213.05
502.88	4299.83
503.249	4277.91
503.618	4306.61
503.987	4394.97
504.356	4384.57
504.724	4373.05
505.093	4412.82
505.462	4432.93
505.83	4487.62
506.199	4488.07
506.567	4538.24
506.936	4569.43
507.304	4629.31
507.672	4686.49
508.041	4637.9
508.409	4694.4
508.777	4724.45
509.145	4828.18
509.514	4757.9
509.882	4839.03
510.25	4832.7
510.618	4849.65
510.986	4894.17
511.354	4950.21
511.722	4984.11
512.09	5001.05
512.458	5013.48
512.826	5071.79
513.193	5117.66
513.561	5106.14
513.929	5148.85
514.297	5189.98
514.664	5262.07
515.032	5261.16
515.4	5271.78
515.767	5299.13
516.135	5375.28
516.502	5333.02
516.869	5426.13
517.237	5407.6
517.604	5458.44
517.972	5535.28
518.339	5559.46
518.706	5552.68
519.073	5643.98
519.44	5647.14
519.808	5706.12
520.175	5705.67
520.542	5799
520.909	5778.66
521.276	5836.97
521.643	5905.21
522.009	5952.44
522.376	5988.83
522.743	6024.98
523.11	6101.14
523.477	6084.64
523.843	6164.19
524.21	6164.41
524.577	6221.36
524.943	6300.68
525.31	6323.51
525.676	6402.6
526.043	6420.23
526.409	6489.15
526.776	6494.35
527.142	6547.23
527.508	6630.62
527.874	6658.41
528.241	6670.62
528.607	6694.34
528.973	6761.91
529.339	6692.76
529.705	6810.5
530.071	6902.02
530.437	6884.17
530.803	6985.86
531.169	6976.82
531.535	6997.61
531.901	7043.26
532.267	7039.19
532.632	7138.85
532.998	7175.69
533.364	7210.49
533.73	7277.38
534.095	7253.65
534.461	7327.32
534.826	7312.63
535.192	7360.99
535.557	7441.44
535.923	7443.25
536.288	7516.02
536.653	7535
537.019	7549.01
537.384	7460.43
537.749	7592.85
538.114	7622.23
538.479	7627.88
538.845	7630.82
539.21	7668.56
539.575	7703.13
539.94	7751.49
540.305	7749.68
540.67	7746.29
541.034	7824.26
541.399	7851.83
541.764	7858.38
542.129	7901.32
542.494	7915.78
542.858	7930.92
543.223	7958.27
543.587	8038.26
543.952	8021.77
544.316	8083.23
544.681	8090.47
545.045	8197.58
545.41	8162.78
545.774	8191.71
546.138	8188.09
546.503	8223.57
546.867	8217.92
547.231	8287.3
547.595	8322.1
547.959	8346.73
548.324	8367.29
548.688	8410.68
549.052	8471.47
549.416	8447.52
549.779	8446.61
550.143	8525.03
550.507	8649.32
550.871	8584.24
551.235	8617.91
551.599	8648.64
551.962	8748.53
552.326	8704.46
552.689	8775.42
553.053	8734.06
553.417	8760.73
553.78	8900.39
554.143	8909.88
554.507	8936.77
554.87	8974.96
555.234	9000.05
555.597	8961.85
555.96	9020.16
556.323	9039.59
556.686	9104.22
557.05	9149.87
557.413	9156.43
557.776	9193.49
558.139	9224.67
558.502	9282.98
558.865	9287.5
559.228	9367.49
559.59	9467.38
559.953	9463.76
560.316	9527.04
560.679	9508.06
561.041	9658.33
561.404	9635.06
561.767	9722.74
562.129	9626.24
562.492	9773.36
562.854	9751.89
563.217	9755.73
563.579	9841.15
563.941	9831.89
564.304	9979.91
564.666	9998.21
565.028	10019
565.39	10086.57
565.753	10150.75
566.115	10243.4
566.477	10203.4
566.839	10305.55
567.201	10320.46
567.563	10317.3
567.925	10365.66
568.287	10340.8
568.648	10404.08
569.01	10501.93
569.372	10529.27
569.734	10527.92
570.095	10604.75
570.457	10634.58
570.819	10705.31
571.18	10735.14
571.542	10712.77
571.903	10743.05
572.265	10806.33
572.626	10882.48
572.987	10885.87
573.349	10896.27
573.71	10911.86
574.071	10946.21
574.432	11053.78
574.794	11033.89
575.155	11089.48
575.516	11077.05
575.877	11063.04
576.238	11076.6
576.599	11166.99
576.96	11174.9
577.32	11181.46
577.681	11258.29
578.042	11246.77
578.403	11218.97
578.763	11212.42
579.124	11319.53
579.485	11344.16
579.845	11366.09
580.206	11297.39
580.566	11330.38
580.927	11406.08
581.287	11377.61
581.648	11331.96
582.008	11487.21
582.368	11372.86
582.728	11380.77
583.089	11416.93
583.449	11498.06
583.809	11435.24
584.169	11410.83
584.529	11435.01
584.889	11526.08
585.249	11425.07
585.609	11392.53
585.969	11495.12
586.329	11416.48
586.688	11524.73
587.048	11479.75
587.408	11453.99
587.768	11467.1
588.127	11430.04
588.487	11518.4
588.846	11540.54
589.206	11385.52
589.565	11441.11
589.925	11542.8
590.284	11438.85
590.643	11468.91
591.003	11573.54
591.362	11629.36
591.721	11500.77
592.08	11503.48
592.44	11553.65
592.799	11561.11
593.158	11500.32
593.517	11575.12
593.876	11582.12
594.235	11583.25
594.593	11569.02
594.952	11589.58
595.311	11549.81
595.67	11588.9
596.029	11650.6
596.387	11653.08
596.746	11634.1
597.104	11670.26
597.463	11618.51
597.822	11631.62
598.18	11643.37
598.538	11586.64
598.897	11646.53
599.255	11617.83
599.613	11741.22
599.972	11762.69
600.33	11717.71
600.688	11644.95
601.046	11701.22
601.404	11695.57
601.762	11700.99
602.12	11815.79
602.478	11823.47
602.836	11847.43
603.194	11774.89
603.552	11749.58
603.91	11703.03
604.268	11824.38
604.625	11825.51
604.983	11889.91
605.341	11835.23
605.698	11839.75
606.056	11896.24
606.413	11847.88
606.771	11922.23
607.128	11995.22
607.485	11863.93
607.843	11877.03
608.2	11944.38
608.557	12035.22
608.914	11979.18
609.272	12044.26
609.629	11988.67
609.986	12083.81
610.343	12003.58
610.7	12153.64
611.057	12128.1
611.414	12084.71
611.771	12096.91
612.127	12119.51
612.484	12048.33
612.841	12243.35
613.198	12209.23
613.554	12164.71
613.911	12230.02
614.267	12205.61
614.624	12231.15
614.98	12192.5
615.337	12325.61
615.693	12260.75
616.05	12249.68
616.406	12287.42
616.762	12231.37
617.118	12218.27
617.475	12268.89
617.831	12321.99
618.187	12355.21
618.543	12310.47
618.899	12392.27
619.255	12383.46
619.611	12318.38
619.967	12361.54
620.323	12389.34
620.678	12347.53
621.034	12332.39
621.39	12323.35
621.746	12362.67
622.101	12501.2
622.457	12383.23
622.812	12395.44
623.168	12424.14
623.523	12447.64
623.879	12467.07
624.234	12428.66
624.589	12474.53
624.945	12425.94
625.3	12479.5
625.655	12403.8
626.01	12405.83
626.365	12454.64
626.72	12400.63
627.075	12398.83
627.43	12445.83
627.785	12395.89
628.14	12447.86
628.495	12358.15
628.85	12382.1
629.205	12311.37
629.559	12396.57
629.914	12373.52
630.269	12383.01
630.623	12359.96
630.978	12282.67
631.332	12307.53
631.687	12345.49
632.041	12261.65
632.396	12338.26
632.75	12314.53
633.104	12310.69
633.459	12321.09
633.813	12307.53
634.167	12230.02
634.521	12316.34
634.875	12234.31
635.229	12213.07
635.583	12166.52
635.937	12185.95
636.291	12216.46
636.645	12212.62
636.999	12151.83
637.352	12176.23
637.706	12086.29
638.06	12171.04
638.413	12159.96
638.767	12075.9
639.121	12117.93
639.474	11995.45
639.828	12057.14
640.181	12131.49
640.534	12095.11
640.888	12016.92
641.241	11973.3
641.594	11933.3
641.947	11979.85
642.301	11970.82
642.654	11947.54
643.007	11941.44
643.36	12013.3
643.713	11928.1
644.066	11917.94
644.419	11864.38
644.771	11741.22
645.124	11646.08
645.477	11682.01
645.83	11572.63
646.182	11461.68
646.535	11507.32
646.888	11506.19
647.24	11496.03
647.593	11537.38
647.945	11522.24
648.298	11397.27
648.65	11497.38
649.002	11398.85
649.355	11442.69
649.707	11399.76
650.059	11483.14
650.411	11566.31
650.763	11612.63
651.115	11801.1
651.467	11684.04
651.819	11633.87
652.171	11631.84
652.523	11643.14
652.875	11645.4
653.227	11545.52
653.578	11626.64
653.93	11592.75
654.282	11579.87
654.633	11561.11
654.985	11502.35
655.337	11505.29
655.688	11473.2
656.039	11590.71
656.391	11526.53
656.742	11472.07
657.094	11476.82
657.445	11549.81
657.796	11461.9
658.147	11484.5
658.498	11449.47
658.849	11515.69
659.2	11456.03
659.551	11405.18
659.902	11398.63
660.253	11379.64
660.604	11439.76
660.955	11376.25
661.306	11414.45
661.656	11401.34
662.007	11373.09
662.358	11454.9
662.708	11342.36
663.059	11431.39
663.409	11315.92
663.76	11383.26
664.11	11359.53
664.461	11413.09
664.811	11404.73
665.161	11366.54
665.511	11360.66
665.862	11341
666.212	11333.32
666.562	11395.24
666.912	11328.35
667.262	11399.3
667.612	11327.89
667.962	11271.4
668.312	11354.79
668.662	11307.78
669.011	11308.91
669.361	11331.06
669.711	11264.17
670.06	11329.02
670.41	11228.69
670.76	11194.56
671.109	11298.74
671.459	11193.43
671.808	11223.94
672.157	11234.79
672.507	11211.51
672.856	11195.69
673.205	11154.79
673.554	11218.07
673.904	11207.45
674.253	11293.77
674.602	11172.87
674.951	11020.11
675.3	10945.98
675.649	11118.63
675.998	11074.12
676.346	11127.9
676.695	11181.01
677.044	11083.15
677.393	11113.44
677.741	11132.87
678.09	11137.39
678.438	11017.39
678.787	11152.53
679.135	11073.44
679.484	10993.44
679.832	11056.04
680.181	10913.44
680.529	11000.45
680.877	10933.33
681.225	10920.9
681.573	10933.78
681.922	10896.49
682.27	10848.81
682.618	10966.1
682.966	10856.27
683.314	10952.76
683.661	10849.04
684.009	10777.17
684.357	10791.86
684.705	10724.52
685.053	10814.01
685.4	10788.47
685.748	10773.33
686.095	10690.85
686.443	10625.31
686.79	10616.73
687.138	10619.21
687.485	10618.99
687.832	10573.11
688.18	10607.69
688.527	10525.88
688.874	10538.54
689.221	10555.71
689.568	10549.84
689.915	10505.54
690.262	10491.08
690.609	10441.59
690.956	10459.67
691.303	10414.47
691.65	10365.66
691.997	10356.17
692.344	10378.54
692.69	10240.24
693.037	10219.9
693.383	10136.97
693.73	10242.5
694.077	10114.82
694.423	10161.15
694.769	10171.54
695.116	10099.9
695.462	10080.7
695.808	10039.57
696.155	10121.15
696.501	10043.18
696.847	10014.93
697.193	9976.97
697.539	9953.92
697.885	9921.83
698.231	9857.42
698.577	9845.67
698.923	9816.75
699.269	9831.44
699.614	9822.85
699.96	9751.21
700.306	9774.26
700.651	9712.8
700.997	9628.73
701.342	9633.02
701.688	9692.01
702.033	9620.14
702.379	9638.45
702.724	9603.65
703.069	9617.66
703.415	9536.75
703.76	9460.82
704.105	9512.35
704.45	9465.12
704.795	9440.94
705.14	9435.74
705.485	9384.89
705.83	9454.72
706.175	9403.65
706.52	9359.81
706.865	9333.14
707.209	9335.4
707.554	9302.64
707.899	9227.38
708.243	9231
708.588	9244.33
708.932	9176.31
709.277	9203.66
709.621	9168.85
709.966	9082.53
710.31	9099.03
710.654	9024.45
710.998	9071.68
711.342	9071.23
711.687	9062.64
712.031	9023.1
712.375	8984
712.719	9003.21
713.063	9047.5
713.407	9014.51
713.75	8971.35
714.094	8933.15
714.438	8924.79
714.782	8862.42
715.125	8843.21
715.469	8908.07
715.812	8783.33
716.156	8784.68
716.499	8808.64
716.843	8826.04
717.186	8729.09
717.53	8835.53
717.873	8774.97
718.216	8737.91
718.559	8730.9
718.902	8694.97
719.246	8655.65
719.589	8648.42
719.932	8644.12
720.275	8703.56
720.617	8626.04
720.96	8570.23
721.303	8558.48
721.646	8610.23
721.989	8564.8
722.331	8548.31
722.674	8518.02
723.016	8584.01
723.359	8471.02
723.701	8523.22
724.044	8464.69
724.386	8450
724.729	8471.47
725.071	8407.52
725.413	8387.86
725.755	8464.92
726.097	8398.03
726.439	8381.53
726.782	8334.07
727.124	8374.07
727.465	8289.1
727.807	8311.02
728.149	8302.21
728.491	8280.06
728.833	8317.8
729.175	8288.43
729.516	8284.81
729.858	8200.52
730.199	8200.29
730.541	8187.41
730.882	8183.57
731.224	8176.56
731.565	8194.42
731.906	8243
732.248	8144.48
732.589	8158.03
732.93	8231.7
733.271	8129.11
733.612	8142.44
733.953	8113.06
734.294	8057.25
734.635	8060.64
734.976	8064.48
735.317	8020.41
735.658	8062.44
735.999	8029.45
736.339	8060.64
736.68	7981.77
737.021	7970.92
737.361	7974.08
737.702	8001.43
738.042	7964.59
738.383	7921.2
738.723	8041.43
739.063	7938.38
739.404	7949.23
739.744	7912.84
740.084	7882.79
740.424	7910.58
740.764	7880.75
741.104	7849.79
741.444	7899.06
741.784	7835.56
742.124	7872.17
742.464	7761.66
742.804	7862.45
743.143	7751.94
743.483	7799.17
743.823	7757.82
744.162	7717.37
744.502	7714.2
744.841	7669.91
745.181	7751.72
745.52	7694.09
745.86	7727.99
746.199	7704.26
746.538	7658.84
746.877	7754.2
747.216	7694.32
747.556	7685.05
747.895	7708.78
748.234	7624.94
748.573	7625.39
748.911	7599.86
749.25	7641.21
749.589	7524.38
749.928	7559.86
750.267	7541.1
750.605	7558.5
750.944	7498.84
751.283	7467.43
751.621	7466.98
751.96	7481.67
752.298	7392.4
752.636	7461.78
752.975	7417.26
753.313	7410.03
753.651	7356.93
753.989	7340.2
754.327	7361.44
754.666	7317.6
755.004	7303.14
755.342	7328.23
755.679	7306.53
756.017	7227.21
756.355	7250.26
756.693	7282.8
757.031	7256.81
757.368	7197.16
757.706	7204.84
758.044	7150.6
758.381	7186.53
758.719	7129.59
759.056	7148.34
759.394	7139.98
759.731	7092.53
760.068	7057.95
760.405	7041.23
760.743	7054.11
761.08	6975.92
761.417	6914.68
761.754	6921.91
762.091	6941.12
762.428	6944.28
762.765	6892.08
763.102	6887.11
763.438	6844.85
763.775	6841.46
764.112	6870.38
764.449	6826.09
764.785	6789.93
765.122	6788.58
765.458	6777.96
765.795	6749.71
766.131	6766.43
766.467	6724.17
766.804	6691.63
767.14	6692.99
767.476	6706.09
767.812	6615.48
768.148	6630.16
768.485	6516.5
768.821	6558.75
769.157	6566.66
769.492	6495.48
769.828	6569.83
770.164	6426.78
770.5	6472.2
770.836	6471.98
771.171	6447.12
771.507	6458.42
771.842	6324.41
772.178	6366.67
772.513	6324.64
772.849	6277.86
773.184	6245.09
773.519	6316.95
773.855	6193.11
774.19	6234.47
774.525	6198.76
774.86	6198.54
775.195	6169.84
775.53	6186.79
775.865	6105.66
776.2	6105.66
776.535	6055.49
776.87	6083.96
777.205	5998.99
777.539	5939.34
777.874	6032.89
778.209	5930.3
778.543	5926
778.878	5919.9
779.212	5951.99
779.547	5948.6
779.881	5897.08
780.215	5848.26
780.55	5910.18
780.884	5819.79
781.218	5829.06
781.552	5812.79
781.886	5759
782.22	5736.63
782.554	5770.07
782.888	5687.14
783.222	5645.56
783.556	5634.94
783.889	5618.89
784.223	5592.9
784.557	5537.31
784.89	5629.96
785.224	5568.05
785.557	5563.98
785.891	5530.76
786.224	5540.93
786.558	5521.49
786.891	5467.26
787.224	5427.26
787.557	5394.72
787.891	5431.1
788.224	5394.04
788.557	5406.92
788.89	5398.78
789.223	5404.21
789.556	5360.37
789.888	5348.16
790.221	5323.98
790.554	5251.44
790.887	5274.72
791.219	5171.67
791.552	5234.72
791.884	5232.69
792.217	5169.64
792.549	5145.46
792.882	5141.84
793.214	5144.33
793.546	5130.09
793.879	5093.03
794.211	5063.88
794.543	5107.27
794.875	5057.55
795.207	5121.5
795.539	5050.32
795.871	5037.44
796.203	5046.25
796.535	5019.13
796.867	5003.54
797.198	4939.81
797.53	4949.98
797.862	4939.36
798.193	4934.16
798.525	4888.74
798.856	4912.7
799.188	4826.82
799.519	4829.31
799.85	4827.95
800.182	4837.22
800.513	4829.08
800.844	4796.54
801.175	4773.49
801.506	4821.85
801.837	4788.63
802.168	4775.07
802.499	4758.35
802.83	4703.89
803.161	4730.33
803.491	4703.21
803.822	4681.74
804.153	4680.84
804.483	4678.8
804.814	4630.22
805.145	4600.39
805.475	4637.22
805.805	4620.05
806.136	4640.61
806.466	4611.91
806.796	4576.21
807.126	4595.19
807.457	4556.55
807.787	4574.85
808.117	4538.24
808.447	4533.5
808.777	4550.22
809.107	4508.41
809.436	4466.83
809.766	4515.64
810.096	4472.71
810.426	4452.59
810.755	4439.49
811.085	4472.03
811.414	4413.5
811.744	4415.53
812.073	4351.81
812.403	4367.17
812.732	4370.34
813.061	4346.61
813.39	4352.26
813.719	4341.41
814.049	4358.13
814.378	4383.22
814.707	4308.19
815.036	4273.16
815.365	4265.48
815.693	4269.55
816.022	4245.37
816.351	4253.28
816.68	4212.83
817.008	4256.22
817.337	4217.12
817.665	4175.31
817.994	4216.89
818.322	4176.22
818.651	4184.35
818.979	4176.44
819.307	4216.22
819.636	4188.87
819.964	4165.14
820.292	4181.19
820.62	4167.86
820.948	4170.57
821.276	4202.88
821.604	4163.11
821.932	4123.79
822.259	4084.24
822.587	4108.88
822.915	4131.02
823.243	4116.11
823.57	4127.63
823.898	4125.15
824.225	4112.72
824.553	4095.99
824.88	4112.26
825.207	4091.47
825.535	4107.52
825.862	4160.63
826.189	4114.3
826.516	4116.11
826.843	4128.08
827.17	4136.22
827.497	4089.89
827.824	4109.78
828.151	4125.82
828.478	4161.98
828.805	4101.19
829.131	4104.81
829.458	4117.91
829.785	4121.76
830.111	4068.42
830.438	4098.03
830.764	4105.71
831.09	4090.12
831.417	4082.21
831.743	4113.62
832.069	4082.21
832.395	4072.04
832.722	4093.06
833.048	4118.59
833.374	4079.05
833.7	4069.78
834.026	4042.66
834.351	4088.08
834.677	4103.23
835.003	4059.16
835.329	4085.15
835.654	4036.11
835.98	4067.52
836.306	4017.13
836.631	4044.24
836.956	4070.91
837.282	4022.55
837.607	4046.28
837.932	3997.69
838.258	4024.13
838.583	4030.01
838.908	4020.29
839.233	4008.54
839.558	3967.86
839.883	3997.69
840.208	3942.55
840.533	3942.55
840.858	3946.17
841.182	3972.61
841.507	3902.1
841.832	3954.08
842.156	3908.2
842.481	3959.73
842.805	3914.53
843.13	3911.82
843.454	3914.53
843.778	3888.99
844.103	3873.85
844.427	3878.6
844.751	3896.45
845.075	3865.94
845.399	3850.8
845.723	3822.55
846.047	3898.94
846.371	3783.01
846.695	3802.44
847.019	3813.97
847.343	3758.83
847.666	3710.47
847.99	3724.48
848.313	3726.51
848.637	3699.85
848.96	3680.86
849.284	3731.94
849.607	3670.92
849.931	3675.44
850.254	3637.25
850.577	3643.58
850.9	3628.89
851.223	3596.12
851.546	3603.58
851.869	3589.57
852.192	3589.11
852.515	3551.15
852.838	3543.92
853.161	3536.46
853.483	3556.8
853.806	3567.87
854.129	3504.37
854.451	3484.26
854.774	3487.87
855.096	3521.09
855.419	3482.9
855.741	3439.51
856.063	3429.57
856.385	3427.54
856.708	3389.57
857.03	3404.49
857.352	3412.85
857.674	3383.02
857.996	3374.21
858.318	3364.26
858.64	3365.84
858.961	3327.65
859.283	3358.61
859.605	3346.64
859.926	3327.65
860.248	3363.58
860.57	3322
860.891	3315
861.212	3310.03
861.534	3291.27
861.855	3327.65
862.176	3292.4
862.498	3283.81
862.819	3304.15
863.14	3297.14
863.461	3279.52
863.782	3258.28
864.103	3242.01
864.424	3246.52
864.745	3209.01
865.065	3243.59
865.386	3232.51
865.707	3234.1
866.027	3225.96
866.348	3272.74
866.668	3244.26
866.989	3178.5
867.309	3178.05
867.63	3167.88
867.95	3175.34
868.27	3183.25
868.59	3182.57
868.91	3201.55
869.23	3178.96
869.55	3152.97
869.87	3170.82
870.19	3180.54
870.51	3160.65
870.83	3162.01
871.15	3168.56
871.469	3149.58
871.789	3148.67
872.109	3166.98
872.428	3137.83
872.748	3121.33
873.067	3113.87
873.386	3127.88
873.706	3126.3
874.025	3111.61
874.344	3133.53
874.663	3093.08
874.982	3083.59
875.301	3083.37
875.62	3054.89
875.939	3089.92
876.258	3051.28
876.577	3026.42
876.896	3074.1
877.214	3065.74
877.533	3023.03
877.852	3037.72
878.17	3027.32
878.489	3044.95
878.807	3033.2
879.125	3037.72
879.444	3014.44
879.762	3004.27
880.08	3006.08
880.398	3036.13
880.716	2998.62
881.034	2996.36
881.352	2984.84
881.67	2971.73
881.988	3011.73
882.306	2981.45
882.624	2988.9
882.941	2957.49
883.259	2947.1
883.577	2967.44
883.894	2943.93
884.212	2942.13
884.529	2939.19
884.846	2927.89
885.164	2927.66
885.481	2919.3
885.798	2971.5
886.115	2873.43
886.432	2910.26
886.75	2898.29
887.067	2914.1
887.383	2903.71
887.7	2891.28
888.017	2840.66
888.334	2882.69
888.651	2855.57
888.967	2835.91
889.284	2837.5
889.6	2853.54
889.917	2838.63
890.233	2812.41
890.55	2796.82
890.866	2819.19
891.182	2794.79
891.498	2786.42
891.815	2771.06
892.131	2788.46
892.447	2777.16
892.763	2756.14
893.079	2751.85
893.395	2758.18
893.71	2752.3
894.026	2729.7
894.342	2739.42
894.657	2723.6
894.973	2702.36
895.289	2691.96
895.604	2697.16
895.92	2681.57
896.235	2683.6
896.55	2687.9
896.865	2671.85
897.181	2659.87
897.496	2647.67
897.811	2670.04
898.126	2698.06
898.441	2645.18
898.756	2605.19
899.071	2624.85
899.386	2605.19
899.7	2594.56
900.015	2551.63
900.33	2533.1
900.644	2561.8
900.959	2554.79
901.273	2582.14
901.588	2562.7
901.902	2531.97
902.216	2549.37
902.531	2537.84
902.845	2546.66
903.159	2519.76
903.473	2482.7
903.787	2495.36
904.101	2485.41
904.415	2481.12
904.729	2444.96
905.042	2455.59
905.356	2450.61
905.67	2453.33
905.984	2420.11
906.297	2437.05
906.611	2430.28
906.924	2397.96
907.237	2371.52
907.551	2397.28
907.864	2379.88
908.177	2365.19
908.491	2385.76
908.804	2368.36
909.117	2346.66
909.43	2333.33
909.743	2358.41
910.056	2338.07
910.368	2333.78
910.681	2328.13
910.994	2320.22
911.307	2295.59
911.619	2278.41
911.932	2279.54
912.244	2272.54
912.557	2279.77
912.869	2252.2
913.181	2282.26
913.494	2246.1
913.806	2261.01
914.118	2237.96
914.43	2211.75
914.742	2214.46
915.054	2221.24
915.366	2207.91
915.678	2180.34
915.99	2178.3
916.302	2171.52
916.613	2173.33
916.925	2141.24
917.236	2181.02
917.548	2168.36
917.859	2149.15
918.171	2137.85
918.482	2116.39
918.794	2111.87
919.105	2103.28
919.416	2093.33
919.727	2123.84
920.038	2108.48
920.349	2080.91
920.66	2056.05
920.971	2062.15
921.282	2016.5
921.593	2038.19
921.903	2063.96
922.214	2009.04
922.525	2031.64
922.835	2014.24
923.146	2010.4
923.456	1953.9
923.767	2015.6
924.077	1964.07
924.387	1974.47
924.697	1964.3
925.008	1944.41
925.318	1960.91
925.628	1966.56
925.938	1953.45
926.248	1936.95
926.558	1969.27
926.867	1912.32
927.177	1924.98
927.487	1928.82
927.796	1914.13
928.106	1903.74
928.416	1882.49
928.725	1870.97
929.034	1893.34
929.344	1867.58
929.653	1837.52
929.962	1852.89
930.271	1827.13
930.581	1815.38
930.89	1838.2
931.199	1825.09
931.508	1822.83
931.817	1806.11
932.125	1810.86
932.434	1809.05
932.743	1781.03
933.051	1795.94
933.36	1793.23
933.669	1788.71
933.977	1790.29
934.286	1745.55
934.594	1757.98
934.902	1732.67
935.21	1745.55
935.519	1758.65
935.827	1745.32
936.135	1705.1
936.443	1731.76
936.751	1715.27
937.059	1734.25
937.367	1734.47
937.674	1659.67
937.982	1689.05
938.29	1677.75
938.597	1707.81
938.905	1677.75
939.213	1692.22
939.52	1667.36
939.827	1659.45
940.135	1649.5
940.442	1622.84
940.749	1620.8
941.056	1621.71
941.363	1618.77
941.67	1608.15
941.977	1618.77
942.284	1599.11
942.591	1593.46
942.898	1603.18
943.205	1580.58
943.511	1574.25
943.818	1597.3
944.125	1603.86
944.431	1555.95
944.738	1554.14
945.044	1558.89
945.35	1553.91
945.657	1530.19
945.963	1552.78
946.269	1560.24
946.575	1545.33
946.881	1499.23
947.187	1524.08
947.493	1515.04
947.799	1516.4
948.105	1522.5
948.41	1525.21
948.716	1493.35
949.022	1487.02
949.327	1501.94
949.633	1480.7
949.938	1471.88
950.244	1473.46
950.549	1463.75
950.854	1473.46
951.16	1460.81
951.465	1446.35
951.77	1440.47
952.075	1443.18
952.38	1428.04
952.685	1418.78
952.99	1419.91
953.294	1412.45
953.599	1405.67
953.904	1399.57
954.209	1391.43
954.513	1403.64
954.818	1388.49
955.122	1382.62
955.426	1379.23
955.731	1381.26
956.035	1364.09
956.339	1351.66
956.643	1359.12
956.948	1336.29
957.252	1335.16
957.556	1348.27
957.86	1354.82
958.163	1344.65
958.467	1328.16
958.771	1315.05
959.075	1332.9
959.378	1290.64
959.682	1323.41
959.985	1298.55
960.289	1289.29
960.592	1301.49
960.896	1305.78
961.199	1295.84
961.502	1279.57
961.805	1294.49
962.108	1259.91
962.411	1291.1
962.714	1279.34
963.017	1277.54
963.32	1270.31
963.623	1236.63
963.926	1247.93
964.228	1234.15
964.531	1252.68
964.833	1209.74
965.136	1255.62
965.438	1255.39
965.741	1220.59
966.043	1224.66
966.345	1202.74
966.648	1226.92
966.95	1214.71
967.252	1213.13
967.554	1188.95
967.856	1181.04
968.158	1194.6
968.46	1190.76
968.761	1219.46
969.063	1175.62
969.365	1150.31
969.666	1166.81
969.968	1156.41
970.269	1182.4
970.571	1163.87
970.872	1180.36
971.174	1145.34
971.475	1150.31
971.776	1174.71
972.077	1132.91
972.378	1121.61
972.679	1151.66
972.98	1125
973.281	1113.47
973.582	1130.2
973.883	1147.37
974.183	1114.38
974.484	1095.17
974.785	1111.21
975.085	1111.67
975.386	1093.59
975.686	1098.11
975.986	1080.71
976.287	1113.7
976.587	1073.02
976.887	1065.11
977.187	1092.46
977.487	1099.91
977.787	1052.01
978.087	1061.05
978.387	1059.01
978.687	1061.27
978.987	1042.74
979.286	1033.93
979.586	1077.99
979.885	1032.12
980.185	1040.48
980.484	1046.36
980.784	1053.81
981.083	1014.72
981.382	1027.6
981.682	1029.41
981.981	1035.96
982.28	1027.6
982.579	1016.53
982.878	1016.53
983.177	1026.92
983.475	1007.94
983.774	974.27
984.073	1005.23
984.372	978.79
984.67	990.31
984.969	977.21
985.267	960.94
985.566	961.39
985.864	977.66
986.162	976.98
986.461	937.43
986.759	957.77
987.057	955.29
987.355	940.82
987.653	911.9
987.951	930.2
988.249	934.95
988.547	927.26
988.844	915.96
989.142	949.64
989.44	954.38
989.737	948.28
990.035	918.22
990.332	925.68
990.63	896.53
990.927	910.32
991.224	942.4
991.521	894.72
991.819	920.26
992.116	920.03
992.413	918.22
992.71	893.14
993.006	897.43
993.303	889.75
993.6	900.6
993.897	881.84
994.193	881.39
994.49	886.36
994.787	888.85
995.083	893.82
995.379	869.19
995.676	856.08
995.972	870.32
996.268	852.01
996.565	876.87
996.861	862.41
997.157	851.11
997.453	868.73
997.749	833.25
998.044	840.03
998.34	863.08
998.636	855.18
998.932	833.25
999.227	822.41
999.523	831
999.818	811.56
1000.114	822.63
1000.409	829.87
1000.704	814.5
1001	815.85
1001.295	838
1001.59	816.31
1001.885	820.6
1002.18	814.5
1002.475	788.06
1002.77	821.05
1003.065	798
1003.359	788.74
1003.654	774.5
1003.949	774.5
1004.243	807.27
1004.538	762.52
1004.832	743.09
1005.127	779.7
1005.421	756.42
1005.715	743.31
1006.009	778.79
1006.304	769.53
1006.598	767.04
1006.892	762.07
1007.186	737.66
1007.48	734.27
1007.773	759.13
1008.067	751
1008.361	731.34
1008.655	770.43
1008.948	737.21
1009.242	718
1009.535	706.03
1009.829	732.69
1010.122	731.11
1010.415	714.39
1010.708	696.31
1011.001	710.09
1011.295	706.03
1011.588	706.7
1011.881	708.29
1012.173	714.16
1012.466	697.67
1012.759	701.73
1013.052	707.83
1013.344	721.62
1013.637	685.24
1013.93	682.52
1014.222	678.91
1014.514	670.77
1014.807	668.97
1015.099	667.38
1015.391	669.42
1015.683	662.64
1015.976	678.91
1016.268	671.45
1016.56	664.67
1016.851	645.46
1017.143	669.87
1017.435	633.71
1017.727	659.47
1018.018	628.97
1018.31	657.44
1018.602	656.99
1018.893	634.39
1019.185	647.27
1019.476	640.72
1019.767	648.4
1020.058	618.8
1020.35	614.96
1020.641	629.19
1020.932	635.75
1021.223	606.37
1021.514	639.14
1021.804	642.98
1022.095	622.19
1022.386	618.8
1022.677	591.23
1022.967	617.44
1023.258	598.23
1023.548	594.39
1023.839	584.45
1024.129	605.01
1024.419	596.2
1024.709	595.75
1025	580.83
1025.29	591.91
1025.58	596.65
1025.87	579.25
1026.16	565.69
1026.449	575.18
1026.739	568.4
1027.029	584.45
1027.319	572.24
1027.608	545.8
1027.898	560.72
1028.187	569.76
1028.477	573.83
1028.766	575.18
1029.055	557.33
1029.344	538.8
1029.634	561.85
1029.923	557.1
1030.212	553.04
1030.501	530.44
1030.79	550.78
1031.078	545.35
1031.367	556.43
1031.656	548.74
1031.945	529.53
1032.233	548.29
1032.522	529.08
1032.81	514.85
1033.099	548.06
1033.387	519.36
1033.675	522.53
1033.963	520.49
1034.251	526.14
1034.54	526.6
1034.828	507.39
1035.116	509.2
1035.403	513.04
1035.691	507.61
1035.979	526.14
1036.267	522.08
1036.554	494.51
1036.842	505.35
1037.129	488.86
1037.417	525.01
1037.704	515.75
1037.992	499.48
1038.279	499.7
1038.566	501.51
1038.853	501.51
1039.14	501.51
