Data from black_plastic_tray_FLMS001491_041.txt Node
Date: Tue Feb 07 10:39:55 GMT 2017
User: dcchb
Spectrometer: FLMS00149
Trigger mode: 0
Integration Time (sec): 2.000000E-2
Scans to average: 10
Electric dark correction enabled: true
Nonlinearity correction enabled: false
Boxcar width: 0
XAxis mode: Wavelengths
Number of Pixels in Spectrum: 2048
>>>>>Begin Spectral Data<<<<<
341.393	0.48
341.776	0.48
342.16	0.48
342.543	-56.69
342.927	-67.09
343.31	-54.21
343.693	-44.72
344.077	-53.3
344.46	-57.15
344.843	-70.7
345.226	-50.59
345.61	-13.3
345.993	-22.57
346.376	-21.89
346.759	23.08
347.142	32.12
347.525	23.76
347.908	70.99
348.291	56.75
348.674	70.99
349.057	110.76
349.44	124.54
349.823	147.14
350.206	172
350.588	192.11
350.971	206.35
351.354	209.74
351.737	234.6
352.119	236.63
352.502	266.01
352.884	266.91
353.267	283.18
353.65	294.26
354.032	310.08
354.414	283.64
354.797	316.18
355.179	318.89
355.562	301.94
355.944	317.31
356.326	324.09
356.709	341.94
357.091	333.35
357.473	311.43
357.855	347.59
358.238	331.54
358.62	340.58
359.002	343.75
359.384	333.13
359.766	346.46
360.148	332.22
360.53	328.16
360.912	345.56
361.294	327.48
361.676	345.33
362.057	334.71
362.439	331.09
362.821	336.74
363.203	331.09
363.584	343.3
363.966	318.44
364.348	312.11
364.729	331.09
365.111	316.18
365.493	284.54
365.874	329.51
366.256	332.45
366.637	328.61
367.019	320.7
367.4	320.7
367.781	327.03
368.163	315.5
368.544	300.81
368.925	338.1
369.306	307.36
369.688	317.08
370.069	336.74
370.45	328.16
370.831	318.21
371.212	342.17
371.593	319.12
371.974	338.1
372.355	315.27
372.736	319.57
373.117	317.76
373.498	326.35
373.879	339.45
374.26	340.58
374.641	323.18
375.021	326.12
375.402	354.14
375.783	349.4
376.163	350.98
376.544	367.25
376.925	348.04
377.305	360.92
377.686	327.25
378.066	362.5
378.447	366.12
378.827	339
379.208	364.54
379.588	353.01
379.968	383.75
380.349	363.41
380.729	372.67
381.109	367.48
381.489	380.58
381.87	377.65
382.25	355.73
382.63	385.33
383.01	375.61
383.39	371.77
383.77	389.17
384.15	391.88
384.53	408.61
384.91	394.14
385.29	394.14
385.67	399.57
386.049	408.83
386.429	388.72
386.809	393.46
387.189	400.92
387.568	397.53
387.948	424.42
388.328	432.11
388.707	406.57
389.087	412.9
389.466	411.32
389.846	426.23
390.225	426.23
390.605	410.86
390.984	429.17
391.363	427.36
391.743	437.3
392.122	447.7
392.501	458.32
392.881	470.3
393.26	435.72
393.639	456.06
394.018	457.87
394.397	465.33
394.776	476.85
395.155	456.74
395.534	478.43
395.913	471.2
396.292	480.24
396.671	484.08
397.05	469.17
397.429	494.7
397.808	495.38
398.186	485.67
398.565	480.69
398.944	515.27
399.323	518.66
399.701	499.68
400.08	505.1
400.458	503.97
400.837	497.42
401.215	532.9
401.594	519.56
401.972	546.45
402.351	514.59
402.729	523.18
403.107	554.59
403.486	540.35
403.864	543.74
404.242	554.82
404.62	576.74
404.999	561.14
405.377	574.7
405.755	564.53
406.133	549.17
406.511	577.87
406.889	597.53
407.267	591.2
407.645	596.17
408.023	576.28
408.401	605.89
408.779	615.83
409.156	622.38
409.534	590.52
409.912	621.25
410.29	632.1
410.667	660.12
411.045	645.89
411.422	639.56
411.8	651.31
412.178	660.58
412.555	681.37
412.933	684.98
413.31	694.02
413.687	699.22
414.065	707.81
414.442	714.81
414.819	718.2
415.197	721.82
415.574	730.86
415.951	716.17
416.328	743.96
416.705	728.82
417.082	736.96
417.46	750.29
417.837	781.48
418.214	748.48
418.591	773.57
418.967	763.85
419.344	783.06
419.721	790.29
420.098	806.56
420.475	810.63
420.852	792.55
421.228	822.38
421.605	830.29
421.982	850.4
422.358	835.03
422.735	842.94
423.111	847.01
423.488	852.44
423.864	881.59
424.241	877.07
424.617	893.11
424.994	901.02
425.37	887.69
425.746	902.15
426.123	915.03
426.499	915.03
426.875	931.76
427.251	929.72
427.627	943.96
428.003	948.7
428.379	957.97
428.756	980.79
429.132	987.12
429.507	1026.89
429.883	1023.96
430.259	1048.14
430.635	1036.39
431.011	1049.04
431.387	1075.48
431.763	1075.03
432.138	1075.48
432.514	1103.05
432.89	1119.55
433.265	1118.19
433.641	1142.82
434.016	1127.23
434.392	1189.15
434.767	1192.09
435.143	1162.71
435.518	1188.02
435.894	1204.97
436.269	1238.19
436.644	1235.48
437.02	1237.74
437.395	1250.16
437.77	1277.06
438.145	1298.75
438.52	1311.63
438.895	1292.2
439.271	1321.35
439.646	1318.19
440.021	1339.43
440.395	1372.87
440.77	1357.73
441.145	1323.16
441.52	1355.25
441.895	1394.79
442.27	1398.86
442.645	1363.61
443.019	1410.61
443.394	1414.91
443.769	1437.05
444.143	1417.17
444.518	1475.7
444.892	1455.81
445.267	1476.37
445.641	1484.96
446.016	1488.35
446.39	1484.73
446.764	1503.72
447.139	1470.95
447.513	1532.19
447.887	1528.8
448.262	1504.85
448.636	1523.15
449.01	1576.71
449.384	1571.06
449.758	1599.99
450.132	1585.07
450.506	1597.05
450.88	1609.7
451.254	1629.36
451.628	1651.28
452.002	1658.97
452.376	1695.12
452.75	1677.05
453.123	1691.96
453.497	1712.53
453.871	1723.6
454.244	1759.53
454.618	1772.41
454.992	1788.23
455.365	1836.59
455.739	1858.06
456.112	1889.02
456.486	1877.49
456.859	1863.48
457.232	1924.95
457.606	1910.71
457.979	1959.3
458.352	1970.37
458.725	2035
459.099	2049.01
459.472	2080.88
459.845	2102.12
460.218	2103.02
460.591	2110.93
460.964	2141.89
461.337	2160.42
461.71	2188.22
462.083	2212.4
462.456	2226.18
462.829	2256.92
463.201	2292.4
463.574	2285.39
463.947	2339.63
464.32	2428.44
464.692	2398.84
465.065	2426.63
465.438	2420.53
465.81	2511.37
466.183	2499.4
466.555	2538.94
466.928	2566.29
467.3	2574.2
467.672	2617.59
468.045	2672.27
468.417	2672.73
468.789	2717.47
469.161	2706.4
469.534	2771.03
469.906	2853.29
470.278	2836.11
470.65	2872.5
471.022	2942.78
471.394	2931.48
471.766	3008.31
472.138	3027.75
472.51	3086.05
472.882	3167.85
473.253	3197.91
473.625	3195.2
473.997	3258.25
474.369	3323.33
474.74	3334.63
475.112	3418.92
475.484	3428.41
475.855	3492.37
476.227	3565.81
476.598	3632.48
476.97	3621.63
477.341	3742.53
477.713	3777.78
478.084	3767.84
478.455	3923.09
478.827	3928.74
479.198	4045.57
479.569	4060.49
479.94	4147.49
480.311	4168.05
480.682	4255.74
481.053	4369.18
481.424	4401.49
481.795	4409.18
482.166	4523.3
482.537	4542.51
482.908	4675.39
483.279	4732.33
483.65	4800.13
484.021	4875.83
484.391	4916.51
484.762	4925.32
485.133	4983.85
485.503	5112.66
485.874	5208.7
486.244	5229.5
486.615	5341.58
486.985	5432.2
487.356	5508.81
487.726	5568.24
488.097	5633.33
488.467	5612.99
488.837	5789.25
489.207	5819.31
489.578	5908.35
489.948	5974.33
490.318	6068.57
490.688	6079.87
491.058	6177.49
491.428	6198.06
491.798	6315.34
492.168	6424.94
492.538	6463.81
492.908	6530.48
493.278	6622.68
493.648	6610.02
494.017	6718.04
494.387	6758.04
494.757	6772.96
495.126	6859.73
495.496	6912.39
495.866	7022.44
496.235	7060.63
496.605	7173.85
496.974	7144.25
497.344	7214.53
497.713	7266.96
498.082	7318.93
498.452	7426.95
498.821	7429.21
499.19	7408.42
499.559	7553.05
499.928	7648.19
500.298	7675.98
500.667	7752.14
501.036	7714.18
501.405	7797.11
501.774	7810.22
502.143	7908.97
502.512	7959.82
502.88	7955.75
503.249	8030.78
503.618	8094.96
503.987	8167.05
504.356	8183.99
504.724	8261.28
505.093	8289.75
505.462	8336.31
505.83	8371.79
506.199	8495.85
506.567	8579.69
506.936	8575.62
507.304	8692.23
507.672	8727.48
508.041	8712.79
508.409	8837.76
508.777	8857.42
509.145	8984.2
509.514	8981.49
509.882	9059.45
510.25	9095.38
510.618	9141.48
510.986	9164.53
511.354	9269.16
511.722	9357.52
512.09	9469.84
512.458	9507.12
512.826	9488.14
513.193	9569.72
513.561	9602.94
513.929	9759.55
514.297	9814.46
514.664	9907.34
515.032	9940.56
515.4	10033.89
515.767	10078.41
516.135	10122.02
516.502	10080.67
516.869	10296.03
517.237	10204.28
517.604	10291.28
517.972	10426.42
518.339	10510.03
518.706	10555.23
519.073	10653.08
519.44	10729.01
519.808	10779.86
520.175	10802.23
520.542	10982.11
520.909	11045.61
521.276	11127.87
521.643	11251.71
522.009	11244.25
522.376	11277.7
522.743	11387.53
523.11	11580.97
523.477	11611.25
523.843	11681.3
524.21	11753.62
524.577	11870.68
524.943	11922.2
525.31	12025.93
525.676	12104.12
526.043	12227.28
526.409	12257.11
526.776	12377.1
527.142	12450.55
527.508	12515.18
527.874	12573.26
528.241	12607.61
528.607	12800.14
528.973	12867.94
529.339	12869.07
529.705	13022.28
530.071	13074.71
530.437	13122.17
530.803	13217.08
531.169	13311.32
531.535	13314.48
531.901	13394.93
532.267	13397.64
532.632	13557.19
532.998	13605.09
533.364	13583.63
533.73	13749.95
534.095	13861.36
534.461	13899.1
534.826	13958.53
535.192	14039.89
535.557	14149.71
535.923	14109.94
536.288	14207.79
536.653	14252.99
537.019	14192.65
537.384	14358.29
537.749	14422.47
538.114	14455.02
538.479	14476.94
538.845	14562.36
539.21	14574.33
539.575	14704.95
539.94	14717.61
540.305	14705.63
540.67	14722.8
541.034	14738.17
541.399	14889.81
541.764	14931.84
542.129	14975.45
542.494	15039.63
542.858	14957.15
543.223	15036.02
543.587	15149.23
543.952	15119.63
544.316	15244.15
544.681	15271.27
545.045	15367.31
545.41	15486.17
545.774	15442.33
546.138	15387.87
546.503	15514.87
546.867	15534.31
547.231	15669.22
547.595	15684.36
547.959	15774.75
548.324	15825.37
548.688	15868.31
549.052	15950.12
549.416	15896.79
549.779	15930.68
550.143	16014.07
550.507	16182.88
550.871	16198.02
551.235	16212.94
551.599	16270.11
551.962	16385.81
552.326	16391.24
552.689	16460.61
553.053	16420.84
553.417	16587.84
553.78	16727.05
554.143	16664.22
554.507	16796.65
554.87	16861.28
555.234	17024.89
555.597	16897.21
555.96	16973.14
556.323	17047.04
556.686	17010.2
557.05	17241.61
557.413	17271.44
557.776	17310.76
558.139	17459.23
558.502	17447.71
558.865	17508.04
559.228	17628.49
559.59	17697.64
559.953	17814.02
560.316	17950.52
560.679	17936.05
561.041	18042.27
561.404	18084.98
561.767	18156.16
562.129	18089.27
562.492	18333.56
562.854	18380.11
563.217	18430.28
563.579	18581.46
563.941	18573.78
564.304	18625.98
564.666	18792.75
565.028	18753.89
565.39	18889.7
565.753	18950.04
566.115	19040.21
566.477	19162.01
566.839	19100.32
567.201	19313.19
567.563	19326.53
567.925	19439.52
568.287	19396.81
568.648	19534.2
569.01	19734.65
569.372	19741.2
569.734	19681.32
570.095	19974.64
570.457	20009.45
570.819	19948.66
571.18	20040.86
571.542	20170.12
571.903	20227.52
572.265	20195.2
572.626	20230.23
572.987	20292.15
573.349	20358.14
573.71	20481.75
574.071	20371.7
574.432	20482.88
574.794	20629.32
575.155	20597.9
575.516	20510.22
575.877	20643.78
576.238	20632.25
576.599	20761.74
576.96	20640.39
577.32	20801.29
577.681	20919.03
578.042	20967.16
578.403	21024.33
578.763	21074.5
579.124	21103.43
579.485	21144.11
579.845	21124.44
580.206	21103.88
580.566	21058.91
580.927	21186.36
581.287	21215.52
581.648	21048.29
582.008	21241.05
582.368	21119.47
582.728	21297.77
583.089	21242.18
583.449	21152.69
583.809	21259.58
584.169	21241.05
584.529	21185.69
584.889	21328.96
585.249	21272.24
585.609	21226.59
585.969	21324.21
586.329	21109.3
586.688	21231.11
587.048	21266.59
587.408	21168.29
587.768	21261.16
588.127	21257.77
588.487	21233.14
588.846	21401.05
589.206	21038.57
589.565	21127.83
589.925	21218.45
590.284	21090.32
590.643	21201.73
591.003	21298.23
591.362	21298.23
591.721	21175.29
592.08	21174.84
592.44	21332.8
592.799	21308.62
593.158	21370.31
593.517	21270.2
593.876	21439.69
594.235	21355.17
594.593	21360.37
594.952	21421.61
595.311	21353.37
595.67	21421.61
596.029	21474.49
596.387	21499.35
596.746	21537.32
597.104	21395.17
597.463	21562.4
597.822	21530.31
598.18	21320.82
598.538	21324.44
598.897	21471.33
599.255	21393.82
599.613	21613.7
599.972	21478.79
600.33	21601.04
600.688	21452.57
601.046	21602.4
601.404	21631.32
601.762	21650.98
602.12	21711.77
602.478	21708.16
602.836	21802.39
603.194	21616.18
603.552	21676.97
603.91	21639.69
604.268	21760.81
604.625	21635.17
604.983	21738.89
605.341	21632.68
605.698	21798.1
606.056	21816.63
606.413	21741.6
606.771	21747.48
607.128	21793.58
607.485	21660.48
607.843	21756.97
608.2	21792.22
608.557	21948.6
608.914	21921.94
609.272	21906.8
609.629	22021.6
609.986	22050.97
610.343	21899.11
610.7	22185.21
611.057	22180.46
611.414	22164.87
611.771	22209.61
612.127	22192.89
612.484	22142.5
612.841	22324.19
613.198	22260.46
613.554	22231.08
613.911	22439.66
614.267	22335.71
614.624	22245.32
614.98	22232.66
615.337	22316.5
615.693	22384.07
616.05	22215.04
616.406	22415.03
616.762	22266.11
617.118	22341.81
617.475	22472.43
617.831	22366.22
618.187	22588.36
618.543	22533.67
618.899	22697.96
619.255	22573.45
619.611	22611.86
619.967	22636.95
620.323	22749.94
620.678	22619.32
621.034	22568.7
621.39	22543.62
621.746	22462.04
622.101	22822.25
622.457	22612.54
622.812	22676.49
623.168	22687.57
623.523	22743.39
623.879	22868.13
624.234	22510.62
624.589	22591.52
624.945	22661.35
625.3	22701.35
625.655	22719.2
626.01	22605.76
626.365	22532.09
626.72	22579.77
627.075	22605.99
627.43	22550.4
627.785	22545.42
628.14	22591.3
628.495	22647.79
628.85	22590.17
629.205	22624.29
629.559	22626.33
629.914	22614.57
630.269	22597.63
630.623	22495.93
630.978	22362.83
631.332	22405.09
631.687	22607.8
632.041	22485.99
632.396	22521.92
632.75	22432.21
633.104	22375.03
633.459	22309.27
633.813	22298.65
634.167	22283.96
634.521	22332.32
634.875	22247.8
635.229	22157.86
635.583	22176.62
635.937	22063.85
636.291	21955.38
636.645	22021.14
636.999	21912.22
637.352	21937.76
637.706	21876.97
638.06	21912.22
638.413	21882.62
638.767	21797.42
639.121	21915.84
639.474	21744.77
639.828	21819.34
640.181	21765.11
640.534	21775.05
640.888	21615.96
641.241	21563.98
641.594	21571.66
641.947	21581.16
642.301	21533.02
642.654	21563.53
643.007	21471.1
643.36	21554.04
643.713	21353.59
644.066	21519.46
644.419	21395.17
644.771	21271.11
645.124	21065.69
645.477	21085.58
645.83	20800.84
646.182	20794.06
646.535	20676.55
646.888	20747.05
647.24	20625.02
647.593	20733.72
647.945	20726.49
648.298	20611.46
648.65	20461.41
649.002	20452.37
649.355	20517
649.707	20455.54
650.059	20666.83
650.411	20874.51
650.763	21089.42
651.115	21193.82
651.467	21140.94
651.819	21073.82
652.171	21059.14
652.523	20975.52
652.875	20967.16
653.227	20673.38
653.578	21025.69
653.93	20959.48
654.282	20844.68
654.633	20698.24
654.985	20759.71
655.337	20735.53
655.688	20745.02
656.039	20795.87
656.391	20537.12
656.742	20561.07
657.094	20648.07
657.445	20704.12
657.796	20763.1
658.147	20748.86
658.498	20750.9
658.849	20678.81
659.2	20634.74
659.551	20701.18
659.902	20814.85
660.253	20615.08
660.604	20656.66
660.955	20484.24
661.306	20605.14
661.656	20484.01
662.007	20398.59
662.358	20409.21
662.708	20543.67
663.059	20490.11
663.409	20359.49
663.76	20546.83
664.11	20563.56
664.461	20531.47
664.811	20463.67
665.161	20421.86
665.511	20367.85
665.862	20306.84
666.212	20373.05
666.562	20402.88
666.912	20392.49
667.262	20285.14
667.612	20360.17
667.962	20274.98
668.312	20264.58
668.662	20340.51
669.011	20247.18
669.361	20182.1
669.711	20156.56
670.06	20192.72
670.41	20106.17
670.76	20081.08
671.109	20124.24
671.459	20104.36
671.808	20138.93
672.157	20206.28
672.507	19982.33
672.856	19920.63
673.205	19978.26
673.554	20030.24
673.904	19910.01
674.253	20097.8
674.602	19971.71
674.951	19641.77
675.3	19495.79
675.649	19853.07
675.998	19873.18
676.346	19865.95
676.695	19942.33
677.044	19837.92
677.393	19908.66
677.741	19775.55
678.09	19762.67
678.438	19734.2
678.787	19823.01
679.135	19754.09
679.484	19665.5
679.832	19647.2
680.181	19603.58
680.529	19632.96
680.877	19563.13
681.225	19653.3
681.573	19666.18
681.922	19421.66
682.27	19386.41
682.618	19413.08
682.966	19441.78
683.314	19491.72
683.661	19312.51
684.009	19282.23
684.357	19090.83
684.705	19137.15
685.053	19174.44
685.4	19152.97
685.748	19114.33
686.095	19068
686.443	18813.54
686.79	18825.75
687.138	18885.41
687.485	18867.78
687.832	18923.37
688.18	18785.97
688.527	18631.85
688.874	18662.59
689.221	18697.62
689.568	18538.3
689.915	18625.75
690.262	18586.66
690.609	18451.29
690.956	18395.93
691.303	18430.5
691.65	18259.89
691.997	18196.61
692.344	18163.17
692.69	18129.95
693.037	18113.68
693.383	18113.68
693.73	18149.38
694.077	18026.22
694.423	18142.6
694.769	17969.27
695.116	17841.82
695.462	17866.68
695.808	17836.4
696.155	17809.28
696.501	17691.31
696.847	17705.55
697.193	17580.58
697.539	17626.46
697.885	17481.83
698.231	17487.25
698.577	17371.1
698.923	17344.43
699.269	17378.78
699.614	17264.66
699.96	17235.96
700.306	17241.38
700.651	17101.27
700.997	16939.92
701.342	16923.43
701.688	16984.21
702.033	16911.67
702.379	16960.26
702.724	16958.68
703.069	16950.32
703.415	16781.51
703.76	16724.56
704.105	16733.15
704.45	16736.99
704.795	16578.58
705.14	16564.34
705.485	16657.22
705.83	16514.62
706.175	16466.49
706.52	16415.42
706.865	16365.25
707.209	16356.43
707.554	16278.02
707.899	16341.75
708.243	16271.92
708.588	16234.63
708.932	16203.22
709.277	16104.01
709.621	16178.81
709.966	15999.83
710.31	16108.31
710.654	15897.69
710.998	15930.68
711.342	15895.66
711.687	15912.15
712.031	15720.97
712.375	15662.89
712.719	15596.68
713.063	15577.25
713.407	15645.04
713.75	15562.33
714.094	15520.98
714.438	15448.44
714.782	15477.36
715.125	15467.19
715.469	15476.23
715.812	15360.53
716.156	15273.75
716.499	15220.64
716.843	15284.37
717.186	15189.01
717.53	15196.01
717.873	15245.96
718.216	15362.34
718.559	15211.38
718.902	15224.71
719.246	15132.74
719.589	15177.48
719.932	15097.48
720.275	15010.71
720.617	15007.54
720.96	14923.7
721.303	14968.22
721.646	15000.99
721.989	14845.29
722.331	14875.57
722.674	14817.27
723.016	14806.19
723.359	14821.56
723.701	14734.1
724.044	14704.5
724.386	14567.1
724.729	14638.51
725.071	14516.48
725.413	14452.53
725.755	14548.57
726.097	14472.42
726.439	14346.77
726.782	14407.33
727.124	14406.43
727.465	14425.19
727.807	14443.94
728.149	14336.83
728.491	14340.22
728.833	14333.66
729.175	14263.83
729.516	14195.59
729.858	14265.42
730.199	14224.51
730.541	14223.61
730.882	14205.98
731.224	14205.3
731.565	14062.94
731.906	14144.29
732.248	14034.24
732.589	13973.45
732.93	13929.83
733.271	13948.14
733.612	14019.77
733.953	14059.77
734.294	13890.51
734.635	13877.63
734.976	13943.39
735.317	13869.95
735.658	14016.38
735.999	13903.39
736.339	13788.59
736.68	13788.82
737.021	13681.48
737.361	13688.26
737.702	13721.7
738.042	13690.06
738.383	13722.38
738.723	13664.08
739.063	13640.57
739.404	13594.47
739.744	13570.07
740.084	13431.99
740.424	13580.46
740.764	13489.62
741.104	13527.58
741.444	13439.45
741.784	13415.04
742.124	13473.8
742.464	13318.32
742.804	13375.27
743.143	13326.23
743.483	13329.17
743.823	13317.64
744.162	13250.08
744.502	13272.45
744.841	13298.21
745.181	13333.24
745.52	13277.87
745.86	13351.32
746.199	13280.81
746.538	13158.78
746.877	13175.28
747.216	13096.18
747.556	13034.04
747.895	13085.33
748.234	13051.44
748.573	13084.66
748.911	13015.28
749.25	12986.81
749.589	12953.36
749.928	12960.59
750.267	12955.62
750.605	12896.64
750.944	12836.3
751.283	12824.78
751.621	12827.04
751.96	12773.25
752.298	12814.61
752.636	12741.39
752.975	12667.27
753.313	12631.79
753.651	12667.27
753.989	12632.24
754.327	12489.42
754.666	12515.18
755.004	12528.06
755.342	12538.46
755.679	12396.54
756.017	12404.67
756.355	12368.06
756.693	12274.06
757.031	12313.6
757.368	12264.11
757.706	12352.7
758.044	12283.32
758.381	12315.18
758.719	12180.72
759.056	12206.26
759.394	12185.24
759.731	12077.22
760.068	12100.73
760.405	12080.39
760.743	11974.18
761.08	12005.59
761.417	11819.15
761.754	11855.08
762.091	11861.19
762.428	11813.28
762.765	11679.5
763.102	11776.22
763.438	11708.19
763.775	11615.99
764.112	11590.68
764.449	11652.83
764.785	11573.51
765.122	11446.05
765.458	11361.09
765.795	11471.82
766.131	11504.13
766.467	11446.28
766.804	11312.95
767.14	11227.76
767.476	11228.89
767.812	11122.9
768.148	11180.75
768.485	11095.1
768.821	11080.41
769.157	11093.75
769.492	11100.98
769.828	11076.35
770.164	10948.21
770.5	10893.75
770.836	10978.5
771.171	10889.46
771.507	10767.88
771.842	10668
772.178	10660.09
772.513	10678.62
772.849	10678.84
773.184	10579.64
773.519	10587.55
773.855	10458.74
774.19	10517.04
774.525	10454.67
774.86	10478.85
775.195	10440.66
775.53	10365.86
775.865	10262.81
776.2	10239.76
776.535	10250.83
776.87	10274.56
777.205	10201.79
777.539	10185.98
777.874	10151.85
778.209	10152.3
778.543	10083.38
778.878	10009.93
779.212	10068.46
779.547	9919.54
779.881	9930.39
780.215	9774.69
780.55	9759.32
780.884	9727.91
781.218	9717.74
781.552	9763.61
781.886	9681.13
782.22	9602.71
782.554	9603.84
782.888	9451.76
783.222	9452.44
783.556	9460.8
783.889	9450.85
784.223	9437.07
784.557	9460.12
784.89	9422.38
785.224	9352.78
785.557	9327.92
785.891	9336.28
786.224	9264.42
786.558	9217.19
786.891	9179.22
787.224	9136.96
787.557	9070.52
787.891	9116.85
788.224	9123.86
788.557	9166.34
788.89	9079.79
789.223	9032.79
789.556	8982.16
789.888	8979.45
790.221	8932
790.554	8894.94
790.887	8806.8
791.219	8774.03
791.552	8742.85
791.884	8661.72
792.217	8644.32
792.549	8668.5
792.882	8593.47
793.214	8575.85
793.546	8560.48
793.879	8532.69
794.211	8512.57
794.543	8503.31
794.875	8542.4
795.207	8499.69
795.539	8431.44
795.871	8447.26
796.203	8376.31
796.535	8293.82
796.867	8286.14
797.198	8252.01
797.53	8225.8
797.862	8204.56
798.193	8256.53
798.525	8100.83
798.856	8131.11
799.188	8061.29
799.519	8064
799.85	8004.56
800.182	8045.92
800.513	8039.36
800.844	7952.36
801.175	8025.81
801.506	8033.26
801.837	7990.1
802.168	7941.29
802.499	7859.03
802.83	7878.69
803.161	7872.14
803.491	7769.77
803.822	7811.57
804.153	7713.95
804.483	7763.44
804.814	7619.04
805.145	7688.19
805.475	7667.62
805.805	7647.96
806.136	7652.48
806.466	7613.84
806.796	7654.29
807.126	7513.95
807.457	7501.75
807.787	7498.36
808.117	7480.74
808.447	7518.7
808.777	7570.22
809.107	7493.84
809.436	7470.11
809.766	7384.92
810.096	7414.75
810.426	7351.25
810.755	7406.16
811.085	7348.76
811.414	7356.67
811.744	7258.14
812.073	7269.44
812.403	7246.84
812.732	7156.45
813.061	7189.9
813.39	7165.49
813.719	7145.6
814.049	7211.14
814.378	7157.58
814.707	7158.26
815.036	7142.44
815.365	7116
815.693	7032.84
816.022	7061.99
816.351	7068.32
816.68	7000.75
817.008	7059.73
817.337	6915.55
817.665	6884.37
817.994	6903.8
818.322	6940.86
818.651	6844.14
818.979	6809.11
819.307	6845.27
819.636	6774.54
819.964	6812.05
820.292	6830.58
820.62	6829.23
820.948	6784.48
821.276	6793.07
821.604	6851.6
821.932	6849.57
822.259	6825.16
822.587	6787.65
822.915	6795.1
823.243	6801.66
823.57	6787.87
823.898	6787.19
824.225	6801.21
824.553	6737.48
824.88	6867.87
825.207	6813.86
825.535	6826.52
825.862	6837.81
826.189	6833.97
826.516	6812.73
826.843	6856.35
827.17	6863.35
827.497	6781.09
827.824	6793.97
828.151	6822.45
828.478	6790.81
828.805	6835.33
829.131	6830.13
829.458	6803.01
829.785	6817.7
830.111	6755.33
830.438	6808.44
830.764	6805.05
831.09	6800.08
831.417	6703.13
831.743	6831.71
832.069	6785.61
832.395	6805.27
832.722	6803.47
833.048	6730.02
833.374	6731.38
833.7	6702.9
834.026	6691.83
834.351	6723.02
834.677	6693.19
835.003	6740.64
835.329	6713.75
835.654	6706.97
835.98	6675.33
836.306	6667.42
836.631	6624.03
836.956	6586.07
837.282	6703.81
837.607	6614.54
837.932	6563.47
838.258	6547.2
838.583	6562.57
838.908	6583.81
839.233	6561.66
839.558	6528.22
839.883	6513.08
840.208	6522.34
840.533	6563.7
840.858	6542
841.182	6562.79
841.507	6506.75
841.832	6517.6
842.156	6455.9
842.481	6527.99
842.805	6511.72
843.13	6463.81
843.454	6441.67
843.778	6361.67
844.103	6403.25
844.427	6408.67
844.751	6355.57
845.075	6393.98
845.399	6350.37
845.723	6286.42
846.047	6276.47
846.371	6269.24
846.695	6279.19
847.019	6260.88
847.343	6247.1
847.666	6172.3
847.99	6192.86
848.313	6193.99
848.637	6122.81
848.96	6046.87
849.284	6123.03
849.607	5992.19
849.931	6067.21
850.254	5986.99
850.577	5929.36
850.9	5951.96
851.223	5921.68
851.546	5862.92
851.869	5841
852.192	5846.88
852.515	5770.72
852.838	5788.8
853.161	5785.19
853.483	5733.89
853.806	5724.62
854.129	5679.65
854.451	5679.43
854.774	5693.66
855.096	5674.23
855.419	5627.22
855.741	5599.66
856.063	5631.97
856.385	5583.16
856.708	5606.21
857.03	5580.9
857.352	5546.1
857.674	5565.08
857.996	5474.69
858.318	5478.98
858.64	5492.31
858.961	5429.26
859.283	5455.93
859.605	5439.43
859.926	5449.6
860.248	5435.14
860.57	5397.63
860.891	5386.1
861.212	5427.46
861.534	5387.23
861.855	5332.09
862.176	5394.24
862.498	5382.26
862.819	5333.67
863.14	5310.4
863.461	5334.8
863.782	5254.35
864.103	5261.81
864.424	5273.11
864.745	5302.04
865.065	5292.09
865.386	5304.52
865.707	5281.25
866.027	5261.58
866.348	5222.94
866.668	5231.53
866.989	5235.14
867.309	5183.17
867.63	5207.8
867.95	5206.9
868.27	5137.07
868.59	5228.37
868.91	5195.6
869.23	5153.11
869.55	5194.92
869.87	5104.3
870.19	5130.06
870.51	5178.65
870.83	5155.37
871.15	5158.99
871.469	5142.27
871.789	5115.6
872.109	5098.65
872.428	5067.69
872.748	5105.88
873.067	5121.02
873.386	5064.53
873.706	5126.22
874.025	4968.71
874.344	4994.7
874.663	5023.4
874.982	5039.22
875.301	5030.4
875.62	4975.04
875.939	4999.67
876.258	4987.24
876.577	4949.95
876.896	4993.34
877.214	4929.62
877.533	4939.56
877.852	4905.21
878.17	4906.57
878.489	4941.59
878.807	4889.39
879.125	4859.79
879.444	4901.59
879.762	4871.54
880.08	4866.11
880.398	4829.28
880.716	4833.8
881.034	4823.4
881.352	4858.88
881.67	4814.59
881.988	4766.91
882.306	4774.14
882.624	4809.85
882.941	4751.77
883.259	4812.33
883.577	4801.03
883.894	4756.06
884.212	4768.94
884.529	4791.31
884.846	4775.04
885.164	4745.67
885.481	4710.64
885.798	4721.26
886.115	4644.2
886.432	4661.37
886.75	4647.36
887.067	4615.5
887.383	4630.87
887.7	4645.1
888.017	4575.5
888.334	4590.87
888.651	4597.2
888.967	4566.69
889.284	4576.41
889.6	4542.06
889.917	4491.89
890.233	4501.38
890.55	4518.1
890.866	4490.08
891.182	4458.22
891.498	4486.46
891.815	4500.25
892.131	4475.16
892.447	4499.57
892.763	4470.87
893.079	4447.14
893.395	4391.33
893.71	4414.15
894.026	4413.25
894.342	4382.51
894.657	4357.88
894.973	4348.16
895.289	4309.75
895.604	4325.34
895.92	4290.76
896.235	4276.53
896.55	4335.73
896.865	4315.17
897.181	4285.11
897.496	4269.75
897.811	4229.97
898.126	4227.94
898.441	4200.6
898.756	4226.13
899.071	4127.6
899.386	4138.22
899.7	4140.94
900.015	4150.43
900.33	4162.4
900.644	4145.23
900.959	4118.79
901.273	4070.2
901.588	4056.19
901.902	4088.51
902.216	4122.86
902.531	4058.68
902.845	4013.03
903.159	3998.79
903.473	4005.8
903.787	3998.12
904.101	3923.99
904.415	3953.82
904.729	3933.26
905.042	3918.34
905.356	3900.04
905.67	3840.61
905.984	3890.55
906.297	3878.34
906.611	3819.81
906.924	3819.81
907.237	3812.58
907.551	3796.76
907.864	3834.96
908.177	3806.48
908.491	3786.6
908.804	3741.85
909.117	3752.02
909.43	3763.77
909.743	3742.75
910.056	3691
910.368	3674.96
910.681	3674.06
910.994	3606.94
911.307	3636.09
911.619	3622.31
911.932	3681.51
912.244	3615.3
912.557	3623.44
912.869	3593.38
913.181	3613.94
913.494	3593.15
913.806	3530.56
914.118	3556.77
914.43	3529.43
914.742	3536.88
915.054	3512.03
915.366	3445.59
915.678	3437.23
915.99	3448.3
916.302	3441.52
916.613	3416.44
916.925	3385.25
917.236	3419.37
917.548	3345.48
917.859	3335.53
918.171	3377.11
918.482	3307.29
918.794	3341.86
919.105	3343.22
919.416	3305.48
919.727	3255.99
920.038	3284.01
920.349	3261.86
920.66	3240.62
920.971	3245.82
921.282	3212.6
921.593	3212.6
921.903	3199.94
922.214	3204.69
922.525	3202.43
922.835	3194.07
923.146	3140.28
923.456	3121.75
923.767	3116.1
924.077	3074.75
924.387	3094.64
924.697	3116.78
925.008	3052.83
925.318	3079.5
925.628	3075.65
925.938	3071.59
926.248	3045.37
926.558	3015.54
926.867	2999.27
927.177	2990.46
927.487	2999.27
927.796	2940.74
928.106	2983
928.416	2934.19
928.725	2900.06
929.034	2930.8
929.344	2931.25
929.653	2897.58
929.962	2863
930.271	2855.32
930.581	2842.21
930.89	2842.89
931.199	2844.7
931.508	2850.35
931.817	2843.12
932.125	2799.28
932.434	2794.08
932.743	2753.63
933.051	2769.9
933.36	2718.15
933.669	2731.71
933.977	2737.81
934.286	2713.63
934.594	2691.26
934.902	2707.53
935.21	2682.9
935.519	2704.14
935.827	2682.67
936.135	2684.48
936.443	2675.89
936.751	2658.04
937.059	2669.34
937.367	2605.84
937.674	2603.58
937.982	2580.07
938.29	2554.99
938.597	2595.89
938.905	2585.95
939.213	2599.51
939.52	2586.63
939.827	2560.86
940.135	2569.45
940.442	2543.46
940.749	2551.37
941.056	2499.85
941.363	2503.69
941.67	2473.64
941.977	2461.88
942.284	2435.9
942.591	2456.46
942.898	2429.12
943.205	2420.98
943.511	2413.3
943.818	2395.67
944.125	2406.74
944.431	2368.1
944.738	2396.58
945.044	2326.52
945.35	2329.91
945.657	2336.24
945.963	2339.18
946.269	2345.96
946.575	2318.84
946.881	2324.26
947.187	2279.06
947.493	2286.97
947.799	2269.8
948.105	2265.73
948.41	2292.85
948.716	2253.98
949.022	2251.27
949.327	2240.42
949.633	2199.52
949.938	2228.22
950.244	2205.85
950.549	2191.61
950.854	2208.11
951.16	2173.53
951.465	2208.33
951.77	2155.68
952.075	2189.12
952.38	2171.04
952.685	2148.22
952.99	2119.97
953.294	2125.4
953.599	2123.81
953.904	2120.2
954.209	2085.17
954.513	2140.31
954.818	2083.36
955.122	2091.72
955.426	2074.1
955.731	2082.23
956.035	2068.22
956.339	2056.7
956.643	2065.96
956.948	2026.87
957.252	2008.34
957.556	2011.95
957.86	2002.46
958.163	1998.17
958.467	2050.14
958.771	2023.25
959.075	2013.31
959.378	1985.74
959.682	1956.59
959.985	1973.76
960.289	1979.19
960.592	1936.02
960.896	1921.33
961.199	1909.81
961.502	1923.37
961.805	1917.49
962.108	1915.68
962.411	1884.05
962.714	1890.15
963.017	1888.57
963.32	1850.83
963.623	1873.2
963.926	1865.74
964.228	1871.39
964.531	1838.62
964.833	1827.1
965.136	1825.74
965.438	1822.35
965.741	1815.35
966.043	1794.56
966.345	1809.47
966.648	1794.11
966.95	1810.83
967.252	1764.73
967.554	1786.65
967.856	1781
968.158	1764.05
968.46	1755.69
968.761	1754.11
969.063	1736.48
969.365	1747.55
969.666	1722.92
969.968	1707.78
970.269	1684.73
970.571	1686.99
970.872	1707.78
971.174	1686.99
971.475	1682.02
971.776	1705.29
972.077	1669.59
972.378	1660.1
972.679	1657.84
972.98	1668.91
973.281	1649.25
973.582	1644.28
973.883	1645.63
974.183	1646.31
974.484	1622.58
974.785	1609.25
975.085	1597.95
975.386	1592.98
975.686	1594.11
975.986	1602.25
976.287	1599.53
976.587	1557.28
976.887	1585.98
977.187	1545.52
977.487	1547.11
977.787	1565.64
978.087	1546.65
978.387	1576.71
978.687	1532.42
978.987	1525.19
979.286	1514.56
979.586	1500.78
979.885	1498.29
980.185	1516.82
980.484	1492.64
980.784	1468.69
981.083	1507.79
981.382	1479.99
981.682	1484.73
981.981	1456.49
982.28	1498.52
982.579	1445.64
982.878	1460.1
983.177	1448.35
983.475	1468.92
983.774	1457.39
984.073	1441.12
984.372	1400.22
984.67	1414.91
984.969	1404.96
985.267	1411.74
985.566	1409.03
985.864	1380.1
986.162	1373.1
986.461	1389.6
986.759	1395.25
987.057	1364.51
987.355	1364.29
987.653	1349.15
987.951	1355.47
988.249	1325.87
988.547	1331.74
988.844	1342.37
989.142	1342.59
989.44	1307.11
989.737	1305.3
990.035	1329.03
990.332	1304.85
990.63	1278.64
990.927	1315.25
991.224	1264.18
991.521	1300.33
991.819	1293.33
992.116	1306.21
992.413	1306.21
992.71	1288.81
993.006	1274.12
993.303	1291.52
993.6	1294.01
993.897	1242.48
994.193	1274.12
994.49	1261.46
994.787	1248.36
995.083	1267.11
995.379	1210.39
995.676	1228.02
995.972	1244.97
996.268	1208.58
996.565	1219.43
996.861	1218.08
997.157	1208.58
997.453	1192.09
997.749	1185.99
998.044	1166.55
998.34	1187.12
998.636	1173.33
998.932	1134.01
999.227	1171.07
999.523	1136.72
999.818	1154.12
1000.114	1136.04
1000.409	1138.98
1000.704	1119.32
1001	1128.59
1001.295	1108.25
1001.59	1128.81
1001.885	1122.71
1002.18	1091.07
1002.475	1120
1002.77	1101.47
1003.065	1087.91
1003.359	1084.97
1003.654	1087.91
1003.949	1088.59
1004.243	1059.89
1004.538	1060.79
1004.832	1080.23
1005.127	1062.15
1005.421	1055.82
1005.715	1061.47
1006.009	1028.25
1006.304	1019.89
1006.598	1007.69
1006.892	1022.37
1007.186	1024.63
1007.48	1026.22
1007.773	1005.65
1008.067	1021.47
1008.361	1025.09
1008.655	995.26
1008.948	999.55
1009.242	1011.53
1009.535	961.36
1009.829	990.51
1010.122	963.17
1010.415	978.76
1010.708	964.75
1011.001	955.94
1011.295	1010.4
1011.588	971.3
1011.881	964.97
1012.173	946.22
1012.466	945.54
1012.759	935.37
1013.052	948.7
1013.344	924.75
1013.637	931.3
1013.93	927.01
1014.222	914.35
1014.514	913
1014.807	915.03
1015.099	884.07
1015.391	882.94
1015.683	908.93
1015.976	907.58
1016.268	880.46
1016.56	882.72
1016.851	871.19
1017.143	886.78
1017.435	874.58
1017.727	853.34
1018.018	887.91
1018.31	870.51
1018.602	843.85
1018.893	852.89
1019.185	854.47
1019.476	858.08
1019.767	837.07
1020.058	829.38
1020.35	841.59
1020.641	810.4
1020.932	816.05
1021.223	821.02
1021.514	803.17
1021.804	815.6
1022.095	788.93
1022.386	817.18
1022.677	783.51
1022.967	787.35
1023.258	775.38
1023.548	780.12
1023.839	774.25
1024.129	773.12
1024.419	800.69
1024.709	788.26
1025	767.01
1025.29	755.04
1025.58	751.42
1025.87	739.22
1026.16	753
1026.449	756.84
1026.739	742.83
1027.029	755.71
1027.319	742.38
1027.608	710.74
1027.898	724.53
1028.187	734.02
1028.477	718.65
1028.766	708.26
1029.055	713.23
1029.344	706.68
1029.634	717.07
1029.923	713
1030.212	688.37
1030.501	697.41
1030.79	672.78
1031.078	680.69
1031.367	697.64
1031.656	688.37
1031.945	686.79
1032.233	690.41
1032.522	683.17
1032.81	662.61
1033.099	669.39
1033.387	667.13
1033.675	660.8
1033.963	658.99
1034.251	661.25
1034.54	665.1
1034.828	667.81
1035.116	653.57
1035.403	657.64
1035.691	642.05
1035.979	635.27
1036.267	642.95
1036.554	638.43
1036.842	644.31
1037.129	616.51
1037.417	636.4
1037.704	627.58
1037.992	607.7
1038.279	618.09
1038.566	607.02
1038.853	607.02
1039.14	607.02
