Data from black_metal_pc_casing_FLMS001491_00056.txt Node
Date: Wed Feb 08 14:33:04 GMT 2017
User: dcchb
Spectrometer: FLMS00149
Trigger mode: 0
Integration Time (sec): 2.000000E-2
Scans to average: 10
Electric dark correction enabled: true
Nonlinearity correction enabled: false
Boxcar width: 0
XAxis mode: Wavelengths
Number of Pixels in Spectrum: 2048
>>>>>Begin Spectral Data<<<<<
341.393	-9.24
341.776	-9.24
342.16	-9.24
342.543	-49.91
342.927	-63.25
343.31	-74.77
343.693	-73.87
344.077	-57.37
344.46	-58.28
344.843	-59.18
345.226	-30.48
345.61	-21.89
345.993	-11.95
346.376	2.97
346.759	-1.55
347.142	18.33
347.525	40.71
347.908	63.3
348.291	88.61
348.674	90.87
349.057	84.55
349.44	129.74
349.823	134.26
350.206	159.12
350.588	168.39
350.971	207.48
351.354	213.81
351.737	211.1
352.119	244.54
352.502	259.46
352.884	240.7
353.267	267.82
353.65	295.39
354.032	295.84
354.414	290.87
354.797	307.36
355.179	293.81
355.562	330.87
355.944	334.26
356.326	327.48
356.709	316.18
357.091	302.39
357.473	322.73
357.855	322.73
358.238	347.59
358.62	318.66
359.002	315.73
359.384	336.74
359.766	337.65
360.148	354.6
360.53	333.58
360.912	324.54
361.294	321.15
361.676	324.77
362.057	321.6
362.439	342.62
362.821	325.9
363.203	316.63
363.584	314.37
363.966	319.79
364.348	322.96
364.729	303.98
365.111	318.89
365.493	323.86
365.874	317.08
366.256	317.08
366.637	326.35
367.019	327.7
367.4	295.84
367.781	313.69
368.163	324.54
368.544	317.76
368.925	326.8
369.306	309.17
369.688	315.95
370.069	292.22
370.45	296.74
370.831	309.4
371.212	320.7
371.593	325.9
371.974	308.04
372.355	322.05
372.736	316.4
373.117	320.02
373.498	317.76
373.879	306.91
374.26	327.25
374.641	303.75
375.021	316.18
375.402	311.66
375.783	297.42
376.163	354.37
376.544	335.84
376.925	317.08
377.305	328.61
377.686	319.57
378.066	350.3
378.447	342.84
378.827	329.74
379.208	354.14
379.588	324.54
379.968	332.9
380.349	334.93
380.729	362.5
381.109	338.55
381.489	344.65
381.87	374.48
382.25	362.96
382.63	362.5
383.01	360.7
383.39	350.53
383.77	351.88
384.15	361.15
384.53	355.95
384.91	358.21
385.29	358.66
385.67	357.53
386.049	361.6
386.429	370.41
386.809	367.25
387.189	364.09
387.568	367.25
387.948	385.78
388.328	381.04
388.707	374.93
389.087	369.28
389.466	396.18
389.846	394.82
390.225	393.46
390.605	385.55
390.984	383.52
391.363	402.96
391.743	389.85
392.122	396.63
392.501	391.88
392.881	384.65
393.26	382.39
393.639	393.92
394.018	413.35
394.397	398.89
394.776	419
395.155	398.89
395.534	422.84
395.913	407.7
396.292	411.77
396.671	413.8
397.05	406.35
397.429	421.49
397.808	412.45
398.186	422.62
398.565	400.7
398.944	427.81
399.323	425.78
399.701	426.23
400.08	441.37
400.458	433.46
400.837	436.4
401.215	454.03
401.594	451.77
401.972	442.73
402.351	448.6
402.729	457.64
403.107	436.4
403.486	460.13
403.864	444.31
404.242	465.1
404.62	471.65
404.999	476.4
405.377	459.23
405.755	465.78
406.133	478.66
406.511	478.21
406.889	468.72
407.267	477.76
407.645	484.54
408.023	487.02
408.401	503.97
408.779	493.57
409.156	508.26
409.534	495.38
409.912	507.81
410.29	523.4
410.667	513.01
411.045	506.68
411.422	535.16
411.8	520.01
412.178	523.18
412.555	554.36
412.933	525.44
413.31	558.21
413.687	554.59
414.065	557.3
414.442	550.52
414.819	571.31
415.197	570.18
415.574	580.35
415.951	549.62
416.328	574.7
416.705	586.68
417.082	560.92
417.46	579.9
417.837	579
418.214	586.45
418.591	592.33
418.967	609.28
419.344	598.66
419.721	618.32
420.098	629.39
420.475	624.87
420.852	632.1
421.228	631.42
421.605	632.55
421.982	621.71
422.358	646.11
422.735	643.63
423.111	671.2
423.488	654.25
423.864	660.35
424.241	665.77
424.617	665.77
424.994	691.99
425.37	656.73
425.746	678.65
426.123	673.46
426.499	688.15
426.875	689.05
427.251	682.5
427.627	696.06
428.003	712.55
428.379	722.04
428.756	741.25
429.132	757.75
429.507	737.86
429.883	734.02
430.259	766.11
430.635	777.63
431.011	779.44
431.387	779.89
431.763	809.5
432.138	798.2
432.514	820.8
432.89	806.56
433.265	844.3
433.641	821.25
434.016	810.63
434.392	828.48
434.767	846.79
435.143	855.15
435.518	876.84
435.894	863.06
436.269	866.9
436.644	884.75
437.02	870.97
437.395	880.91
437.77	899.89
438.145	898.08
438.52	915.94
438.895	928.82
439.271	922.26
439.646	964.75
440.021	937.18
440.395	941.7
440.77	952.09
441.145	963.84
441.52	961.36
441.895	966.33
442.27	994.8
442.645	989.38
443.019	1010.85
443.394	998.19
443.769	979.89
444.143	1000.68
444.518	1009.27
444.892	1013.56
445.267	1014.46
445.641	1056.72
446.016	1023.05
446.39	1034.58
446.764	1061.92
447.139	1030.06
447.513	1043.84
447.887	1056.72
448.262	1080
448.636	1069.38
449.01	1107.34
449.384	1082.94
449.758	1081.36
450.132	1070.51
450.506	1091.3
450.88	1113.22
451.254	1118.87
451.628	1096.72
452.002	1131.3
452.376	1135.59
452.75	1167.68
453.123	1141.02
453.497	1170.39
453.871	1168.36
454.244	1204.06
454.618	1208.81
454.992	1208.36
455.365	1225.98
455.739	1242.71
456.112	1299.2
456.486	1248.58
456.859	1265.31
457.232	1309.82
457.606	1310.95
457.979	1322.71
458.352	1360.67
458.725	1343.95
459.099	1374.23
459.472	1381.23
459.845	1368.13
460.218	1386.21
460.591	1430.05
460.964	1425.98
461.337	1437.05
461.71	1476.15
462.083	1475.47
462.456	1470.05
462.829	1511.4
463.201	1501.68
463.574	1518.41
463.947	1499.65
464.32	1572.87
464.692	1581.46
465.065	1562.47
465.438	1613.77
465.81	1623.49
466.183	1595.92
466.555	1653.09
466.928	1684.05
467.3	1699.42
467.672	1677.95
468.045	1728.12
468.417	1720.89
468.789	1766.31
469.161	1760.43
469.534	1787.33
469.906	1830.49
470.278	1856.93
470.65	1849.47
471.022	1905.97
471.394	1917.27
471.766	1941.67
472.138	1943.03
472.51	1989.81
472.882	2010.6
473.253	2036.58
473.625	2071.61
473.997	2101.67
474.369	2131.95
474.74	2151.38
475.112	2173.08
475.484	2187.54
475.855	2268.9
476.227	2239.29
476.598	2312.96
476.97	2339.63
477.341	2356.8
477.713	2394.09
478.084	2416.24
478.455	2474.77
478.827	2523.13
479.198	2596.57
479.569	2567.87
479.94	2599.28
480.311	2668.88
480.682	2716.12
481.053	2790.24
481.424	2796.79
481.795	2825.26
482.166	2843.12
482.537	2877.24
482.908	2965.15
483.279	2955.43
483.65	3041.76
484.021	3061.19
484.391	3074.52
484.762	3159.04
485.133	3198.81
485.503	3205.37
485.874	3300.05
486.244	3321.3
486.615	3339.6
486.985	3385.48
487.356	3445.36
487.726	3500.05
488.097	3534.17
488.467	3522.2
488.837	3589.99
489.207	3699.59
489.578	3705.69
489.948	3717.67
490.318	3762.64
490.688	3838.12
491.058	3894.39
491.428	3912.47
491.798	3965.12
492.168	3985.23
492.538	4027.27
492.908	4039.92
493.278	4149.75
493.648	4100.49
494.017	4172.57
494.387	4216.87
494.757	4225
495.126	4242.63
495.496	4293.93
495.866	4360.59
496.235	4379.57
496.605	4450.53
496.974	4464.09
497.344	4489.4
497.713	4484.88
498.082	4554.26
498.452	4565.56
498.821	4609.17
499.19	4668.83
499.559	4641.94
499.928	4766.91
500.298	4732.11
500.667	4834.7
501.036	4768.49
501.405	4839.68
501.774	4887.58
502.143	4898.66
502.512	4894.59
502.88	4955.15
503.249	4905.66
503.618	5013.91
503.987	5051.19
504.356	5029.5
504.724	5084.87
505.093	5088.26
505.462	5122.15
505.83	5152.89
506.199	5212.32
506.567	5294.13
506.936	5258.65
507.304	5320.34
507.672	5388.36
508.041	5403.28
508.409	5425.87
508.777	5457.29
509.145	5506.1
509.514	5547.9
509.882	5578.19
510.25	5574.12
510.618	5625.87
510.986	5652.08
511.354	5707.22
511.722	5725.53
512.09	5793.55
512.458	5732.31
512.826	5823.15
513.193	5894.11
513.561	5937.5
513.929	5906.99
514.297	6075.12
514.664	6039.87
515.032	6072.64
515.4	6104.73
515.767	6116.25
516.135	6184.27
516.502	6150.15
516.869	6277.6
517.237	6340.43
517.604	6251.16
517.972	6385.17
518.339	6400.09
518.706	6434.89
519.073	6487.32
519.44	6507.65
519.808	6587.65
520.175	6593.75
520.542	6659.51
520.909	6741.09
521.276	6725.5
521.643	6835.55
522.009	6845.27
522.376	6930.69
522.743	6945.61
523.11	7011.14
523.477	7105.6
523.843	7077.36
524.21	7193.06
524.577	7233.51
524.943	7317.8
525.31	7321.64
525.676	7399.83
526.043	7411.81
526.409	7479.15
526.776	7539.04
527.142	7505.37
527.508	7615.2
527.874	7723.67
528.241	7716.21
528.607	7783.78
528.973	7848.64
529.339	7833.27
529.705	7964.34
530.071	7998.69
530.437	7982.19
530.803	7998.69
531.169	8129.98
531.535	8105.13
531.901	8171.79
532.267	8209.3
532.632	8232.58
532.998	8259.7
533.364	8336.31
533.73	8389.86
534.095	8477.55
534.461	8474.16
534.826	8545.79
535.192	8497.43
535.557	8641.16
535.923	8632.8
536.288	8607.03
536.653	8699.91
537.019	8685.68
537.384	8754.15
537.749	8778.33
538.114	8805.22
538.479	8809.51
538.845	8862.17
539.21	8830.76
539.575	8940.36
539.94	8960.24
540.305	8970.87
540.67	9019
541.034	9011.99
541.399	9135.61
541.764	9146
542.129	9090.86
542.494	9163.18
542.858	9217.86
543.223	9243.18
543.587	9242.95
543.952	9266.45
544.316	9388.93
544.681	9316.85
545.045	9397.3
545.41	9409.27
545.774	9444.98
546.138	9453.56
546.503	9490.63
546.867	9540.79
547.231	9657.4
547.595	9604.52
547.959	9680.23
548.324	9679.77
548.688	9697.85
549.052	9769.04
549.416	9795.25
549.779	9779.66
550.143	9763.16
550.507	9946.89
550.871	9897.62
551.235	9976.72
551.599	10002.25
551.962	10004.96
552.326	9968.81
552.689	10015.81
553.053	10030.72
553.417	10115.47
553.78	10216.48
554.143	10261.23
554.507	10258.29
554.87	10371.73
555.234	10402.01
555.597	10394.78
555.96	10456.02
556.323	10374.67
556.686	10484.05
557.05	10611.95
557.413	10607.88
557.776	10634.78
558.139	10699.41
558.502	10694.66
558.865	10747.32
559.228	10830.25
559.59	10840.2
559.953	10796.81
560.316	10934.2
560.679	10994.54
561.041	11065.5
561.404	11135.78
561.767	11189.34
562.129	11080.41
562.492	11345.27
562.854	11217.13
563.217	11292.16
563.579	11394.98
563.941	11418.71
564.304	11434.53
564.666	11512.72
565.028	11505.26
565.39	11574.41
565.753	11630.23
566.115	11705.26
566.477	11815.31
566.839	11767.85
567.201	11912.71
567.563	11903.44
567.925	11985.48
568.287	12015.08
568.648	12018.02
569.01	12066.83
569.372	12179.6
569.734	12153.38
570.095	12171.46
570.457	12303.21
570.819	12308.63
571.18	12338.91
571.542	12349.53
571.903	12319.7
572.265	12395.63
572.626	12527.83
572.987	12581.17
573.349	12530.09
573.71	12502.75
574.071	12681.95
574.432	12660.94
574.794	12740.26
575.155	12751.33
575.516	12689.86
575.877	12760.14
576.238	12797.66
576.599	12797.66
576.96	12855.74
577.32	12914.94
577.681	12921.5
578.042	12949.07
578.403	12911.1
578.763	12985.22
579.124	12970.31
579.485	13010.08
579.845	13081.49
580.206	13020.93
580.566	12969.86
580.927	13035.84
581.287	13044.43
581.648	13115.84
582.008	13106.12
582.368	13095.05
582.728	13189.06
583.089	13179.12
583.449	13182.51
583.809	13178.44
584.169	13199.91
584.529	13108.16
584.889	13287.14
585.249	13153.35
585.609	13135.05
585.969	13153.35
586.329	13161.49
586.688	13294.59
587.048	13203.75
587.408	13246.69
587.768	13151.77
588.127	13168.5
588.487	13268.38
588.846	13277.87
589.206	13203.75
589.565	13207.82
589.925	13312.9
590.284	13148.61
590.643	13261.15
591.003	13290.3
591.362	13310.64
591.721	13260.02
592.08	13336.63
592.44	13327.36
592.799	13333.24
593.158	13276.97
593.517	13316.06
593.876	13286.01
594.235	13305.44
594.593	13355.16
594.952	13305.67
595.311	13279.45
595.67	13344.76
596.029	13361.03
596.387	13409.85
596.746	13423.4
597.104	13437.42
597.463	13397.19
597.822	13372.56
598.18	13399.45
598.538	13407.13
598.897	13441.03
599.255	13367.13
599.613	13591.31
599.972	13465.21
600.33	13487.13
600.688	13426.57
601.046	13493.91
601.404	13566.68
601.762	13572.78
602.12	13601.48
602.478	13594.93
602.836	13622.49
603.194	13492.33
603.552	13584.76
603.91	13519.45
604.268	13637.86
604.625	13577.52
604.983	13626.34
605.341	13573.46
605.698	13624.3
606.056	13615.94
606.413	13661.59
606.771	13689.39
607.128	13763.51
607.485	13681.7
607.843	13645.55
608.2	13697.07
608.557	13835.82
608.914	13821.36
609.272	13867.23
609.629	13797.86
609.986	13907.91
610.343	13912.2
610.7	13874.92
611.057	13882.38
611.414	13904.07
611.771	13912.43
612.127	13922.83
612.484	13920.11
612.841	13954.69
613.198	13961.92
613.554	13963.28
613.911	13983.84
614.267	13982.94
614.624	13973.9
614.98	14017.06
615.337	14045.53
615.693	14048.92
616.05	13998.3
616.406	14161.01
616.762	14076.49
617.118	14015.25
617.475	14069.71
617.831	14108.36
618.187	14151.29
618.543	14077.17
618.899	14163.95
619.255	14213.44
619.611	14245.98
619.967	14227.68
620.323	14268.35
620.678	14155.36
621.034	14149.03
621.39	14077.62
621.746	14176.15
622.101	14376.83
622.457	14207.34
622.812	14277.39
623.168	14177.96
623.523	14177.28
623.879	14217.28
624.234	14168.02
624.589	14247.34
624.945	14228.58
625.3	14291.63
625.655	14259.31
626.01	14277.62
626.365	14274.23
626.72	14308.8
627.075	14236.72
627.43	14324.85
627.785	14165.08
628.14	14301.8
628.495	14245.3
628.85	14245.08
629.205	14223.84
629.559	14196.27
629.914	14202.59
630.269	14255.92
630.623	14218.41
630.978	14065.2
631.332	14170.73
631.687	14200.33
632.041	14137.06
632.396	14136.61
632.75	14101.8
633.104	14165.76
633.459	14107.91
633.813	14107
634.167	14042.37
634.521	14077.17
634.875	14035.59
635.229	13985.2
635.583	13948.59
635.937	13981.13
636.291	13948.14
636.645	13985.2
636.999	13950.62
637.352	13956.5
637.706	13881.25
638.06	13912.88
638.413	13841.47
638.767	13856.39
639.121	13791.53
639.474	13845.54
639.828	13872.21
640.181	13811.87
640.534	13813.9
640.888	13750.4
641.241	13688.93
641.594	13764.86
641.947	13818.87
642.301	13782.72
642.654	13692.32
643.007	13738.65
643.36	13645.55
643.713	13651.87
644.066	13632.66
644.419	13527.36
644.771	13459.79
645.124	13411.43
645.477	13337.98
645.83	13257.31
646.182	13236.97
646.535	13212.79
646.888	13220.7
647.24	13088.05
647.593	13155.84
647.945	13163.07
648.298	13078.55
648.65	13120.36
649.002	13104.77
649.355	13084.66
649.707	13066.13
650.059	13142.51
650.411	13306.12
650.763	13319.68
651.115	13362.61
651.467	13292.56
651.819	13266.8
652.171	13369.85
652.523	13249.4
652.875	13335.5
653.227	13255.27
653.578	13334.37
653.93	13289.62
654.282	13248.49
654.633	13226.8
654.985	13227.03
655.337	13174.82
655.688	13225.67
656.039	13307.7
656.391	13106.35
656.742	13208.27
657.094	13221.15
657.445	13184.31
657.796	13162.39
658.147	13223.18
658.498	13174.82
658.849	13140.93
659.2	13130.08
659.551	13099.34
659.902	13095.28
660.253	13139.34
660.604	13118.78
660.955	13077.88
661.306	13071.77
661.656	13053.47
662.007	13026.13
662.358	13027.48
662.708	13039.01
663.059	13069.97
663.409	12954.04
663.76	13076.52
664.11	12965.34
664.461	13020.93
664.811	13053.92
665.161	12992
665.511	12926.47
665.862	12951.78
666.212	12924.43
666.562	12978.9
666.912	12986.35
667.262	12936.19
667.612	12873.36
667.962	13024.54
668.312	12934.83
668.662	12919.24
669.011	12938.22
669.361	12894.83
669.711	12877.2
670.06	12947.03
670.41	12903.19
670.76	12894.15
671.109	12943.64
671.459	12852.57
671.808	12856.87
672.157	12906.81
672.507	12790.2
672.856	12827.26
673.205	12770.77
673.554	12865.23
673.904	12836.98
674.253	12867.49
674.602	12747.49
674.951	12651
675.3	12495.29
675.649	12766.92
675.998	12789.75
676.346	12794.04
676.695	12794.72
677.044	12728.51
677.393	12780.71
677.741	12812.12
678.09	12644.44
678.438	12670.2
678.787	12665.23
679.135	12706.13
679.484	12607.38
679.832	12618.23
680.181	12556.99
680.529	12605.57
680.877	12596.76
681.225	12571.45
681.573	12661.62
681.922	12435.41
682.27	12475.41
682.618	12483.54
682.966	12418.46
683.314	12513.15
683.661	12395.18
684.009	12375.3
684.357	12381.4
684.705	12424.33
685.053	12357.44
685.4	12365.13
685.748	12240.16
686.095	12247.16
686.443	12192.25
686.79	12234.51
687.138	12291.68
687.485	12226.6
687.832	12160.16
688.18	12184.11
688.527	12126.49
688.874	12092.37
689.221	12047.17
689.568	12090.11
689.915	12018.47
690.262	12008.3
690.609	12033.38
690.956	11932.14
691.303	11919.94
691.65	11850.79
691.997	11823.67
692.344	11801.53
692.69	11747.29
693.037	11802.66
693.383	11709.32
693.73	11776.89
694.077	11673.62
694.423	11694.86
694.769	11637.46
695.116	11607.41
695.462	11531.7
695.808	11503.45
696.155	11607.63
696.501	11484.02
696.847	11470.01
697.193	11420.52
697.539	11414.19
697.885	11345.72
698.231	11297.58
698.577	11290.13
698.923	11323.35
699.269	11230.92
699.614	11252.16
699.96	11177.14
700.306	11145.95
700.651	11110.02
700.997	11057.36
701.342	11030.47
701.688	11034.99
702.033	11032.51
702.379	10968.55
702.724	10951.38
703.069	10980.08
703.415	10871.38
703.76	10836.13
704.105	10822.57
704.45	10853.98
704.795	10703.02
705.14	10710.48
705.485	10729.24
705.83	10605.4
706.175	10663.48
706.52	10676.58
706.865	10586.64
707.209	10602.24
707.554	10570.82
707.899	10580.99
708.243	10603.82
708.588	10515.01
708.932	10513.42
709.277	10450.37
709.621	10496.48
709.966	10413.31
710.31	10383.48
710.654	10359.98
710.998	10357.27
711.342	10383.48
711.687	10351.17
712.031	10271.17
712.375	10257.61
712.719	10243.83
713.063	10195.92
713.407	10228.91
713.75	10193.66
714.094	10190.72
714.438	10229.14
714.782	10158.18
715.125	10162.02
715.469	10134.68
715.812	10054.23
716.156	9969.26
716.499	10015.36
716.843	10015.81
717.186	9979.88
717.53	10036.15
717.873	9963.61
718.216	9937.39
718.559	9912.54
718.902	9856.04
719.246	9949.82
719.589	9854.01
719.932	9828.7
720.275	9830.5
720.617	9851.75
720.96	9752.77
721.303	9790.96
721.646	9765.87
721.989	9764.07
722.331	9727.91
722.674	9743.73
723.016	9676.61
723.359	9668.93
723.701	9755.03
724.044	9594.35
724.386	9524.75
724.729	9700.34
725.071	9593.9
725.413	9610.4
725.755	9565.88
726.097	9554.35
726.439	9579.44
726.782	9505.54
727.124	9515.48
727.465	9496.5
727.807	9529.72
728.149	9408.59
728.491	9404.07
728.833	9515.03
729.175	9474.13
729.516	9336.28
729.858	9400.23
730.199	9374.25
730.541	9355.04
730.882	9346
731.224	9385.09
731.565	9380.12
731.906	9295.6
732.248	9292.44
732.589	9206.11
732.93	9257.86
733.271	9258.77
733.612	9272.78
733.953	9247.02
734.294	9217.19
734.635	9211.54
734.976	9212.22
735.317	9181.48
735.658	9138.55
735.999	9108.72
736.339	9146.68
736.68	9174.48
737.021	9126.12
737.361	9057.87
737.702	9121.6
738.042	9155.72
738.383	9105.78
738.723	9115.72
739.063	9001.6
739.404	9031.88
739.744	9040.69
740.084	9037.08
740.424	9007.93
740.764	9003.41
741.104	9012.9
741.444	8935.39
741.784	8920.02
742.124	8897.2
742.464	8865.33
742.804	8858.1
743.143	8889.96
743.483	8851.77
743.823	8837.76
744.162	8811.77
744.502	8847.48
744.841	8792.34
745.181	8818.33
745.52	8709.18
745.86	8767.26
746.199	8803.41
746.538	8736.52
746.877	8787.37
747.216	8710.76
747.556	8709.18
747.895	8740.14
748.234	8620.59
748.573	8567.71
748.911	8606.58
749.25	8631.89
749.589	8510.54
749.928	8603.64
750.267	8613.14
750.605	8605
750.944	8590.08
751.283	8518.22
751.621	8554.38
751.96	8502.18
752.298	8509.41
752.636	8487.71
752.975	8482.52
753.313	8443.42
753.651	8480.26
753.989	8371.11
754.327	8353.03
754.666	8327.04
755.004	8336.76
755.342	8394.61
755.679	8303.31
756.017	8290.88
756.355	8270.32
756.693	8252.47
757.031	8316.87
757.368	8249.08
757.706	8205.24
758.044	8162.98
758.381	8224.9
758.719	8138.12
759.056	8152.13
759.394	8070.55
759.731	8075.07
760.068	8045.69
760.405	8015.86
760.743	7996.2
761.08	8003.21
761.417	7914.17
761.754	7899.48
762.091	7924.34
762.428	7871.91
762.765	7816.77
763.102	7812.03
763.438	7822.42
763.775	7833.49
764.112	7828.3
764.449	7767.28
764.785	7711.92
765.122	7679.6
765.458	7687.74
765.795	7655.65
766.131	7577.46
766.467	7657.23
766.804	7585.59
767.14	7538.59
767.476	7514.18
767.812	7517.12
768.148	7464.46
768.485	7508.98
768.821	7447.06
769.157	7455.65
769.492	7415.65
769.828	7374.52
770.164	7314.64
770.5	7324.36
770.836	7360.96
771.171	7273.06
771.507	7270.8
771.842	7201.65
772.178	7200.29
772.513	7229.22
772.849	7197.58
773.184	7197.35
773.519	7115.77
773.855	7164.81
774.19	7003.69
774.525	7049.79
774.86	7093.85
775.195	6979.96
775.53	7044.36
775.865	6969.11
776.2	6857.25
776.535	6872.39
776.87	6855.67
777.205	6877.36
777.539	6832.84
777.874	6813.41
778.209	6772.73
778.543	6734.31
778.878	6680.3
779.212	6673.98
779.547	6671.94
779.881	6637.59
780.215	6632.62
780.55	6644.15
780.884	6564.38
781.218	6542
781.552	6620.19
781.886	6539.52
782.22	6507.43
782.554	6504.49
782.888	6423.81
783.222	6420.2
783.556	6346.75
783.889	6345.85
784.223	6318.96
784.557	6305.63
784.89	6311.05
785.224	6293.42
785.557	6256.36
785.891	6262.46
786.224	6292.97
786.558	6220.2
786.891	6194.67
787.224	6161.9
787.557	6140.66
787.891	6153.31
788.224	6143.14
788.557	6116.7
788.89	6056.37
789.223	6097.95
789.556	6046.65
789.888	6005.75
790.221	6006.65
790.554	5950.61
790.887	5958.29
791.219	5917.39
791.552	5918.52
791.884	5861.12
792.217	5876.94
792.549	5856.82
792.882	5770.72
793.214	5781.8
793.546	5792.87
793.879	5781.12
794.211	5748.58
794.543	5770.27
794.875	5694.34
795.207	5735.24
795.539	5651.63
795.871	5714.23
796.203	5656.6
796.535	5650.95
796.867	5574.12
797.198	5582.71
797.53	5563.72
797.862	5563.05
798.193	5541.13
798.525	5585.19
798.856	5613.89
799.188	5488.7
799.519	5456.38
799.85	5467.68
800.182	5448.92
800.513	5435.59
800.844	5374.12
801.175	5384.29
801.506	5433.33
801.837	5388.36
802.168	5334.13
802.499	5364.18
802.83	5288.7
803.161	5331.41
803.491	5300.68
803.822	5272.88
804.153	5262.26
804.483	5207.8
804.814	5239.66
805.145	5183.39
805.475	5203.96
805.805	5181.59
806.136	5165.77
806.466	5181.36
806.796	5142.94
807.126	5128.71
807.457	5126.22
807.787	5130.74
808.117	5118.09
808.447	5089.61
808.777	5127.58
809.107	5065.88
809.436	5052.55
809.766	5033.12
810.096	5037.86
810.426	5016.85
810.755	5020.69
811.085	4994.25
811.414	4948.15
811.744	4923.06
812.073	4937.07
812.403	4904.53
812.732	4967.81
813.061	4900.92
813.39	4901.59
813.719	4849.17
814.049	4909.5
814.378	4903.85
814.707	4859.56
815.036	4854.59
815.365	4839.45
815.693	4793.57
816.022	4760.13
816.351	4795.16
816.68	4721.71
817.008	4785.44
817.337	4754.71
817.665	4679.68
817.994	4763.52
818.322	4730.53
818.651	4711.77
818.979	4731.66
819.307	4722.84
819.636	4674.48
819.964	4672.45
820.292	4680.58
820.62	4643.75
820.948	4674.03
821.276	4700.02
821.604	4700.92
821.932	4657.08
822.259	4638.32
822.587	4679.45
822.915	4677.87
823.243	4673.8
823.57	4625.9
823.898	4602.39
824.225	4624.54
824.553	4588.61
824.88	4627.7
825.207	4636.52
825.535	4613.47
825.862	4666.12
826.189	4632.45
826.516	4657.98
826.843	4620.25
827.17	4643.52
827.497	4674.93
827.824	4603.3
828.151	4621.15
828.478	4629.51
828.805	4599
829.131	4636.06
829.458	4635.16
829.785	4590.42
830.111	4580.7
830.438	4628.38
830.764	4603.07
831.09	4638.1
831.417	4611.43
831.743	4626.12
832.069	4640.81
832.395	4634.71
832.722	4628.16
833.048	4576.18
833.374	4610.98
833.7	4575.05
834.026	4568.72
834.351	4590.87
834.677	4576.86
835.003	4601.26
835.329	4583.64
835.654	4617.08
835.98	4567.37
836.306	4554.94
836.631	4539.34
836.956	4521.04
837.282	4516.75
837.607	4568.5
837.932	4558.55
838.258	4479.46
838.583	4469.74
838.908	4480.81
839.233	4497.09
839.558	4507.71
839.883	4539.34
840.208	4431.55
840.533	4490.08
840.858	4453.02
841.182	4472.9
841.507	4464.77
841.832	4431.1
842.156	4461.38
842.481	4407.14
842.805	4422.51
843.13	4446.92
843.454	4397.43
843.778	4345.22
844.103	4364.89
844.427	4379.35
844.751	4376.18
845.075	4323.53
845.399	4276.75
845.723	4339.12
846.047	4319.46
846.371	4282.4
846.695	4314.49
847.019	4228.39
847.343	4235.4
847.666	4232.23
847.99	4187.04
848.313	4202.63
848.637	4171.22
848.96	4174.61
849.284	4159.24
849.607	4136.19
849.931	4135.51
850.254	4154.95
850.577	4084.67
850.9	4062.75
851.223	4044.89
851.546	4050.54
851.869	3974.84
852.192	4067.04
852.515	3984.1
852.838	3984.1
853.161	3984.1
853.483	3955.86
853.806	3958.12
854.129	3917.89
854.451	3899.13
854.774	3891.45
855.096	3871.34
855.419	3879.02
855.741	3881.51
856.063	3864.11
856.385	3833.6
856.708	3818.46
857.03	3803.09
857.352	3821.62
857.674	3830.89
857.996	3813.71
858.318	3755.64
858.64	3768.74
858.961	3762.87
859.283	3753.15
859.605	3767.61
859.926	3705.47
860.248	3752.47
860.57	3699.14
860.891	3712.25
861.212	3727.61
861.534	3691
861.855	3699.14
862.176	3677.22
862.498	3665.24
862.819	3669.99
863.14	3689.42
863.461	3654.85
863.782	3697.78
864.103	3646.94
864.424	3662.53
864.745	3633.61
865.065	3638.12
865.386	3617.11
865.707	3618.24
866.027	3614.62
866.348	3609.65
866.668	3620.05
866.989	3624.79
867.309	3607.39
867.63	3599.26
867.95	3598.13
868.27	3588.63
868.59	3612.59
868.91	3552.48
869.23	3548.64
869.55	3527.17
869.87	3606.49
870.19	3541.63
870.51	3559.26
870.83	3534.17
871.15	3541.18
871.469	3524.91
871.789	3520.39
872.109	3504.34
872.428	3450.11
872.748	3467.51
873.067	3504.12
873.386	3496.21
873.706	3482.87
874.025	3487.62
874.344	3467.51
874.663	3463.89
874.982	3459.82
875.301	3466.38
875.62	3428.41
875.939	3423.67
876.258	3419.83
876.577	3434.51
876.896	3449.66
877.214	3434.29
877.533	3415.98
877.852	3411.46
878.17	3409.66
878.489	3396.1
878.807	3412.14
879.125	3404.91
879.444	3408.53
879.762	3402.88
880.08	3368.3
880.398	3379.83
880.716	3397.91
881.034	3350.22
881.352	3350.67
881.67	3346.38
881.988	3380.96
882.306	3349.77
882.624	3296.44
882.941	3309.32
883.259	3318.36
883.577	3286.04
883.894	3306.83
884.212	3302.54
884.529	3279.94
884.846	3279.26
885.164	3271.13
885.481	3297.57
885.798	3270.68
886.115	3258.02
886.432	3262.09
886.75	3229.1
887.067	3217.12
887.383	3248.08
887.7	3204.46
888.017	3189.55
888.334	3203.79
888.651	3181.87
888.967	3182.32
889.284	3202.2
889.6	3188.42
889.917	3192.03
890.233	3148.65
890.55	3185.48
890.866	3138.25
891.182	3141.64
891.498	3115.2
891.815	3097.35
892.131	3098.03
892.447	3091.47
892.763	3081.98
893.079	3105.94
893.395	3048.76
893.71	3066.61
894.026	3034.75
894.342	3028.65
894.657	3001.31
894.973	3007.86
895.289	3034.07
895.604	3030.91
895.92	3007.41
896.235	2988.2
896.55	2958.82
896.865	2977.8
897.181	2953.4
897.496	2962.89
897.811	2976.67
898.126	2894.64
898.441	2915.43
898.756	2954.75
899.071	2904.13
899.386	2944.81
899.7	2928.31
900.015	2837.69
900.33	2866.62
900.644	2867.75
900.959	2842.67
901.273	2817.36
901.588	2825.04
901.902	2828.65
902.216	2798.6
902.531	2785.72
902.845	2799.95
903.159	2787.53
903.473	2811.03
903.787	2811.03
904.101	2780.07
904.415	2768.77
904.729	2762.67
905.042	2736.68
905.356	2704.14
905.67	2726.51
905.984	2711.82
906.297	2750.69
906.611	2701.65
906.924	2668.43
907.237	2667.53
907.551	2657.13
907.864	2650.35
908.177	2625.5
908.491	2669.56
908.804	2636.34
909.117	2612.16
909.43	2644.48
909.743	2632.95
910.056	2573.75
910.368	2572.16
910.681	2551.6
910.994	2558.83
911.307	2586.4
911.619	2562.22
911.932	2567.19
912.244	2531.49
912.557	2536.91
912.869	2505.27
913.181	2501.66
913.494	2510.24
913.806	2487.19
914.118	2460.08
914.43	2433.18
914.742	2491.26
915.054	2455.56
915.366	2419.17
915.678	2474.99
915.99	2442.68
916.302	2382.11
916.613	2376.24
916.925	2400.42
917.236	2409.91
917.548	2385.05
917.859	2375.56
918.171	2361.77
918.482	2346.86
918.794	2332.4
919.105	2351.83
919.416	2291.95
919.727	2300.08
920.038	2313.64
920.349	2336.69
920.66	2287.88
920.971	2296.01
921.282	2279.97
921.593	2277.93
921.903	2234.09
922.214	2246.75
922.525	2249.01
922.835	2252.85
923.146	2216.92
923.456	2242.46
923.767	2241.55
924.077	2195
924.387	2218.5
924.697	2218.28
925.008	2195.45
925.318	2172.85
925.628	2157.94
925.938	2166.3
926.248	2136.24
926.558	2115.9
926.867	2134.89
927.177	2117.03
927.487	2145.51
927.796	2085.4
928.106	2102.8
928.416	2084.95
928.725	2096.24
929.034	2080.2
929.344	2059.18
929.653	2077.04
929.962	2046.53
930.271	2063.93
930.581	2033.42
930.89	2026.42
931.199	2032.07
931.508	2006.08
931.817	2040.2
932.125	2013.08
932.434	2007.89
932.743	1998.85
933.051	1980.54
933.36	1949.36
933.669	1924.72
933.977	1962.69
934.286	1947.77
934.594	1959.07
934.902	1918.85
935.21	1905.06
935.519	1905.97
935.827	1912.29
936.135	1905.97
936.443	1896.7
936.751	1912.52
937.059	1887.66
937.367	1868.68
937.674	1875.46
937.982	1840.21
938.29	1834.78
938.597	1856.48
938.905	1847.21
939.213	1849.92
939.52	1817.16
939.827	1824.16
940.135	1841.11
940.442	1801.56
940.749	1816.25
941.056	1804.95
941.363	1792.07
941.67	1765.41
941.977	1770.6
942.284	1752.98
942.591	1746.2
942.898	1760.89
943.205	1752.52
943.511	1740.77
943.818	1743.94
944.125	1697.16
944.431	1718.85
944.738	1753.65
945.044	1728.34
945.35	1687.22
945.657	1702.36
945.963	1689.7
946.269	1666.88
946.575	1700.32
946.881	1677.05
947.187	1657.16
947.493	1655.35
947.799	1652.41
948.105	1637.5
948.41	1624.62
948.716	1615.8
949.022	1638.18
949.327	1627.78
949.633	1606.99
949.938	1621.68
950.244	1603.15
950.549	1629.59
950.854	1604.73
951.16	1598.86
951.465	1595.24
951.77	1572.87
952.075	1577.39
952.38	1565.86
952.685	1587.56
952.99	1554.79
953.294	1584.85
953.599	1533.55
953.904	1559.08
954.209	1496.71
954.513	1541.46
954.818	1517.5
955.122	1490.61
955.426	1491.97
955.731	1493.1
956.035	1512.3
956.339	1489.48
956.643	1503.49
956.948	1483.61
957.252	1463.94
957.556	1475.92
957.86	1468.69
958.163	1430.05
958.467	1489.03
958.771	1450.16
959.075	1460.33
959.378	1444.74
959.682	1418.3
959.985	1444.06
960.289	1414
960.592	1426.21
960.896	1402.03
961.199	1413.1
961.502	1406.09
961.805	1430.73
962.108	1410.84
962.411	1411.97
962.714	1392.99
963.017	1400.44
963.32	1383.95
963.623	1392.76
963.926	1368.35
964.228	1366.32
964.531	1353.21
964.833	1350.5
965.136	1355.47
965.438	1365.42
965.741	1360.9
966.043	1313.89
966.345	1329.94
966.648	1340.11
966.95	1313.89
967.252	1305.53
967.554	1302.59
967.856	1285.42
968.158	1287
968.46	1291.52
968.761	1288.58
969.063	1261.01
969.365	1246.32
969.666	1294.01
969.968	1259.66
970.269	1244.52
970.571	1256.49
970.872	1261.92
971.174	1267.57
971.475	1259.43
971.776	1222.59
972.077	1231.63
972.378	1234.8
972.679	1236.15
972.98	1230.5
973.281	1234.8
973.582	1224.4
973.883	1232.54
974.183	1208.13
974.484	1214.46
974.785	1232.99
975.085	1202.93
975.386	1194.57
975.686	1217.4
975.986	1178.3
976.287	1190.96
976.587	1180.11
976.887	1180.11
977.187	1195.48
977.487	1164.29
977.787	1172.43
978.087	1142.82
978.387	1159.77
978.687	1159.55
978.987	1147.34
979.286	1139.89
979.586	1157.29
979.885	1158.87
980.185	1129.94
980.484	1105.76
980.784	1141.24
981.083	1098.76
981.382	1112.77
981.682	1105.31
981.981	1109.6
982.28	1089.04
982.579	1108.02
982.878	1092.43
983.177	1108.93
983.475	1099.66
983.774	1090.17
984.073	1070.73
984.372	1083.84
984.67	1083.62
984.969	1074.35
985.267	1072.32
985.566	1079.77
985.864	1054.01
986.162	1054.01
986.461	1063.28
986.759	1050.85
987.057	1041.81
987.355	1057.18
987.653	1025.54
987.951	1043.39
988.249	1043.39
988.547	1037.29
988.844	1018.08
989.142	1035.03
989.44	1025.54
989.737	998.87
990.035	988.25
990.332	980.79
990.63	972.43
990.927	1008.82
991.224	992.32
991.521	981.7
991.819	981.47
992.116	1000.91
992.413	982.15
992.71	975.14
993.006	985.09
993.303	969.95
993.6	963.17
993.897	981.47
994.193	956.39
994.49	966.1
994.787	957.52
995.083	950.06
995.379	931.98
995.676	949.38
995.972	927.46
996.268	939.89
996.565	924.07
996.861	922.04
997.157	940.79
997.453	923.17
997.749	921.36
998.044	923.17
998.34	924.98
998.636	912.55
998.932	913.45
999.227	907.12
999.523	888.59
999.818	876.39
1000.114	894.24
1000.409	879.55
1000.704	880.01
1001	866.22
1001.295	881.36
1001.59	902.6
1001.885	881.14
1002.18	875.03
1002.475	889.5
1002.77	860.8
1003.065	837.97
1003.359	847.01
1003.654	837.52
1003.949	845.2
1004.243	849.5
1004.538	845.2
1004.832	819.44
1005.127	831.87
1005.421	829.61
1005.715	809.27
1006.009	827.58
1006.304	825.32
1006.598	821.48
1006.892	794.58
1007.186	803.62
1007.48	808.59
1007.773	788.26
1008.067	791.42
1008.361	799.1
1008.655	788.71
1008.948	789.16
1009.242	786.45
1009.535	782.38
1009.829	762.49
1010.122	752.78
1010.415	769.27
1010.708	735.6
1011.001	775.6
1011.295	760.23
1011.588	746.22
1011.881	760.01
1012.173	771.76
1012.466	722.5
1012.759	733.79
1013.052	764.3
1013.344	754.36
1013.637	732.66
1013.93	736.51
1014.222	741.25
1014.514	736.28
1014.807	749.84
1015.099	743.06
1015.391	720.46
1015.683	738.54
1015.976	709.61
1016.268	711.42
1016.56	704.87
1016.851	713.68
1017.143	687.69
1017.435	699.9
1017.727	713.68
1018.018	673.23
1018.31	689.95
1018.602	694.93
1018.893	679.56
1019.185	686.11
1019.476	689.5
1019.767	677.75
1020.058	650.63
1020.35	681.82
1020.641	658.54
1020.932	659.9
1021.223	669.16
1021.514	651.76
1021.804	657.19
1022.095	653.12
1022.386	646.79
1022.677	661.25
1022.967	637.07
1023.258	618.32
1023.548	626.68
1023.839	627.81
1024.129	633.23
1024.419	620.12
1024.709	629.16
1025	636.62
1025.29	625.55
1025.58	626.68
1025.87	611.99
1026.16	616.96
1026.449	625.77
1026.739	616.96
1027.029	599.11
1027.319	604.53
1027.608	620.12
1027.898	604.31
1028.187	588.94
1028.477	601.37
1028.766	590.3
1029.055	593.91
1029.344	609.5
1029.634	596.17
1029.923	592.33
1030.212	585.1
1030.501	580.35
1030.79	579.67
1031.078	575.83
1031.367	573.8
1031.656	573.57
1031.945	570.63
1032.233	586.91
1032.522	571.31
1032.81	550.97
1033.099	563.63
1033.387	542.61
1033.675	574.48
1033.963	558.21
1034.251	547.13
1034.54	547.13
1034.828	543.52
1035.116	512.56
1035.403	511.2
1035.691	533.8
1035.979	528.83
1036.267	533.12
1036.554	529.28
1036.842	541.48
1037.129	541.48
1037.417	524.99
1037.704	543.06
1037.992	512.33
1038.279	545.32
1038.566	520.24
1038.853	520.24
1039.14	520.24
