Data from black_metal_pc_casing_FLMS001491_00073.txt Node
Date: Wed Feb 08 14:33:28 GMT 2017
User: dcchb
Spectrometer: FLMS00149
Trigger mode: 0
Integration Time (sec): 2.000000E-2
Scans to average: 10
Electric dark correction enabled: true
Nonlinearity correction enabled: false
Boxcar width: 0
XAxis mode: Wavelengths
Number of Pixels in Spectrum: 2048
>>>>>Begin Spectral Data<<<<<
341.393	0.48
341.776	0.48
342.16	0.48
342.543	-48.56
342.927	-71.83
343.31	-67.77
343.693	-75.9
344.077	-64.38
344.46	-53.98
344.843	-55.34
345.226	-50.14
345.61	-39.74
345.993	-27.77
346.376	18.11
346.759	7.71
347.142	18.33
347.525	56.75
347.908	24.43
348.291	93.59
348.674	107.37
349.057	108.73
349.44	122.06
349.823	133.58
350.206	150.76
350.588	192.57
350.971	207.03
351.354	223.3
351.737	216.75
352.119	258.55
352.502	237.76
352.884	279.34
353.267	289.74
353.65	309.17
354.032	293.81
354.414	285.44
354.797	303.52
355.179	295.39
355.562	306.23
355.944	309.17
356.326	324.77
356.709	334.48
357.091	303.52
357.473	339.45
357.855	335.61
358.238	338.78
358.62	333.8
359.002	346.01
359.384	346.69
359.766	331.32
360.148	324.09
360.53	335.61
360.912	331.54
361.294	353.92
361.676	332.9
362.057	325.22
362.439	318.89
362.821	334.93
363.203	331.77
363.584	326.35
363.966	322.51
364.348	307.82
364.729	342.39
365.111	319.57
365.493	324.54
365.874	316.4
366.256	317.76
366.637	320.7
367.019	323.64
367.4	327.48
367.781	309.62
368.163	314.6
368.544	311.43
368.925	301.94
369.306	323.18
369.688	299
370.069	306.69
370.45	302.17
370.831	308.72
371.212	308.27
371.593	314.6
371.974	303.3
372.355	319.57
372.736	332
373.117	323.64
373.498	301.49
373.879	325.22
374.26	334.48
374.641	334.71
375.021	304.2
375.402	317.53
375.783	339.91
376.163	367.02
376.544	341.04
376.925	335.39
377.305	341.94
377.686	330.19
378.066	348.49
378.447	330.42
378.827	350.75
379.208	356.18
379.588	342.62
379.968	360.24
380.349	366.35
380.729	341.49
381.109	353.47
381.489	357.31
381.87	352.34
382.25	353.24
382.63	330.19
383.01	361.15
383.39	367.93
383.77	362.5
384.15	366.12
384.53	379
384.91	387.14
385.29	368.61
385.67	364.76
386.049	379.45
386.429	359.11
386.809	378.32
387.189	376.97
387.568	383.97
387.948	347.82
388.328	364.09
388.707	395.5
389.087	381.49
389.466	404.76
389.846	379
390.225	389.4
390.605	403.63
390.984	395.27
391.363	398.66
391.743	385.55
392.122	397.76
392.501	414.71
392.881	395.05
393.26	417.64
393.639	386.46
394.018	416.29
394.397	420.13
394.776	410.64
395.155	403.41
395.534	417.64
395.913	413.35
396.292	437.08
396.671	438.43
397.05	444.31
397.429	413.12
397.808	433.69
398.186	447.47
398.565	423.97
398.944	432.11
399.323	449.51
399.701	435.72
400.08	466.23
400.458	481.82
400.837	447.47
401.215	474.37
401.594	467.13
401.972	442.5
402.351	464.42
402.729	473.69
403.107	462.39
403.486	454.71
403.864	481.82
404.242	478.89
404.62	465.1
404.999	477.53
405.377	483.18
405.755	480.69
406.133	475.5
406.511	483.86
406.889	488.38
407.267	489.51
407.645	500.81
408.023	506.91
408.401	522.5
408.779	507.13
409.156	498.77
409.534	539
409.912	532.44
410.29	531.31
410.667	524.53
411.045	523.86
411.422	529.05
411.8	526.57
412.178	565.21
412.555	551.43
412.933	553.46
413.31	578.54
413.687	563.18
414.065	571.76
414.442	588.49
414.819	568.15
415.197	577.87
415.574	611.76
415.951	602.5
416.328	592.78
416.705	604.53
417.082	609.05
417.46	612.67
417.837	615.61
418.214	601.82
418.591	599.56
418.967	614.48
419.344	629.39
419.721	625.32
420.098	627.36
420.475	659.9
420.852	648.6
421.228	644.98
421.605	655.38
421.982	667.36
422.358	673.46
422.735	679.56
423.111	698.54
423.488	669.39
423.864	691.54
424.241	686.79
424.617	710.29
424.994	716.62
425.37	683.85
425.746	698.99
426.123	708.26
426.499	686.34
426.875	718.43
427.251	730.86
427.627	751.87
428.003	768.14
428.379	762.49
428.756	753
429.132	779.67
429.507	784.87
429.883	773.57
430.259	803.62
430.635	806.56
431.011	796.84
431.387	839.1
431.763	802.49
432.138	824.41
432.514	830.51
432.89	832.1
433.265	851.53
433.641	869.61
434.016	867.58
434.392	876.84
434.767	880.91
435.143	892.89
435.518	913.68
435.894	923.62
436.269	899.67
436.644	928.59
437.02	954.13
437.395	922.94
437.77	936.05
438.145	956.39
438.52	969.72
438.895	976.95
439.271	969.04
439.646	989.38
440.021	997.29
440.395	1007.23
440.77	996.84
441.145	1001.58
441.52	1029.38
441.895	1018.31
442.27	1017.4
442.645	1019.89
443.019	1064.18
443.394	1033
443.769	1059.89
444.143	1044.07
444.518	1058.76
444.892	1060.57
445.267	1052.66
445.641	1077.97
446.016	1058.53
446.39	1080
446.764	1092.43
447.139	1095.14
447.513	1093.11
447.887	1130.85
448.262	1138.76
448.636	1126.33
449.01	1134.91
449.384	1125.42
449.758	1159.55
450.132	1166.1
450.506	1150.05
450.88	1164.97
451.254	1189.6
451.628	1209.04
452.002	1209.04
452.376	1220.34
452.75	1227.79
453.123	1237.96
453.497	1242.26
453.871	1238.41
454.244	1280.9
454.618	1309.37
454.992	1271.18
455.365	1302.82
455.739	1312.76
456.112	1309.15
456.486	1334.68
456.859	1345.08
457.232	1372.87
457.606	1374.46
457.979	1376.72
458.352	1439.76
458.725	1399.77
459.099	1431.18
459.472	1467.79
459.845	1476.6
460.218	1466.2
460.591	1493.1
460.964	1506.88
461.337	1541.46
461.71	1554.79
462.083	1560.67
462.456	1588.01
462.829	1580.1
463.201	1594.56
463.574	1646.99
463.947	1626.2
464.32	1649.48
464.692	1689.02
465.065	1656.03
465.438	1716.37
465.81	1722.24
466.183	1738.97
466.555	1779.19
466.928	1806.31
467.3	1743.26
467.672	1801.79
468.045	1837.49
468.417	1837.72
468.789	1867.78
469.161	1905.74
469.534	1857.61
469.906	1944.38
470.278	1947.32
470.65	1986.64
471.022	2003.37
471.394	2038.17
471.766	2060.09
472.138	2097.83
472.51	2113.42
472.882	2164.27
473.253	2186.41
473.625	2202.68
473.997	2253.53
474.369	2255.34
474.74	2253.3
475.112	2283.13
475.484	2353.41
475.855	2390.25
476.227	2416.46
476.598	2483.35
476.97	2478.38
477.341	2488.78
477.713	2569.23
478.084	2553.63
478.455	2634.31
478.827	2639.51
479.198	2711.37
479.569	2712.5
479.94	2805.38
480.311	2821.87
480.682	2903.91
481.053	2930.57
481.424	2964.7
481.795	2997.01
482.166	3060.74
482.537	3102.32
482.908	3112.49
483.279	3186.84
483.65	3239.04
484.021	3283.78
484.391	3383.67
484.762	3326.04
485.133	3357
485.503	3446.94
485.874	3519.71
486.244	3509.99
486.615	3616.88
486.985	3602.65
487.356	3686.03
487.726	3696.43
488.097	3783.66
488.467	3788.86
488.837	3811.91
489.207	3907.04
489.578	3954.5
489.948	3999.25
490.318	4046.25
490.688	4064.1
491.058	4096.64
491.428	4148.85
491.798	4224.55
492.168	4291.21
492.538	4289.63
492.908	4333.93
493.278	4388.39
493.648	4404.21
494.017	4452.34
494.387	4516.07
494.757	4560.59
495.126	4622.73
495.496	4563.52
495.866	4671.77
496.235	4674.26
496.605	4728.04
496.974	4757.87
497.344	4781.6
497.713	4834.25
498.082	4854.14
498.452	4915.83
498.821	4964.42
499.19	4958.54
499.559	5002.61
499.928	5071.76
500.298	5148.37
500.667	5070.63
501.036	5132.32
501.405	5165.77
501.774	5235.6
502.143	5238.53
502.512	5213.45
502.88	5351.07
503.249	5337.97
503.618	5339.77
503.987	5327.12
504.356	5428.36
504.724	5455.03
505.093	5467.91
505.462	5491.41
505.83	5614.12
506.199	5630.39
506.567	5644.85
506.936	5663.83
507.304	5737.05
507.672	5751.52
508.041	5784.28
508.409	5815.69
508.777	5798.75
509.145	5919.19
509.514	5950.15
509.882	5940.44
510.25	5898.4
510.618	6036.03
510.986	6057.72
511.354	6097.27
511.722	6204.61
512.09	6233.31
512.458	6224.72
512.826	6269.02
513.193	6315.34
513.561	6338.39
513.929	6399.63
514.297	6473.98
514.664	6503.81
515.032	6479.63
515.4	6582.68
515.767	6580.42
516.135	6589.69
516.502	6637.82
516.869	6734.77
517.237	6762.34
517.604	6770.92
517.972	6913.74
518.339	6921.2
518.706	6914.42
519.073	6960.3
519.44	6990.8
519.808	7047.75
520.175	7083.68
520.542	7163.91
520.909	7260.85
521.276	7179.05
521.643	7353.06
522.009	7340.17
522.376	7418.36
522.743	7480.28
523.11	7550.34
523.477	7609.77
523.843	7638.25
524.21	7698.81
524.577	7775.42
524.943	7815.42
525.31	7892.93
525.676	8016.54
526.043	8023.55
526.409	8095.63
526.776	8153.03
527.142	8149.19
527.508	8212.02
527.874	8290.21
528.241	8347.15
528.607	8359.36
528.973	8424.21
529.339	8398.23
529.705	8508.73
530.071	8579.24
530.437	8605
530.803	8638.9
531.169	8725.9
531.535	8642.06
531.901	8773.58
532.267	8763.64
532.632	8882.51
532.998	8886.8
533.364	8915.05
533.73	9016.74
534.095	9041.6
534.461	9102.61
534.826	9189.62
535.192	9255.6
535.557	9307.35
535.923	9292.89
536.288	9265.55
536.653	9380.8
537.019	9357.97
537.384	9347.35
537.749	9420.8
538.114	9463.96
538.479	9469.16
538.845	9554.81
539.21	9589.83
539.575	9564.3
539.94	9633
540.305	9708.7
540.67	9650.62
541.034	9674.35
541.399	9796.15
541.764	9841.35
542.129	9799.54
542.494	9886.1
542.858	9879.99
543.223	9921.12
543.587	10059.65
543.952	9975.36
544.316	10013.1
544.681	9980.78
545.045	10111.63
545.41	10110.27
545.774	10139.42
546.138	10278.18
546.503	10272.75
546.867	10220.78
547.231	10362.69
547.595	10395.69
547.959	10359.76
548.324	10358.85
548.688	10444.73
549.052	10389.36
549.416	10475.23
549.779	10517.04
550.143	10492.63
550.507	10602.01
550.871	10627.09
551.235	10608.79
551.599	10769.24
551.962	10750.71
552.326	10845.39
552.689	10894.66
553.053	10840.87
553.417	10894.43
553.78	11048.1
554.143	10958.38
554.507	10984.6
554.87	11028.66
555.234	11225.27
555.597	11160.64
555.96	11201.09
556.323	11177.14
556.686	11270.69
557.05	11356.11
557.413	11346.62
557.776	11423.23
558.139	11447.41
558.502	11507.52
558.865	11488.54
559.228	11657.35
559.59	11624.81
559.953	11593.85
560.316	11756.56
560.679	11718.59
561.041	11945.02
561.404	11933.73
561.767	11979.83
562.129	11919.04
562.492	12072.03
562.854	12045.14
563.217	12117.22
563.579	12118.13
563.941	12217.11
564.304	12301.63
564.666	12357.22
565.028	12381.85
565.39	12452.81
565.753	12561.05
566.115	12536.87
566.477	12611.45
566.839	12715.17
567.201	12758.56
567.563	12767.15
567.925	12852.35
568.287	12839.46
568.648	12817.32
569.01	12969.4
569.372	13014.6
569.734	13055.28
570.095	13088.05
570.457	13097.76
570.819	13049.18
571.18	13116.97
571.542	13278.55
571.903	13308.6
572.265	13260.92
572.626	13379.34
572.987	13384.54
573.349	13449.17
573.71	13546.11
574.071	13505.44
574.432	13548.37
574.794	13668.14
575.155	13642.61
575.516	13673.79
575.877	13703.62
576.238	13650.97
576.599	13723.74
576.96	13816.84
577.32	13828.37
577.681	13873.11
578.042	13948.14
578.403	13862.49
578.763	13886.22
579.124	13889.15
579.485	14030.62
579.845	13996.27
580.206	13944.07
580.566	13968.7
580.927	13980
581.287	14093.67
581.648	14060.45
582.008	14084.18
582.368	14016.83
582.728	14097.96
583.089	14136.61
583.449	14124.4
583.809	14102.26
584.169	14172.76
584.529	14107.23
584.889	14198.07
585.249	14177.28
585.609	14038.53
585.969	14233.78
586.329	14103.61
586.688	14135.93
587.048	14148.36
587.408	14204.17
587.768	14182.71
588.127	14139.32
588.487	14145.87
588.846	14257.05
589.206	14187.9
589.565	14144.97
589.925	14172.31
590.284	14222.25
590.643	14242.14
591.003	14276.94
591.362	14179.77
591.721	14187.23
592.08	14271.07
592.44	14288.24
592.799	14287.34
593.158	14194.68
593.517	14328.47
593.876	14267.45
594.235	14185.64
594.593	14178.19
594.952	14287.79
595.311	14257.73
595.67	14242.82
596.029	14340.67
596.387	14412.98
596.746	14421.34
597.104	14329.59
597.463	14271.52
597.822	14413.21
598.18	14357.84
598.538	14379.54
598.897	14400.55
599.255	14294.57
599.613	14563.26
599.972	14424.73
600.33	14457.73
600.688	14409.59
601.046	14545.86
601.404	14565.29
601.762	14461.79
602.12	14473.55
602.478	14615.24
602.836	14570.27
603.194	14533.88
603.552	14502.47
603.91	14466.77
604.268	14534.34
604.625	14554.9
604.983	14612.53
605.341	14581.11
605.698	14644.84
606.056	14729.13
606.413	14631.28
606.771	14695.46
607.128	14692.75
607.485	14571.85
607.843	14692.52
608.2	14811.16
608.557	14771.84
608.914	14717.61
609.272	14836.47
609.629	14760.77
609.986	14832.86
610.343	14772.07
610.7	14925.51
611.057	14871.5
611.414	14826.76
611.771	14814.33
612.127	14961.67
612.484	14878.06
612.841	15000.76
613.198	15007.09
613.554	14901.11
613.911	14964.83
614.267	15000.09
614.624	14954.89
614.98	15111.04
615.337	15125.05
615.693	15063.14
616.05	15103.59
616.406	15124.15
616.762	15132.74
617.118	15065.17
617.475	15084.83
617.831	15171.38
618.187	15117.37
618.543	15164.83
618.899	15246.63
619.255	15239.63
619.611	15162.79
619.967	15283.69
620.323	15318.04
620.678	15204.15
621.034	15176.13
621.39	15209.35
621.746	15202.34
622.101	15274.65
622.457	15208.44
622.812	15235.79
623.168	15284.15
623.523	15233.07
623.879	15356.91
624.234	15225.62
624.589	15324.6
624.945	15324.6
625.3	15347.2
625.655	15157.14
626.01	15230.36
626.365	15246.86
626.72	15271.04
627.075	15252.96
627.43	15256.58
627.785	15226.07
628.14	15277.37
628.495	15249.34
628.85	15255.9
629.205	15196.92
629.559	15284.82
629.914	15176.8
630.269	15186.75
630.623	15140.65
630.978	15067.43
631.332	15240.76
631.687	15226.97
632.041	15130.93
632.396	15110.14
632.75	15095.68
633.104	15072.4
633.459	15060.42
633.813	15110.14
634.167	15038.05
634.521	14955.34
634.875	15038.5
635.229	15102.91
635.583	14904.5
635.937	14935.91
636.291	14881.22
636.645	14932.29
636.999	14902.01
637.352	15009.35
637.706	14874.44
638.06	14902.69
638.413	14883.03
638.767	14786.31
639.121	14889.58
639.474	14742.47
639.828	14782.46
640.181	14810.26
640.534	14797.38
640.888	14772.52
641.241	14669.7
641.594	14723.93
641.947	14746.08
642.301	14661.34
642.654	14731.39
643.007	14663.15
643.36	14712.86
643.713	14633.09
644.066	14615.24
644.419	14523.94
644.771	14535.92
645.124	14246.43
645.477	14274.68
645.83	14142.93
646.182	14129.37
646.535	14034.24
646.888	14123.27
647.24	13942.49
647.593	14094.12
647.945	14111.75
648.298	14034.91
648.65	13876.5
649.002	13903.17
649.355	14016.83
649.707	13990.62
650.059	13962.15
650.411	14238.3
650.763	14238.75
651.115	14392.19
651.467	14284.85
651.819	14286.43
652.171	14304.51
652.523	14219.09
652.875	14168.02
653.227	14086.89
653.578	14276.26
653.93	14176.15
654.282	14111.07
654.633	14067
654.985	14121.24
655.337	14166.89
655.688	14119.43
656.039	14190.39
656.391	14111.3
656.742	14100
657.094	14005.31
657.445	14140.67
657.796	14142.93
658.147	14030.62
658.498	14014.35
658.849	14051.18
659.2	14045.08
659.551	13950.4
659.902	14050.51
660.253	13982.03
660.604	13991.3
660.955	13933.67
661.306	13982.49
661.656	13917.18
662.007	13950.85
662.358	13891.87
662.708	13902.04
663.059	13941.81
663.409	13845.77
663.76	13961.92
664.11	13923.96
664.461	13928.93
664.811	13902.04
665.161	13919.44
665.511	13829.95
665.862	13815.03
666.212	13902.04
666.562	13897.74
666.912	13822.26
667.262	13847.35
667.612	13772.32
667.962	13952.66
668.312	13879.89
668.662	13906.56
669.011	13923.05
669.361	13830.4
669.711	13801.47
670.06	13746.11
670.41	13756.95
670.76	13783.85
671.109	13874.69
671.459	13829.72
671.808	13762.38
672.157	13806.44
672.507	13665.21
672.856	13721.48
673.205	13765.32
673.554	13777.75
673.904	13714.02
674.253	13777.52
674.602	13706.11
674.951	13550.63
675.3	13452.78
675.649	13668.37
675.998	13616.62
676.346	13724.19
676.695	13643.96
677.044	13589.28
677.393	13626.79
677.741	13528.71
678.09	13578.43
678.438	13555.6
678.787	13515.61
679.135	13522.16
679.484	13431.99
679.832	13551.99
680.181	13433.12
680.529	13533.68
680.877	13484.65
681.225	13444.42
681.573	13473.12
681.922	13441.71
682.27	13348.38
682.618	13422.95
682.966	13348.83
683.314	13327.14
683.661	13362.16
684.009	13204.2
684.357	13283.97
684.705	13228.61
685.053	13236.29
685.4	13177.76
685.748	13102.28
686.095	13159.46
686.443	13125.78
686.79	13032.91
687.138	13145.9
687.485	13107.03
687.832	12932.8
688.18	13000.14
688.527	12989.29
688.874	12947.26
689.221	12909.75
689.568	12913.81
689.915	12897.77
690.262	12836.53
690.609	12857.09
690.956	12795.4
691.303	12778.45
691.65	12696.87
691.997	12605.8
692.344	12594.05
692.69	12578.91
693.037	12582.07
693.383	12484.22
693.73	12585.23
694.077	12480.38
694.423	12443.54
694.769	12469.53
695.116	12417.78
695.462	12323.32
695.808	12358.57
696.155	12365.35
696.501	12239.93
696.847	12274.28
697.193	12179.37
697.539	12257.79
697.885	12012.14
698.231	11993.39
698.577	12027.28
698.923	11978.92
699.269	11975.76
699.614	11913.84
699.96	11924.01
700.306	11937.57
700.651	11891.69
700.997	11883.33
701.342	11804.69
701.688	11712.94
702.033	11695.77
702.379	11687.18
702.724	11675.65
703.069	11679.5
703.415	11553.17
703.76	11550.68
704.105	11608.76
704.45	11573.06
704.795	11507.52
705.14	11456
705.485	11419.16
705.83	11431.14
706.175	11405.6
706.52	11433.85
706.865	11301.2
707.209	11334.19
707.554	11311.37
707.899	11342.1
708.243	11270.92
708.588	11282.67
708.932	11235.67
709.277	11150.47
709.621	11190.47
709.966	11106.85
710.31	11129.68
710.654	10966.75
710.998	11125.16
711.342	11032.51
711.687	11028.44
712.031	10957.25
712.375	10932.62
712.719	10945.96
713.063	10954.77
713.407	10983.47
713.75	10887.43
714.094	10918.16
714.438	10792.06
714.782	10850.59
715.125	10746.19
715.469	10770.82
715.812	10751.16
716.156	10688.11
716.499	10717.03
716.843	10656.02
717.186	10706.41
717.53	10669.35
717.873	10691.05
718.216	10644.95
718.559	10555.68
718.902	10531.95
719.246	10556.59
719.589	10565.63
719.932	10523.82
720.275	10479.75
720.617	10430.94
720.96	10461.22
721.303	10386.2
721.646	10406.76
721.989	10359.98
722.331	10427.78
722.674	10472.97
723.016	10371.96
723.359	10373.31
723.701	10384.84
724.044	10225.52
724.386	10265.52
724.729	10242.02
725.071	10300.77
725.413	10261.45
725.755	10235.92
726.097	10220.32
726.439	10084.96
726.782	10211.29
727.124	10237.27
727.465	10170.38
727.807	10139.65
728.149	10113.89
728.491	10086.09
728.833	10128.8
729.175	10039.99
729.516	10012.19
729.858	10029.37
730.199	9992.53
730.541	10025.08
730.882	10035.92
731.224	10001.35
731.565	9897.4
731.906	9949.15
732.248	9882.03
732.589	9868.24
732.93	9852.2
733.271	9875.93
733.612	9946.66
733.953	9860.56
734.294	9890.84
734.635	9761.13
734.976	9922.25
735.317	9842.03
735.658	9761.81
735.999	9834.8
736.339	9698.98
736.68	9853.78
737.021	9775.59
737.361	9739.21
737.702	9764.97
738.042	9687.01
738.383	9673.9
738.723	9647.68
739.063	9625.09
739.404	9587.8
739.744	9624.86
740.084	9607.01
740.424	9649.94
740.764	9542.38
741.104	9613.79
741.444	9587.12
741.784	9452.21
742.124	9522.49
742.464	9478.65
742.804	9505.99
743.143	9451.08
743.483	9437.52
743.823	9452.44
744.162	9387.8
744.502	9456.73
744.841	9388.93
745.181	9453.34
745.52	9370.86
745.86	9370.63
746.199	9390.52
746.538	9343.74
746.877	9359.33
747.216	9402.27
747.556	9303.06
747.895	9269.39
748.234	9340.35
748.573	9253.8
748.911	9313.91
749.25	9218.32
749.589	9183.29
749.928	9173.35
750.267	9168.83
750.605	9162.05
750.944	9164.31
751.283	9118.88
751.621	9093.8
751.96	9091.31
752.298	9023.97
752.636	9025.1
752.975	8991.66
753.313	9027.59
753.651	9013.8
753.989	8960.92
754.327	8926.57
754.666	8861.04
755.004	8893.13
755.342	8919.79
755.679	8899
756.017	8842.06
756.355	8852.22
756.693	8869.17
757.031	8853.35
757.368	8796.86
757.706	8720.25
758.044	8743.53
758.381	8741.27
758.719	8648.84
759.056	8665.79
759.394	8650.65
759.731	8574.49
760.068	8638.67
760.405	8571.55
760.743	8536.07
761.08	8569.07
761.417	8524.32
761.754	8473.93
762.091	8499.47
762.428	8438.45
762.765	8379.69
763.102	8454.72
763.438	8325.46
763.775	8308.51
764.112	8334.5
764.449	8369.3
764.785	8303.99
765.122	8238.46
765.458	8154.62
765.795	8223.77
766.131	8224.67
766.467	8214.73
766.804	8145.35
767.14	8142.64
767.476	8087.73
767.812	8061.96
768.148	8094.05
768.485	8023.09
768.821	7916.66
769.157	7885.47
769.492	7947.16
769.828	7925.02
770.164	7849.31
770.5	7730.22
770.836	7870.33
771.171	7739.94
771.507	7737.9
771.842	7737.9
772.178	7718.47
772.513	7666.27
772.849	7690
773.184	7657.68
773.519	7577.23
773.855	7514.63
774.19	7605.25
774.525	7522.99
774.86	7542.65
775.195	7473.28
775.53	7495.42
775.865	7389.44
776.2	7403.68
776.535	7328.65
776.87	7338.82
777.205	7333.17
777.539	7256.11
777.874	7268.76
778.209	7205.49
778.543	7186.96
778.878	7135.43
779.212	7179.73
779.547	7141.54
779.881	7124.36
780.215	7011.6
780.55	7047.98
780.884	7057.7
781.218	7019.28
781.552	7012.95
781.886	6902.67
782.22	6929.79
782.554	6892.28
782.888	6850.24
783.222	6815.44
783.556	6811.83
783.889	6768.89
784.223	6758.49
784.557	6792.39
784.89	6798.95
785.224	6654.09
785.557	6690.93
785.891	6642.79
786.224	6671.72
786.558	6687.08
786.891	6631.72
787.224	6531.38
787.557	6560.08
787.891	6533.42
788.224	6522.34
788.557	6493.64
788.89	6500.2
789.223	6488.67
789.556	6458.84
789.888	6395.57
790.221	6423.14
790.554	6363.93
790.887	6387.88
791.219	6319.64
791.552	6335
791.884	6289.81
792.217	6270.6
792.549	6299.3
792.882	6206.87
793.214	6209.58
793.546	6229.69
793.879	6166.65
794.211	6163.48
794.543	6096.14
794.875	6118.06
795.207	6155.8
795.539	6081.45
795.871	6071.06
796.203	6074.9
796.535	6006.2
796.867	5937.27
797.198	5953.77
797.53	5971.17
797.862	5860.44
798.193	5961.68
798.525	5891.62
798.856	5918.29
799.188	5859.54
799.519	5825.41
799.85	5803.49
800.182	5804.17
800.513	5806.2
800.844	5766.43
801.175	5732.53
801.506	5738.41
801.837	5753.1
802.168	5701.57
802.499	5727.11
802.83	5605.3
803.161	5664.29
803.491	5672.42
803.822	5626.55
804.153	5605.53
804.483	5542.71
804.814	5577.28
805.145	5576.15
805.475	5550.16
805.805	5558.07
806.136	5552.65
806.466	5540.9
806.796	5494.12
807.126	5456.38
807.457	5465.65
807.787	5482.82
808.117	5413.45
808.447	5368.02
808.777	5467.68
809.107	5420.9
809.436	5390.62
809.766	5403.95
810.096	5319.89
810.426	5321.02
810.755	5328.93
811.085	5334.35
811.414	5317.18
811.744	5250.29
812.073	5275.6
812.403	5315.37
812.732	5186.33
813.061	5241.47
813.39	5175.26
813.719	5178.65
814.049	5245.09
814.378	5169.84
814.707	5146.56
815.036	5163.06
815.365	5111.08
815.693	5105.2
816.022	5124.87
816.351	5072.44
816.68	5043.74
817.008	5101.59
817.337	5062.95
817.665	5040.12
817.994	5018.88
818.322	5030.18
818.651	5012.78
818.979	4990.41
819.307	4993.12
819.636	4956.96
819.964	4982.5
820.292	4957.19
820.62	4983.17
820.948	4976.85
821.276	4959.67
821.604	4984.98
821.932	4951.08
822.259	5020.46
822.587	4981.37
822.915	4954.47
823.243	4964.42
823.57	4949.05
823.898	4929.39
824.225	4926.45
824.553	4964.64
824.88	4933.01
825.207	4921.25
825.535	4916.96
825.862	4921.03
826.189	4944.31
826.516	4923.51
826.843	4983.4
827.17	4984.76
827.497	4942.27
827.824	4937.07
828.151	4956.28
828.478	4924.64
828.805	4910.86
829.131	4921.25
829.458	4869.05
829.785	4886
830.111	4940.46
830.438	4903.63
830.764	4907.47
831.09	4906.57
831.417	4872.89
831.743	4967.58
832.069	4879.22
832.395	4893.91
832.722	4920.58
833.048	4878.54
833.374	4881.48
833.7	4852.33
834.026	4886.45
834.351	4880.35
834.677	4811.65
835.003	4900.69
835.329	4892.78
835.654	4874.25
835.98	4806.91
836.306	4837.87
836.631	4829.96
836.956	4828.15
837.282	4819.34
837.607	4804.87
837.932	4819.34
838.258	4831.31
838.583	4773.91
838.908	4776.63
839.233	4781.82
839.558	4808.04
839.883	4794.7
840.208	4780.02
840.533	4700.47
840.858	4716.06
841.182	4761.94
841.507	4772.78
841.832	4730.98
842.156	4704.99
842.481	4737.98
842.805	4684.2
843.13	4658.44
843.454	4725.33
843.778	4601.26
844.103	4617.99
844.427	4660.92
844.751	4628.16
845.075	4568.04
845.399	4621.83
845.723	4580.25
846.047	4591.55
846.371	4504.77
846.695	4531.89
847.019	4518.1
847.343	4466.13
847.666	4451.21
847.99	4460.25
848.313	4455.28
848.637	4392.46
848.96	4424.09
849.284	4398.78
849.607	4371.66
849.931	4369.63
850.254	4348.16
850.577	4326.02
850.9	4242.63
851.223	4273.36
851.546	4231.33
851.869	4199.24
852.192	4235.4
852.515	4198.34
852.838	4241.5
853.161	4199.92
853.483	4203.53
853.806	4182.74
854.129	4149.52
854.451	4193.82
854.774	4187.04
855.096	4128.51
855.419	4086.47
855.741	4109.98
856.063	4119.47
856.385	4095.06
856.708	4079.24
857.03	4050.54
857.352	4093.25
857.674	4082.41
857.996	4018.23
858.318	4018
858.64	4019.81
858.961	4001.05
859.283	4010.54
859.605	3961.73
859.926	3998.12
860.248	3993.6
860.57	3954.27
860.891	3948.62
861.212	3975.97
861.534	3963.77
861.855	3933.03
862.176	3937.55
862.498	3919.47
862.819	3907.72
863.14	3891.23
863.461	3898.91
863.782	3876.31
864.103	3902.3
864.424	3882.64
864.745	3881.28
865.065	3804.67
865.386	3849.42
865.707	3848.97
866.027	3842.41
866.348	3836.76
866.668	3852.13
866.989	3803.32
867.309	3797.44
867.63	3807.39
867.95	3800.61
868.27	3787.27
868.59	3840.15
868.91	3781.17
869.23	3769.19
869.55	3752.92
869.87	3734.85
870.19	3755.41
870.51	3748.63
870.83	3733.72
871.15	3731.91
871.469	3738.01
871.789	3702.76
872.109	3717.67
872.428	3687.61
872.748	3689.42
873.067	3740.49
873.386	3716.31
873.706	3748.4
874.025	3709.76
874.344	3673.83
874.663	3672.93
874.982	3691.91
875.301	3636.99
875.62	3672.25
875.939	3694.17
876.258	3642.19
876.577	3643.1
876.896	3645.58
877.214	3617.56
877.533	3632.93
877.852	3642.42
878.17	3596.54
878.489	3591.35
878.807	3599.93
879.125	3619.37
879.444	3618.92
879.762	3625.24
880.08	3583.66
880.398	3556.54
880.716	3571.91
881.034	3559.48
881.352	3557.67
881.67	3550.9
881.988	3571.01
882.306	3585.92
882.624	3479.71
882.941	3527.39
883.259	3538.47
883.577	3501.86
883.894	3481.97
884.212	3507.28
884.529	3495.98
884.846	3494.85
885.164	3507.73
885.481	3485.81
885.798	3469.54
886.115	3411.92
886.432	3429.32
886.75	3446.04
887.067	3419.37
887.383	3436.55
887.7	3404.91
888.017	3435.42
888.334	3392.93
888.651	3382.09
888.967	3397.45
889.284	3382.09
889.6	3374.4
889.917	3374.4
890.233	3351.13
890.55	3339.83
890.866	3392.93
891.182	3347.51
891.498	3333.05
891.815	3302.99
892.131	3289.21
892.447	3309.77
892.763	3297.34
893.079	3271.58
893.395	3272.48
893.71	3272.03
894.026	3280.39
894.342	3236.33
894.657	3256.67
894.973	3226.16
895.289	3226.16
895.604	3200.4
895.92	3200.17
896.235	3145.03
896.55	3174.41
896.865	3191.13
897.181	3134.41
897.496	3169.21
897.811	3145.48
898.126	3124.24
898.441	3140.06
898.756	3135.09
899.071	3081.76
899.386	3075.2
899.7	3090.57
900.015	3071.81
900.33	3013.28
900.644	3013.06
900.959	3025.03
901.273	3023.45
901.588	3019.38
901.902	3016.22
902.216	3001.08
902.531	3003.79
902.845	2976.22
903.159	2955.88
903.473	2955.88
903.787	2961.08
904.101	2936
904.415	2955.43
904.729	2924.02
905.042	2902.55
905.356	2888.54
905.67	2898.26
905.984	2893.74
906.297	2925.15
906.611	2884.02
906.924	2820.52
907.237	2815.55
907.551	2825.26
907.864	2857.35
908.177	2803.57
908.491	2813.29
908.804	2785.49
909.117	2777.36
909.43	2761.09
909.743	2761.09
910.056	2746.85
910.368	2750.92
910.681	2741.65
910.994	2703.91
911.307	2730.58
911.619	2686.29
911.932	2674.08
912.244	2684.48
912.557	2699.84
912.869	2659.39
913.181	2598.6
913.494	2637.25
913.806	2629.34
914.118	2619.62
914.43	2612.61
914.742	2622.33
915.054	2582.56
915.366	2623.24
915.678	2554.76
915.99	2587.3
916.302	2531.04
916.613	2526.74
916.925	2534.65
917.236	2526.97
917.548	2522.67
917.859	2508.21
918.171	2510.02
918.482	2509.34
918.794	2464.37
919.105	2502.34
919.416	2481.54
919.727	2467.31
920.038	2430.47
920.349	2413.98
920.66	2412.62
920.971	2426.18
921.282	2395.45
921.593	2418.5
921.903	2392.51
922.214	2399.97
922.525	2395.9
922.835	2364.26
923.146	2323.81
923.456	2363.13
923.767	2352.96
924.077	2326.52
924.387	2341.44
924.697	2289.69
925.008	2309.12
925.318	2327.2
925.628	2305.73
925.938	2284.04
926.248	2290.59
926.558	2221.89
926.867	2246.07
927.177	2240.42
927.487	2225.73
927.796	2226.86
928.106	2232.51
928.416	2217.15
928.725	2231.38
929.034	2186.86
929.344	2154.77
929.653	2193.87
929.962	2168.56
930.271	2192.96
930.581	2142.12
930.89	2122.23
931.199	2140.76
931.508	2120.42
931.817	2101.22
932.125	2112.97
932.434	2141.44
932.743	2078.17
933.051	2096.02
933.36	2099.41
933.669	2079.3
933.977	2054.89
934.286	2057.83
934.594	2054.66
934.902	1989.58
935.21	2047.21
935.519	2042.69
935.827	2012.86
936.135	2009.69
936.443	1980.32
936.751	1996.81
937.059	2011.73
937.367	1969.69
937.674	1949.81
937.982	1976.93
938.29	1957.72
938.597	1987.32
938.905	1974.67
939.213	1914.55
939.52	1894.44
939.827	1936.25
940.135	1905.29
940.442	1903.26
940.749	1914.78
941.056	1913.88
941.363	1914.1
941.67	1878.85
941.977	1839.53
942.284	1858.06
942.591	1885.63
942.898	1842.01
943.205	1875.01
943.511	1864.84
943.818	1838.62
944.125	1811.96
944.431	1821.68
944.738	1828.91
945.044	1812.86
945.35	1785.07
945.657	1807.66
945.963	1791.17
946.269	1779.87
946.575	1778.74
946.881	1745.97
947.187	1777.16
947.493	1741.9
947.799	1770.6
948.105	1735.35
948.41	1735.58
948.716	1726.08
949.022	1743.03
949.327	1690.15
949.633	1717.95
949.938	1700.77
950.244	1734.9
950.549	1675.92
950.854	1661
951.16	1685.86
951.465	1623.49
951.77	1645.41
952.075	1629.14
952.38	1648.12
952.685	1647.67
952.99	1617.16
953.294	1607.44
953.599	1633.21
953.904	1649.93
954.209	1618.52
954.513	1626.2
954.818	1609.48
955.122	1575.81
955.426	1585.07
955.731	1621.91
956.035	1583.26
956.339	1573.55
956.643	1580.1
956.948	1533.32
957.252	1569.03
957.556	1563.6
957.86	1545.3
958.163	1555.02
958.467	1520.89
958.771	1543.04
959.075	1534.45
959.378	1502.59
959.682	1517.73
959.985	1523.83
960.289	1486.32
960.592	1522.7
960.896	1485.64
961.199	1500.1
961.502	1506.43
961.805	1493.32
962.108	1460.1
962.411	1443.61
962.714	1474.34
963.017	1472.98
963.32	1454.91
963.623	1473.44
963.926	1437.96
964.228	1428.69
964.531	1432.31
964.833	1408.13
965.136	1430.95
965.438	1421.69
965.741	1408.35
966.043	1404.74
966.345	1405.87
966.648	1405.64
966.95	1379.2
967.252	1409.93
967.554	1377.62
967.856	1358.64
968.158	1359.31
968.46	1372.42
968.761	1365.87
969.063	1351.63
969.365	1357.51
969.666	1350.05
969.968	1318.64
970.269	1312.76
970.571	1333.33
970.872	1347.56
971.174	1303.72
971.475	1328.13
971.776	1298.75
972.077	1282.71
972.378	1304.4
972.679	1303.72
972.98	1303.72
973.281	1304.17
973.582	1283.61
973.883	1284.29
974.183	1244.06
974.484	1238.87
974.785	1281.58
975.085	1261.46
975.386	1274.8
975.686	1241.35
975.986	1232.76
976.287	1215.14
976.587	1247.23
976.887	1241.8
977.187	1266.66
977.487	1224.63
977.787	1229.6
978.087	1225.31
978.387	1192.99
978.687	1205.87
978.987	1216.72
979.286	1212.43
979.586	1206.78
979.885	1181.92
980.185	1194.12
980.484	1179.43
980.784	1182.6
981.083	1167.23
981.382	1174.46
981.682	1195.48
981.981	1185.08
982.28	1160.9
982.579	1145.76
982.878	1152.77
983.177	1123.39
983.475	1160.45
983.774	1124.74
984.073	1109.83
984.372	1142.82
984.67	1114.12
984.969	1120.68
985.267	1094.69
985.566	1117.51
985.864	1109.38
986.162	1122.48
986.461	1100.34
986.759	1078.42
987.057	1089.27
987.355	1074.8
987.653	1107.8
987.951	1079.1
988.249	1069.83
988.547	1069.83
988.844	1056.95
989.142	1074.12
989.44	1058.53
989.737	1063.73
990.035	1049.04
990.332	1044.29
990.63	1014.01
990.927	1019.89
991.224	1019.66
991.521	1047.01
991.819	1033.22
992.116	1033.22
992.413	1021.7
992.71	1021.02
993.006	1012.21
993.303	1014.24
993.6	1008.82
993.897	994.8
994.193	1020.34
994.49	1010.62
994.787	975.14
995.083	999.55
995.379	1015.82
995.676	984.41
995.972	999.1
996.268	979.21
996.565	971.3
996.861	967.23
997.157	967.91
997.453	979.44
997.749	930.17
998.044	972.43
998.34	962.71
998.636	946.22
998.932	963.84
999.227	971.53
999.523	945.99
999.818	935.6
1000.114	924.07
1000.409	922.04
1000.704	922.04
1001	931.76
1001.295	915.26
1001.59	929.04
1001.885	897.63
1002.18	925.65
1002.475	890.17
1002.77	903.73
1003.065	893.79
1003.359	870.97
1003.654	871.64
1003.949	854.92
1004.243	901.93
1004.538	854.92
1004.832	887.46
1005.127	876.39
1005.421	876.16
1005.715	851.08
1006.009	858.31
1006.304	839.78
1006.598	847.24
1006.892	837.75
1007.186	858.54
1007.48	827.8
1007.773	841.36
1008.067	832.55
1008.361	823.06
1008.655	827.8
1008.948	825.54
1009.242	818.99
1009.535	822.15
1009.829	808.14
1010.122	823.28
1010.415	811.53
1010.708	794.58
1011.001	797.52
1011.295	794.36
1011.588	787.35
1011.881	820.57
1012.173	792.32
1012.466	773.12
1012.759	763.4
1013.052	769.73
1013.344	796.39
1013.637	767.01
1013.93	746
1014.222	750.52
1014.514	764.75
1014.807	761.14
1015.099	738.77
1015.391	754.81
1015.683	757.75
1015.976	724.08
1016.268	745.77
1016.56	746.22
1016.851	734.47
1017.143	749.16
1017.435	740.12
1017.727	727.47
1018.018	723.4
1018.31	697.64
1018.602	722.27
1018.893	699.67
1019.185	720.46
1019.476	694.47
1019.767	713.23
1020.058	696.73
1020.35	709.61
1020.641	689.28
1020.932	686.79
1021.223	695.15
1021.514	662.38
1021.804	681.82
1022.095	682.95
1022.386	668.94
1022.677	670.52
1022.967	660.8
1023.258	668.71
1023.548	659.9
1023.839	687.47
1024.129	654.93
1024.419	652.44
1024.709	647.47
1025	664.42
1025.29	644.08
1025.58	651.31
1025.87	635.49
1026.16	620.8
1026.449	636.4
1026.739	646.34
1027.029	631.65
1027.319	627.13
1027.608	629.84
1027.898	627.81
1028.187	613.12
1028.477	618.09
1028.766	634.14
1029.055	605.44
1029.344	599.56
1029.634	584.87
1029.923	600.69
1030.212	585.55
1030.501	574.02
1030.79	609.73
1031.078	598.88
1031.367	595.04
1031.656	613.8
1031.945	596.17
1032.233	563.4
1032.522	594.81
1032.81	577.87
1033.099	545.78
1033.387	578.77
1033.675	592.56
1033.963	571.76
1034.251	569.5
1034.54	566.57
1034.828	556.62
1035.116	567.02
1035.403	556.62
1035.691	570.63
1035.979	567.02
1036.267	570.86
1036.554	546.23
1036.842	551.65
1037.129	553.46
1037.417	551.88
1037.704	539.22
1037.992	534.48
1038.279	553.01
1038.566	551.2
1038.853	551.2
1039.14	551.2
