Data from black_metal_pc_casing_FLMS001491_00060.txt Node
Date: Wed Feb 08 14:33:05 GMT 2017
User: dcchb
Spectrometer: FLMS00149
Trigger mode: 0
Integration Time (sec): 2.000000E-2
Scans to average: 10
Electric dark correction enabled: true
Nonlinearity correction enabled: false
Boxcar width: 0
XAxis mode: Wavelengths
Number of Pixels in Spectrum: 2048
>>>>>Begin Spectral Data<<<<<
341.393	-14.94
341.776	-14.94
342.16	-14.94
342.543	-58.56
342.927	-71.21
343.31	-68.73
343.693	-72.79
344.077	-71.44
344.46	-70.08
344.843	-67.82
345.226	-40.71
345.61	-22.63
345.993	-10.88
346.376	-9.29
346.759	27.99
347.142	20.54
347.525	48.56
347.908	61.44
348.291	65.96
348.674	90.14
349.057	119.74
349.44	124.94
349.823	112.29
350.206	164.26
350.588	166.07
350.971	186.18
351.354	227.99
351.737	217.59
352.119	244.94
352.502	258.5
352.884	270.93
353.267	268.21
353.65	288.1
354.032	295.78
354.414	290.81
354.797	299.17
355.179	299.85
355.562	317.25
355.944	312.51
356.326	322.9
356.709	315.9
357.091	322.45
357.473	345.5
357.855	328.1
358.238	331.94
358.62	326.29
359.002	345.95
359.384	340.3
359.766	323.35
360.148	313.86
360.53	332.84
360.912	345.73
361.294	330.58
361.676	305.05
362.057	324.93
362.439	330.58
362.821	338.27
363.203	317.7
363.584	307.99
363.966	323.58
364.348	306.4
364.729	321.09
365.111	303.47
365.493	320.19
365.874	303.92
366.256	313.86
366.637	300.75
367.019	311.83
367.4	300.08
367.781	309.57
368.163	320.42
368.544	298.95
368.925	305.5
369.306	333.52
369.688	317.48
370.069	303.24
370.45	299.4
370.831	325.16
371.212	313.64
371.593	317.03
371.974	294.88
372.355	304.14
372.736	310.7
373.117	326.06
373.498	327.65
373.879	301.43
374.26	301.21
374.641	333.3
375.021	294.88
375.402	320.87
375.783	334.88
376.163	352.05
376.544	323.81
376.925	328.55
377.305	325.16
377.686	329.68
378.066	333.3
378.447	339.17
378.827	343.47
379.208	342.34
379.588	338.27
379.968	348.66
380.349	332.39
380.729	352.28
381.109	338.27
381.489	356.35
381.87	335.56
382.25	319.06
382.63	338.72
383.01	345.27
383.39	351.15
383.77	338.04
384.15	356.12
384.53	381.88
384.91	344.37
385.29	374.88
385.67	349.79
386.049	378.49
386.429	366.97
386.809	371.71
387.189	369.68
387.568	353.63
387.948	366.29
388.328	369.23
388.707	392.96
389.087	372.62
389.466	403.35
389.846	368.55
390.225	385.27
390.605	381.43
390.984	355.89
391.363	382.33
391.743	385.72
392.122	396.8
392.501	389.79
392.881	379.85
393.26	393.86
393.639	393.18
394.018	407.87
394.397	404.03
394.776	395.89
395.155	412.16
395.534	410.81
395.913	408.55
396.292	415.1
396.671	418.27
397.05	409.68
397.429	424.14
397.808	405.38
398.186	429.11
398.565	418.27
398.944	420.75
399.323	439.06
399.701	436.57
400.08	434.76
400.458	441.54
400.837	442.9
401.215	467.08
401.594	428.89
401.972	449.23
402.351	454.88
402.729	459.17
403.107	453.07
403.486	472.28
403.864	457.59
404.242	448.55
404.62	472.28
404.999	495.33
405.377	465.04
405.755	456.68
406.133	471.37
406.511	496.46
406.889	489.68
407.267	481.99
407.645	499.17
408.023	489.45
408.401	471.15
408.779	491.26
409.156	529
409.534	513.4
409.912	512.27
410.29	539.39
410.667	528.55
411.045	529
411.422	537.81
411.8	523.8
412.178	546.4
412.555	548.88
412.933	562.89
413.31	534.19
413.687	579.39
414.065	538.26
414.442	543.01
414.819	556.34
415.197	576.91
415.574	564.02
415.951	580.52
416.328	567.64
416.705	565.15
417.082	592.05
417.46	573.06
417.837	597.02
418.214	595.21
418.591	609.9
418.967	594.31
419.344	593.63
419.721	624.14
420.098	611.03
420.475	621.42
420.852	616.9
421.228	645.38
421.605	639.28
421.982	636.79
422.358	622.78
422.735	652.16
423.111	663.68
423.488	652.16
423.864	686.06
424.241	673.4
424.617	667.98
424.994	688.77
425.37	672.5
425.746	659.16
426.123	667.52
426.499	691.25
426.875	695.55
427.251	704.81
427.627	731.25
428.003	721.76
428.379	725.15
428.756	736.22
429.132	743.23
429.507	723.34
429.883	757.47
430.259	752.72
430.635	762.66
431.011	764.7
431.387	785.49
431.763	805.6
432.138	773.96
432.514	819.84
432.89	800.63
433.265	820.97
433.641	843.57
434.016	830.23
434.392	851.7
434.767	857.35
435.143	838.37
435.518	843.79
435.894	865.94
436.269	888.31
436.644	863.45
437.02	886.95
437.395	874.07
437.77	897.8
438.145	928.53
438.52	908.65
438.895	936.22
439.271	921.76
439.646	952.26
440.021	955.2
440.395	944.58
440.77	946.61
441.145	961.53
441.52	985.48
441.895	966.73
442.27	966.73
442.645	991.36
443.019	994.3
443.394	983.22
443.769	1006.5
444.143	1001.75
444.518	1022.32
444.892	1010.11
445.267	1020.06
445.641	1053.96
446.016	1017.57
446.39	1033.84
446.764	1062.54
447.139	1027.52
447.513	1055.54
447.887	1017.35
448.262	1040.62
448.636	1067.51
449.01	1086.5
449.384	1097.57
449.758	1066.61
450.132	1088.3
450.506	1120.85
450.88	1094.86
451.254	1104.8
451.628	1132.6
452.002	1180.51
452.376	1125.37
452.75	1142.99
453.123	1186.16
453.497	1177.34
453.871	1210.56
454.244	1215.31
454.618	1211.24
454.992	1225.02
455.365	1232.26
455.739	1247.62
456.112	1262.99
456.486	1268.41
456.859	1278.13
457.232	1305.47
457.606	1293.27
457.979	1320.39
458.352	1342.08
458.725	1345.93
459.099	1368.07
459.472	1397.45
459.845	1372.82
460.218	1408.75
460.591	1416.88
460.964	1409.88
461.337	1436.77
461.71	1432.02
462.083	1481.06
462.456	1473.38
462.829	1481.29
463.201	1519.71
463.574	1505.02
463.947	1507.73
464.32	1564
464.692	1573.49
465.065	1588.18
465.438	1586.6
465.81	1597.44
466.183	1639.7
466.555	1651.23
466.928	1667.27
467.3	1679.02
467.672	1679.48
468.045	1739.59
468.417	1715.41
468.789	1746.59
469.161	1775.97
469.534	1811.68
469.906	1847.15
470.278	1849.41
470.65	1827.95
471.022	1907.49
471.394	1954.72
471.766	1926.93
472.138	1946.59
472.51	1991.56
472.882	2008.51
473.253	2053.93
473.625	2051.22
473.997	2106.81
474.369	2100.48
474.74	2127.15
475.112	2191.1
475.484	2185.45
475.855	2211.89
476.227	2239.23
476.598	2276.52
476.97	2325.79
477.341	2376.86
477.713	2395.16
478.084	2379.12
478.455	2474.48
478.827	2519.45
479.198	2545.89
479.569	2549.28
479.94	2630.64
480.311	2639.45
480.682	2687.36
481.053	2766.9
481.424	2798.09
481.795	2813.68
482.166	2855.94
482.537	2901.36
482.908	2950.18
483.279	2957.18
483.65	3012.55
484.021	3111.3
484.391	3093.22
484.762	3148.36
485.133	3142.71
485.503	3182.26
485.874	3276.27
486.244	3285.99
486.615	3356.95
486.985	3362.37
487.356	3450.95
487.726	3461.58
488.097	3503.83
488.467	3506.09
488.837	3637.84
489.207	3666.32
489.578	3726.2
489.948	3722.36
490.318	3790.38
490.688	3780.21
491.058	3821.57
491.428	3875.8
491.798	3960.77
492.168	4025.18
492.538	4012.3
492.908	4025.18
493.278	4145.4
493.648	4088.68
494.017	4211.61
494.387	4168.22
494.757	4207.32
495.126	4254.32
495.496	4283.93
495.866	4355.56
496.235	4383.36
496.605	4414.09
496.974	4454.32
497.344	4475.33
497.713	4501.32
498.082	4548.78
498.452	4594.2
498.821	4628.1
499.19	4615.44
499.559	4646.4
499.928	4712.16
500.298	4679.17
500.667	4779.28
501.036	4817.47
501.405	4783.8
501.774	4830.81
502.143	4861.76
502.512	4916.9
502.88	4929.11
503.249	4976.56
503.618	4974.08
503.987	4978.6
504.356	5010.91
504.724	5047.75
505.093	5072.38
505.462	5134.3
505.83	5158.03
506.199	5200.51
506.567	5253.39
506.936	5311.92
507.304	5325.03
507.672	5354.86
508.041	5402.09
508.409	5402.09
508.777	5486.16
509.145	5514.18
509.514	5528.87
509.882	5526.38
510.25	5591.46
510.618	5605.25
510.986	5608.41
511.354	5673.27
511.722	5726.37
512.09	5810.89
512.458	5785.36
512.826	5847.73
513.193	5896.77
513.561	5919.59
513.929	5975.63
514.297	6042.3
514.664	6059.93
515.032	6084.78
515.4	6077.1
515.767	6124.1
516.135	6131.34
516.502	6189.64
516.869	6256.53
517.237	6291.56
517.604	6307.6
517.972	6361.16
518.339	6438.9
518.706	6418.11
519.073	6459.46
519.44	6532
519.808	6590.76
520.175	6611.1
520.542	6677.08
520.909	6766.8
521.276	6687.93
521.643	6809.96
522.009	6850.64
522.376	6937.42
522.743	6936.74
523.11	7034.82
523.477	7054.02
523.843	7134.02
524.21	7158.43
524.577	7192.78
524.943	7305.77
525.31	7303.73
525.676	7327.01
526.043	7406.33
526.409	7491.07
526.776	7494.01
527.142	7555.48
527.508	7677.74
527.874	7669.15
528.241	7751.18
528.607	7800.67
528.973	7902.59
529.339	7879.76
529.705	7906.43
530.071	7967.22
530.437	8015.81
530.803	8025.52
531.169	8094.67
531.535	8062.36
531.901	8148.01
532.267	8178.29
532.632	8267.55
532.998	8239.08
533.364	8337.83
533.73	8321.33
534.095	8426.87
534.461	8479.75
534.826	8482.91
535.192	8475.91
535.557	8580.31
535.923	8566.53
536.288	8639.52
536.653	8716.35
537.019	8658.28
537.384	8737.37
537.749	8746.63
538.114	8774.66
538.479	8752.96
538.845	8867.54
539.21	8848.33
539.575	8922.45
539.94	8903.01
540.305	9043.58
540.67	9031.82
541.034	9048.77
541.399	9123.57
541.764	9110.01
542.129	9191.14
542.494	9143.01
542.858	9178.04
543.223	9214.64
543.587	9268.88
543.952	9256.9
544.316	9314.76
544.681	9343.68
545.045	9426.84
545.41	9412.15
545.774	9504.13
546.138	9451.02
546.503	9528.76
546.867	9503.9
547.231	9693.95
547.595	9567.4
547.959	9621.87
548.324	9653.73
548.688	9692.6
549.052	9749.32
549.416	9778.47
549.779	9774.86
550.143	9860.73
550.507	9899.6
550.871	9907.51
551.235	9899.6
551.599	9913.84
551.962	9963.1
552.326	10000.16
552.689	10097.79
553.053	10135.07
553.417	10072.93
553.78	10218.23
554.143	10220.72
554.507	10293.71
554.87	10285.8
555.234	10336.42
555.597	10377.1
555.96	10391.79
556.323	10467.27
556.686	10451.9
557.05	10479.47
557.413	10585.68
557.776	10648.51
558.139	10754.04
558.502	10733.47
558.865	10764.43
559.228	10800.37
559.59	10843.53
559.953	10887.14
560.316	10992.23
560.679	10986.58
561.041	11080.81
561.404	11137.53
561.767	11184.31
562.129	11156.29
562.492	11239.45
562.854	11271.54
563.217	11285.78
563.579	11397.19
563.941	11424.76
564.304	11539.1
564.666	11544.07
565.028	11568.71
565.39	11621.14
565.753	11721.47
566.115	11722.15
566.477	11744.07
566.839	11760.57
567.201	11865.87
567.563	11897.51
567.925	11980.67
568.287	12044.4
568.648	12050.28
569.01	12107.68
569.372	12157.84
569.734	12142.48
570.095	12197.39
570.457	12331.85
570.819	12337.5
571.18	12263.15
571.542	12445.97
571.903	12436.93
572.265	12395.13
572.626	12452.3
572.987	12482.36
573.349	12504.95
573.71	12573.65
574.071	12512.19
574.432	12687.77
574.794	12702.46
575.155	12685.51
575.516	12662.24
575.877	12728.45
576.238	12692.75
576.599	12813.42
576.96	12859.52
577.32	12875.34
577.681	12909.24
578.042	12931.16
578.403	12942.68
578.763	12936.13
579.124	13001.66
579.485	13066.75
579.845	13064.71
580.206	13076.01
580.566	13066.97
580.927	12997.6
581.287	13117.14
581.648	13110.59
582.008	13113.53
582.368	13113.3
582.728	13137.93
583.089	13121.89
583.449	13110.59
583.809	13131.38
584.169	13222.45
584.529	13097.93
584.889	13261.32
585.249	13129.8
585.609	13162.79
585.969	13212.28
586.329	13172.73
586.688	13234.43
587.048	13218.38
587.408	13140.42
587.768	13121.89
588.127	13163.02
588.487	13266.06
588.846	13311.71
589.206	13184.48
589.565	13216.35
589.925	13256.57
590.284	13195.56
590.643	13236.69
591.003	13186.97
591.362	13287.53
591.721	13260.19
592.08	13250.24
592.44	13322.33
592.799	13287.31
593.158	13283.92
593.517	13338.38
593.876	13295.89
594.235	13279.85
594.593	13335.67
594.952	13309.45
595.311	13270.58
595.67	13343.12
596.029	13417.02
596.387	13391.03
596.746	13452.5
597.104	13432.39
597.463	13340.86
597.822	13400.52
598.18	13333.41
598.538	13367.08
598.897	13412.73
599.255	13299.51
599.613	13511.71
599.972	13418.15
600.33	13491.82
600.688	13490.46
601.046	13464.48
601.404	13445.95
601.762	13547.41
602.12	13497.24
602.478	13568.2
602.836	13560.52
603.194	13476.68
603.552	13551.25
603.91	13490.46
604.268	13639.39
604.625	13563.68
604.983	13601.65
605.341	13632.38
605.698	13617.47
606.056	13678.03
606.413	13591.25
606.771	13727.29
607.128	13698.37
607.485	13575.43
607.843	13588.99
608.2	13697.69
608.557	13809.1
608.914	13787.18
609.272	13769.1
609.629	13822.21
609.986	13943.56
610.343	13757.35
610.7	13833.05
611.057	13939.94
611.414	13849.55
611.771	13937.01
612.127	13934.75
612.484	13953.05
612.841	14030.11
613.198	13955.31
613.554	14048.19
613.911	13999.38
614.267	13955.54
614.624	13881.41
614.98	14063.56
615.337	14071.24
615.693	14052.26
616.05	13997.8
616.406	14109.66
616.762	14088.64
617.118	14014.29
617.475	14035.53
617.831	14067.62
618.187	14158.47
618.543	14116.44
618.899	14200.05
619.255	14118.7
619.611	14112.37
619.967	14245.92
620.323	14228.52
620.678	14243.44
621.034	14165.02
621.39	14138.36
621.746	14118.7
622.101	14289.31
622.457	14101.97
622.812	14146.72
623.168	14180.62
623.523	14216.77
623.879	14267.62
624.234	14205.93
624.589	14349.42
624.945	14265.81
625.3	14208.64
625.655	14215.64
626.01	14273.72
626.365	14214.51
626.72	14141.75
627.075	14255.64
627.43	14207.73
627.785	14172.25
628.14	14276.43
628.495	14195.08
628.85	14099.71
629.205	14122.09
629.559	14261.97
629.914	14113.72
630.269	14236.43
630.623	14140.39
630.978	14091.8
631.332	14173.38
631.687	14183.1
632.041	14097.45
632.396	14058.81
632.75	14075.76
633.104	14106.49
633.459	14055.42
633.813	14108.53
634.167	14073.05
634.521	14030.79
634.875	14041.41
635.229	14051.35
635.583	13965.71
635.937	13959.15
636.291	13965.48
636.645	13920.96
636.999	13978.36
637.352	13957.8
637.706	13843.45
638.06	13911.24
638.413	13921.19
638.767	13878.93
639.121	13859.04
639.474	13753.73
639.828	13787.63
640.181	13746.05
640.534	13819.27
640.888	13732.27
641.241	13726.62
641.594	13750.12
641.947	13751.25
642.301	13683.68
642.654	13726.16
643.007	13796.9
643.36	13695.66
643.713	13620.18
644.066	13757.12
644.419	13560.97
644.771	13417.92
645.124	13351.26
645.477	13313.97
645.83	13337.93
646.182	13245.95
646.535	13249.79
646.888	13139.97
647.24	13093.41
647.593	13176.35
647.945	13176.35
648.298	13113.98
648.65	12966.41
649.002	13032.17
649.355	13097.71
649.707	13026.75
650.059	13064.71
650.411	13346.74
650.763	13307.42
651.115	13433.74
651.467	13389.45
651.819	13369.34
652.171	13273.97
652.523	13341.54
652.875	13312.39
653.227	13297.25
653.578	13283.01
653.93	13305.16
654.282	13235.56
654.633	13237.36
654.985	13213.64
655.337	13149.91
655.688	13146.29
656.039	13305.84
656.391	13085.28
656.742	13149.68
657.094	13125.28
657.445	13285.5
657.796	13113.98
658.147	13120.76
658.498	13045.73
658.849	13104.26
659.2	13097.93
659.551	13108.1
659.902	13146.74
660.253	13074.66
660.604	13056.58
660.955	13009.8
661.306	13125.05
661.656	13057.93
662.007	13057.71
662.358	13066.97
662.708	12994.88
663.059	13032.85
663.409	12923.47
663.76	13007.31
664.11	13025.84
664.461	13049.57
664.811	13033.3
665.161	12986.07
665.511	12965.73
665.862	12970.25
666.212	13051.38
666.562	13011.16
666.912	12979.07
667.262	13007.77
667.612	12963.47
667.962	12899.52
668.312	12888.9
668.662	13058.84
669.011	12929.8
669.361	12984.26
669.711	12948.56
670.06	12861.55
670.41	12913.08
670.76	12831.5
671.109	12892.74
671.459	12902.68
671.808	12910.82
672.157	12873.08
672.507	12767.09
672.856	12772.29
673.205	12838.05
673.554	12878.28
673.904	12844.38
674.253	12861.55
674.602	12872.85
674.951	12629.7
675.3	12479.19
675.649	12770.03
675.998	12744.27
676.346	12800.31
676.695	12795.79
677.044	12717.6
677.393	12757.83
677.741	12725.74
678.09	12697.49
678.438	12682.8
678.787	12710.37
679.135	12688.23
679.484	12578.62
679.832	12609.36
680.181	12585.63
680.529	12586.31
680.877	12564.61
681.225	12517.83
681.573	12513.99
681.922	12470.38
682.27	12486.2
682.618	12469.47
682.966	12454.56
683.314	12493.65
683.661	12452.98
684.009	12318.74
684.357	12361
684.705	12356.48
685.053	12356.03
685.4	12399.42
685.748	12247.33
686.095	12291.85
686.443	12226.77
686.79	12235.58
687.138	12236.94
687.485	12247.79
687.832	12167.56
688.18	12163.49
688.527	12060.45
688.874	12143.16
689.221	12203.27
689.568	12072.87
689.915	12022.03
690.262	12055.7
690.609	11900
690.956	11952.2
691.303	11934.57
691.65	11888.92
691.997	11912.88
692.344	11728.02
692.69	11821.58
693.037	11813.67
693.383	11716.27
693.73	11722.83
694.077	11683.05
694.423	11637.86
694.769	11578.88
695.116	11635.82
695.462	11588.37
695.808	11501.59
696.155	11554.92
696.501	11402.84
696.847	11462.04
697.193	11421.59
697.539	11411.88
697.885	11368.71
698.231	11280.58
698.577	11259.79
698.923	11244.65
699.269	11177.98
699.614	11124.88
699.96	11200.36
700.306	11191.32
700.651	11144.99
700.997	11105.44
701.342	10991.32
701.688	10995.16
702.033	10977.31
702.379	10992.68
702.724	10960.14
703.069	10984.99
703.415	10867.71
703.76	10894.83
704.105	10829.07
704.45	10815.51
704.795	10756.98
705.14	10784.09
705.485	10794.72
705.83	10619.58
706.175	10629.75
706.52	10630.65
706.865	10571.67
707.209	10588.17
707.554	10633.59
707.899	10617.09
708.243	10486.02
708.588	10583.42
708.932	10553.82
709.277	10458
709.621	10479.7
709.966	10365.12
710.31	10400.6
710.654	10377.33
710.998	10307.5
711.342	10329.64
711.687	10376.42
712.031	10318.34
712.375	10242.19
712.719	10201.74
713.063	10276.09
713.407	10214.17
713.75	10248.29
714.094	10127.84
714.438	10139.14
714.782	10108.86
715.125	10079.25
715.469	10142.53
715.812	10036.09
716.156	10039.71
716.499	10036.54
716.843	10064.11
717.186	9964.46
717.53	10022.31
717.873	9968.3
718.216	9968.98
718.559	9974.85
718.902	9841.75
719.246	9930.33
719.589	9858.47
719.932	9784.12
720.275	9869.54
720.617	9833.84
720.96	9769.88
721.303	9785.25
721.646	9766.27
721.989	9721.07
722.331	9742.99
722.674	9726.72
723.016	9746.16
723.359	9693.5
723.701	9676.1
724.044	9687.4
724.386	9574.18
724.729	9631.36
725.071	9570.34
725.413	9587.74
725.755	9605.82
726.097	9552.94
726.439	9541.64
726.782	9557.69
727.124	9573.05
727.465	9536.9
727.807	9531.47
728.149	9508.87
728.491	9437.92
728.833	9491.25
729.175	9484.02
729.516	9385.26
729.858	9387.75
730.199	9340.74
730.541	9332.61
730.882	9353.4
731.224	9381.65
731.565	9341.42
731.906	9352.72
732.248	9386.62
732.589	9243.8
732.93	9214.87
733.271	9327.18
733.612	9206.06
733.953	9223.01
734.294	9249.9
734.635	9203.35
734.976	9214.19
735.317	9174.65
735.658	9167.41
735.999	9201.31
736.339	9099.62
736.68	9114.99
737.021	9088.09
737.361	9036.8
737.702	9169.22
738.042	9068.66
738.383	9087.42
738.723	9025.27
739.063	9048.32
739.404	9077.25
739.744	8983.46
740.084	8990.24
740.424	8974.43
740.764	8949.34
741.104	8917.7
741.444	8950.92
741.784	8906.18
742.124	8910.7
742.464	8900.08
742.804	8839.97
743.143	8851.72
743.483	8813.3
743.823	8816.24
744.162	8787.76
744.502	8876.12
744.841	8763.36
745.181	8792.28
745.52	8751.15
745.86	8814.43
746.199	8744.6
746.538	8729.91
746.877	8750.93
747.216	8699.86
747.556	8665.51
747.895	8717.03
748.234	8684.04
748.573	8654.21
748.911	8663.47
749.25	8638.39
749.589	8567.43
749.928	8539.86
750.267	8585.06
750.605	8570.14
750.944	8571.27
751.283	8491.5
751.621	8513.19
751.96	8486.75
752.298	8447.89
752.636	8507.54
752.975	8478.84
753.313	8478.62
753.651	8424.16
753.989	8378.73
754.327	8427.77
754.666	8327.66
755.004	8361.33
755.342	8324.95
755.679	8338.06
756.017	8298.74
756.355	8270.04
756.693	8244.95
757.031	8277.49
757.368	8223.03
757.706	8192.98
758.044	8116.59
758.381	8193.2
758.719	8106.65
759.056	8176.71
759.394	8096.26
759.731	7955.02
760.068	8113.66
760.405	7984.85
760.743	7995.47
761.08	7982.59
761.417	7903.49
761.754	7981.68
762.091	7894
762.428	7875.92
762.765	7806.77
763.102	7764.51
763.438	7809.94
763.775	7747.11
764.112	7792.99
764.449	7760.45
764.785	7733.78
765.122	7679.09
765.458	7653.33
765.795	7661.01
766.131	7648.81
766.467	7632.09
766.804	7535.14
767.14	7512.09
767.476	7527.91
767.812	7501.7
768.148	7484.52
768.485	7407.46
768.821	7452.21
769.157	7476.39
769.492	7389.38
769.828	7386.67
770.164	7341.47
770.5	7334.02
770.836	7308.93
771.171	7280.46
771.507	7259.22
771.842	7164.98
772.178	7155.04
772.513	7156.62
772.849	7135.38
773.184	7222.61
773.519	7094.7
773.855	7119.56
774.19	7072.33
774.525	7035.72
774.86	7048.37
775.195	7023.74
775.53	6998.43
775.865	6974.25
776.2	6955.72
776.535	6852.9
776.87	6843.86
777.205	6810.41
777.539	6826.91
777.874	6869.85
778.209	6761.6
778.543	6784.2
778.878	6699.46
779.212	6714.82
779.547	6611.32
779.881	6688.38
780.215	6617.2
780.55	6639.35
780.884	6612
781.218	6631.44
781.552	6556.18
781.886	6549.86
782.22	6484.77
782.554	6462.17
782.888	6399.35
783.222	6423.53
783.556	6380.37
783.889	6390.09
784.223	6291.78
784.557	6354.61
784.89	6298.56
785.224	6224.89
785.557	6290.2
785.891	6256.53
786.224	6220.6
786.558	6258.79
786.891	6109.64
787.224	6170.66
787.557	6135.63
787.891	6142.41
788.224	6151.45
788.557	6155.74
788.89	6057.89
789.223	6096.53
789.556	6045.01
789.888	6001.4
790.221	6002.75
790.554	5958.23
790.887	5887.5
791.219	5925.69
791.552	5877.78
791.884	5896.99
792.217	5835.75
792.549	5824.68
792.882	5758.46
793.214	5757.79
793.546	5802.76
793.879	5765.7
794.211	5741.97
794.543	5738.58
794.875	5702.87
795.207	5702.42
795.539	5731.35
795.871	5697.45
796.203	5608.19
796.535	5604.8
796.867	5602.31
797.198	5604.57
797.53	5614.74
797.862	5577.45
798.193	5586.04
798.525	5555.98
798.856	5551.69
799.188	5454.52
799.519	5483.44
799.85	5434.41
800.182	5472.37
800.513	5426.72
800.844	5423.11
801.175	5407.06
801.506	5430.11
801.837	5397.57
802.168	5328.87
802.499	5350.79
802.83	5312.6
803.161	5286.84
803.491	5311.92
803.822	5292.71
804.153	5231.92
804.483	5220.85
804.814	5170.23
805.145	5194.64
805.475	5246.16
805.805	5187.41
806.136	5131.36
806.466	5161.64
806.796	5174.07
807.126	5155.09
807.457	5091.36
807.787	5147.41
808.117	5090.23
808.447	5079.16
808.777	5132.04
809.107	5054.3
809.436	5062.21
809.766	5047.97
810.096	5038.71
810.426	4996.68
810.755	4997.58
811.085	4998.94
811.414	4981.54
811.744	4923.68
812.073	4924.36
812.403	4918.71
812.732	4928.43
813.061	4943.8
813.39	4865.15
813.719	4913.97
814.049	4892.95
814.378	4880.75
814.707	4806.63
815.036	4775.67
815.365	4807.08
815.693	4791.94
816.022	4781.99
816.351	4802.56
816.68	4774.54
817.008	4791.48
817.337	4765.5
817.665	4737.7
817.994	4726.18
818.322	4694.31
818.651	4675.56
818.979	4676.46
819.307	4718.27
819.636	4647.76
819.964	4676.91
820.292	4644.6
820.62	4685.05
820.948	4645.05
821.276	4656.12
821.604	4646.63
821.932	4696.35
822.259	4662
822.587	4647.76
822.915	4634.43
823.243	4659.06
823.57	4618.38
823.898	4652.05
824.225	4625.16
824.553	4621.55
824.88	4633.52
825.207	4630.81
825.535	4630.36
825.862	4643.01
826.189	4640.98
826.516	4645.5
826.843	4592.39
827.17	4638.72
827.497	4624.26
827.824	4638.95
828.151	4640.75
828.478	4599.62
828.805	4677.59
829.131	4591.04
829.458	4584.48
829.785	4607.31
830.111	4642.79
830.438	4605.5
830.764	4640.53
831.09	4571.38
831.417	4584.03
831.743	4598.95
832.069	4620.64
832.395	4617.7
832.722	4615.44
833.048	4549.23
833.374	4597.82
833.7	4559.85
834.026	4602.11
834.351	4612.51
834.677	4585.39
835.003	4626.97
835.329	4576.12
835.654	4587.42
835.98	4525.5
836.306	4595.78
836.631	4562.56
836.956	4538.61
837.282	4561.66
837.607	4556.69
837.932	4487.99
838.258	4507.65
838.583	4524.15
838.908	4508.55
839.233	4508.55
839.558	4479.85
839.883	4470.36
840.208	4470.14
840.533	4465.62
840.858	4469.23
841.182	4455.22
841.507	4422.45
841.832	4482.11
842.156	4435.34
842.481	4414.32
842.805	4389.46
843.13	4406.64
843.454	4396.24
843.778	4384.26
844.103	4331.38
844.427	4342.91
844.751	4359.41
845.075	4286.19
845.399	4344.26
845.723	4292.51
846.047	4335.22
846.371	4263.59
846.695	4302.46
847.019	4221.33
847.343	4233.76
847.666	4233.08
847.99	4219.97
848.313	4202.57
848.637	4177.49
848.96	4166.64
849.284	4188.56
849.607	4089.58
849.931	4125.29
850.254	4070.37
850.577	4128.9
850.9	4006.19
851.223	4043.71
851.546	4034.44
851.869	4045.74
852.192	3956.25
852.515	3960.32
852.838	3933.65
853.161	3956.48
853.483	3967.33
853.806	3934.11
854.129	3895.24
854.451	3921.9
854.774	3914.9
855.096	3905.18
855.419	3873.99
855.741	3870.38
856.063	3859.08
856.385	3856.37
856.708	3873.32
857.03	3823.15
857.352	3832.64
857.674	3799.87
857.996	3774.34
858.318	3751.96
858.64	3800.78
858.961	3799.65
859.283	3794.67
859.605	3742.92
859.926	3741.57
860.248	3681.23
860.57	3737.73
860.891	3711.74
861.212	3673.55
861.534	3686.2
861.855	3704.28
862.176	3674.68
862.498	3663.38
862.819	3669.03
863.14	3655.24
863.461	3683.26
863.782	3631.51
864.103	3688.91
864.424	3652.31
864.745	3672.64
865.065	3675.13
865.386	3560.1
865.707	3609.59
866.027	3634
866.348	3559.65
866.668	3589.71
866.989	3608.01
867.309	3591.06
867.63	3583.15
867.95	3589.71
868.27	3579.76
868.59	3557.62
868.91	3572.31
869.23	3545.19
869.55	3517.17
869.87	3514.68
870.19	3504.29
870.51	3537.28
870.83	3511.52
871.15	3529.37
871.469	3501.8
871.789	3516.04
872.109	3518.98
872.428	3523.27
872.748	3461.58
873.067	3452.31
873.386	3489.82
873.706	3491.18
874.025	3529.37
874.344	3456.6
874.663	3471.52
874.982	3417.73
875.301	3490.28
875.62	3468.81
875.939	3432.2
876.258	3427.23
876.577	3420.45
876.896	3410.96
877.214	3415.48
877.533	3442.14
877.852	3365.53
878.17	3379.77
878.489	3410.5
878.807	3395.81
879.125	3392.2
879.444	3397.85
879.762	3428.58
880.08	3365.31
880.398	3365.53
880.716	3376.61
881.034	3349.49
881.352	3297.51
881.67	3376.15
881.988	3359.66
882.306	3358.08
882.624	3309.94
882.941	3295.93
883.259	3313.78
883.577	3273.78
883.894	3315.82
884.212	3288.25
884.529	3304.52
884.846	3285.31
885.164	3273.78
885.481	3259.32
885.798	3282.82
886.115	3245.99
886.432	3220
886.75	3202.6
887.067	3250.06
887.383	3199.89
887.7	3196.05
888.017	3155.82
888.334	3194.92
888.651	3163.96
888.967	3188.14
889.284	3191.98
889.6	3173.67
889.917	3134.13
890.233	3182.49
890.55	3152.66
890.866	3126.44
891.182	3145.2
891.498	3115.14
891.815	3102.72
892.131	3048.25
892.447	3107.91
892.763	3069.72
893.079	3105.43
893.395	3070.4
893.71	3058.87
894.026	3044.19
894.342	3066.56
894.657	2986.11
894.973	3018.2
895.289	2992.66
895.604	2979.55
895.92	2998.76
896.235	3010.97
896.55	2979.78
896.865	2962.15
897.181	2979.1
897.496	2948.14
897.811	2947.46
898.126	2963.51
898.441	2909.5
898.756	2925.09
899.071	2942.27
899.386	2897.75
899.7	2888.26
900.015	2878.99
900.33	2841.25
900.644	2823.63
900.959	2853.23
901.273	2838.32
901.588	2853.46
901.902	2831.08
902.216	2846
902.531	2852.33
902.845	2791.99
903.159	2799.9
903.473	2801.71
903.787	2768.49
904.101	2787.24
904.415	2765.32
904.729	2754.7
905.042	2705.89
905.356	2728.94
905.67	2731.2
905.984	2738.2
906.297	2759
906.611	2702.73
906.924	2671.77
907.237	2673.12
907.551	2679.45
907.864	2663.18
908.177	2663.86
908.491	2653.69
908.804	2655.04
909.117	2648.72
909.43	2627.7
909.743	2581.15
910.056	2556.06
910.368	2595.38
910.681	2612.56
910.994	2573.69
911.307	2546.35
911.619	2543.63
911.932	2560.13
912.244	2554.03
912.557	2525.33
912.869	2505.67
913.181	2513.35
913.494	2518.55
913.806	2474.26
914.118	2472
914.43	2481.71
914.742	2424.99
915.054	2435.61
915.366	2427.7
915.678	2414.6
915.99	2424.31
916.302	2434.26
916.613	2425.22
916.925	2386.58
917.236	2403.52
917.548	2436.07
917.859	2356.75
918.171	2375.05
918.482	2365.56
918.794	2342.74
919.105	2364.43
919.416	2327.14
919.727	2327.14
920.038	2312.45
920.349	2325.56
920.66	2271.1
920.971	2267.93
921.282	2259.8
921.593	2232.91
921.903	2256.64
922.214	2243.53
922.525	2238.33
922.835	2234.26
923.146	2233.13
923.456	2216.86
923.767	2218.22
924.077	2208.95
924.387	2198.11
924.697	2214.83
925.008	2189.97
925.318	2113.14
925.628	2168.73
925.938	2175.28
926.248	2122.63
926.558	2126.92
926.867	2137.99
927.177	2136.41
927.487	2070.2
927.796	2106.13
928.106	2110.2
928.416	2070.88
928.725	2075.17
929.034	2034.95
929.344	2060.71
929.653	2073.14
929.962	2040.82
930.271	2062.74
930.581	2016.64
930.89	2039.69
931.199	2042.86
931.508	1998.11
931.817	2016.42
932.125	2000.15
932.434	2006.02
932.743	1997.21
933.051	1976.64
933.36	1973.71
933.669	1976.42
933.977	1947.04
934.286	1926.7
934.594	1958.34
934.902	1928.73
935.21	1956.98
935.519	1909.07
935.827	1896.42
936.135	1927.15
936.443	1888.74
936.751	1874.5
937.059	1881.96
937.367	1856.87
937.674	1875.63
937.982	1845.12
938.29	1855.97
938.597	1863.43
938.905	1852.13
939.213	1824.56
939.52	1820.49
939.827	1781.39
940.135	1810.55
940.442	1828.4
940.749	1816.42
941.056	1773.71
941.363	1801.28
941.67	1784.33
941.977	1762.41
942.284	1757.44
942.591	1778.46
942.898	1737.55
943.205	1735.75
943.511	1760.38
943.818	1743.43
944.125	1719.25
944.431	1707.95
944.738	1725.12
945.044	1709.08
945.35	1692.36
945.657	1664.56
945.963	1676.76
946.269	1710.44
946.575	1684.45
946.881	1648.06
947.187	1668.18
947.493	1679.02
947.799	1643.32
948.105	1659.82
948.41	1629.08
948.716	1620.95
949.022	1615.97
949.327	1626.37
949.633	1626.37
949.938	1592.92
950.244	1629.99
950.549	1605.58
950.854	1601.74
951.16	1596.54
951.465	1598.12
951.77	1588.63
952.075	1534.39
952.38	1569.42
952.685	1528.52
952.99	1544.56
953.294	1545.02
953.599	1530.78
953.904	1568.29
954.209	1521.51
954.513	1526.26
954.818	1500.05
955.122	1501.85
955.426	1485.13
955.731	1484.45
956.035	1535.52
956.339	1500.27
956.643	1482.19
956.948	1476.32
957.252	1481.29
957.556	1458.01
957.86	1469.09
958.163	1462.53
958.467	1477.67
958.771	1444.45
959.075	1466.6
959.378	1410.33
959.682	1437.22
959.985	1452.36
960.289	1424.79
960.592	1411.46
960.896	1422.08
961.199	1446.94
961.502	1413.49
961.805	1402.87
962.108	1403.1
962.411	1358.13
962.714	1390.22
963.017	1376.66
963.32	1368.3
963.623	1355.64
963.926	1350.67
964.228	1370.78
964.531	1357.45
964.833	1364.46
965.136	1360.39
965.438	1333.72
965.741	1340.73
966.043	1309.09
966.345	1340.73
966.648	1321.52
966.95	1342.54
967.252	1308.19
967.554	1289.66
967.856	1314.06
968.158	1288.53
968.46	1304.8
968.761	1301.41
969.063	1284.91
969.365	1285.14
969.666	1269.99
969.968	1286.72
970.269	1261.41
970.571	1238.81
970.872	1265.93
971.174	1245.81
971.475	1256.44
971.776	1232.26
972.077	1248.75
972.378	1235.19
972.679	1219.83
972.98	1222.54
973.281	1216.21
973.582	1202.88
973.883	1220.96
974.183	1229.32
974.484	1219.6
974.785	1198.58
975.085	1191.35
975.386	1204.23
975.686	1211.92
975.986	1156.1
976.287	1208.98
976.587	1175.76
976.887	1200.84
977.187	1154.07
977.487	1159.49
977.787	1174.63
978.087	1149.09
978.387	1171.92
978.687	1159.26
978.987	1137.79
979.286	1143.44
979.586	1127.85
979.885	1141.41
980.185	1137.12
980.484	1125.82
980.784	1124.69
981.083	1120.62
981.382	1106.84
981.682	1123.78
981.981	1121.98
982.28	1132.6
982.579	1110.23
982.878	1106.38
983.177	1106.61
983.475	1093.95
983.774	1076.55
984.073	1092.15
984.372	1098.47
984.67	1064.58
984.969	1082.43
985.267	1058.7
985.566	1057.8
985.864	1051.47
986.162	1045.82
986.461	1056.44
986.759	1021.64
987.057	1040.85
987.355	1042.43
987.653	1026.39
987.951	1043.33
988.249	1028.42
988.547	1028.87
988.844	1004.01
989.142	1003.11
989.44	998.82
989.737	1002.88
990.035	1002.66
990.332	1011.7
990.63	977.35
990.927	968.76
991.224	982.09
991.521	978.03
991.819	970.12
992.116	956.56
992.413	966.73
992.71	981.19
993.006	981.87
993.303	969.66
993.6	945.71
993.897	949.33
994.193	959.04
994.49	976.22
994.787	950.68
995.083	941.42
995.379	938.93
995.676	933.51
995.972	927.4
996.268	937.8
996.565	916.78
996.861	914.3
997.157	907.97
997.453	923.56
997.749	939.61
998.044	882.21
998.34	925.82
998.636	903.9
998.932	913.62
999.227	910.23
999.523	872.94
999.818	887.63
1000.114	893.96
1000.409	895.09
1000.704	889.44
1001	871.36
1001.295	869.78
1001.59	864.36
1001.885	878.59
1002.18	869.33
1002.475	884.24
1002.77	864.58
1003.065	865.26
1003.359	834.07
1003.654	820.97
1003.949	844.02
1004.243	837.24
1004.538	831.81
1004.832	845.83
1005.127	839.05
1005.421	832.49
1005.715	820.29
1006.009	838.37
1006.304	823.45
1006.598	808.31
1006.892	827.29
1007.186	786.62
1007.48	792.95
1007.773	799.72
1008.067	808.54
1008.361	777.13
1008.655	796.56
1008.948	791.14
1009.242	784.81
1009.535	773.51
1009.829	767.18
1010.122	757.01
1010.415	772.15
1010.708	749.56
1011.001	764.02
1011.295	765.83
1011.588	773.96
1011.881	741.2
1012.173	761.08
1012.466	762.89
1012.759	730.12
1013.052	749.78
1013.344	722.66
1013.637	730.8
1013.93	748.2
1014.222	723.34
1014.514	727.64
1014.807	736
1015.099	725.15
1015.391	736.68
1015.683	701.2
1015.976	736.45
1016.268	727.41
1016.56	702.78
1016.851	703.46
1017.143	723.34
1017.435	673.85
1017.727	703.91
1018.018	693.96
1018.31	712.72
1018.602	683.34
1018.893	681.08
1019.185	690.12
1019.476	686.73
1019.767	677.24
1020.058	693.29
1020.35	681.54
1020.641	669.78
1020.932	655.1
1021.223	654.19
1021.514	660.07
1021.804	626.62
1022.095	653.74
1022.386	656.45
1022.677	646.28
1022.967	654.87
1023.258	632.05
1023.548	640.63
1023.839	631.59
1024.129	623.01
1024.419	633.4
1024.709	607.64
1025	602.89
1025.29	613.74
1025.58	647.86
1025.87	624.59
1026.16	618.71
1026.449	639.73
1026.739	620.07
1027.029	594.76
1027.319	607.41
1027.608	623.23
1027.898	585.72
1028.187	607.19
1028.477	605.38
1028.766	618.49
1029.055	578.49
1029.344	595.66
1029.634	575.55
1029.923	589.79
1030.212	574.87
1030.501	569.67
1030.79	602.22
1031.078	568.77
1031.367	551.37
1031.656	554.99
1031.945	571.03
1032.233	564.7
1032.522	543.91
1032.81	569.22
1033.099	541.2
1033.387	543.91
1033.675	575.78
1033.963	539.84
1034.251	561.99
1034.54	543.69
1034.828	550.01
1035.116	515.66
1035.403	545.49
1035.691	534.19
1035.979	529.45
1036.267	558.38
1036.554	520.41
1036.842	536.23
1037.129	525.61
1037.417	509.79
1037.704	539.17
1037.992	513.86
1038.279	515.44
1038.566	499.39
1038.853	499.39
1039.14	499.39
