Data from black_metal_pc_casing_FLMS001491_00008.txt Node
Date: Wed Feb 08 14:31:51 GMT 2017
User: dcchb
Spectrometer: FLMS00149
Trigger mode: 0
Integration Time (sec): 2.000000E-2
Scans to average: 10
Electric dark correction enabled: true
Nonlinearity correction enabled: false
Boxcar width: 0
XAxis mode: Wavelengths
Number of Pixels in Spectrum: 2048
>>>>>Begin Spectral Data<<<<<
341.393	-19.56
341.776	-19.56
342.16	-19.56
342.543	-62.72
342.927	-65.44
343.31	-80.13
343.693	-74.7
344.077	-61.14
344.46	-66.79
344.843	-40.58
345.226	-31.76
345.61	-32.44
345.993	-1.26
346.376	-12.56
346.759	33.77
347.142	18.4
347.525	30.83
347.908	41.91
348.291	71.51
348.674	91.4
349.057	113.54
349.44	118.06
349.823	122.13
350.206	152.86
350.588	180.89
350.971	197.61
351.354	223.82
351.737	225.86
352.119	238.74
352.502	260.88
352.884	272.18
353.267	265.4
353.65	275.12
354.032	276.93
354.414	292.29
354.797	302.46
355.179	288.45
355.562	306.53
355.944	312.18
356.326	342.91
356.709	334.1
357.091	318.96
357.473	337.27
357.855	337.04
358.238	315.8
358.62	321.67
359.002	332.07
359.384	329.81
359.766	336.59
360.148	332.29
360.53	331.16
360.912	331.62
361.294	326.42
361.676	323.03
362.057	332.29
362.439	336.81
362.821	288.45
363.203	303.82
363.584	306.98
363.966	308.34
364.348	322.8
364.729	313.76
365.111	307.21
365.493	302.69
365.874	315.57
366.256	309.7
366.637	304.5
367.019	316.47
367.4	290.03
367.781	299.07
368.163	301.79
368.544	298.4
368.925	302.69
369.306	313.08
369.688	308.57
370.069	304.95
370.45	286.65
370.831	285.52
371.212	290.71
371.593	302.69
371.974	319.86
372.355	301.33
372.736	284.61
373.117	322.58
373.498	316.02
373.879	312.41
374.26	289.13
374.641	305.63
375.021	301.33
375.402	322.12
375.783	315.57
376.163	325.29
376.544	330.94
376.925	320.09
377.305	302.24
377.686	331.62
378.066	321.45
378.447	315.8
378.827	299.75
379.208	321.67
379.588	306.08
379.968	339.07
380.349	306.76
380.729	331.84
381.109	327.1
381.489	335.68
381.87	345.4
382.25	349.47
382.63	337.04
383.01	340.65
383.39	342.24
383.77	342.91
384.15	353.76
384.53	341.56
384.91	342.24
385.29	348.34
385.67	346.08
386.049	344.5
386.429	342.91
386.809	361.45
387.189	358.96
387.568	363.93
387.948	372.52
388.328	361.45
388.707	346.53
389.087	357.38
389.466	369.81
389.846	358.73
390.225	383.14
390.605	362.58
390.984	350.15
391.363	358.51
391.743	378.62
392.122	380.88
392.501	376.81
392.881	386.53
393.26	387.43
393.639	374.1
394.018	375.91
394.397	402.12
394.776	400.77
395.155	383.14
395.534	379.52
395.913	400.54
396.292	392.86
396.671	399.18
397.05	391.95
397.429	377.49
397.808	395.12
398.186	413.87
398.565	385.4
398.944	409.35
399.323	406.64
399.701	417.26
400.08	404.61
400.458	407.55
400.837	410.03
401.215	432.63
401.594	404.16
401.972	414.33
402.351	419.52
402.729	418.17
403.107	416.13
403.486	417.04
403.864	419.75
404.242	444.83
404.62	417.26
404.999	422.69
405.377	434.66
405.755	447.32
406.133	444.15
406.511	433.08
406.889	466.98
407.267	471.05
407.645	454.55
408.023	462.01
408.401	467.43
408.779	464.95
409.156	480.76
409.534	488
409.912	447.54
410.29	484.15
410.667	457.71
411.045	469.92
411.422	471.27
411.8	492.29
412.178	499.52
412.555	501.33
412.933	501.78
413.31	518.05
413.687	509.92
414.065	500.88
414.442	510.82
414.819	517.15
415.197	527.99
415.574	520.31
415.951	524.83
416.328	549.91
416.705	533.64
417.082	518.73
417.46	553.3
417.837	551.95
418.214	553.3
418.591	542.01
418.967	568.9
419.344	536.58
419.721	550.14
420.098	563.7
420.475	559.18
420.852	551.04
421.228	571.61
421.605	585.62
421.982	592.4
422.358	584.72
422.735	592.85
423.111	611.38
423.488	604.6
423.864	601.44
424.241	590.59
424.617	617.48
424.994	599.86
425.37	622.46
425.746	584.94
426.123	611.16
426.499	632.4
426.875	627.65
427.251	640.53
427.627	623.59
428.003	643.92
428.379	675.34
428.756	652.06
429.132	671.95
429.507	673.08
429.883	662.68
430.259	683.92
430.635	691.83
431.011	698.61
431.387	693.19
431.763	709.01
432.138	728.89
432.514	703.13
432.89	732.73
433.265	736.8
433.641	760.76
434.016	745.62
434.392	759.63
434.767	757.37
435.143	769.34
435.518	750.59
435.894	788.33
436.269	795.78
436.644	794.43
437.02	811.15
437.395	783.58
437.77	803.02
438.145	818.16
438.52	817.7
438.895	810.47
439.271	841.66
439.646	838.49
440.021	854.99
440.395	832.85
440.77	866.74
441.145	854.77
441.52	842.11
441.895	850.7
442.27	878.72
442.645	862.45
443.019	870.58
443.394	888.21
443.769	888.44
444.143	876.91
444.518	913.52
444.892	895.67
445.267	896.35
445.641	887.99
446.016	921.88
446.39	939.28
446.764	940.19
447.139	951.03
447.513	950.36
447.887	934.99
448.262	925.72
448.636	943.8
449.01	947.42
449.384	959.62
449.758	977.25
450.132	977.25
450.506	977.02
450.88	972.05
451.254	997.36
451.628	987.42
452.002	1000.3
452.376	1022.22
452.75	1054.31
453.123	1028.09
453.497	1046.63
453.871	1050.01
454.244	1074.19
454.618	1085.04
454.992	1063.57
455.365	1066.74
455.739	1106.96
456.112	1135.89
456.486	1119.39
456.859	1144.48
457.232	1141.31
457.606	1137.47
457.979	1130.24
458.352	1169.11
458.725	1190.58
459.099	1188.77
459.472	1194.64
459.845	1196.68
460.218	1239.84
460.591	1258.14
460.964	1244.59
461.337	1278.71
461.71	1272.61
462.083	1297.69
462.456	1295.21
462.829	1320.52
463.201	1307.41
463.574	1311.7
463.947	1347.41
464.32	1348.54
464.692	1404.36
465.065	1403.68
465.438	1408.2
465.81	1438.93
466.183	1462.21
466.555	1485.26
466.928	1483
467.3	1492.94
467.672	1491.13
468.045	1530
468.417	1504.92
468.789	1524.13
469.161	1567.74
469.534	1570
469.906	1621.07
470.278	1636.21
470.65	1641.19
471.022	1675.76
471.394	1683.67
471.766	1695.42
472.138	1733.39
472.51	1765.25
472.882	1754.4
473.253	1786.72
473.625	1815.42
473.997	1814.74
474.369	1839.15
474.74	1896.55
475.112	1907.39
475.484	1921.63
475.855	1951.91
476.227	1941.52
476.598	1997.33
476.97	2016.09
477.341	2052.93
477.713	2093.38
478.084	2125.24
478.455	2149.19
478.827	2162.75
479.198	2228.06
479.569	2230.32
479.94	2294.95
480.311	2299.25
480.682	2364.78
481.053	2408.62
481.424	2441.39
481.795	2424.67
482.166	2506.7
482.537	2483.42
482.908	2566.81
483.279	2605.91
483.65	2633.25
484.021	2682.51
484.391	2726.81
484.762	2747.15
485.133	2716.64
485.503	2772
485.874	2841.61
486.244	2817.2
486.615	2921.38
486.985	2926.58
487.356	2991.21
487.726	2998.44
488.097	3076.18
488.467	3094.25
488.837	3136.74
489.207	3197.3
489.578	3228.94
489.948	3239.79
490.318	3294.7
490.688	3304.19
491.058	3351.42
491.428	3393
491.798	3401.14
492.168	3483.17
492.538	3445.88
492.908	3498.09
493.278	3583.73
493.648	3563.62
494.017	3591.19
494.387	3624.41
494.757	3683.17
495.126	3680.68
495.496	3739.44
495.866	3773.11
496.235	3787.34
496.605	3840.68
496.974	3837.96
497.344	3862.82
497.713	3913.44
498.082	3945.53
498.452	3991.86
498.821	3999.54
499.19	4004.74
499.559	4060.56
499.928	4076.83
500.298	4123.83
500.667	4086.55
501.036	4143.72
501.405	4146.43
501.774	4231.85
502.143	4257.84
502.512	4245.18
502.88	4303.26
503.249	4298.06
503.618	4342.13
503.987	4356.37
504.356	4373.09
504.724	4407.89
505.093	4461
505.462	4477.5
505.83	4468.91
506.199	4523.6
506.567	4542.8
506.936	4589.81
507.304	4602.69
507.672	4624.84
508.041	4655.12
508.409	4702.35
508.777	4705.06
509.145	4771.72
509.514	4770.37
509.882	4837.94
510.25	4851.95
510.618	4871.84
510.986	4891.5
511.354	4934.88
511.722	4933.75
512.09	5018.27
512.458	5041.55
512.826	5048.1
513.193	5090.13
513.561	5124.26
513.929	5218.27
514.297	5228.89
514.664	5260.07
515.032	5262.79
515.4	5281.99
515.767	5347.75
516.135	5351.82
516.502	5327.87
516.869	5479.73
517.237	5490.35
517.604	5493.29
517.972	5541.87
518.339	5594.98
518.706	5545.72
519.073	5639.72
519.44	5694.86
519.808	5685.15
520.175	5739.61
520.542	5775.99
520.909	5837.91
521.276	5857.35
521.643	5914.75
522.009	5917.68
522.376	5988.42
522.743	6016.21
523.11	6085.36
523.477	6123.78
523.843	6146.6
524.21	6185.92
524.577	6283.32
524.943	6313.38
525.31	6280.16
525.676	6391.12
526.043	6424.34
526.409	6485.8
526.776	6509.98
527.142	6527.38
527.508	6557.89
527.874	6634.5
528.241	6639.25
528.607	6724.44
528.973	6773.93
529.339	6740.71
529.705	6809.64
530.071	6879.92
530.437	6922.18
530.803	6957.66
531.169	6991.33
531.535	6993.81
531.901	7021.84
532.267	7079.69
532.632	7154.94
532.998	7174.37
533.364	7205.33
533.73	7263.64
534.095	7250.53
534.461	7254.82
534.826	7359.23
535.192	7337.99
535.557	7381.6
535.923	7393.8
536.288	7411.43
536.653	7494.14
537.019	7490.52
537.384	7572.33
537.749	7541.14
538.114	7581.82
538.479	7570.07
538.845	7659.11
539.21	7674.93
539.575	7652.33
539.94	7709.5
540.305	7764.41
540.67	7733.23
541.034	7755.83
541.399	7826.11
541.764	7815.03
542.129	7926.22
542.494	7848.93
542.858	7938.87
543.223	7985.43
543.587	8017.52
543.952	8017.97
544.316	8060.9
544.681	8062.49
545.045	8094.58
545.41	8097.29
545.774	8109.94
546.138	8092.32
546.503	8127.12
546.867	8235.14
547.231	8264.97
547.595	8300.22
547.959	8266.1
548.324	8280.79
548.688	8278.53
549.052	8371.4
549.416	8408.01
549.779	8433.1
550.143	8436.71
550.507	8493.43
550.871	8530.72
551.235	8476.03
551.599	8610.27
551.962	8612.08
552.326	8691.17
552.689	8609.14
553.053	8689.14
553.417	8695.46
553.78	8815.46
554.143	8790.6
554.507	8794.67
554.87	8870.15
555.234	8887.77
555.597	8918.96
555.96	8970.71
556.323	8949.24
556.686	8966.42
557.05	9040.99
557.413	9014.55
557.776	9094.77
558.139	9150.59
558.502	9154.89
558.865	9216.81
559.228	9229.91
559.59	9272.17
559.953	9296.35
560.316	9448.21
560.679	9442.56
561.041	9437.14
561.404	9549.23
561.767	9559.17
562.129	9570.02
562.492	9634.2
562.854	9697.25
563.217	9669.68
563.579	9739.73
563.941	9709.67
564.304	9817.47
564.666	9861.76
565.028	9902.21
565.39	9894.53
565.753	9971.14
566.115	10058.59
566.477	10039.61
566.839	10108.53
567.201	10144.46
567.563	10196.89
567.925	10328.19
568.287	10259.94
568.648	10316.89
569.01	10265.59
569.372	10474.85
569.734	10371.58
570.095	10484.12
570.457	10465.13
570.819	10451.35
571.18	10561.18
571.542	10581.06
571.903	10614.51
572.265	10663.1
572.626	10644.56
572.987	10735.41
573.349	10738.8
573.71	10772.47
574.071	10764.34
574.432	10803.2
574.794	10914.84
575.155	10873.26
575.516	10901.28
575.877	10893.15
576.238	10932.69
576.599	10995.06
576.96	10970.21
577.32	10951.68
577.681	11009.75
578.042	11031.22
578.403	11038
578.763	11089.98
579.124	11086.36
579.485	11173.14
579.845	11155.29
580.206	11141.05
580.566	11127.49
580.927	11072.35
581.287	11198
581.648	11154.38
582.008	11205.45
582.368	11185.34
582.728	11195.06
583.089	11204.55
583.449	11193.25
583.809	11148.96
584.169	11211.1
584.529	11231.89
584.889	11349.4
585.249	11305.79
585.609	11221.95
585.969	11279.12
586.329	11230.31
586.688	11337.2
587.048	11324.77
587.408	11250.2
587.768	11296.53
588.127	11314.83
588.487	11245.68
588.846	11322.29
589.206	11302.17
589.565	11337.65
589.925	11326.35
590.284	11323.87
590.643	11326.58
591.003	11362.74
591.362	11417.2
591.721	11313.93
592.08	11353.02
592.44	11307.37
592.799	11388.73
593.158	11354.83
593.517	11349.63
593.876	11353.02
594.235	11343.76
594.593	11337.43
594.952	11321.61
595.311	11361.38
595.67	11350.08
596.029	11446.35
596.387	11417.43
596.746	11471.66
597.104	11336.52
597.463	11323.19
597.822	11412
598.18	11344.66
598.538	11405.9
598.897	11483.19
599.255	11391.89
599.613	11554.37
599.972	11538.78
600.33	11449.06
600.688	11430.31
601.046	11533.58
601.404	11530.64
601.762	11574.26
602.12	11567.7
602.478	11616.29
602.836	11579
603.194	11443.64
603.552	11554.37
603.91	11487.48
604.268	11605.9
604.625	11538.55
604.983	11628.49
605.341	11559.57
605.698	11634.82
606.056	11672.33
606.413	11677.76
606.771	11689.28
607.128	11720.47
607.485	11629.17
607.843	11668.72
608.2	11710.53
608.557	11765.21
608.914	11652.67
609.272	11814.03
609.629	11812.67
609.986	11806.34
610.343	11809.96
610.7	11913.46
611.057	11802.73
611.414	11802.5
611.771	11838.43
612.127	11938.99
612.484	11842.73
612.841	12006.34
613.198	11962.27
613.554	11873.46
613.911	11933.57
614.267	11992.55
614.624	11900.35
614.98	11909.84
615.337	12047.24
615.693	12017.41
616.05	12009.95
616.406	12136.05
616.762	12000.69
617.118	12028.94
617.475	12089.95
617.831	12075.49
618.187	12086.79
618.543	12035.26
618.899	12179.44
619.255	12141.25
619.611	12129.27
619.967	12115.03
620.323	12164.07
620.678	12062.61
621.034	12014.7
621.39	12076.39
621.746	12105.77
622.101	12224.64
622.457	12075.71
622.812	12152.1
623.168	12178.08
623.523	12120.23
623.879	12174.24
624.234	12102.83
624.589	12187.58
624.945	12148.25
625.3	12235.03
625.655	12183.28
626.01	12137.86
626.365	12230.06
626.72	12184.86
627.075	12195.94
627.43	12129.72
627.785	12112.77
628.14	12172.89
628.495	12172.43
628.85	12168.14
629.205	12145.09
629.559	12187.8
629.914	12094.7
630.269	12114.13
630.623	12103.74
630.978	12082.27
631.332	12128.59
631.687	12247.23
632.041	12059.44
632.396	12130.18
632.75	11943.29
633.104	12035.04
633.459	11987.13
633.813	12043.85
634.167	11988.26
634.521	12009.73
634.875	11950.07
635.229	11990.52
635.583	11883.63
635.937	11900.58
636.291	11940.58
636.645	11937.86
636.999	11906.23
637.352	11877.07
637.706	11813.12
638.06	11933.8
638.413	11811.99
638.767	11829.39
639.121	11797.53
639.474	11777.87
639.828	11684.76
640.181	11758.43
640.534	11780.13
640.888	11680.92
641.241	11681.15
641.594	11734.03
641.947	11708.27
642.301	11607.25
642.654	11718.21
643.007	11614.48
643.36	11686.35
643.713	11644.09
644.066	11668.49
644.419	11592.34
644.771	11512.56
645.124	11455.16
645.477	11352.79
645.83	11323.87
646.182	11265.57
646.535	11256.53
646.888	11300.14
647.24	11136.98
647.593	11220.37
647.945	11216.08
648.298	11106.47
648.65	11122.52
649.002	11049.53
649.355	11163.87
649.707	11146.92
650.059	11238.22
650.411	11227.6
650.763	11333.59
651.115	11394.38
651.467	11373.59
651.819	11348.95
652.171	11314.83
652.523	11342.85
652.875	11287.71
653.227	11313.02
653.578	11359.35
653.93	11297.88
654.282	11255.62
654.633	11223.31
654.985	11167.26
655.337	11224.44
655.688	11137.21
656.039	11272.12
656.391	11202.97
656.742	11189.86
657.094	11209.52
657.445	11170.2
657.796	11203.87
658.147	11186.02
658.498	11169.75
658.849	11243.65
659.2	11125
659.551	11155.74
659.902	11240.71
660.253	11163.42
660.604	11189.86
660.955	11101.5
661.306	11188.96
661.656	11106.7
662.007	11157.09
662.358	11127.26
662.708	11093.37
663.059	11123.2
663.409	11014.05
663.76	11156.64
664.11	11077.32
664.461	11068.28
664.811	11142.4
665.161	11099.47
665.511	11057.66
665.862	11061.73
666.212	11096.53
666.562	11099.69
666.912	11038.23
667.262	11028.28
667.612	11051.11
667.962	11049.53
668.312	11036.64
668.662	11088.85
669.011	11118.9
669.361	11017.89
669.711	11031.45
670.06	10996.87
670.41	11048.85
670.76	10982.63
671.109	11075.06
671.459	10976.31
671.808	10978.34
672.157	11003.43
672.507	10880.26
672.856	10886.82
673.205	10859.02
673.554	10962.07
673.904	10921.39
674.253	10994.84
674.602	10936.08
674.951	10867.84
675.3	10741.51
675.649	10940.6
675.998	10873.03
676.346	10912.81
676.695	10943.99
677.044	10806.14
677.393	10914.84
677.741	10904.9
678.09	10811.11
678.438	10798.23
678.787	10821.74
679.135	10851.34
679.484	10757.78
679.832	10785.35
680.181	10742.87
680.529	10773.6
680.877	10767.27
681.225	10765.69
681.573	10784.9
681.922	10672.36
682.27	10659.25
682.618	10633.04
682.966	10596.43
683.314	10663.1
683.661	10628.07
684.009	10563.66
684.357	10522.31
684.705	10532.93
685.053	10558.01
685.4	10507.85
685.748	10457.45
686.095	10503.55
686.443	10506.26
686.79	10447.06
687.138	10464.46
687.485	10396.66
687.832	10395.08
688.18	10363.44
688.527	10334.52
688.874	10324.8
689.221	10329.09
689.568	10246.38
689.915	10219.04
690.262	10268.08
690.609	10127.52
690.956	10179.72
691.303	10159.61
691.65	10069.44
691.997	10142.21
692.344	10038.25
692.69	10079.83
693.037	10101.3
693.383	10004.58
693.73	10034.19
694.077	9934.3
694.423	9950.35
694.769	9898.14
695.116	9876.9
695.462	9879.84
695.808	9844.36
696.155	9915.32
696.501	9757.58
696.847	9786.28
697.193	9707.64
697.539	9744.25
697.885	9688.21
698.231	9671.03
698.577	9600.52
698.923	9666.06
699.269	9593.97
699.614	9578.38
699.96	9527.98
700.306	9448.21
700.651	9507.65
700.997	9509.45
701.342	9415.67
701.688	9473.3
702.033	9408.44
702.379	9425.61
702.724	9345.16
703.069	9426.07
703.415	9276.47
703.76	9351.94
704.105	9264.94
704.45	9297.48
704.795	9256.8
705.14	9231.04
705.485	9224.49
705.83	9231.72
706.175	9116.92
706.52	9149.46
706.865	9110.82
707.209	9111.5
707.554	9085.51
707.899	9056.58
708.243	8961.67
708.588	9050.48
708.932	8919.86
709.277	8980.88
709.621	8971.61
709.966	8906.76
710.31	8938.62
710.654	8838.06
710.998	8923.03
711.342	8853.88
711.687	8830.6
712.031	8806.65
712.375	8745.63
712.719	8739.98
713.063	8755.12
713.407	8740.21
713.75	8743.37
714.094	8686.65
714.438	8668.35
714.782	8742.24
715.125	8621.34
715.469	8622.92
715.812	8639.87
716.156	8577.05
716.499	8579.76
716.843	8610.95
717.186	8555.35
717.53	8549.7
717.873	8531.4
718.216	8524.17
718.559	8495.02
718.902	8409.37
719.246	8469.03
719.589	8404.85
719.932	8433.78
720.275	8421.57
720.617	8341.35
720.96	8381.12
721.303	8391.74
721.646	8368.24
721.989	8354.91
722.331	8353.33
722.674	8386.77
723.016	8340.22
723.359	8346.55
723.701	8333.21
724.044	8280.56
724.386	8228.81
724.729	8259.99
725.071	8176.16
725.413	8237.85
725.755	8198.08
726.097	8212.09
726.439	8202.14
726.782	8165.53
727.124	8154.91
727.465	8137.06
727.807	8145.65
728.149	8124.63
728.491	8084.86
728.833	8109.94
729.175	8021.58
729.516	8111.3
729.858	8060.23
730.199	8029.49
730.541	8068.59
730.882	8005.99
731.224	8031.98
731.565	7963.96
731.906	7963.73
732.248	7991.08
732.589	7932.77
732.93	7936.84
733.271	7860.91
733.612	7868.37
733.953	7900.68
734.294	7883.96
734.635	7891.87
734.976	7892.09
735.317	7830.63
735.658	7856.84
735.999	7824.07
736.339	7822.94
736.68	7898.42
737.021	7913.11
737.361	7745.21
737.702	7777.07
738.042	7794.24
738.383	7767.35
738.723	7730.07
739.063	7746.79
739.404	7749.95
739.744	7744.53
740.084	7675.15
740.424	7735.04
740.764	7674.25
741.104	7689.39
741.444	7683.29
741.784	7624.08
742.124	7629.05
742.464	7603.29
742.804	7586.11
743.143	7603.97
743.483	7584.53
743.823	7511.99
744.162	7560.35
744.502	7537.75
744.841	7524.19
745.181	7506.79
745.52	7524.65
745.86	7427.02
746.199	7455.04
746.538	7476.74
746.877	7501.82
747.216	7470.86
747.556	7420.47
747.895	7472.67
748.234	7438.1
748.573	7348.61
748.911	7420.02
749.25	7457.3
749.589	7393.35
749.928	7402.62
750.267	7380.02
750.605	7373.46
750.944	7291.21
751.283	7265.67
751.621	7304.77
751.96	7246.01
752.298	7243.07
752.636	7268.61
752.975	7226.35
753.313	7229.51
753.651	7210.76
753.989	7230.87
754.327	7157.88
754.666	7081.72
755.004	7180.48
755.342	7154.71
755.679	7162.85
756.017	7088.5
756.355	7100.48
756.693	7051.66
757.031	7109.29
757.368	6945.45
757.706	7004.89
758.044	6994.49
758.381	7048.05
758.719	6964.66
759.056	6940.26
759.394	6977.32
759.731	6872.91
760.068	6849.41
760.405	6858.22
760.743	6796.53
761.08	6838.11
761.417	6806.93
761.754	6756.98
762.091	6780.49
762.428	6761.05
762.765	6691.67
763.102	6719.02
763.438	6736.64
763.775	6670.43
764.112	6667.27
764.449	6675.86
764.785	6637.44
765.122	6588.85
765.458	6553.82
765.795	6608.06
766.131	6560.6
766.467	6480.61
766.804	6491.68
767.14	6457.56
767.476	6476.54
767.812	6451
768.148	6440.38
768.485	6435.86
768.821	6376.88
769.157	6410.33
769.492	6377.78
769.828	6292.36
770.164	6272.48
770.5	6273.61
770.836	6294.85
771.171	6206.72
771.507	6206.49
771.842	6141.41
772.178	6199.48
772.513	6112.03
772.849	6094.63
773.184	6082.88
773.519	6080.84
773.855	6093.27
774.19	6053.73
774.525	6031.8
774.86	6025.03
775.195	6026.38
775.53	6005.59
775.865	5906.16
776.2	5918.81
776.535	5939.38
776.87	5847.18
777.205	5907.06
777.539	5809.89
777.874	5806.95
778.209	5793.84
778.543	5736.9
778.878	5740.06
779.212	5775.31
779.547	5784.58
779.881	5726.28
780.215	5750.46
780.55	5712.72
780.884	5617.8
781.218	5614.19
781.552	5696.67
781.886	5632.49
782.22	5566.73
782.554	5555.21
782.888	5506.62
783.222	5530.57
783.556	5477.69
783.889	5461.2
784.223	5442.22
784.557	5439.28
784.89	5472.5
785.224	5409.45
785.557	5386.17
785.891	5360.86
786.224	5335.33
786.558	5297.36
786.891	5305.27
787.224	5295.33
787.557	5207.42
787.891	5255.78
788.224	5241.32
788.557	5200.41
788.89	5201.32
789.223	5204.48
789.556	5145.05
789.888	5151.83
790.221	5138.95
790.554	5077.71
790.887	5110.92
791.219	5081.1
791.552	5075.67
791.884	5051.04
792.217	5067.31
792.549	5021.89
792.882	4987.99
793.214	4985.05
793.546	5012.17
793.879	4922
794.211	4915.45
794.543	4944.15
794.875	4920.87
795.207	4927.43
795.539	4940.53
795.871	4884.04
796.203	4841.55
796.535	4802.68
796.867	4808.56
797.198	4810.37
797.53	4801.1
797.862	4758.62
798.193	4771.95
798.525	4745.51
798.856	4736.7
799.188	4720.88
799.519	4718.62
799.85	4681.33
800.182	4687.89
800.513	4681.33
800.844	4642.24
801.175	4673.65
801.506	4585.06
801.837	4617.38
802.168	4629.58
802.499	4612.41
802.83	4566.98
803.161	4557.27
803.491	4511.84
803.822	4593.2
804.153	4528.12
804.483	4495.57
804.814	4511.17
805.145	4507.55
805.475	4501.45
805.805	4471.62
806.136	4496.25
806.466	4439.98
806.796	4441.11
807.126	4451.51
807.457	4435.46
807.787	4377.38
808.117	4396.82
808.447	4371.96
808.777	4390.72
809.107	4385.75
809.436	4307.33
809.766	4336.71
810.096	4324.05
810.426	4290.83
810.755	4299.65
811.085	4296.26
811.414	4304.62
811.744	4216.71
812.073	4233.21
812.403	4230.5
812.732	4232.08
813.061	4263.04
813.39	4174.23
813.719	4238.86
814.049	4197.5
814.378	4184.62
814.707	4172.42
815.036	4159.76
815.365	4176.03
815.693	4095.81
816.022	4132.42
816.351	4136.04
816.68	4115.47
817.008	4134.68
817.337	4073.66
817.665	4037.51
817.994	4082.48
818.322	4048.35
818.651	4065.98
818.979	4034.8
819.307	4052.42
819.636	4044.51
819.964	4015.13
820.292	4017.39
820.62	4043.83
820.948	4014.23
821.276	4058.98
821.604	4052.2
821.932	4006.1
822.259	4014.46
822.587	4019.2
822.915	4001.8
823.243	3988.24
823.57	4044.29
823.898	4012.65
824.225	3980.33
824.553	3986.66
824.88	3950.73
825.207	3981.46
825.535	3955.93
825.862	4079.77
826.189	3991.41
826.516	3992.99
826.843	3986.89
827.17	3969.26
827.497	4015.36
827.824	4039.77
828.151	3982.59
828.478	3984.85
828.805	4012.2
829.131	3994.8
829.458	3965.19
829.785	3917.51
830.111	3946.66
830.438	3963.61
830.764	3961.12
831.09	4039.54
831.417	3956.15
831.743	3994.12
832.069	3958.64
832.395	3961.58
832.722	3951.86
833.048	3959.77
833.374	3945.53
833.7	3948.24
834.026	3954.35
834.351	3983.5
834.677	3909.15
835.003	3943.27
835.329	3943.95
835.654	3926.32
835.98	3913.44
836.306	3915.7
836.631	3935.36
836.956	3934.46
837.282	3954.35
837.607	3883.39
837.932	3890.62
838.258	3947.11
838.583	3893.33
838.908	3905.76
839.233	3894.01
839.558	3849.72
839.883	3863.5
840.208	3821.02
840.533	3806.1
840.858	3845.65
841.182	3820.79
841.507	3844.29
841.832	3798.42
842.156	3800.68
842.481	3778.08
842.805	3784.63
843.13	3768.36
843.454	3766.78
843.778	3712.32
844.103	3740.11
844.427	3736.5
844.751	3738.53
845.075	3687.46
845.399	3717.29
845.723	3682.94
846.047	3691.3
846.371	3680.45
846.695	3660.12
847.019	3635.71
847.343	3630.29
847.666	3637.52
847.99	3626.67
848.313	3607.24
848.637	3584.64
848.96	3580.12
849.284	3581.93
849.607	3583.28
849.931	3577.86
850.254	3524.07
850.577	3525.2
850.9	3464.64
851.223	3462.61
851.546	3492.66
851.869	3454.7
852.192	3509.61
852.515	3458.54
852.838	3412.21
853.161	3466.67
853.483	3396.17
853.806	3421.93
854.129	3379.67
854.451	3396.39
854.774	3346.68
855.096	3337.64
855.419	3337.64
855.741	3339.9
856.063	3313.68
856.385	3327.69
856.708	3306.45
857.03	3320.92
857.352	3295.15
857.674	3302.16
857.996	3254.7
858.318	3272.56
858.64	3247.25
858.961	3224.19
859.283	3227.36
859.605	3261.03
859.926	3230.97
860.248	3217.87
860.57	3202.05
860.891	3211.31
861.212	3209.05
861.534	3194.14
861.855	3205.44
862.176	3166.8
862.498	3180.81
862.819	3188.94
863.14	3161.82
863.461	3160.47
863.782	3165.89
864.103	3162.73
864.424	3159.56
864.745	3133.58
865.065	3140.81
865.386	3132.45
865.707	3122.28
866.027	3094.25
866.348	3133.8
866.668	3104.2
866.989	3121.6
867.309	3075.95
867.63	3101.94
867.95	3081.15
868.27	3100.58
868.59	3076.18
868.91	3058.78
869.23	3064.43
869.55	3034.14
869.87	3041.83
870.19	3043.41
870.51	3032.56
870.83	3026.23
871.15	3032.11
871.469	3048.38
871.789	3021.49
872.109	3009.74
872.428	2995.5
872.748	3052
873.067	3021.26
873.386	3037.99
873.706	3019.91
874.025	3007.03
874.344	3001.38
874.663	2988.72
874.982	2996.63
875.301	2967.25
875.62	2988.27
875.939	2963.64
876.258	2992.79
876.577	2968.38
876.896	2946.01
877.214	2934.26
877.533	2940.59
877.852	2946.91
878.17	2951.21
878.489	2949.85
878.807	2948.27
879.125	2941.49
879.444	2953.92
879.762	2910.3
880.08	2922.06
880.398	2899.23
880.716	2882.51
881.034	2882.28
881.352	2925.45
881.67	2895.16
881.988	2893.81
882.306	2851.55
882.624	2868.95
882.941	2903.75
883.259	2852.91
883.577	2849.97
883.894	2861.27
884.212	2829.85
884.529	2810.42
884.846	2836.86
885.164	2809.52
885.481	2843.87
885.798	2845.45
886.115	2785.56
886.432	2835.96
886.75	2800.7
887.067	2769.52
887.383	2779.91
887.7	2787.37
888.017	2758.67
888.334	2723.87
888.651	2743.3
888.967	2753.47
889.284	2768.39
889.6	2755.96
889.917	2711.67
890.233	2737.43
890.55	2708.95
890.866	2699.46
891.182	2720.25
891.498	2761.16
891.815	2733.36
892.131	2674.15
892.447	2653.81
892.763	2694.94
893.079	2659.24
893.395	2668.05
893.71	2700.82
894.026	2644.55
894.342	2652.46
894.657	2642.29
894.973	2618.56
895.289	2639.8
895.604	2649.97
895.92	2596.19
896.235	2583.53
896.55	2544.89
896.865	2561.39
897.181	2526.13
897.496	2589.64
897.811	2543.99
898.126	2522.29
898.441	2536.98
898.756	2516.87
899.071	2506.47
899.386	2498.11
899.7	2494.27
900.015	2478.45
900.33	2500.82
900.644	2486.59
900.959	2456.98
901.273	2492.69
901.588	2493.59
901.902	2477.32
902.216	2458.11
902.531	2484.33
902.845	2445.68
903.159	2447.49
903.473	2436.64
903.787	2410.2
904.101	2402.07
904.415	2422.41
904.729	2393.71
905.042	2377.44
905.356	2360.26
905.67	2350.55
905.984	2355.07
906.297	2319.81
906.611	2332.47
906.924	2337.44
907.237	2328.4
907.551	2312.58
907.864	2292.92
908.177	2318.91
908.491	2311.45
908.804	2281.39
909.117	2288.85
909.43	2298.34
909.743	2238.46
910.056	2231.45
910.368	2243.2
910.681	2209.76
910.994	2255.86
911.307	2214.73
911.619	2212.92
911.932	2198.01
912.244	2200.72
912.557	2207.05
912.869	2189.42
913.181	2146.94
913.494	2182.41
913.806	2143.09
914.118	2162.08
914.43	2169.31
914.742	2142.42
915.054	2137.67
915.366	2133.38
915.678	2128.86
915.99	2108.97
916.302	2080.27
916.613	2108.74
916.925	2089.76
917.236	2070.78
917.548	2044.79
917.859	2103.32
918.171	2090.21
918.482	2059.48
918.794	2040.95
919.105	2054.06
919.416	2028.75
919.727	2037.33
920.038	2027.39
920.349	1994.17
920.66	1993.27
920.971	1992.81
921.282	1980.84
921.593	1972.93
921.903	1971.35
922.214	2012.7
922.525	1983.55
922.835	1933.16
923.146	1954.4
923.456	1929.99
923.767	1925.02
924.077	1939.71
924.387	1928.18
924.697	1883.21
925.008	1915.3
925.318	1932.7
925.628	1901.29
925.938	1875.08
926.248	1866.94
926.558	1897.22
926.867	1883.21
927.177	1840.5
927.487	1839.15
927.796	1827.4
928.106	1842.31
928.416	1861.52
928.725	1827.4
929.034	1814.74
929.344	1810.67
929.653	1825.14
929.962	1793.27
930.271	1793.5
930.581	1772.48
930.89	1783.1
931.199	1774.74
931.508	1766.38
931.817	1720.05
932.125	1778.36
932.434	1767.96
932.743	1750.79
933.051	1753.73
933.36	1696.1
933.669	1720.96
933.977	1738.36
934.286	1713.95
934.594	1664.24
934.902	1666.27
935.21	1675.08
935.519	1678.02
935.827	1676.21
936.135	1698.59
936.443	1668.98
936.751	1657.46
937.059	1667.63
937.367	1636.21
937.674	1671.47
937.982	1628.08
938.29	1610.45
938.597	1635.31
938.905	1637.8
939.213	1616.33
939.52	1613.84
939.827	1624.91
940.135	1586.27
940.442	1617.91
940.749	1606.16
941.056	1578.36
941.363	1565.26
941.67	1605.93
941.977	1548.76
942.284	1539.95
942.591	1536.1
942.898	1520.74
943.205	1539.72
943.511	1543.56
943.818	1524.58
944.125	1523.22
944.431	1510.34
944.738	1520.06
945.044	1492.26
945.35	1490.46
945.657	1494.3
945.963	1505.37
946.269	1505.14
946.575	1465.37
946.881	1500.17
947.187	1485.03
947.493	1463.11
947.799	1481.19
948.105	1471.25
948.41	1470.34
948.716	1450.91
949.022	1452.49
949.327	1419.27
949.633	1423.11
949.938	1424.69
950.244	1426.95
950.549	1412.94
950.854	1389.44
951.16	1420.63
951.465	1402.32
951.77	1398.93
952.075	1395.99
952.38	1371.59
952.685	1368.42
952.99	1355.54
953.294	1355.32
953.599	1377.69
953.904	1361.87
954.209	1346.28
954.513	1364.81
954.818	1351.48
955.122	1335.88
955.426	1339.05
955.731	1336.11
956.035	1325.04
956.339	1319.84
956.643	1305.38
956.948	1314.64
957.252	1317.13
957.556	1280.74
957.86	1296.56
958.163	1280.97
958.467	1288.88
958.771	1299.05
959.075	1284.36
959.378	1267.41
959.682	1287.75
959.985	1273.06
960.289	1269.22
960.592	1258.6
960.896	1257.69
961.199	1232.16
961.502	1257.69
961.805	1229.22
962.108	1225.15
962.411	1230.12
962.714	1232.83
963.017	1228.09
963.32	1198.94
963.623	1229.22
963.926	1248.65
964.228	1203.68
964.531	1205.26
964.833	1198.03
965.136	1203.01
965.438	1185.15
965.741	1177.92
966.043	1166.62
966.345	1156
966.648	1202.55
966.95	1187.19
967.252	1177.92
967.554	1157.81
967.856	1156.9
968.158	1145.15
968.46	1162.33
968.761	1185.6
969.063	1143.8
969.365	1129.79
969.666	1145.83
969.968	1127.07
970.269	1138.83
970.571	1110.13
970.872	1127.75
971.174	1115.32
971.475	1132.5
971.776	1105.61
972.077	1097.92
972.378	1107.41
972.679	1122.78
972.98	1104.7
973.281	1081.2
973.582	1077.13
973.883	1078.94
974.183	1070.13
974.484	1104.02
974.785	1067.19
975.085	1061.99
975.386	1070.81
975.686	1071.48
975.986	1050.24
976.287	1069.68
976.587	1052.05
976.887	1043.91
977.187	1037.59
977.487	1018.83
977.787	1042.11
978.087	1036.46
978.387	1046.17
978.687	1032.84
978.987	1017.02
979.286	1022.22
979.586	1024.48
979.885	1015.44
980.185	1014.54
980.484	1005.5
980.784	1010.24
981.083	1019.28
981.382	1009.11
981.682	977.02
981.981	971.37
982.28	977.7
982.579	981.99
982.878	995.78
983.177	982.9
983.475	978.83
983.774	964.82
984.073	984.03
984.372	946.29
984.67	965.05
984.969	983.58
985.267	954.65
985.566	925.95
985.864	964.82
986.162	945.61
986.461	938.83
986.759	944.48
987.057	930.92
987.355	924.82
987.653	925.27
987.951	920.07
988.249	912.62
988.547	916.01
988.844	902.22
989.142	913.3
989.44	931.83
989.737	900.87
990.035	917.36
990.332	890.92
990.63	917.59
990.927	917.81
991.224	915.33
991.521	874.88
991.819	890.47
992.116	880.08
992.413	898.15
992.71	893.86
993.006	884.6
993.303	871.26
993.6	863.35
993.897	869.91
994.193	852.96
994.49	851.83
994.787	869.45
995.083	857.03
995.379	843.01
995.676	835.78
995.972	860.42
996.268	855.9
996.565	842.79
996.861	838.95
997.157	825.16
997.453	809.34
997.749	803.47
998.044	835.78
998.34	825.39
998.636	815.22
998.932	804.15
999.227	812.28
999.523	794.88
999.818	812.73
1000.114	806.41
1000.409	790.59
1000.704	801.43
1001	836.24
1001.295	779.51
1001.59	800.3
1001.885	813.64
1002.18	777.48
1002.475	791.04
1002.77	770.25
1003.065	777.03
1003.359	772.06
1003.654	776.35
1003.949	787.2
1004.243	758.5
1004.538	767.99
1004.832	740.42
1005.127	756.01
1005.421	755.56
1005.715	747.88
1006.009	753.75
1006.304	734.77
1006.598	741.55
1006.892	748.55
1007.186	746.07
1007.48	714.43
1007.773	725.5
1008.067	736.35
1008.361	723.02
1008.655	705.62
1008.948	697.93
1009.242	713.98
1009.535	721.66
1009.829	721.66
1010.122	714.2
1010.415	684.83
1010.708	714.43
1011.001	720.53
1011.295	709.23
1011.588	702
1011.881	655.9
1012.173	696.58
1012.466	650.7
1012.759	689.57
1013.052	692.74
1013.344	674.43
1013.637	680.53
1013.93	674.66
1014.222	686.86
1014.514	666.3
1014.807	649.8
1015.099	643.92
1015.391	653.87
1015.683	642.57
1015.976	670.36
1016.268	663.58
1016.56	653.64
1016.851	643.25
1017.143	660.19
1017.435	662
1017.727	643.47
1018.018	632.85
1018.31	623.59
1018.602	647.09
1018.893	612.51
1019.185	623.36
1019.476	633.75
1019.767	607.99
1020.058	617.71
1020.35	607.77
1020.641	641.44
1020.932	586.75
1021.223	608.22
1021.514	604.6
1021.804	604.38
1022.095	606.41
1022.386	587.65
1022.677	605.28
1022.967	601.66
1023.258	577.94
1023.548	581.78
1023.839	583.13
1024.129	609.8
1024.419	598.95
1024.709	564.38
1025	564.38
1025.29	583.36
1025.58	577.71
1025.87	589.01
1026.16	577.48
1026.449	570.03
1026.739	554.21
1027.029	550.82
1027.319	576.81
1027.608	572.06
1027.898	561.89
1028.187	566.64
1028.477	558.95
1028.766	542.91
1029.055	543.14
1029.344	557.82
1029.634	581.33
1029.923	543.59
1030.212	531.38
1030.501	538.39
1030.79	532.29
1031.078	512.63
1031.367	532.06
1031.656	508.11
1031.945	527.09
1032.233	556.47
1032.522	540.42
1032.81	533.64
1033.099	496.58
1033.387	513.31
1033.675	521.89
1033.963	507.66
1034.251	518.05
1034.54	520.76
1034.828	500.65
1035.116	501.1
1035.403	506.07
1035.691	513.08
1035.979	492.06
1036.267	474.44
1036.554	504.94
1036.842	497.49
1037.129	486.64
1037.417	515.79
1037.704	494.32
1037.992	485.06
1038.279	477.6
1038.566	483.93
1038.853	483.93
1039.14	483.93
