Data from black_plastic_tray_FLMS001491_028.txt Node
Date: Tue Feb 07 10:39:31 GMT 2017
User: dcchb
Spectrometer: FLMS00149
Trigger mode: 0
Integration Time (sec): 2.000000E-2
Scans to average: 10
Electric dark correction enabled: true
Nonlinearity correction enabled: false
Boxcar width: 0
XAxis mode: Wavelengths
Number of Pixels in Spectrum: 2048
>>>>>Begin Spectral Data<<<<<
341.393	-13.32
341.776	-13.32
342.16	-13.32
342.543	-64.62
342.927	-68.46
343.31	-49.02
343.693	-73.66
344.077	-71.85
344.46	-75.24
344.843	-36.37
345.226	-28.46
345.61	-25.75
345.993	-11.96
346.376	-10.38
346.759	8.15
347.142	2.5
347.525	52.22
347.908	56.28
348.291	68.03
348.674	92.89
349.057	102.61
349.44	124.3
349.823	143.97
350.206	139.22
350.588	188.71
350.971	196.85
351.354	209.95
351.737	220.35
352.119	227.8
352.502	246.56
352.884	260.35
353.267	253.79
353.65	275.26
354.032	270.52
354.414	273.91
354.797	297.41
355.179	277.52
355.562	297.41
355.944	318.42
356.326	315.71
356.709	332.66
357.091	314.58
357.473	342.83
357.855	325.66
358.238	355.26
358.62	354.36
359.002	314.36
359.384	319.55
359.766	316.16
360.148	302.83
360.53	322.94
360.912	324.07
361.294	305.32
361.676	308.93
362.057	324.75
362.439	315.71
362.821	310.74
363.203	294.24
363.584	313.9
363.966	298.31
364.348	331.53
364.729	300.8
365.111	315.94
365.493	301.25
365.874	320.46
366.256	315.26
366.637	310.51
367.019	315.26
367.4	306.9
367.781	312.77
368.163	315.71
368.544	312.1
368.925	298.99
369.306	318.42
369.688	294.02
370.069	282.04
370.45	293.11
370.831	308.71
371.212	308.25
371.593	304.41
371.974	308.71
372.355	306.22
372.736	307.58
373.117	329.05
373.498	330.4
373.879	287.46
374.26	287.24
374.641	325.2
375.021	297.18
375.402	309.38
375.783	312.55
376.163	341.25
376.544	322.72
376.925	320.23
377.305	329.27
377.686	320.01
378.066	309.61
378.447	328.82
378.827	321.36
379.208	313
379.588	311.87
379.968	321.36
380.349	331.3
380.729	334.69
381.109	326.33
381.489	338.54
381.87	334.24
382.25	326.56
382.63	354.13
383.01	340.57
383.39	358.65
383.77	344.41
384.15	334.02
384.53	331.98
384.91	341.02
385.29	346.67
385.67	348.25
386.049	360.23
386.429	368.59
386.809	344.86
387.189	362.04
387.568	365.88
387.948	365.88
388.328	372.89
388.707	360.91
389.087	366.78
389.466	378.31
389.846	371.53
390.225	369.27
390.605	400.68
390.984	404.3
391.363	388.25
391.743	383.73
392.122	391.64
392.501	406.56
392.881	379.67
393.26	383.51
393.639	385.54
394.018	389.61
394.397	411.08
394.776	393.9
395.155	410.62
395.534	412.21
395.913	403.17
396.292	389.83
396.671	423.96
397.05	411.3
397.429	423.51
397.808	400.91
398.186	409.27
398.565	402.04
398.944	412.43
399.323	411.98
399.701	427.12
400.08	431.42
400.458	439.78
400.837	448.59
401.215	433.9
401.594	425.77
401.972	445.43
402.351	469.15
402.729	450.62
403.107	432.77
403.486	435.03
403.864	448.59
404.242	444.07
404.62	466.89
404.999	479.1
405.377	459.21
405.755	449.95
406.133	470.51
406.511	463.96
406.889	472.54
407.267	474.35
407.645	485.43
408.023	514.12
408.401	492.66
408.779	472.54
409.156	530.85
409.534	519.1
409.912	489.04
410.29	512.54
410.667	516.16
411.045	522.03
411.422	514.8
411.8	558.87
412.178	542.15
412.555	522.03
412.933	537.18
413.31	538.98
413.687	554.35
414.065	557.51
414.442	554.12
414.819	574.24
415.197	563.62
415.574	587.8
415.951	584.18
416.328	574.91
416.705	583.28
417.082	578.76
417.46	611.07
417.837	578.76
418.214	609.94
418.591	596.83
418.967	600.45
419.344	603.84
419.721	621.01
420.098	599.09
420.475	637.96
420.852	632.31
421.228	638.64
421.605	646.78
421.982	642.03
422.358	651.75
422.735	667.79
423.111	640.45
423.488	669.6
423.864	661.01
424.241	684.74
424.617	681.58
424.994	691.52
425.37	681.13
425.746	693.78
426.123	702.37
426.499	701.01
426.875	717.51
427.251	699.2
427.627	730.62
428.003	726.55
428.379	731.75
428.756	757.73
429.132	777.39
429.507	761.35
429.883	775.81
430.259	789.82
430.635	784.63
431.011	797.51
431.387	807.9
431.763	825.53
432.138	813.55
432.514	842.93
432.89	820.11
433.265	853.55
433.641	837.96
434.016	864.17
434.392	870.5
434.767	874.57
435.143	865.75
435.518	881.35
435.894	915.02
436.269	897.17
436.644	888.13
437.02	936.49
437.395	905.53
437.77	928.13
438.145	937.84
438.52	962.47
438.895	972.87
439.271	956.37
439.646	978.52
440.021	976.03
440.395	1014
440.77	971.97
441.145	1003.38
441.52	1005.86
441.895	1020.1
442.27	1009.93
442.645	1018.52
443.019	1038.18
443.394	1014.9
443.769	1046.77
444.143	1039.31
444.518	1070.49
444.892	1051.29
445.267	1049.25
445.641	1069.14
446.016	1084.51
446.39	1077.95
446.764	1087.9
447.139	1088.35
447.513	1120.89
447.887	1070.04
448.262	1109.14
448.636	1104.84
449.01	1127.89
449.384	1153.66
449.758	1156.14
450.132	1144.62
450.506	1163.15
450.88	1158.85
451.254	1158.4
451.628	1176.03
452.002	1199.76
452.376	1202.92
452.75	1199.98
453.123	1220.32
453.497	1246.54
453.871	1263.71
454.244	1228.68
454.618	1294.22
454.992	1305.52
455.365	1287.89
455.739	1321.56
456.112	1370.6
456.486	1327.89
456.859	1340.32
457.232	1373.54
457.606	1370.15
457.979	1377.83
458.352	1378.06
458.725	1412.41
459.099	1422.8
459.472	1454.67
459.845	1478.17
460.218	1490.37
460.591	1516.58
460.964	1510.03
461.337	1557.26
461.71	1551.84
462.083	1543.48
462.456	1620.99
462.829	1577.15
463.201	1605.62
463.574	1619.41
463.947	1636.36
464.32	1656.92
464.692	1663.02
465.065	1672.96
465.438	1698.27
465.81	1751.15
466.183	1744.6
466.555	1778.95
466.928	1811.72
467.3	1783.7
467.672	1787.76
468.045	1885.84
468.417	1897.59
468.789	1882.45
469.161	1925.16
469.534	1931.26
469.906	1974.65
470.278	1982.33
470.65	2002.67
471.022	2004.48
471.394	2091.48
471.766	2084.25
472.138	2101.65
472.51	2129.9
472.882	2204.48
473.253	2165.83
473.625	2267.75
473.997	2284.25
474.369	2307.07
474.74	2298.94
475.112	2350.69
475.484	2410.12
475.855	2388.43
476.227	2431.59
476.598	2494.41
476.97	2513.17
477.341	2551.36
477.713	2574.64
478.084	2599.27
478.455	2706.61
478.827	2700.51
479.198	2755.2
479.569	2762.2
479.94	2847.17
480.311	2874.51
480.682	2953.16
481.053	2973.04
481.424	3004.23
481.795	3064.34
482.166	3081.29
482.537	3138.69
482.908	3199.03
483.279	3224.79
483.65	3273.15
484.021	3326.03
484.391	3391.11
484.762	3392.69
485.133	3440.83
485.503	3441.73
485.874	3566.25
486.244	3599.69
486.615	3649.86
486.985	3652.12
487.356	3744.1
487.726	3798.33
488.097	3861.83
488.467	3867.94
488.837	3956.75
489.207	3958.55
489.578	4002.17
489.948	4020.25
490.318	4136.63
490.688	4146.57
491.058	4162.62
491.428	4237.87
491.798	4264.08
492.168	4352.89
492.538	4400.35
492.908	4432.67
493.278	4446
493.648	4504.75
494.017	4544.53
494.387	4598.09
494.757	4600.8
495.126	4660.68
495.496	4674.47
495.866	4722.83
496.235	4756.95
496.605	4808.93
496.974	4881.92
497.344	4915.59
497.713	4859.55
498.082	4942.03
498.452	4952.2
498.821	4982.71
499.19	5085.53
499.559	5088.24
499.928	5104.06
500.298	5179.99
500.667	5259.31
501.036	5182.7
501.405	5274.9
501.774	5245.07
502.143	5299.54
502.512	5336.6
502.88	5416.14
503.249	5404.17
503.618	5452.53
503.987	5473.77
504.356	5525.29
504.724	5544.5
505.093	5586.76
505.462	5575.01
505.83	5611.17
506.199	5700.66
506.567	5770.71
506.936	5752.86
507.304	5761.44
507.672	5824.49
508.041	5913.3
508.409	5929.35
508.777	5963.02
509.145	6056.35
509.514	6041.89
509.882	6054.32
510.25	6059.74
510.618	6118.05
510.986	6140.19
511.354	6207.99
511.722	6311.03
512.09	6371.6
512.458	6347.87
512.826	6369.79
513.193	6443.23
513.561	6429.68
513.929	6506.74
514.297	6560.75
514.664	6611.82
515.032	6663.12
515.4	6674.41
515.767	6694.08
516.135	6742.89
516.502	6651.82
516.869	6831.25
517.237	6847.07
517.604	6845.48
517.972	6965.71
518.339	6975.88
518.706	6981.3
519.073	7089.09
519.44	7096.32
519.808	7197.11
520.175	7187.62
520.542	7285.92
520.909	7346.71
521.276	7366.83
521.643	7412.25
522.009	7510.78
522.376	7581.74
522.743	7581.28
523.11	7683.43
523.477	7774.05
523.843	7807.27
524.21	7839.13
524.577	7844.33
524.943	7936.75
525.31	7964.32
525.676	8095.85
526.043	8127.48
526.409	8170.19
526.776	8206.13
527.142	8304.88
527.508	8299.68
527.874	8412.22
528.241	8455.39
528.607	8428.49
528.973	8555.72
529.339	8562.73
529.705	8664.42
530.071	8706.68
530.437	8720.01
530.803	8839.56
531.169	8916.39
531.535	8846.56
531.901	8927.24
532.267	9002.04
532.632	9046.33
532.998	9093.33
533.364	9094.46
533.73	9151.64
534.095	9182.6
534.461	9183.28
534.826	9294.23
535.192	9305.31
535.557	9419.2
535.923	9411.29
536.288	9463.27
536.653	9420.33
537.019	9419.2
537.384	9506.88
537.749	9600.67
538.114	9556.82
538.479	9667.1
538.845	9639.76
539.21	9609.7
539.575	9718.63
539.94	9776.48
540.305	9848.12
540.67	9776.48
541.034	9861.22
541.399	9898.28
541.764	9889.92
542.129	9955.23
542.494	9981.9
542.858	10034.78
543.223	10004.95
543.587	10141.22
543.952	10064.38
544.316	10125.17
544.681	10127.88
545.045	10241.78
545.41	10306.86
545.774	10282.68
546.138	10264.83
546.503	10324.04
546.867	10293.75
547.231	10487.42
547.595	10444.94
547.959	10525.61
548.324	10534.2
548.688	10556.12
549.052	10553.63
549.416	10589.11
549.779	10654.65
550.143	10637.47
550.507	10772.61
550.871	10803.12
551.235	10764.93
551.599	10841.54
551.962	10919.28
552.326	10878.82
552.689	10957.24
553.053	10898.48
553.417	11027.07
553.78	11178.25
554.143	11088.54
554.507	11146.84
554.87	11150.68
555.234	11338.25
555.597	11242.88
555.96	11306.84
556.323	11324.24
556.686	11393.16
557.05	11482.65
557.413	11476.55
557.776	11441.97
558.139	11588.64
558.502	11597
558.865	11604.45
559.228	11761.51
559.59	11783.43
559.953	11815.3
560.316	11943.2
560.679	11842.41
561.041	11985.69
561.404	12003.31
561.767	12035.4
562.129	12089.87
562.492	12152.01
562.854	12189.52
563.217	12150.88
563.579	12250.31
563.941	12278.34
564.304	12396.52
564.666	12487.6
565.028	12475.62
565.39	12432.68
565.753	12664.99
566.115	12609.17
566.477	12612.34
566.839	12729.4
567.201	12779.11
567.563	12843.29
567.925	12874.48
568.287	12925.32
568.648	12845.55
569.01	13029.73
569.372	13025.66
569.734	13051.87
570.095	13196.28
570.457	13182.94
570.819	13187.92
571.18	13212.32
571.542	13351.75
571.903	13278.54
572.265	13410.51
572.626	13390.85
572.987	13427.68
573.349	13454.58
573.71	13461.13
574.071	13526.21
574.432	13554.69
574.794	13633.78
575.155	13600.11
575.516	13544.06
575.877	13639.88
576.238	13681.24
576.599	13685.08
576.96	13739.54
577.32	13768.24
577.681	13878.29
578.042	13926.65
578.403	13882.59
578.763	13978.86
579.124	14046.42
579.485	13967.33
579.845	13951.06
580.206	13951.51
580.566	13954.22
580.927	14014.56
581.287	13984.51
581.648	13976.37
582.008	14075.12
582.368	14021.11
582.728	13993.77
583.089	14118.29
583.449	14020.21
583.809	14118.74
584.169	14117.38
584.529	14021.79
584.889	14180.66
585.249	14092.52
585.609	14024.28
585.969	14059.76
586.329	14086.88
586.688	14139.98
587.048	14117.61
587.408	14039.19
587.768	13998.97
588.127	14052.53
588.487	14076.93
588.846	14120.55
589.206	14079.19
589.565	14039.42
589.925	14115.35
590.284	14150.15
590.643	14085.29
591.003	14066.76
591.362	14158.74
591.721	14109.25
592.08	14159.64
592.44	14205.52
592.799	14217.49
593.158	14177.27
593.517	14190.6
593.876	14248.45
594.235	14210.49
594.593	14181.34
594.952	14197.61
595.311	14108.34
595.67	14114.45
596.029	14246.42
596.387	14248
596.746	14189.47
597.104	14212.97
597.463	14137.5
597.822	14189.7
598.18	14156.48
598.538	14150.38
598.897	14328.9
599.255	14205.74
599.613	14437.6
599.972	14328
600.33	14316.25
600.688	14220.43
601.046	14300.66
601.404	14310.6
601.762	14384.95
602.12	14382.69
602.478	14380.43
602.836	14350.6
603.194	14339.98
603.552	14357.6
603.91	14282.58
604.268	14398.73
604.625	14394.21
604.983	14374.78
605.341	14351.5
605.698	14404.38
606.056	14487.32
606.413	14470.37
606.771	14443.93
607.128	14459.29
607.485	14409.8
607.843	14384.27
608.2	14415.23
608.557	14619.06
608.914	14583.36
609.272	14562.12
609.629	14608.9
609.986	14563.02
610.343	14451.84
610.7	14655.45
611.057	14659.29
611.414	14624.49
611.771	14676.46
612.127	14703.36
612.484	14689.8
612.841	14816.35
613.198	14742.45
613.554	14671.94
613.911	14862
614.267	14762.56
614.624	14809.79
614.98	14728.67
615.337	14829
615.693	14711.49
616.05	14879.85
616.406	14879.62
616.762	14816.12
617.118	14916.23
617.475	14954.88
617.831	14887.76
618.187	14835.78
618.543	14980.41
618.899	14996.23
619.255	15034.65
619.611	14921.88
619.967	15104.48
620.323	15035.78
620.678	14990.13
621.034	14917.36
621.39	14887.08
621.746	14893.63
622.101	15084.14
622.457	14916.68
622.812	15006.17
623.168	15018.83
623.523	15007.3
623.879	15015.44
624.234	15073.97
624.589	14953.07
624.945	15044.82
625.3	15063.35
625.655	15027.64
626.01	14982.22
626.365	14991.48
626.72	15026.06
627.075	15008.89
627.43	15013.63
627.785	14990.13
628.14	14940.86
628.495	14956.91
628.85	14955.1
629.205	15009.34
629.559	15040.75
629.914	14964.59
630.269	14942.67
630.623	14943.8
630.978	14915.1
631.332	14904.26
631.687	14934.99
632.041	14933.41
632.396	14952.84
632.75	14866.97
633.104	14837.82
633.459	14719.18
633.813	14756.91
634.167	14788.33
634.521	14810.7
634.875	14721.89
635.229	14736.35
635.583	14597.82
635.937	14582
636.291	14544.04
636.645	14647.54
636.999	14535
637.352	14600.99
637.706	14499.07
638.06	14572.51
638.413	14454.1
638.767	14498.84
639.121	14498.62
639.474	14455
639.828	14484.38
640.181	14423.82
640.534	14461.33
640.888	14414.32
641.241	14400.99
641.594	14364.16
641.947	14419.3
642.301	14398.05
642.654	14262.01
643.007	14322.8
643.36	14302.46
643.713	14271.5
644.066	14379.98
644.419	14273.54
644.771	14139.3
645.124	14011.4
645.477	13976.82
645.83	13879.42
646.182	13826.54
646.535	13859.31
646.888	13799.65
647.24	13660.67
647.593	13730.27
647.945	13774.79
648.298	13596.94
648.65	13634.91
649.002	13618.87
649.355	13633.55
649.707	13577.96
650.059	13697.06
650.411	13912.87
650.763	13894.56
651.115	14049.14
651.467	13983.38
651.819	13971.85
652.171	13820.22
652.523	13913.09
652.875	13918.07
653.227	13776.6
653.578	13897.05
653.93	13780.89
654.282	13775.02
654.633	13711.07
654.985	13841.46
655.337	13693.44
655.688	13781.8
656.039	13768.69
656.391	13601.92
656.742	13701.8
657.094	13681.01
657.445	13806.2
657.796	13687.34
658.147	13715.36
658.498	13622.03
658.849	13684.17
659.2	13752.42
659.551	13685.08
659.902	13750.84
660.253	13719.65
660.604	13652.99
660.955	13628.36
661.306	13575.93
661.656	13577.28
662.007	13550.62
662.358	13546.55
662.708	13535.03
663.059	13561.01
663.409	13430.4
663.76	13600.56
664.11	13614.35
664.461	13629.49
664.811	13661.58
665.161	13612.76
665.511	13561.24
665.862	13567.57
666.212	13578.64
666.562	13502.48
666.912	13554.01
667.262	13453.9
667.612	13477.85
667.962	13578.64
668.312	13457.29
668.662	13449.15
669.011	13399.44
669.361	13400.11
669.711	13397.63
670.06	13408.48
670.41	13307.01
670.76	13337.06
671.109	13458.64
671.459	13402.6
671.808	13321.25
672.157	13359.44
672.507	13271.08
672.856	13314.24
673.205	13319.44
673.554	13331.64
673.904	13351.75
674.253	13321.7
674.602	13266.56
674.951	13094.81
675.3	13010.97
675.649	13258.2
675.998	13249.16
676.346	13302.04
676.695	13275.82
677.044	13195.37
677.393	13223.17
677.741	13244.86
678.09	13200.12
678.438	13162.61
678.787	13158.54
679.135	13142.04
679.484	12970.52
679.832	13054.36
680.181	12960.58
680.529	13052.1
680.877	13018.65
681.225	13135.94
681.573	13058.2
681.922	12939.79
682.27	12909.96
682.618	12968.49
682.966	12927.81
683.314	12959
683.661	12955.83
684.009	12790.64
684.357	12840.81
684.705	12872.44
685.053	12903.86
685.4	12890.75
685.748	12719
686.095	12719.23
686.443	12548.84
686.79	12639
687.138	12609.85
687.485	12613.69
687.832	12620.47
688.18	12555.39
688.527	12516.3
688.874	12533.92
689.221	12488.05
689.568	12436.98
689.915	12399.24
690.262	12399.01
690.609	12405.34
690.956	12411.21
691.303	12246.92
691.65	12206.92
691.997	12259.8
692.344	12158.56
692.69	12145.01
693.037	12127.38
693.383	12074.05
693.73	12097.1
694.077	11980.94
694.423	12082.41
694.769	12025.01
695.116	11928.97
695.462	11895.29
695.808	11920.83
696.155	11972.81
696.501	11892.36
696.847	11817.1
697.193	11745.92
697.539	11835.18
697.885	11669.76
698.231	11654.4
698.577	11696.2
698.923	11580.95
699.269	11493.5
699.614	11463.67
699.96	11417.34
700.306	11450.11
700.651	11429.32
700.997	11366.95
701.342	11318.59
701.688	11328.53
702.033	11346.83
702.379	11333.28
702.724	11393.61
703.069	11352.48
703.415	11171.92
703.76	11218.25
704.105	11212.15
704.45	11180.96
704.795	11064.13
705.14	11087.86
705.485	11069.1
705.83	11079.72
706.175	11020.52
706.52	10996.56
706.865	11037.92
707.209	10932.38
707.554	10830.01
707.899	10957.92
708.243	10827.3
708.588	10893.51
708.932	10830.46
709.277	10822.33
709.621	10819.84
709.966	10638.15
710.31	10789.33
710.654	10757.47
710.998	10730.13
711.342	10685.38
711.687	10610.13
712.031	10490.59
712.375	10541.66
712.719	10514.09
713.063	10571.26
713.407	10519.29
713.75	10411.94
714.094	10456.46
714.438	10395
714.782	10406.52
715.125	10324.49
715.469	10383.92
715.812	10315.45
716.156	10212.4
716.499	10237.94
716.843	10287.65
717.186	10207.2
717.53	10280.2
717.873	10228.45
718.216	10242
718.559	10254.43
718.902	10115
719.246	10218.05
719.589	10179.63
719.932	10074.33
720.275	10089.92
720.617	10090.37
720.96	10077.72
721.303	10049.02
721.646	10097.38
721.989	10107.77
722.331	10049.47
722.674	9978.06
723.016	9926.76
723.359	9967.44
723.701	9966.76
724.044	9908.91
724.386	9847.66
724.729	9869.81
725.071	9876.14
725.413	9891.28
725.755	9768.8
726.097	9702.81
726.439	9744.39
726.782	9719.08
727.124	9803.37
727.465	9710.49
727.807	9771.28
728.149	9665.07
728.491	9744.16
728.833	9776.71
729.175	9722.02
729.516	9628.46
729.858	9623.26
730.199	9663.94
730.541	9582.36
730.882	9501.91
731.224	9613.77
731.565	9533.55
731.906	9532.87
732.248	9529.03
732.589	9473.44
732.93	9469.82
733.271	9513.66
733.612	9419.65
733.953	9391.86
734.294	9351.18
734.635	9413.78
734.976	9457.84
735.317	9424.63
735.658	9429.82
735.999	9408.35
736.339	9307.34
736.68	9343.05
737.021	9231.41
737.361	9281.8
737.702	9292.65
738.042	9263.95
738.383	9256.95
738.723	9273.89
739.063	9248.58
739.404	9232.09
739.744	9136.27
740.084	9112.09
740.424	9157.51
740.764	9153.67
741.104	9184.86
741.444	9094.24
741.784	9074.8
742.124	9117.06
742.464	9046.1
742.804	8994.35
743.143	9073
743.483	9078.42
743.823	9001.59
744.162	8987.8
744.502	9003.39
744.841	8984.86
745.181	9030.06
745.52	9000
745.86	8946.22
746.199	8887.24
746.538	8907.35
746.877	8954.35
747.216	8842.49
747.556	8814.7
747.895	8908.71
748.234	8870.52
748.573	8799.33
748.911	8816.96
749.25	8769.73
749.589	8793.46
749.928	8788.71
750.267	8803.85
750.605	8797.75
750.944	8724.53
751.283	8671.42
751.621	8733.12
751.96	8721.14
752.298	8615.38
752.636	8719.56
752.975	8576.29
753.313	8586.23
753.651	8653.35
753.989	8619.9
754.327	8557.08
754.666	8552.11
755.004	8536.29
755.342	8569.28
755.679	8466.23
756.017	8420.13
756.355	8407.93
756.693	8382.17
757.031	8434.14
757.368	8297.42
757.706	8433.01
758.044	8329.06
758.381	8280.93
758.719	8275.05
759.056	8233.47
759.394	8210.65
759.731	8239.8
760.068	8139.01
760.405	8088.62
760.743	8052.01
761.08	8113.93
761.417	8068.28
761.754	8030.31
762.091	8058.56
762.428	8067.15
762.765	7983.98
763.102	7988.5
763.438	7930.2
763.775	7864.67
764.112	7877.77
764.449	7941.05
764.785	7859.47
765.122	7816.08
765.458	7747.83
765.795	7801.16
766.131	7796.19
766.467	7731.11
766.804	7727.04
767.14	7732.69
767.476	7677.1
767.812	7653.15
768.148	7627.61
768.485	7582.41
768.821	7606.14
769.157	7588.52
769.492	7544
769.828	7551.23
770.164	7442.3
770.5	7499.93
770.836	7434.85
771.171	7446.6
771.507	7381.97
771.842	7330.44
772.178	7303.1
772.513	7332.48
772.849	7275.53
773.184	7235.08
773.519	7236.43
773.855	7195.31
774.19	7161.41
774.525	7153.95
774.86	7163.89
775.195	7128.64
775.53	7135.87
775.865	7067.62
776.2	6977.91
776.535	6961.41
776.87	6933.62
777.205	6993.5
777.539	6948.31
777.874	6954.63
778.209	6876.9
778.543	6776.56
778.878	6755.09
779.212	6797.12
779.547	6734.53
779.881	6748.99
780.215	6694.75
780.55	6704.7
780.884	6606.17
781.218	6607.07
781.552	6649.78
781.886	6614.76
782.22	6545.6
782.554	6555.55
782.888	6515.55
783.222	6445.49
783.556	6422.67
783.889	6409.79
784.223	6407.76
784.557	6418.6
784.89	6443.23
785.224	6322.79
785.557	6348.77
785.891	6307.64
786.224	6378.83
786.558	6327.31
786.891	6296.8
787.224	6238.72
787.557	6237.82
787.891	6223.13
788.224	6224.03
788.557	6228.55
788.89	6233.3
789.223	6157.59
789.556	6145.84
789.888	6148.33
790.221	6069.69
790.554	6051.15
790.887	6018.84
791.219	6037.82
791.552	5982
791.884	5986.3
792.217	5985.39
792.549	5913.08
792.882	5880.76
793.214	5845.74
793.546	5902.68
793.879	5847.77
794.211	5788.34
794.543	5838.5
794.875	5834.44
795.207	5771.16
795.539	5783.14
795.871	5746.98
796.203	5740.65
796.535	5694.78
796.867	5683.03
797.198	5625.18
797.53	5691.84
797.862	5613.2
798.193	5640.77
798.525	5627.66
798.856	5627.89
799.188	5555.57
799.519	5518.51
799.85	5546.31
800.182	5506.99
800.513	5511.73
800.844	5451.17
801.175	5446.65
801.506	5415.92
801.837	5386.54
802.168	5403.04
802.499	5430.38
802.83	5398.52
803.161	5342.02
803.491	5324.85
803.822	5376.82
804.153	5271.06
804.483	5261.12
804.814	5239.42
805.145	5212.31
805.475	5191.97
805.805	5273.1
806.136	5225.41
806.466	5246.66
806.796	5187
807.126	5179.76
807.457	5175.25
807.787	5211.18
808.117	5158.52
808.447	5113.33
808.777	5166.43
809.107	5161.91
809.436	5122.82
809.766	5159.65
810.096	5064.51
810.426	5013.22
810.755	5017.06
811.085	4988.36
811.414	5027.23
811.744	4987.45
812.073	5030.84
812.403	4983.39
812.732	4951.3
813.061	4975.93
813.39	4878.53
813.719	4954.01
814.049	4919.43
814.378	4886.67
814.707	4973.89
815.036	4908.13
815.365	4901.13
815.693	4827.46
816.022	4841.02
816.351	4845.31
816.68	4794.01
817.008	4787.23
817.337	4794.69
817.665	4742.71
817.994	4752.21
818.322	4719.21
818.651	4702.72
818.979	4709.27
819.307	4699.55
819.636	4695.94
819.964	4691.42
820.292	4674.47
820.62	4686.44
820.948	4671.53
821.276	4675.6
821.604	4689.16
821.932	4747.91
822.259	4718.99
822.587	4717.63
822.915	4663.39
823.243	4690.74
823.57	4700.68
823.898	4637.18
824.225	4629.5
824.553	4639.44
824.88	4668.14
825.207	4649.16
825.535	4645.32
825.862	4721.02
826.189	4639.44
826.516	4674.92
826.843	4716.73
827.17	4707.46
827.497	4701.13
827.824	4697.74
828.151	4702.72
828.478	4668.14
828.805	4643.96
829.131	4674.24
829.458	4617.29
829.785	4672.43
830.111	4646.67
830.438	4691.19
830.764	4691.64
831.09	4683.28
831.417	4662.26
831.743	4648.71
832.069	4641.02
832.395	4642.83
832.722	4653
833.048	4596.5
833.374	4641.47
833.7	4632.89
834.026	4633.79
834.351	4616.16
834.677	4611.87
835.003	4622.27
835.329	4627.46
835.654	4592.44
835.98	4594.7
836.306	4596.96
836.631	4591.31
836.956	4597.86
837.282	4612.77
837.607	4571.87
837.932	4593.11
838.258	4557.63
838.583	4560.8
838.908	4521.93
839.233	4491.42
839.558	4551.76
839.883	4493.68
840.208	4490.97
840.533	4503.85
840.858	4487.81
841.182	4481.93
841.507	4468.15
841.832	4443.51
842.156	4470.63
842.481	4437.86
842.805	4409.39
843.13	4418.88
843.454	4436.28
843.778	4429.05
844.103	4378.66
844.427	4410.75
844.751	4403.51
845.075	4359
845.399	4338.88
845.723	4354.02
846.047	4321.93
846.371	4319.67
846.695	4321.71
847.019	4312.44
847.343	4290.07
847.666	4247.13
847.99	4218.21
848.313	4261.15
848.637	4209.62
848.96	4173.92
849.284	4198.32
849.607	4171.66
849.931	4124.88
850.254	4071.55
850.577	4078.78
850.9	4043.98
851.223	4103.41
851.546	4016.41
851.869	4035.39
852.192	3972.57
852.515	3969.63
852.838	3987.48
853.161	3950.64
853.483	3973.47
853.806	3916.97
854.129	3937.09
854.451	3944.54
854.774	3899.57
855.096	3910.19
855.419	3871.55
855.741	3866.58
856.063	3871.55
856.385	3845.34
856.708	3876.07
857.03	3819.35
857.352	3832
857.674	3810.31
857.996	3823.64
858.318	3766.47
858.64	3800.14
858.961	3822.74
859.283	3785.45
859.605	3768.73
859.926	3765.79
860.248	3689.63
860.57	3744.32
860.891	3726.02
861.212	3745.45
861.534	3741.84
861.855	3690.09
862.176	3689.18
862.498	3711.78
862.819	3727.37
863.14	3703.19
863.461	3673.14
863.782	3638.34
864.103	3644.89
864.424	3640.82
864.745	3648.05
865.065	3629.52
865.386	3621.16
865.707	3634.04
866.027	3656.42
866.348	3644.21
866.668	3593.37
866.989	3560.15
867.309	3605.8
867.63	3567.83
867.95	3608.51
868.27	3575.29
868.59	3594.27
868.91	3582.97
869.23	3589.3
869.55	3559.02
869.87	3568.06
870.19	3523.99
870.51	3545.01
870.83	3546.14
871.15	3506.81
871.469	3521.5
871.789	3529.19
872.109	3497.32
872.428	3473.6
872.748	3527.6
873.067	3516.53
873.386	3519.02
873.706	3492.8
874.025	3460.71
874.344	3467.04
874.663	3439.25
874.982	3444.9
875.301	3470.88
875.62	3443.77
875.939	3405.8
876.258	3422.3
876.577	3399.25
876.896	3369.42
877.214	3404.44
877.533	3385.69
877.852	3389.53
878.17	3415.97
878.489	3383.43
878.807	3444.67
879.125	3407.38
879.444	3362.64
879.762	3400.83
880.08	3394.05
880.398	3368.74
880.716	3374.84
881.034	3306.37
881.352	3351.34
881.67	3354.73
881.988	3340.49
882.306	3357.89
882.624	3305.69
882.941	3306.82
883.259	3323.54
883.577	3328.51
883.894	3331.68
884.212	3309.08
884.529	3335.52
884.846	3346.14
885.164	3291.45
885.481	3253.71
885.798	3263.66
886.115	3225.69
886.432	3210.78
886.75	3251
887.067	3241.28
887.383	3221.85
887.7	3227.27
888.017	3209.42
888.334	3225.92
888.651	3148.18
888.967	3182.08
889.284	3209.2
889.6	3161.74
889.917	3157.22
890.233	3138.01
890.55	3172.59
890.866	3132.59
891.182	3167.84
891.498	3112.02
891.815	3114.06
892.131	3115.86
892.447	3118.58
892.763	3103.89
893.079	3061.85
893.395	3077.45
893.71	3078.35
894.026	3079.03
894.342	3072.7
894.657	3032.48
894.973	3007.17
895.289	3028.18
895.604	2969.43
895.92	2999.94
896.235	3030.89
896.55	2997.9
896.865	3005.13
897.181	2976.89
897.496	2941.86
897.811	2948.86
898.126	2930.56
898.441	2928.3
898.756	2898.02
899.071	2891.69
899.386	2904.12
899.7	2917.23
900.015	2875.64
900.33	2857.34
900.644	2866.15
900.959	2845.14
901.273	2810.11
901.588	2854.85
901.902	2827.51
902.216	2790.22
902.531	2825.93
902.845	2818.02
903.159	2781.86
903.473	2783.22
903.787	2795.65
904.101	2793.84
904.415	2779.15
904.729	2765.82
905.042	2739.6
905.356	2736.67
905.67	2732.37
905.984	2718.59
906.297	2712.49
906.611	2691.69
906.924	2727.85
907.237	2670.9
907.551	2698.25
907.864	2687.63
908.177	2683.56
908.491	2655.31
908.804	2670.23
909.117	2621.41
909.43	2605.6
909.743	2625.93
910.056	2622.54
910.368	2608.53
910.681	2604.47
910.994	2585.03
911.307	2552.26
911.619	2560.4
911.932	2535.09
912.244	2532.38
912.557	2532.38
912.869	2520.4
913.181	2538.03
913.494	2534.64
913.806	2500.06
914.118	2482.21
914.43	2444.92
914.742	2441.98
915.054	2432.94
915.366	2423.91
915.678	2454.41
915.99	2426.39
916.302	2397.69
916.613	2368.31
916.925	2373.06
917.236	2375.32
917.548	2372.61
917.859	2362.89
918.171	2316.11
918.482	2359.05
918.794	2349.56
919.105	2364.25
919.416	2335.77
919.727	2345.04
920.038	2319.28
920.349	2332.16
920.66	2306.39
920.971	2320.18
921.282	2266.4
921.593	2260.52
921.903	2287.41
922.214	2248.32
922.525	2251.93
922.835	2226.62
923.146	2239.5
923.456	2206.74
923.767	2188.43
924.077	2203.12
924.387	2182.33
924.697	2175.1
925.008	2176.68
925.318	2163.12
925.628	2161.54
925.938	2175.55
926.248	2135.33
926.558	2150.92
926.867	2104.14
927.177	2135.1
927.487	2121.31
927.796	2070.92
928.106	2080.64
928.416	2095.1
928.725	2051.71
929.034	2110.69
929.344	2098.49
929.653	2055.33
929.962	2063.46
930.271	2030.7
930.581	2035.44
930.89	1988.89
931.199	2013.52
931.508	2027.76
931.817	2019.17
932.125	2012.84
932.434	2007.19
932.743	1987.98
933.051	2000.19
933.36	1972.17
933.669	1949.79
933.977	1971.26
934.286	1920.64
934.594	1938.72
934.902	1953.18
935.21	1947.99
935.519	1966.74
935.827	1917.93
936.135	1928.33
936.443	1885.16
936.751	1933.3
937.059	1864.37
937.367	1868.89
937.674	1856.69
937.982	1859.85
938.29	1819.63
938.597	1869.8
938.905	1823.02
939.213	1819.85
939.52	1828.67
939.827	1826.86
940.135	1806.29
940.442	1817.14
940.749	1795.22
941.056	1790.7
941.363	1772.4
941.67	1783.02
941.977	1789.12
942.284	1756.8
942.591	1767.65
942.898	1762.91
943.205	1755.22
943.511	1749.57
943.818	1732.62
944.125	1711.16
944.431	1698.27
944.738	1679.97
945.044	1683.13
945.35	1713.87
945.657	1724.49
945.963	1682.46
946.269	1696.69
946.575	1692.4
946.881	1647.43
947.187	1680.2
947.493	1654.21
947.799	1666.64
948.105	1613.53
948.41	1666.41
948.716	1639.07
949.022	1623.25
949.327	1633.42
949.633	1641.55
949.938	1611.05
950.244	1602.68
950.549	1617.15
950.854	1606.98
951.16	1563.59
951.465	1586.19
951.77	1590.03
952.075	1579.41
952.38	1592.51
952.685	1562.68
952.99	1558.39
953.294	1575.57
953.599	1523.82
953.904	1569.01
954.209	1553.65
954.513	1545.96
954.818	1554.55
955.122	1543.48
955.426	1495.57
955.731	1505.74
956.035	1500.54
956.339	1522.01
956.643	1504.61
956.948	1494.66
957.252	1492.86
957.556	1482.91
957.86	1461.44
958.163	1477.26
958.467	1460.54
958.771	1467.55
959.075	1450.82
959.378	1438.39
959.682	1426.19
959.985	1417.15
960.289	1418.28
960.592	1391.84
960.896	1404.95
961.199	1413.31
961.502	1391.16
961.805	1404.05
962.108	1399.53
962.411	1411.5
962.714	1372.18
963.017	1364.27
963.32	1380.54
963.623	1369.02
963.926	1412.18
964.228	1335.57
964.531	1347.55
964.833	1348
965.136	1352.07
965.438	1347.1
965.741	1350.26
966.043	1327.44
966.345	1340.32
966.648	1297.83
966.95	1315.46
967.252	1292.18
967.554	1299.87
967.856	1317.95
968.158	1304.16
968.46	1251.05
968.761	1286.08
969.063	1242.92
969.365	1296.48
969.666	1278.17
969.968	1284.73
970.269	1249.25
970.571	1256.48
970.872	1258.06
971.174	1267.1
971.475	1232.98
971.776	1251.73
972.077	1265.52
972.378	1251.51
972.679	1228.68
972.98	1213.09
973.281	1211.73
973.582	1235.01
973.883	1226.87
974.183	1197.95
974.484	1185.75
974.785	1178.97
975.085	1194.56
975.386	1180.32
975.686	1185.75
975.986	1169.02
976.287	1195.24
976.587	1157.72
976.887	1144.16
977.187	1185.52
977.487	1163.83
977.787	1182.58
978.087	1153.43
978.387	1154.79
978.687	1134.67
978.987	1156.59
979.286	1134
979.586	1138.52
979.885	1137.61
980.185	1118.63
980.484	1134.22
980.784	1108.46
981.083	1099.65
981.382	1088.8
981.682	1089.93
981.981	1082.47
982.28	1096.93
982.579	1115.69
982.878	1077.05
983.177	1069.36
983.475	1106.88
983.774	1121.57
984.073	1065.97
984.372	1082.92
984.67	1071.17
984.969	1058.52
985.267	1086.09
985.566	1076.14
985.864	1054.45
986.162	1046.09
986.461	1025.07
986.759	1047.22
987.057	1033.43
987.355	1021.68
987.653	1052.64
987.951	1011.29
988.249	1020.1
988.547	1016.48
988.844	1040.44
989.142	1025.98
989.44	1012.42
989.737	1000.67
990.035	1007.67
990.332	996.37
990.63	1017.61
990.927	992.98
991.224	971.51
991.521	1003.15
991.819	977.16
992.116	977.16
992.413	1003.38
992.71	975.13
993.006	976.71
993.303	981.23
993.6	964.96
993.897	949.37
994.193	955.92
994.49	928.8
994.787	959.31
995.083	930.16
995.379	944.4
995.676	948.24
995.972	944.17
996.268	915.7
996.565	939.88
996.861	933.1
997.157	930.39
997.453	906.88
997.749	903.49
998.044	920.22
998.34	920.22
998.636	905.53
998.932	875.25
999.227	908.24
999.523	873.21
999.818	875.47
1000.114	866.66
1000.409	887
1000.704	875.02
1001	885.41
1001.295	857.84
1001.59	873.66
1001.885	878.41
1002.18	856.26
1002.475	866.88
1002.77	833.66
1003.065	831.86
1003.359	857.62
1003.654	856.71
1003.949	830.27
1004.243	863.04
1004.538	817.39
1004.832	813.33
1005.127	820.56
1005.421	824.63
1005.715	807
1006.009	795.7
1006.304	814.68
1006.598	776.04
1006.892	812.87
1007.186	790.05
1007.48	798.86
1007.773	790.73
1008.067	792.31
1008.361	795.25
1008.655	808.81
1008.948	778.3
1009.242	813.1
1009.535	772.88
1009.829	792.54
1010.122	752.99
1010.415	751.41
1010.708	774.23
1011.001	776.04
1011.295	779.88
1011.588	759.32
1011.881	760.67
1012.173	748.47
1012.466	787.79
1012.759	746.66
1013.052	758.19
1013.344	736.27
1013.637	728.81
1013.93	734.68
1014.222	731.29
1014.514	741.24
1014.807	724.06
1015.099	716.83
1015.391	734.46
1015.683	706.21
1015.976	722.93
1016.268	690.84
1016.56	708.7
1016.851	703.95
1017.143	680.45
1017.435	703.27
1017.727	667.57
1018.018	677.51
1018.31	673.44
1018.602	679.54
1018.893	655.36
1019.185	685.19
1019.476	677.28
1019.767	688.36
1020.058	685.42
1020.35	663.95
1020.641	667.12
1020.932	664.18
1021.223	653.78
1021.514	662.6
1021.804	658.98
1022.095	656.04
1022.386	623.95
1022.677	651.97
1022.967	646.1
1023.258	617.85
1023.548	626.44
1023.839	631.41
1024.129	616.72
1024.419	637.96
1024.709	632.77
1025	640.68
1025.29	630.51
1025.58	611.98
1025.87	612.88
1026.16	596.16
1026.449	614.01
1026.739	609.04
1027.029	599.77
1027.319	583.95
1027.608	604.97
1027.898	625.08
1028.187	619.88
1028.477	591.19
1028.766	587.8
1029.055	570.62
1029.344	609.26
1029.634	596.38
1029.923	590.06
1030.212	597.74
1030.501	571.98
1030.79	592.31
1031.078	569.04
1031.367	560.45
1031.656	569.26
1031.945	541.47
1032.233	570.17
1032.522	564.97
1032.81	543.5
1033.099	569.26
1033.387	563.16
1033.675	537.63
1033.963	532.88
1034.251	551.86
1034.54	542.15
1034.828	536.72
1035.116	528.14
1035.403	541.92
1035.691	584.41
1035.979	555.93
1036.267	527.46
1036.554	539.89
1036.842	545.08
1037.129	538.76
1037.417	526.78
1037.704	531.3
1037.992	498.53
1038.279	524.29
1038.566	507.35
1038.853	507.35
1039.14	507.35
