Data from black_plastic_tray_FLMS001491_097.txt Node
Date: Tue Feb 07 10:41:03 GMT 2017
User: dcchb
Spectrometer: FLMS00149
Trigger mode: 0
Integration Time (sec): 2.000000E-2
Scans to average: 10
Electric dark correction enabled: true
Nonlinearity correction enabled: false
Boxcar width: 0
XAxis mode: Wavelengths
Number of Pixels in Spectrum: 2048
>>>>>Begin Spectral Data<<<<<
341.393	-16.23
341.776	-16.23
342.16	-16.23
342.543	-60.3
342.927	-59.17
343.31	-63.68
343.693	-80.41
344.077	-63.46
344.46	-58.49
344.843	-58.04
345.226	-51.26
345.61	-20.3
345.993	-30.92
346.376	5.01
346.759	24.22
347.142	22.64
347.525	44.11
347.908	58.8
348.291	72.58
348.674	88.18
349.057	111
349.44	137.89
349.823	141.28
350.206	157.55
350.588	158
350.971	193.71
351.354	199.13
351.737	214.27
352.119	220.83
352.502	226.7
352.884	252.92
353.267	254.72
353.65	269.41
354.032	290.43
354.414	287.04
354.797	289.53
355.179	279.13
355.562	289.53
355.944	296.31
356.326	317.55
356.709	313.48
357.091	312.58
357.473	328.85
357.855	322.07
358.238	318.45
358.62	310.99
359.002	318.9
359.384	330.88
359.766	317.32
360.148	321.16
360.53	287.49
360.912	321.39
361.294	305.8
361.676	322.29
362.057	311.67
362.439	324.55
362.821	303.09
363.203	319.36
363.584	317.32
363.966	318.9
364.348	289.3
364.729	296.98
365.111	300.6
365.493	302.41
365.874	271.67
366.256	305.57
366.637	278.45
367.019	318
367.4	304.67
367.781	295.4
368.163	285.68
368.544	288.4
368.925	303.31
369.306	290.2
369.688	305.57
370.069	298.34
370.45	299.02
370.831	282.29
371.212	284.55
371.593	290.2
371.974	299.7
372.355	287.49
372.736	311.22
373.117	322.75
373.498	287.27
373.879	293.82
374.26	299.24
374.641	300.15
375.021	297.44
375.402	298.57
375.783	309.64
376.163	302.18
376.544	311.67
376.925	289.3
377.305	330.66
377.686	325.01
378.066	319.58
378.447	290.66
378.827	296.31
379.208	317.55
379.588	315.74
379.968	292.69
380.349	308.51
380.729	284.1
381.109	307.15
381.489	339.92
381.87	313.93
382.25	326.59
382.63	315.06
383.01	313.93
383.39	319.58
383.77	321.16
384.15	307.83
384.53	344.67
384.91	320.03
385.29	323.65
385.67	342.63
386.049	325.23
386.429	358.45
386.809	342.41
387.189	337.43
387.568	333.37
387.948	322.07
388.328	333.59
388.707	315.51
389.087	345.8
389.466	340.37
389.846	336.08
390.225	364.33
390.605	342.18
390.984	345.34
391.363	349.41
391.743	341.95
392.122	340.6
392.501	384.89
392.881	355.06
393.26	359.13
393.639	337.66
394.018	354.61
394.397	357.77
394.776	353.93
395.155	363.2
395.534	367.04
395.913	350.09
396.292	350.32
396.671	362.29
397.05	370.43
397.429	356.42
397.808	387.83
398.186	359.13
398.565	383.76
398.944	363.42
399.323	383.54
399.701	360.71
400.08	366.81
400.458	388.05
400.837	385.34
401.215	380.6
401.594	385.57
401.972	403.42
402.351	381.95
402.729	384.67
403.107	393.7
403.486	405
403.864	383.08
404.242	384.44
404.62	371.78
404.999	374.04
405.377	430.77
405.755	423.31
406.133	388.05
406.511	415.4
406.889	418.34
407.267	416.75
407.645	394.61
408.023	420.82
408.401	423.31
408.779	410.88
409.156	431.9
409.534	412.01
409.912	429.64
410.29	437.09
410.667	423.53
411.045	443.87
411.422	448.17
411.8	454.72
412.178	471.67
412.555	448.17
412.933	459.47
413.31	447.94
413.687	458.56
414.065	456.98
414.442	483.19
414.819	472.8
415.197	470.54
415.574	479.8
415.951	475.51
416.328	472.57
416.705	496.07
417.082	504.44
417.46	508.28
417.837	482.29
418.214	494.27
418.591	490.2
418.967	505.57
419.344	499.69
419.721	477.09
420.098	501.27
420.475	492.91
420.852	533.81
421.228	487.49
421.605	532.68
421.982	528.84
422.358	519.58
422.735	536.53
423.111	528.62
423.488	533.81
423.864	532.68
424.241	555.96
424.617	556.19
424.994	549.18
425.37	561.38
425.746	551.44
426.123	577.43
426.499	545.34
426.875	550.54
427.251	568.39
427.627	567.71
428.003	577.2
428.379	600.93
428.756	586.24
429.132	582.4
429.507	611.78
429.883	594.83
430.259	602.96
430.635	614.26
431.011	598.67
431.387	646.13
431.763	643.42
432.138	632.12
432.514	645.68
432.89	642.06
433.265	653.81
433.641	647.71
434.016	659.23
434.392	667.37
434.767	666.01
435.143	681.15
435.518	666.24
435.894	686.35
436.269	678.44
436.644	690.65
437.02	728.16
437.395	715.73
437.77	725.9
438.145	720.48
438.52	710.76
438.895	712.11
439.271	727.03
439.646	724.77
440.021	740.59
440.395	716.86
440.77	759.8
441.145	760.25
441.52	782.39
441.895	801.6
442.27	757.54
442.645	757.08
443.019	778.1
443.394	769.06
443.769	782.62
444.143	767.48
444.518	767.93
444.892	766.12
445.267	785.33
445.641	778.1
446.016	793.24
446.39	801.38
446.764	802.73
447.139	797.99
447.513	826.01
447.887	802.73
448.262	838.89
448.636	854.48
449.01	830.98
449.384	846.8
449.758	853.81
450.132	845.9
450.506	847.93
450.88	856.97
451.254	860.13
451.628	893.35
452.002	886.57
452.376	895.16
452.75	885.22
453.123	884.31
453.497	901.04
453.871	934.93
454.244	937.42
454.618	930.41
454.992	936.74
455.365	926.8
455.739	949.4
456.112	994.82
456.486	982.39
456.859	1000.24
457.232	971.09
457.606	1015.83
457.979	997.3
458.352	1011.09
458.725	1028.49
459.099	1020.58
459.472	1037.98
459.845	1028.94
460.218	1068.71
460.591	1084.08
460.964	1109.17
461.337	1104.65
461.71	1112.33
462.083	1120.46
462.456	1106.68
462.829	1127.24
463.201	1129.96
463.574	1149.16
463.947	1160.69
464.32	1189.39
464.692	1174.7
465.065	1186.68
465.438	1223.29
465.81	1231.2
466.183	1241.37
466.555	1254.47
466.928	1268.71
467.3	1255.83
467.672	1257.64
468.045	1311.19
468.417	1315.49
468.789	1356.39
469.161	1320.46
469.534	1367.01
469.906	1365.2
470.278	1402.49
470.65	1398.2
471.022	1403.85
471.394	1432.32
471.766	1459.44
472.138	1461.7
472.51	1505.31
472.882	1518.87
473.253	1519.78
473.625	1537.18
473.997	1553
474.369	1586.89
474.74	1583.73
475.112	1624.41
475.484	1638.87
475.855	1648.81
476.227	1686.33
476.598	1716.16
476.97	1728.13
477.341	1762.48
477.713	1784.4
478.084	1779.2
478.455	1804.97
478.827	1858.98
479.198	1898.98
479.569	1928.58
479.94	1954.12
480.311	1977.39
480.682	1998.86
481.053	2047.67
481.424	2047.67
481.795	2105.98
482.166	2104.17
482.537	2151.17
482.908	2216.93
483.279	2196.14
483.65	2211.06
484.021	2261.23
484.391	2293.77
484.762	2334.44
485.133	2289.02
485.503	2362.69
485.874	2399.53
486.244	2454.22
486.615	2467.77
486.985	2485.85
487.356	2532.86
487.726	2535.79
488.097	2598.62
488.467	2587.32
488.837	2630.71
489.207	2670.25
489.578	2708.9
489.948	2770.59
490.318	2726.75
490.688	2752.51
491.058	2819.18
491.428	2829.57
491.798	2872.06
492.168	2934.2
492.538	2940.08
492.908	2984.37
493.278	3004.03
493.648	3019.85
494.017	3030.47
494.387	3073.63
494.757	3122.45
495.126	3126.29
495.496	3130.36
495.866	3170.35
496.235	3226.4
496.605	3229.56
496.974	3250.13
497.344	3260.75
497.713	3263.69
498.082	3305.94
498.452	3329.67
498.821	3362.89
499.19	3380.97
499.559	3429.78
499.928	3396.34
500.298	3489.44
500.667	3475.88
501.036	3478.59
501.405	3499.84
501.774	3524.24
502.143	3537.12
502.512	3613.96
502.88	3605.82
503.249	3603.56
503.618	3615.54
503.987	3658.25
504.356	3661.64
504.724	3688.31
505.093	3715.88
505.462	3726.5
505.83	3735.31
506.199	3804.91
506.567	3794.97
506.936	3849.66
507.304	3878.81
507.672	3860.05
508.041	3866.16
508.409	3932.14
508.777	3989.09
509.145	3956.55
509.514	3983.21
509.882	4028.41
510.25	4030.44
510.618	4077
510.986	4093.27
511.354	4127.39
511.722	4177.79
512.09	4192.93
512.458	4215.3
512.826	4194.73
513.193	4264.11
513.561	4299.82
513.929	4347.95
514.297	4353.37
514.664	4373.03
515.032	4398.57
515.4	4397.44
515.767	4460.94
516.135	4509.08
516.502	4488.51
516.869	4552.47
517.237	4561.28
517.604	4590.2
517.972	4635.85
518.339	4631.56
518.706	4676.3
519.073	4716.53
519.44	4766.24
519.808	4780.48
520.175	4763.08
520.542	4857.99
520.909	4846.69
521.276	4903.64
521.643	4906.58
522.009	4975.28
522.376	5025.22
522.743	5008.72
523.11	5046.69
523.477	5188.83
523.843	5170.3
524.21	5230.41
524.577	5218.21
524.943	5244.42
525.31	5280.13
525.676	5321.03
526.043	5418.88
526.409	5365.55
526.776	5500.69
527.142	5437.41
527.508	5516.73
527.874	5525.09
528.241	5576.39
528.607	5586.34
528.973	5648.03
529.339	5657.75
529.705	5687.35
530.071	5740.68
530.437	5737.29
530.803	5861.13
531.169	5869.27
531.535	5892.77
531.901	5857.74
532.267	5875.37
532.632	5926.21
532.998	5996.72
533.364	5992.65
533.73	5993.33
534.095	6050.5
534.461	6120.56
534.826	6188.13
535.192	6152.2
535.557	6190.84
535.923	6198.75
536.288	6239.2
536.653	6256.15
537.019	6198.75
537.384	6249.82
537.749	6332.76
538.114	6317.16
538.479	6328.46
538.845	6339.08
539.21	6405.52
539.575	6504.28
539.94	6434
540.305	6432.19
540.67	6452.75
541.034	6491.85
541.399	6549.25
541.764	6580.89
542.129	6599.19
542.494	6580.21
542.858	6596.03
543.223	6642.58
543.587	6676.25
543.952	6739.53
544.316	6709.7
544.681	6720.54
545.045	6709.92
545.41	6789.69
545.774	6801.9
546.138	6834.66
546.503	6867.21
546.867	6894.78
547.231	6883.25
547.595	6872.63
547.959	6925.06
548.324	6901.56
548.688	6952.18
549.052	7026.75
549.416	7037.6
549.779	6998.95
550.143	7047.31
550.507	7060.87
550.871	7125.05
551.235	7081.44
551.599	7179.74
551.962	7096.13
552.326	7213.64
552.689	7250.47
553.053	7247.54
553.417	7325.05
553.78	7401.88
554.143	7352.17
554.507	7418.83
554.87	7392.62
555.234	7481.65
555.597	7473.74
555.96	7464.7
556.323	7518.26
556.686	7528.88
557.05	7589.45
557.413	7583.12
557.776	7656.56
558.139	7653.4
558.502	7732.04
558.865	7714.64
559.228	7807.52
559.59	7824.02
559.953	7845.71
560.316	7915.09
560.679	7913.28
561.041	7901.76
561.404	7941.75
561.767	8040.96
562.129	7992.37
562.492	8098.13
562.854	8100.85
563.217	8099.94
563.579	8180.84
563.941	8206.15
564.304	8216.78
564.666	8254.29
565.028	8307.17
565.39	8315.98
565.753	8340.39
566.115	8384.68
566.477	8452.02
566.839	8435.3
567.201	8533.15
567.563	8445.24
567.925	8613.15
568.287	8552.59
568.648	8551.91
569.01	8648.4
569.372	8671.45
569.734	8650.89
570.095	8695.63
570.457	8767.72
570.819	8794.16
571.18	8833.71
571.542	8841.39
571.903	8866.7
572.265	8861.96
572.626	8906.7
572.987	8971.33
573.349	8929.75
573.71	9061.27
574.071	9047.71
574.432	9026.25
574.794	9124.32
575.155	9105.11
575.516	9056.98
575.877	9080.71
576.238	9116.64
576.599	9242.74
576.96	9151.89
577.32	9169.52
577.681	9249.52
578.042	9279.57
578.403	9289.74
578.763	9288.39
579.124	9285.45
579.485	9319.57
579.845	9336.07
580.206	9282.28
580.566	9346.46
580.927	9339.68
581.287	9378.78
581.648	9256.3
582.008	9398.67
582.368	9346.01
582.728	9483.41
583.089	9397.76
583.449	9374.26
583.809	9409.74
584.169	9401.15
584.529	9413.58
584.889	9453.58
585.249	9418.1
585.609	9385.11
585.969	9428.72
586.329	9430.3
586.688	9416.74
587.048	9397.31
587.408	9419
587.768	9453.58
588.127	9405.44
588.487	9445.44
588.846	9489.06
589.206	9379
589.565	9390.3
589.925	9440.92
590.284	9463.52
590.643	9436.86
591.003	9475.05
591.362	9460.36
591.721	9484.99
592.08	9489.28
592.44	9488.61
592.799	9550.98
593.158	9499.68
593.517	9467.36
593.876	9484.54
594.235	9509.4
594.593	9495.84
594.952	9488.83
595.311	9478.21
595.67	9504.65
596.029	9621.94
596.387	9512.33
596.746	9556.63
597.104	9503.75
597.463	9500.36
597.822	9543.52
598.18	9454.26
598.538	9480.02
598.897	9598.66
599.255	9499.45
599.613	9649.73
599.972	9539.45
600.33	9661.03
600.688	9572.67
601.046	9621.94
601.404	9670.75
601.762	9627.36
602.12	9658.77
602.478	9672.1
602.836	9717.98
603.194	9640.01
603.552	9593.69
603.91	9700.8
604.268	9761.82
604.625	9658.55
604.983	9764.08
605.341	9668.71
605.698	9718.2
606.056	9737.87
606.413	9747.13
606.771	9743.51
607.128	9758.43
607.485	9667.81
607.843	9707.36
608.2	9775.38
608.557	9822.38
608.914	9746
609.272	9793.91
609.629	9828.48
609.986	9882.95
610.343	9816.73
610.7	9936.28
611.057	9872.55
611.414	9924.08
611.771	9922.49
612.127	9923.17
612.484	9967.46
612.841	9959.55
613.198	9980.34
613.554	9951.87
613.911	9981.25
614.267	9913.23
614.624	10030.51
614.98	9960.68
615.337	10085.43
615.693	9996.16
616.05	10002.72
616.406	10097.86
616.762	10001.81
617.118	10046.78
617.475	10050.63
617.831	10110.06
618.187	10060.57
618.543	10072.77
618.899	10132.21
619.255	10108.48
619.611	10168.59
619.967	10120.45
620.323	10139.44
620.678	10140.79
621.034	10121.58
621.39	10075.03
621.746	10115.03
622.101	10197.51
622.457	10048.14
622.812	10100.34
623.168	10083.85
623.523	10128.59
623.879	10209.94
624.234	10103.51
624.589	10202.03
624.945	10216.95
625.3	10200.68
625.655	10138.31
626.01	10228.25
626.365	10193.22
626.72	10216.72
627.075	10192.77
627.43	10208.14
627.785	10195.93
628.14	10209.27
628.495	10124.75
628.85	10178.98
629.205	10144.63
629.559	10174.69
629.914	10059.89
630.269	10197.06
630.623	10113
630.978	10055.6
631.332	10143.5
631.687	10067.35
632.041	10095.82
632.396	10123.84
632.75	10025.32
633.104	10041.81
633.459	9977.18
633.813	10044.07
634.167	10096.27
634.521	10008.59
634.875	9945.32
635.229	9990.74
635.583	9941.02
635.937	9832.78
636.291	9858.99
636.645	9900.57
636.999	9867.35
637.352	9923.62
637.706	9818.77
638.06	9786.9
638.413	9859.44
638.767	9799.78
639.121	9865.77
639.474	9831.65
639.828	9780.58
640.181	9798.43
640.534	9818.54
640.888	9752.33
641.241	9719.33
641.594	9731.99
641.947	9731.09
642.301	9719.33
642.654	9732.89
643.007	9673.23
643.36	9666
643.713	9731.31
644.066	9674.59
644.419	9642.05
644.771	9600.92
645.124	9499.45
645.477	9452
645.83	9374.26
646.182	9355.28
646.535	9316.86
646.888	9341.04
647.24	9325.22
647.593	9404.77
647.945	9357.54
648.298	9320.48
648.65	9258.33
649.002	9194.38
649.355	9317.99
649.707	9299.68
650.059	9330.87
650.411	9425.78
650.763	9456.06
651.115	9540.13
651.467	9467.59
651.819	9505.78
652.171	9440.7
652.523	9402.51
652.875	9404.31
653.227	9377.65
653.578	9499.23
653.93	9439.79
654.282	9470.53
654.633	9385.33
654.985	9442.28
655.337	9425.56
655.688	9378.55
656.039	9407.03
656.391	9306.01
656.742	9337.2
657.094	9315.73
657.445	9393.02
657.796	9273.47
658.147	9370.87
658.498	9330.42
658.849	9391.43
659.2	9318.89
659.551	9273.47
659.902	9335.39
660.253	9339.01
660.604	9305.79
660.955	9239.8
661.306	9288.84
661.656	9271.89
662.007	9261.04
662.358	9232.79
662.708	9303.53
663.059	9214.94
663.409	9170.42
663.76	9235.96
664.11	9219.01
664.461	9280.02
664.811	9274.83
665.161	9263.3
665.511	9233.25
665.862	9203.87
666.212	9239.35
666.562	9255.84
666.912	9198.9
667.262	9194.83
667.612	9146.92
667.962	9200.48
668.312	9239.8
668.662	9205.9
669.011	9176.75
669.361	9196.18
669.711	9124.77
670.06	9151.89
670.41	9056.98
670.76	9123.42
671.109	9136.98
671.459	9131.78
671.808	9133.81
672.157	9148.95
672.507	9067.83
672.856	9021.27
673.205	9069.41
673.554	9065.57
673.904	9046.13
674.253	9179.46
674.602	9049.75
674.951	8979.47
675.3	8876.19
675.649	9019.24
675.998	8993.93
676.346	9091.1
676.695	9055.85
677.044	9014.72
677.393	8977.21
677.741	9018.56
678.09	8990.09
678.438	8933.59
678.787	8959.35
679.135	9018.34
679.484	8955.29
679.832	8903.99
680.181	8915.29
680.529	8910.09
680.877	8993.25
681.225	8835.06
681.573	8955.74
681.922	8927.04
682.27	8848.62
682.618	8908.96
682.966	8801.62
683.314	8879.13
683.661	8830.54
684.009	8779.7
684.357	8807.49
684.705	8821.96
685.053	8884.33
685.4	8809.08
685.748	8696.54
686.095	8716.88
686.443	8693.15
686.79	8673.03
687.138	8708.06
687.485	8672.13
687.832	8596.88
688.18	8657.89
688.527	8533.38
688.874	8612.47
689.221	8550.78
689.568	8518.01
689.915	8642.53
690.262	8491.34
690.609	8485.02
690.956	8391.91
691.303	8493.15
691.65	8404.12
691.997	8410.89
692.344	8337
692.69	8367.51
693.037	8325.47
693.383	8306.49
693.73	8353.04
694.077	8317.79
694.423	8311.24
694.769	8243.22
695.116	8262.65
695.462	8233.72
695.808	8222.2
696.155	8186.49
696.501	8156.44
696.847	8222.2
697.193	8042.77
697.539	8132.48
697.885	8112.6
698.231	8061.3
698.577	8050.68
698.923	7969.1
699.269	7993.96
699.614	7957.8
699.96	7930
700.306	7923.9
700.651	7956.9
700.997	7879.38
701.342	7904.47
701.688	7874.64
702.033	7857.24
702.379	7870.12
702.724	7824.02
703.069	7796.22
703.415	7750.12
703.76	7729.78
704.105	7757.13
704.45	7780.63
704.795	7675.32
705.14	7713.74
705.485	7634.42
705.83	7626.51
706.175	7645.04
706.52	7577.47
706.865	7603.01
707.209	7569.33
707.554	7539.05
707.899	7601.65
708.243	7562.33
708.588	7512.61
708.932	7458.38
709.277	7449.79
709.621	7495.89
709.966	7387.87
710.31	7440.3
710.654	7367.98
710.998	7382.22
711.342	7396.68
711.687	7304.48
712.031	7372.28
712.375	7319.4
712.719	7304.71
713.063	7237.14
713.407	7346.29
713.75	7272.62
714.094	7224.71
714.438	7247.31
714.782	7249.8
715.125	7135.22
715.469	7180.87
715.812	7117.37
716.156	7201.89
716.499	7122.11
716.843	7137.93
717.186	7058.84
717.53	7147.43
717.873	7133.41
718.216	7113.53
718.559	7022
718.902	7039.63
719.246	7082.57
719.589	7021.33
719.932	7006.86
720.275	6975.45
720.617	6964.83
720.96	6940.65
721.303	6988.79
721.646	6989.46
721.989	6917.37
722.331	6965.06
722.674	6892.06
723.016	6856.81
723.359	6842.8
723.701	6852.07
724.044	6892.52
724.386	6799.64
724.729	6842.57
725.071	6892.06
725.413	6848.68
725.755	6763.71
726.097	6773.42
726.439	6810.48
726.782	6785.63
727.124	6809.58
727.465	6729.13
727.807	6750.15
728.149	6718.51
728.491	6647.78
728.833	6744.95
729.175	6668.57
729.516	6647.33
729.858	6697.49
730.199	6715.12
730.541	6686.87
730.882	6680.77
731.224	6641.45
731.565	6610.49
731.906	6576.37
732.248	6618.17
732.589	6609.59
732.93	6581.79
733.271	6507.22
733.612	6623.37
733.953	6582.69
734.294	6555.58
734.635	6515.58
734.976	6581.56
735.317	6527.55
735.658	6528.91
735.999	6489.36
736.339	6450.72
736.68	6481.91
737.021	6471.74
737.361	6440.1
737.702	6454.11
738.042	6476.48
738.383	6447.33
738.723	6423.38
739.063	6376.82
739.404	6412.98
739.744	6383.38
740.084	6338.86
740.424	6416.14
740.764	6367.11
741.104	6413.66
741.444	6335.69
741.784	6359.65
742.124	6416.37
742.464	6301.57
742.804	6307.67
743.143	6270.84
743.483	6301.35
743.823	6262.93
744.162	6276.04
744.502	6301.8
744.841	6223.38
745.181	6354
745.52	6297.5
745.86	6238.52
746.199	6245.75
746.538	6225.19
746.877	6185.19
747.216	6233.32
747.556	6184.74
747.895	6238.07
748.234	6176.15
748.573	6170.05
748.911	6170.28
749.25	6133.89
749.589	6113.33
749.928	6139.32
750.267	6136.83
750.605	6069.04
750.944	6101.8
751.283	6058.64
751.621	6098.64
751.96	6078.07
752.298	6098.19
752.636	6010.05
752.975	6043.5
753.313	6027.68
753.651	6063.39
753.989	5987.23
754.327	5965.99
754.666	5950.85
755.004	6008.7
755.342	5964.18
755.679	5921.47
756.017	5961.24
756.355	5870.62
756.693	5849.15
757.031	5816.61
757.368	5882.15
757.706	5872.2
758.044	5788.82
758.381	5782.04
758.719	5761.25
759.056	5789.49
759.394	5751.08
759.731	5704.07
760.068	5768.03
760.405	5681.02
760.743	5650.52
761.08	5690.29
761.417	5724.41
761.754	5651.65
762.091	5615.71
762.428	5660.68
762.765	5597.18
763.102	5598.09
763.438	5603.06
763.775	5573.23
764.112	5560.12
764.449	5573.68
764.785	5565.77
765.122	5496.4
765.458	5478.99
765.795	5516.96
766.131	5473.57
766.467	5451.88
766.804	5467.7
767.14	5422.5
767.476	5379.56
767.812	5335.95
768.148	5403.06
768.485	5338.21
768.821	5281.26
769.157	5282.84
769.492	5320.13
769.828	5283.07
770.164	5235.84
770.5	5251.43
770.836	5270.19
771.171	5181.83
771.507	5195.84
771.842	5227.02
772.178	5208.27
772.513	5181.83
772.849	5164.43
773.184	5094.6
773.519	5093.47
773.855	5080.13
774.19	5074.71
774.525	5048.5
774.86	5037.2
775.195	5018.89
775.53	4998.78
775.865	4979.57
776.2	4984.77
776.535	4938.67
776.87	4945
777.205	4926.92
777.539	4910.2
777.874	4926.01
778.209	4854.38
778.543	4846.69
778.878	4825.68
779.212	4788.39
779.547	4801.05
779.881	4803.08
780.215	4745
780.55	4745
780.884	4717.43
781.218	4711.1
781.552	4697.77
781.886	4668.17
782.22	4670.2
782.554	4614.38
782.888	4585.68
783.222	4575.52
783.556	4576.87
783.889	4531.45
784.223	4565.12
784.557	4560.37
784.89	4527.38
785.224	4519.7
785.557	4511.34
785.891	4506.82
786.224	4470.89
786.558	4494.39
786.891	4440.15
787.224	4454.61
787.557	4399.02
787.891	4422.07
788.224	4398.34
788.557	4430.21
788.89	4373.49
789.223	4373.71
789.556	4311.57
789.888	4331
790.221	4318.35
790.554	4333.26
790.887	4299.14
791.219	4291.91
791.552	4280.16
791.884	4239.7
792.217	4240.83
792.549	4241.51
792.882	4181.85
793.214	4219.37
793.546	4173.94
793.879	4163.32
794.211	4128.07
794.543	4150.44
794.875	4171.68
795.207	4154.96
795.539	4130.78
795.871	4118.35
796.203	4089.65
796.535	4035.87
796.867	4072.48
797.198	4035.19
797.53	4067.51
797.862	4014.4
798.193	3978.47
798.525	3999.71
798.856	4015.53
799.188	3942.31
799.519	3975.98
799.85	3900.73
800.182	3901.86
800.513	3950.9
800.844	3918.36
801.175	3929.88
801.506	3909.09
801.837	3875.65
802.168	3886.72
802.499	3886.27
802.83	3862.77
803.161	3841.3
803.491	3829.32
803.822	3851.69
804.153	3804.01
804.483	3807.63
804.814	3755.88
805.145	3766.95
805.475	3732.15
805.805	3768.53
806.136	3766.5
806.466	3757.68
806.796	3743.45
807.126	3710.68
807.457	3746.16
807.787	3737.12
808.117	3691.24
808.447	3716.1
808.777	3673.84
809.107	3714.07
809.436	3657.12
809.766	3667.97
810.096	3687.86
810.426	3584.35
810.755	3617.12
811.085	3650.79
811.414	3611.02
811.744	3573.73
812.073	3608.54
812.403	3555.66
812.732	3547.97
813.061	3595.43
813.39	3532.15
813.719	3531.47
814.049	3511.14
814.378	3532.38
814.707	3507.07
815.036	3529.89
815.365	3485.15
815.693	3495.77
816.022	3476.11
816.351	3476.79
816.68	3436.11
817.008	3475.21
817.337	3411.93
817.665	3449.9
817.994	3460.52
818.322	3481.08
818.651	3421.42
818.979	3453.06
819.307	3455.09
819.636	3414.87
819.964	3379.39
820.292	3404.25
820.62	3346.85
820.948	3382.33
821.276	3398.15
821.604	3394.08
821.932	3371.71
822.259	3377.81
822.587	3338.94
822.915	3411.03
823.243	3370.35
823.57	3412.16
823.898	3368.99
824.225	3375.77
824.553	3389.11
824.88	3375.55
825.207	3425.26
825.535	3403.34
825.862	3378.48
826.189	3368.77
826.516	3407.18
826.843	3336.23
827.17	3379.39
827.497	3378.71
827.824	3403.57
828.151	3417.58
828.478	3400.86
828.805	3406.28
829.131	3368.77
829.458	3401.53
829.785	3359.5
830.111	3359.5
830.438	3388.65
830.764	3401.99
831.09	3364.47
831.417	3356.79
831.743	3346.85
832.069	3356.11
832.395	3373.74
832.722	3361.08
833.048	3329.45
833.374	3350.01
833.7	3337.58
834.026	3362.89
834.351	3361.08
834.677	3315.66
835.003	3316.57
835.329	3317.7
835.654	3312.95
835.98	3328.77
836.306	3333.29
836.631	3297.81
836.956	3346.62
837.282	3289.22
837.607	3266.17
837.932	3297.13
838.258	3283.12
838.583	3286.96
838.908	3298.94
839.233	3294.19
839.558	3253.06
839.883	3304.59
840.208	3236.12
840.533	3232.73
840.858	3267.3
841.182	3273.18
841.507	3253.97
841.832	3260.3
842.156	3228.21
842.481	3230.24
842.805	3196.34
843.13	3197.7
843.454	3204.25
843.778	3175.33
844.103	3185.27
844.427	3213.74
844.751	3195.89
845.075	3162.22
845.399	3135.1
845.723	3150.24
846.047	3152.05
846.371	3131.03
846.695	3143.01
847.019	3154.54
847.343	3108.44
847.666	3093.29
847.99	3077.25
848.313	3040.41
848.637	3050.81
848.96	3035.67
849.284	3043.8
849.607	3033.41
849.931	3009
850.254	2971.49
850.577	3001.77
850.9	2948.44
851.223	2978.72
851.546	2964.03
851.869	2934.88
852.192	2953.19
852.515	2903.47
852.838	2882.68
853.161	2900.08
853.483	2859.63
853.806	2868.22
854.129	2866.63
854.451	2871.83
854.774	2852.4
855.096	2862.79
855.419	2867.99
855.741	2813.98
856.063	2843.36
856.385	2802.91
856.708	2797.93
857.03	2793.19
857.352	2803.13
857.674	2767.88
857.996	2752.06
858.318	2769.69
858.64	2791.16
858.961	2767.43
859.283	2767.2
859.605	2723.59
859.926	2754.09
860.248	2718.84
860.57	2710.48
860.891	2733.08
861.212	2722.68
861.534	2711.84
861.855	2731.72
862.176	2712.97
862.498	2728.33
862.819	2691.5
863.14	2705.06
863.461	2707.32
863.782	2671.38
864.103	2673.42
864.424	2674.55
864.745	2675
865.065	2650.37
865.386	2656.7
865.707	2665.06
866.027	2682.01
866.348	2653.76
866.668	2627.09
866.989	2640.65
867.309	2621.44
867.63	2653.98
867.95	2603.59
868.27	2601.78
868.59	2625.06
868.91	2594.78
869.23	2584.61
869.55	2620.31
869.87	2606.08
870.19	2617.6
870.51	2593.65
870.83	2628.9
871.15	2595.23
871.469	2592.29
871.789	2596.58
872.109	2602.46
872.428	2582.8
872.748	2561.78
873.067	2545.51
873.386	2559.75
873.706	2581.67
874.025	2572.86
874.344	2568.79
874.663	2560.2
874.982	2490.82
875.301	2541.67
875.62	2549.58
875.939	2517.72
876.258	2542.35
876.577	2509.13
876.896	2527.89
877.214	2522.01
877.533	2498.51
877.852	2541.67
878.17	2509.13
878.489	2531.95
878.807	2482.46
879.125	2534.66
879.444	2498.51
879.762	2489.47
880.08	2479.53
880.398	2481.33
880.716	2495.34
881.034	2475.23
881.352	2424.84
881.67	2433.65
881.988	2427.32
882.306	2493.08
882.624	2421.45
882.941	2456.7
883.259	2439.07
883.577	2439.98
883.894	2433.65
884.212	2446.53
884.529	2413.76
884.846	2428.23
885.164	2444.05
885.481	2439.3
885.798	2415.35
886.115	2413.76
886.432	2431.16
886.75	2392.07
887.067	2382.8
887.383	2386.42
887.7	2368.34
888.017	2363.14
888.334	2344.39
888.651	2361.79
888.967	2349.81
889.284	2350.26
889.6	2362.47
889.917	2304.61
890.233	2348.68
890.55	2314.11
890.866	2319.98
891.182	2335.12
891.498	2301.45
891.815	2308.68
892.131	2322.47
892.447	2278.17
892.763	2300.77
893.079	2291.51
893.395	2309.13
893.71	2291.28
894.026	2249.7
894.342	2261.68
894.657	2222.58
894.973	2261
895.289	2224.62
895.604	2205.41
895.92	2228.01
896.235	2198.85
896.55	2236.59
896.865	2201.11
897.181	2199.98
897.496	2230.94
897.811	2204.28
898.126	2173.09
898.441	2142.81
898.756	2168.57
899.071	2187.1
899.386	2143.94
899.7	2112.3
900.015	2156.6
900.33	2130.38
900.644	2133.77
900.959	2118.63
901.273	2113.89
901.588	2095.81
901.902	2103.94
902.216	2108.91
902.531	2089.93
902.845	2073.66
903.159	2071.4
903.473	2084.96
903.787	2063.49
904.101	2057.16
904.415	2072.08
904.729	2034.79
905.042	2038.63
905.356	2032.98
905.67	2051.97
905.984	2054.68
906.297	2009.26
906.611	2021.91
906.924	2030.05
907.237	2014.9
907.551	2029.59
907.864	2028.92
908.177	1983.49
908.491	1960.67
908.804	1996.6
909.117	1956.6
909.43	1963.38
909.743	1946.21
910.056	1946.66
910.368	1892.42
910.681	1959.99
910.994	1930.61
911.307	1928.81
911.619	1896.72
911.932	1878.86
912.244	1885.42
912.557	1904.63
912.869	1893.55
913.181	1847.9
913.494	1865.08
913.806	1871.41
914.118	1839.32
914.43	1835.02
914.742	1820.79
915.054	1857.85
915.366	1828.47
915.678	1814.46
915.99	1801.35
916.302	1806.55
916.613	1812.2
916.925	1792.54
917.236	1800.67
917.548	1766.1
917.859	1762.03
918.171	1761.58
918.482	1764.06
918.794	1743.95
919.105	1762.26
919.416	1734.46
919.727	1733.1
920.038	1746.89
920.349	1744.86
920.66	1761.35
920.971	1736.04
921.282	1693.33
921.593	1703.95
921.903	1689.94
922.214	1688.81
922.525	1664.18
922.835	1666.89
923.146	1704.63
923.456	1708.47
923.767	1681.13
924.077	1655.59
924.387	1658.3
924.697	1653.56
925.008	1656.27
925.318	1618.76
925.628	1626.67
925.938	1633.67
926.248	1593.45
926.558	1598.64
926.867	1625.76
927.177	1600
927.487	1599.32
927.796	1573.33
928.106	1577.4
928.416	1584.63
928.725	1571.53
929.034	1536.73
929.344	1563.39
929.653	1568.36
929.962	1538.08
930.271	1553
930.581	1522.04
930.89	1527.01
931.199	1522.71
931.508	1530.4
931.817	1520.68
932.125	1527.01
932.434	1494.47
932.743	1501.92
933.051	1473.9
933.36	1485.65
933.669	1481.36
933.977	1473.68
934.286	1500.34
934.594	1502.38
934.902	1472.55
935.21	1484.07
935.519	1477.07
935.827	1473
936.135	1467.12
936.443	1459.44
936.751	1441.36
937.059	1432.77
937.367	1441.59
937.674	1409.04
937.982	1409.27
938.29	1400.01
938.597	1394.81
938.905	1404.98
939.213	1403.17
939.52	1400.46
939.827	1381.02
940.135	1407.69
940.442	1379.67
940.749	1369.27
941.056	1368.37
941.363	1339.89
941.67	1351.19
941.977	1364.53
942.284	1361.36
942.591	1322.49
942.898	1358.88
943.205	1349.61
943.511	1340.57
943.818	1312.55
944.125	1328.6
944.431	1298.31
944.738	1272.33
945.044	1300.35
945.35	1307.8
945.657	1284.75
945.963	1295.83
946.269	1284.3
946.575	1268.26
946.881	1264.19
947.187	1305.77
947.493	1291.76
947.799	1250.63
948.105	1228.03
948.41	1275.49
948.716	1244.08
949.022	1238.65
949.327	1259.9
949.633	1246.79
949.938	1235.26
950.244	1226.68
950.549	1222.38
950.854	1218.77
951.16	1216.51
951.465	1192.78
951.77	1217.86
952.075	1203.63
952.38	1212.44
952.685	1199.11
952.99	1190.52
953.294	1194.81
953.599	1187.36
953.904	1181.25
954.209	1181.93
954.513	1179.22
954.818	1175.15
955.122	1159.79
955.426	1185.32
955.731	1147.81
956.035	1164.98
956.339	1153.91
956.643	1159.11
956.948	1159.56
957.252	1154.36
957.556	1141.93
957.86	1125.21
958.163	1125.66
958.467	1126.34
958.771	1124.31
959.075	1104.42
959.378	1117.53
959.682	1101.03
959.985	1109.17
960.289	1083.86
960.592	1110.3
960.896	1116.17
961.199	1096.51
961.502	1059.22
961.805	1049.96
962.108	1061.94
962.411	1063.29
962.714	1039.34
963.017	1054.25
963.32	1049.96
963.623	1065.33
963.926	1053.57
964.228	1039.11
964.531	1049.51
964.833	1062.39
965.136	1072.78
965.438	1060.81
965.741	1033.69
966.043	1026.23
966.345	1012.22
966.648	1036.63
966.95	1031.2
967.252	1008.15
967.554	1003.18
967.856	1005.67
968.158	1026.91
968.46	1022.61
968.761	1020.81
969.063	1028.72
969.365	1008.6
969.666	993.01
969.968	988.72
970.269	982.84
970.571	965.67
970.872	992.11
971.174	988.49
971.475	990.98
971.776	967.93
972.077	979.9
972.378	976.51
972.679	988.04
972.98	964.76
973.281	954.82
973.582	951.43
973.883	966.34
974.183	953.69
974.484	930.41
974.785	939.9
975.085	901.71
975.386	934.93
975.686	939.68
975.986	931.54
976.287	924.09
976.587	910.53
976.887	951.88
977.187	931.32
977.487	927.7
977.787	926.35
978.087	906.23
978.387	892.9
978.687	909.4
978.987	904.88
979.286	887.93
979.586	913.69
979.885	916.63
980.185	896.74
980.484	864.43
980.784	878.89
981.083	880.7
981.382	854.03
981.682	894.48
981.981	863.3
982.28	874.82
982.579	845.22
982.878	875.5
983.177	868.95
983.475	839.79
983.774	844.77
984.073	832.11
984.372	836.4
984.67	855.84
984.969	834.37
985.267	831.88
985.566	833.92
985.864	846.57
986.162	839.12
986.461	851.09
986.759	835.5
987.057	831.66
987.355	858.1
987.653	804.32
987.951	826.24
988.249	835.5
988.547	830.53
988.844	808.16
989.142	813.58
989.44	811.77
989.737	822.62
990.035	813.58
990.332	800.47
990.63	797.08
990.927	793.47
991.224	815.16
991.521	782.39
991.819	781.49
992.116	802.06
992.413	792.34
992.71	787.37
993.006	767.48
993.303	784.43
993.6	758.67
993.897	768.16
994.193	801.83
994.49	750.31
994.787	772
995.083	765.67
995.379	753.47
995.676	770.87
995.972	717.99
996.268	746.24
996.565	730.42
996.861	754.37
997.157	743.3
997.453	711.21
997.749	749.18
998.044	733.81
998.34	732.45
998.636	725
998.932	739.46
999.227	720.02
999.523	716.18
999.818	722.51
1000.114	731.55
1000.409	708.05
1000.704	695.84
1001	704.43
1001.295	690.87
1001.59	712.34
1001.885	696.52
1002.18	714.83
1002.475	707.59
1002.77	681.15
1003.065	679.57
1003.359	712.11
1003.654	680.02
1003.949	690.87
1004.243	684.54
1004.538	670.31
1004.832	690.19
1005.127	689.52
1005.421	679.57
1005.715	676.86
1006.009	667.82
1006.304	682.74
1006.598	672.79
1006.892	677.09
1007.186	673.47
1007.48	675.28
1007.773	645.45
1008.067	639.35
1008.361	638.44
1008.655	640.93
1008.948	642.51
1009.242	648.61
1009.535	638.67
1009.829	645.45
1010.122	626.24
1010.415	640.93
1010.708	617.43
1011.001	624.88
1011.295	602.29
1011.588	622.4
1011.881	637.54
1012.173	614.94
1012.466	608.84
1012.759	621.04
1013.052	626.47
1013.344	606.35
1013.637	625.34
1013.93	605.45
1014.222	616.98
1014.514	619.01
1014.807	595.96
1015.099	608.84
1015.391	627.37
1015.683	602.29
1015.976	570.42
1016.268	581.04
1016.56	585.11
1016.851	548.73
1017.143	569.07
1017.435	574.04
1017.727	582.4
1018.018	565
1018.31	583.98
1018.602	574.04
1018.893	570.87
1019.185	578.78
1019.476	564.77
1019.767	570.65
1020.058	591.89
1020.35	561.61
1020.641	556.64
1020.932	543.76
1021.223	541.05
1021.514	560.93
1021.804	558.45
1022.095	558.22
1022.386	536.98
1022.677	552.12
1022.967	536.53
1023.258	543.3
1023.548	540.37
1023.839	544.43
1024.129	542.18
1024.419	529.75
1024.709	535.62
1025	524.55
1025.29	511.22
1025.58	517.32
1025.87	540.37
1026.16	530.42
1026.449	537.43
1026.739	515.74
1027.029	513.48
1027.319	504.66
1027.608	501.5
1027.898	506.92
1028.187	508.28
1028.477	514.83
1028.766	509.41
1029.055	502.18
1029.344	504.89
1029.634	504.89
1029.923	497.66
1030.212	498.79
1030.501	492.91
1030.79	498.79
1031.078	504.66
1031.367	508.05
1031.656	511.67
1031.945	508.28
1032.233	488.17
1032.522	477.09
1032.81	466.7
1033.099	496.07
1033.387	493.36
1033.675	479.8
1033.963	487.04
1034.251	460.82
1034.54	474.61
1034.828	482.06
1035.116	481.16
1035.403	463.98
1035.691	454.27
1035.979	462.86
1036.267	465.11
1036.554	476.19
1036.842	473.02
1037.129	433.7
1037.417	451.1
1037.704	446.36
1037.992	445
1038.279	460.14
1038.566	433.03
1038.853	433.03
1039.14	433.03
