Data from black_plastic_tray_FLMS001491_076.txt Node
Date: Tue Feb 07 10:40:35 GMT 2017
User: dcchb
Spectrometer: FLMS00149
Trigger mode: 0
Integration Time (sec): 2.000000E-2
Scans to average: 10
Electric dark correction enabled: true
Nonlinearity correction enabled: false
Boxcar width: 0
XAxis mode: Wavelengths
Number of Pixels in Spectrum: 2048
>>>>>Begin Spectral Data<<<<<
341.393	-4.92
341.776	-4.92
342.16	-4.92
342.543	-48.53
342.927	-81.3
343.31	-81.3
343.693	-75.87
344.077	-76.78
344.46	-54.86
344.843	-72.94
345.226	-41.07
345.61	-16.67
345.993	-32.94
346.376	7.51
346.759	17.01
347.142	31.47
347.525	50
347.908	70.34
348.291	55.87
348.674	99.26
349.057	120.96
349.44	142.88
349.823	131.58
350.206	163.89
350.588	178.36
350.971	205.7
351.354	215.19
351.737	228.75
352.119	238.69
352.502	257.45
352.884	252.71
353.267	282.08
353.65	297.22
354.032	286.15
354.414	311.91
354.797	315.98
355.179	318.24
355.562	320.5
355.944	305.36
356.326	323.44
356.709	338.35
357.091	333.38
357.473	338.8
357.855	319.14
358.238	325.92
358.62	322.08
359.002	362.53
359.384	345.13
359.766	342.19
360.148	331.35
360.53	340.16
360.912	352.59
361.294	345.13
361.676	346.49
362.057	308.07
362.439	318.01
362.821	328.41
363.203	317.79
363.584	312.59
363.966	339.26
364.348	325.47
364.729	327.28
365.111	307.39
365.493	317.11
365.874	320.27
366.256	295.19
366.637	315.08
367.019	308.07
367.4	294.06
367.781	308.75
368.163	328.64
368.544	322.08
368.925	314.4
369.306	326.15
369.688	306.49
370.069	334.28
370.45	298.35
370.831	323.89
371.212	319.37
371.593	318.69
371.974	303.55
372.355	321.63
372.736	310.33
373.117	317.34
373.498	315.53
373.879	324.57
374.26	312.36
374.641	319.82
375.021	316.43
375.402	332.93
375.783	336.77
376.163	324.79
376.544	340.39
376.925	340.61
377.305	353.04
377.686	339.48
378.066	335.41
378.447	333.83
378.827	330.44
379.208	336.77
379.588	340.61
379.968	330.67
380.349	349.65
380.729	344.68
381.109	348.52
381.489	352.59
381.87	367.96
382.25	363.44
382.63	371.8
383.01	372.02
383.39	344.68
383.77	377.45
384.15	341.29
384.53	363.44
384.91	366.15
385.29	379.71
385.67	359.82
386.049	364.11
386.429	374.28
386.809	368.86
387.189	369.99
387.568	380.39
387.948	361.85
388.328	341.74
388.707	383.32
389.087	385.36
389.466	396.88
389.846	384.23
390.225	413.15
390.605	391.23
390.984	377
391.363	386.71
391.743	399.59
392.122	422.19
392.501	384.91
392.881	400.95
393.26	382.19
393.639	399.37
394.018	415.64
394.397	405.47
394.776	429.65
395.155	411.57
395.534	412.93
395.913	421.74
396.292	409.54
396.671	419.93
397.05	456.09
397.429	445.92
397.808	422.87
398.186	440.04
398.565	431.23
398.944	432.14
399.323	443.21
399.701	450.21
400.08	445.24
400.458	435.98
400.837	448.18
401.215	452.7
401.594	452.02
401.972	472.13
402.351	450.21
402.729	457.45
403.107	471.68
403.486	490.67
403.864	482.3
404.242	465.13
404.62	483.66
404.999	466.03
405.377	495.18
405.755	503.09
406.133	492.7
406.511	508.97
406.889	496.77
407.267	503.55
407.645	517.78
408.023	521.4
408.401	525.01
408.779	529.99
409.156	525.69
409.534	539.25
409.912	544.67
410.29	535.41
410.667	528.86
411.045	536.31
411.422	548.52
411.8	578.57
412.178	553.94
412.555	569.53
412.933	586.71
413.31	583.32
413.687	578.57
414.065	572.47
414.442	587.84
414.819	593.94
415.197	600.94
415.574	623.54
415.951	586.71
416.328	608.4
416.705	615.18
417.082	611.79
417.46	626.03
417.837	644.56
418.214	633.71
418.591	598.91
418.967	617.67
419.344	647.72
419.721	650.21
420.098	680.49
420.475	657.44
420.852	654.05
421.228	682.75
421.605	666.93
421.982	671
422.358	704.67
422.735	694.95
423.111	709.87
423.488	706.7
423.864	703.54
424.241	685.01
424.617	695.63
424.994	722.3
425.37	714.16
425.746	723.43
426.123	755.97
426.499	758.91
426.875	754.61
427.251	771.56
427.627	810.66
428.003	776.99
428.379	788.96
428.756	782.86
429.132	763.88
429.507	798
429.883	833.71
430.259	826.7
430.635	866.47
431.011	823.76
431.387	841.84
431.763	880.49
432.138	864.89
432.514	884.78
432.89	877.77
433.265	893.59
433.641	918.9
434.016	908.96
434.392	921.16
434.767	937.66
435.143	936.3
435.518	933.37
435.894	960.03
436.269	937.43
436.644	992.12
437.02	988.51
437.395	971.1
437.77	976.53
438.145	1008.84
438.52	1006.36
438.895	1006.58
439.271	1040.26
439.646	1019.69
440.021	1059.69
440.395	1060.14
440.77	1017.66
441.145	1059.69
441.52	1045
441.895	1082.06
442.27	1055.62
442.645	1085.45
443.019	1105.11
443.394	1099.69
443.769	1091.78
444.143	1118.67
444.518	1127.26
444.892	1116.64
445.267	1138.33
445.641	1121.83
446.016	1118.67
446.39	1144.21
446.764	1150.99
447.139	1141.27
447.513	1178.33
447.887	1184.21
448.262	1167.48
448.636	1182.17
449.01	1201.83
449.384	1216.07
449.758	1204.54
450.132	1211.78
450.506	1240.48
450.88	1242.06
451.254	1236.41
451.628	1256.97
452.002	1260.36
452.376	1266.24
452.75	1268.5
453.123	1305.11
453.497	1328.38
453.871	1320.47
454.244	1346.46
454.618	1364.77
454.992	1376.29
455.365	1377.87
455.739	1397.08
456.112	1396.18
456.486	1424.88
456.859	1452.67
457.232	1456.06
457.606	1451.77
457.979	1472.56
458.352	1495.38
458.725	1519.34
459.099	1555.5
459.472	1553.91
459.845	1560.69
460.218	1582.84
460.591	1616.96
460.964	1596.85
461.337	1664.87
461.71	1670.97
462.083	1676.62
462.456	1676.85
462.829	1686.34
463.201	1687.24
463.574	1719.33
463.947	1757.75
464.32	1791.42
464.692	1786.9
465.065	1807.69
465.438	1824.19
465.81	1840.01
466.183	1908.03
466.555	1932.44
466.928	1917.29
467.3	1905.09
467.672	1973.34
468.045	2029.38
468.417	1971.53
468.789	2017.63
469.161	2042.26
469.534	2079.55
469.906	2109.83
470.278	2133.79
470.65	2122.94
471.022	2185.99
471.394	2223.27
471.766	2256.95
472.138	2282.71
472.51	2309.15
472.882	2320.9
473.253	2334.91
473.625	2387.79
473.997	2424.4
474.369	2470.73
474.74	2472.76
475.112	2529.03
475.484	2560.89
475.855	2609.25
476.227	2648.8
476.598	2670.49
476.97	2686.31
477.341	2732.19
477.713	2799.76
478.084	2815.58
478.455	2892.18
478.827	2941.22
479.198	3000.66
479.569	2990.49
479.94	3038.62
480.311	3119.75
480.682	3126.98
481.053	3212.18
481.424	3246.07
481.795	3286.52
482.166	3327.65
482.537	3372.62
482.908	3446.07
483.279	3517.7
483.65	3552.51
484.021	3568.1
484.391	3651.26
484.762	3657.81
485.133	3671.37
485.503	3743.69
485.874	3817.13
486.244	3888.54
486.615	3949.11
486.985	3930.57
487.356	4000.86
487.726	4085.82
488.097	4145.48
488.467	4154.52
488.837	4251.47
489.207	4344.12
489.578	4343.9
489.948	4426.38
490.318	4468.64
490.688	4443.1
491.058	4503.67
491.428	4537.79
491.798	4622.99
492.168	4705.24
492.538	4672.93
492.908	4752.25
493.278	4878.12
493.648	4861.85
494.017	4888.06
494.387	4942.75
494.757	4994.73
495.126	5022.07
495.496	5073.37
495.866	5131.67
496.235	5187.72
496.605	5205.57
496.974	5227.49
497.344	5275.4
497.713	5332.57
498.082	5339.35
498.452	5436.3
498.821	5408.28
499.19	5462.29
499.559	5507.93
499.928	5519.69
500.298	5554.03
500.667	5682.84
501.036	5682.39
501.405	5702.51
501.774	5689.17
502.143	5776.18
502.512	5781.83
502.88	5842.39
503.249	5815.5
503.618	5879.45
503.987	5926
504.356	5903.18
504.724	6053.23
505.093	6020.92
505.462	6083.29
505.83	6159.67
506.199	6164.41
506.567	6184.53
506.936	6230.85
507.304	6353.11
507.672	6273.79
508.041	6339.78
508.409	6456.16
508.777	6434.92
509.145	6467.91
509.514	6510.17
509.882	6603.95
510.25	6623.61
510.618	6647.57
510.986	6730.05
511.354	6787
511.722	6800.56
512.09	6889.59
512.458	6899.08
512.826	6911.51
513.193	6989.48
513.561	6969.82
513.929	7096.37
514.297	7130.26
514.664	7177.04
515.032	7193.99
515.4	7279.87
515.767	7297.94
516.135	7324.38
516.502	7373.65
516.869	7516.7
517.237	7447.09
517.604	7513.98
517.972	7544.94
518.339	7601.66
518.706	7653.87
519.073	7676.46
519.44	7774.77
519.808	7823.58
520.175	7853.18
520.542	7949.45
520.909	8027.42
521.276	8042.56
521.643	8130.01
522.009	8185.83
522.376	8180.18
522.743	8299.05
523.11	8366.62
523.477	8521.19
523.843	8404.81
524.21	8568.42
524.577	8626.72
524.943	8643.22
525.31	8716.21
525.676	8825.59
526.043	8814.74
526.409	8894.96
526.776	8923.21
527.142	9059.03
527.508	9061.29
527.874	9113.49
528.241	9135.86
528.607	9227.38
528.973	9311.22
529.339	9318.46
529.705	9447.94
530.071	9495.85
530.437	9521.16
530.803	9605
531.169	9742.4
531.535	9607.04
531.901	9616.3
532.267	9748.95
532.632	9862.4
532.998	9795.96
533.364	9896.52
533.73	9914.6
534.095	10045.89
534.461	9959.12
534.826	10093.58
535.192	10138.55
535.557	10202.95
535.923	10282.5
536.288	10265.78
536.653	10371.31
537.019	10231.65
537.384	10379.22
537.749	10414.02
538.114	10462.15
538.479	10445.88
538.845	10488.82
539.21	10509.61
539.575	10612.88
539.94	10609.72
540.305	10650.62
540.67	10671.19
541.034	10714.35
541.399	10764.97
541.764	10828.7
542.129	10845.65
542.494	10855.36
542.858	10906.66
543.223	10950.95
543.587	10967.9
543.952	11007.45
544.316	11079.54
544.681	11038.86
545.045	11162.25
545.41	11228.91
545.774	11249.48
546.138	11235.69
546.503	11326.31
546.867	11276.6
547.231	11416.48
547.595	11479.08
547.959	11421.68
548.324	11453.99
548.688	11508.68
549.052	11569.92
549.416	11577.83
549.779	11640.88
550.143	11648.11
550.507	11750.03
550.871	11690.6
551.235	11685.4
551.599	11787.09
551.962	11970.14
552.326	11856.02
552.689	12046.97
553.053	11944.15
553.417	12065.28
553.78	12150.92
554.143	12164.71
554.507	12224.82
554.87	12267.53
555.234	12380.07
555.597	12332.16
555.96	12316.79
556.323	12416.23
556.686	12426.85
557.05	12585.26
557.413	12585.26
557.776	12601.76
558.139	12705.03
558.502	12757.01
558.865	12772.38
559.228	12855.76
559.59	12841.53
559.953	12923.11
560.316	12979.15
560.679	13047.17
561.041	13105.25
561.404	13177.79
561.767	13208.97
562.129	13156.09
562.492	13360.38
562.854	13347.73
563.217	13423.88
563.579	13473.15
563.941	13549.3
564.304	13532.58
564.666	13703.65
565.028	13752.69
565.39	13725.57
565.753	13801.05
566.115	13817.77
566.477	13853.48
566.839	13960.82
567.201	14037.65
567.563	13975.96
567.925	14167.82
568.287	14133.7
568.648	14145.45
569.01	14234.94
569.372	14413.24
569.734	14328.95
570.095	14421.82
570.457	14436.97
570.819	14549.5
571.18	14519.9
571.542	14584.53
571.903	14626.79
572.265	14678.09
572.626	14730.74
572.987	14877.18
573.349	14821.59
573.71	14873.34
574.071	14894.81
574.432	14902.49
574.794	14998.08
575.155	14975.93
575.516	14919.21
575.877	15036.72
576.238	15066.33
576.599	15118.98
576.96	15077.17
577.32	15168.92
577.681	15146.55
578.042	15330.73
578.403	15296.83
578.763	15406.88
579.124	15394.23
579.485	15347.9
579.845	15385.19
580.206	15377.05
580.566	15301.8
580.927	15283.04
581.287	15333.44
581.648	15342.48
582.008	15450.27
582.368	15397.39
582.728	15512.19
583.089	15535.92
583.449	15382.02
583.809	15519.2
584.169	15457.5
584.529	15417.73
584.889	15610.95
585.249	15553.77
585.609	15518.97
585.969	15547.9
586.329	15535.69
586.688	15555.13
587.048	15483.04
587.408	15514
587.768	15526.2
588.127	15594.9
588.487	15546.09
588.846	15575.92
589.206	15383.61
589.565	15489.14
589.925	15485.98
590.284	15536.82
590.643	15548.12
591.003	15625.41
591.362	15575.01
591.721	15603.26
592.08	15508.8
592.44	15674.45
592.799	15587.67
593.158	15580.89
593.517	15663.6
593.876	15679.64
594.235	15680.32
594.593	15725.52
594.952	15821.56
595.311	15741.34
595.67	15740.43
596.029	15730.26
596.387	15706.08
596.746	15691.17
597.104	15716.25
597.463	15760.77
597.822	15741.79
598.18	15676.71
598.538	15842.8
598.897	15710.83
599.255	15715.8
599.613	15929.81
599.972	15792.41
600.33	15872.86
600.688	15797.61
601.046	15793.99
601.404	15893.2
601.762	15822.47
602.12	15924.38
602.478	15981.78
602.836	15946.08
603.194	15885.97
603.552	15894.55
603.91	15867.89
604.268	16000.31
604.625	15885.97
604.983	16003.93
605.341	15866.53
605.698	15907.66
606.056	15901.11
606.413	15966.64
606.771	15978.39
607.128	16059.3
607.485	15973.42
607.843	16001.9
608.2	16048.9
608.557	16176.81
608.914	16215.22
609.272	16174.32
609.629	16183.36
609.986	16204.83
610.343	16022.91
610.7	16227.88
611.057	16156.24
611.414	16212.74
611.771	16297.26
612.127	16257.93
612.484	16377.25
612.841	16315.79
613.198	16325.73
613.554	16374.54
613.911	16417.7
614.267	16404.14
614.624	16287.54
614.98	16268.78
615.337	16444.6
615.693	16398.95
616.05	16373.64
616.406	16475.33
616.762	16445.5
617.118	16457.93
617.475	16471.94
617.831	16395.78
618.187	16416.57
618.543	16510.36
618.899	16694.76
619.255	16669.22
619.611	16596.68
619.967	16666.96
620.323	16721.2
620.678	16580.64
621.034	16463.13
621.39	16611.82
621.746	16562.78
622.101	16777.02
622.457	16589.45
622.812	16673.97
623.168	16593.97
623.523	16678.94
623.879	16683.69
624.234	16528.21
624.589	16607.76
624.945	16645.95
625.3	16665.83
625.655	16665.16
626.01	16664.93
626.365	16690.92
626.72	16697.92
627.075	16695.44
627.43	16572.95
627.785	16676.68
628.14	16652.05
628.495	16672.16
628.85	16613.63
629.205	16601.43
629.559	16662.67
629.914	16526.63
630.269	16633.74
630.623	16560.3
630.978	16504.26
631.332	16601.88
631.687	16497.7
632.041	16450.25
632.396	16548.32
632.75	16528.89
633.104	16521.66
633.459	16401.21
633.813	16432.39
634.167	16381.09
634.521	16444.82
634.875	16312.4
635.229	16417.93
635.583	16293.19
635.937	16256.58
636.291	16238.27
636.645	16140.65
636.999	16083.93
637.352	16111.95
637.706	16032.18
638.06	16054.32
638.413	16122.12
638.767	16076.47
639.121	16071.95
639.474	16015
639.828	16057.04
640.181	16069.24
640.534	16055.45
640.888	15891.84
641.241	15966.64
641.594	15924.16
641.947	15974.1
642.301	15911.95
642.654	15841
643.007	15841.45
643.36	15806.19
643.713	15783.6
644.066	15866.76
644.419	15806.19
644.771	15694.79
645.124	15533.66
645.477	15505.86
645.83	15325.76
646.182	15331.63
646.535	15227
646.888	15280.78
647.24	15245.08
647.593	15313.78
647.945	15262.71
648.298	15153.56
648.65	15068.13
649.002	15096.38
649.355	15163.5
649.707	15092.77
650.059	15138.42
650.411	15324.17
650.763	15490.27
651.115	15552.87
651.467	15473.32
651.819	15508.12
652.171	15337.73
652.523	15377.28
652.875	15391.06
653.227	15393.55
653.578	15417.05
653.93	15393.78
654.282	15362.59
654.633	15301.35
654.985	15294.57
655.337	15428.58
655.688	15331.86
656.039	15370.05
656.391	15199.2
656.742	15157.85
657.094	15220.67
657.445	15340.67
657.796	15280.33
658.147	15291.86
658.498	15203.72
658.849	15271.75
659.2	15205.76
659.551	15265.19
659.902	15191.3
660.253	15210.96
660.604	15234.68
660.955	15170.73
661.306	15166.44
661.656	15115.37
662.007	15083.05
662.358	15109.49
662.708	15134.12
663.059	14980.23
663.409	14981.36
663.76	15024.52
664.11	15063.62
664.461	15052.54
664.811	15101.13
665.161	14970.28
665.511	14986.56
665.862	14928.03
666.212	15045.31
666.562	15070.62
666.912	14996.27
667.262	14916.05
667.612	14975.26
667.962	14905.88
668.312	14933.9
668.662	15001.7
669.011	15009.83
669.361	14964.86
669.711	14906.56
670.06	14880.8
670.41	14758.09
670.76	14856.16
671.109	14929.38
671.459	14844.86
671.808	14761.25
672.157	14850.29
672.507	14788.37
672.856	14730.52
673.205	14839.67
673.554	14836.05
673.904	14749.73
674.253	14791.76
674.602	14648.48
674.951	14554.48
675.3	14499.34
675.649	14711.31
675.998	14673.12
676.346	14706.56
676.695	14748.82
677.044	14686.68
677.393	14711.53
677.741	14580.46
678.09	14621.14
678.438	14435.38
678.787	14633.34
679.135	14558.09
679.484	14540.92
679.832	14572.55
680.181	14547.24
680.529	14506.12
680.877	14459.34
681.225	14422.73
681.573	14527.13
681.922	14442.39
682.27	14423.86
682.618	14369.62
682.966	14375.5
683.314	14438.32
683.661	14353.58
684.009	14310.19
684.357	14256.18
684.705	14232.22
685.053	14273.35
685.4	14320.58
685.748	14223.64
686.095	14180.25
686.443	14088.5
686.79	14024.55
687.138	14025.9
687.485	14099.57
687.832	14002.63
688.18	13999.46
688.527	13992.46
688.874	13966.24
689.221	13937.77
689.568	13849.64
689.915	13870.88
690.262	13835.62
690.609	13782.07
690.956	13735.51
691.303	13672.92
691.65	13648.06
691.997	13522.19
692.344	13511.11
692.69	13445.58
693.037	13447.39
693.383	13448.52
693.73	13461.62
694.077	13431.12
694.423	13512.92
694.769	13544.56
695.116	13403.55
695.462	13382.3
695.808	13320.38
696.155	13392.92
696.501	13225.02
696.847	13173.95
697.193	13103.67
697.539	13140.28
697.885	13071.58
698.231	12991.81
698.577	12972.37
698.923	12967.63
699.269	12982.77
699.614	12831.13
699.96	12692.38
700.306	12808.99
700.651	12793.84
700.997	12666.84
701.342	12685.82
701.688	12718.14
702.033	12631.14
702.379	12618.48
702.724	12590.69
703.069	12687.41
703.415	12591.59
703.76	12539.84
704.105	12473.63
704.45	12502.55
704.795	12417.13
705.14	12343.69
705.485	12375.32
705.83	12272.28
706.175	12326.96
706.52	12227.31
706.865	12242.67
707.209	12270.92
707.554	12179.4
707.899	12127.2
708.243	12094.2
708.588	12110.92
708.932	11958.61
709.277	12016.01
709.621	12048.33
709.966	11990.02
710.31	11969.69
710.654	11878.16
710.998	11940.53
711.342	11877.26
711.687	11900.99
712.031	11779.41
712.375	11777.83
712.719	11766.98
713.063	11749.35
713.407	11730.82
713.75	11641.11
714.094	11644.95
714.438	11609.69
714.782	11608.11
715.125	11557.04
715.469	11544.16
715.812	11494.22
716.156	11470.49
716.499	11383.49
716.843	11440.89
717.186	11427.55
717.53	11458.29
717.873	11376.48
718.216	11478.62
718.559	11359.31
718.902	11301.45
719.246	11332.64
719.589	11364.28
719.932	11252.42
720.275	11307.78
720.617	11266.2
720.96	11279.53
721.303	11235.02
721.646	11229.37
721.989	11095.58
722.331	11170.61
722.674	11110.72
723.016	11141.23
723.359	11129.48
723.701	11155.92
724.044	11070.5
724.386	11069.37
724.729	11007.9
725.071	10957.51
725.413	10970.62
725.755	10964.06
726.097	10880.45
726.439	10874.12
726.782	10879.54
727.124	10871.41
727.465	10794.8
727.807	10845.2
728.149	10837.51
728.491	10773.33
728.833	10849.71
729.175	10705.76
729.516	10756.61
729.858	10714.35
730.199	10694.46
730.541	10727.23
730.882	10697.4
731.224	10713.22
731.565	10630.74
731.906	10561.81
732.248	10645.65
732.589	10522.04
732.93	10589.61
733.271	10578.08
733.612	10567.46
733.953	10466.67
734.294	10496.73
734.635	10491.76
734.976	10500.57
735.317	10522.04
735.658	10471.87
735.999	10462.15
736.339	10478.2
736.68	10371.76
737.021	10359.33
737.361	10348.26
737.702	10380.57
738.042	10340.35
738.383	10311.2
738.723	10383.96
739.063	10329.28
739.404	10327.24
739.744	10301.25
740.084	10278.2
740.424	10279.11
740.764	10238.88
741.104	10253.8
741.444	10096.74
741.784	10186.23
742.124	10175.61
742.464	10126.12
742.804	10176.74
743.143	10121.6
743.483	10165.89
743.823	10121.15
744.162	10134.93
744.502	10117.3
744.841	10033.24
745.181	10068.49
745.52	9983.3
745.86	9984.2
746.199	10071.2
746.538	9933.35
746.877	9999.79
747.216	9928.61
747.556	9933.13
747.895	9941.49
748.234	9936.74
748.573	9882.06
748.911	9875.96
749.25	9901.72
749.589	9836.41
749.928	9841.38
750.267	9799.35
750.605	9830.31
750.944	9787.6
751.283	9758.67
751.621	9757.99
751.96	9689.75
752.298	9630.99
752.636	9689.52
752.975	9657.66
753.313	9573.59
753.651	9626.24
753.989	9600.26
754.327	9578.11
754.666	9496.76
755.004	9452.92
755.342	9506.02
755.679	9508.28
756.017	9349.19
756.355	9335.63
756.693	9364.33
757.031	9357.78
757.368	9296.54
757.706	9314.16
758.044	9308.29
758.381	9285.01
758.719	9205.01
759.056	9258.8
759.394	9216.99
759.731	9183.09
760.068	9141.96
760.405	9102.42
760.743	9074.85
761.08	9019.71
761.417	9006.6
761.754	8995.75
762.091	8970.22
762.428	8979.93
762.765	8902.42
763.102	8997.79
763.438	8874.85
763.775	8869.2
764.112	8863.55
764.449	8805.93
764.785	8804.34
765.122	8730.9
765.458	8758.7
765.795	8707.17
766.131	8736.55
766.467	8650.22
766.804	8590.11
767.14	8622.65
767.476	8546.72
767.812	8528.65
768.148	8482.09
768.485	8448.65
768.821	8474.64
769.157	8421.76
769.492	8425.6
769.828	8435.31
770.164	8356.9
770.5	8238.71
770.836	8356.9
771.171	8294.53
771.507	8248.2
771.842	8193.29
772.178	8204.13
772.513	8216.34
772.849	8147.64
773.184	8089.56
773.519	8112.84
773.855	7967.08
774.19	8028.55
774.525	7939.51
774.86	7936.34
775.195	7981.54
775.53	7892.96
775.865	7884.37
776.2	7822.22
776.535	7815.44
776.87	7779.06
777.205	7705.84
777.539	7739.51
777.874	7814.54
778.209	7696.13
778.543	7669.69
778.878	7612.74
779.212	7621.33
779.547	7576.13
779.881	7602.57
780.215	7565.73
780.55	7484.61
780.884	7379.52
781.218	7404.16
781.552	7375
781.886	7433.99
782.22	7303.59
782.554	7288.23
782.888	7195.12
783.222	7216.82
783.556	7228.34
783.889	7176.82
784.223	7181.11
784.557	7170.04
784.89	7190.6
785.224	7192.64
785.557	7123.49
785.891	7106.31
786.224	7048.91
786.558	7023.6
786.891	6869.25
787.224	6964.39
787.557	6923.04
787.891	6911.51
788.224	6904.73
788.557	6887.11
788.89	6907.45
789.223	6897.05
789.556	6816.15
789.888	6848.01
790.221	6829.26
790.554	6795.13
790.887	6750.61
791.219	6740.22
791.552	6662.71
791.884	6606.21
792.217	6641.24
792.549	6544.07
792.882	6568.7
793.214	6558.98
793.546	6485.08
793.879	6504.52
794.211	6461.81
794.543	6458.42
794.875	6431.53
795.207	6471.75
795.539	6429.04
795.871	6382.26
796.203	6362.15
796.535	6295.71
796.867	6217.97
797.198	6226.79
797.53	6269.04
797.862	6210.97
798.193	6197.86
798.525	6261.36
798.856	6212.1
799.188	6146.79
799.519	6169.61
799.85	6096.17
800.182	6096.39
800.513	6104.98
800.844	6036.51
801.175	6107.69
801.506	6052.1
801.837	6035.38
802.168	6006.68
802.499	5980.24
802.83	5926.45
803.161	5930.07
803.491	5897.3
803.822	5920.58
804.153	5899.11
804.483	5829.06
804.814	5879
805.145	5809.17
805.475	5790.41
805.805	5744.76
806.136	5794.71
806.466	5832.45
806.796	5800.36
807.126	5773.46
807.457	5717.87
807.787	5693.24
808.117	5695.5
808.447	5738.44
808.777	5663.86
809.107	5727.36
809.436	5668.61
809.766	5684.2
810.096	5596.52
810.426	5558.33
810.755	5580.93
811.085	5534.6
811.414	5523.98
811.744	5548.61
812.073	5529.18
812.403	5493.47
812.732	5493.7
813.061	5472.23
813.39	5423.87
813.719	5385.45
814.049	5452.34
814.378	5367.82
814.707	5410.08
815.036	5413.93
815.365	5352.23
815.693	5325.57
816.022	5322.63
816.351	5326.92
816.68	5288.05
817.008	5276.08
817.337	5315.62
817.665	5286.02
817.994	5255.06
818.322	5263.87
818.651	5223.2
818.979	5255.06
819.307	5274.27
819.636	5197.66
819.964	5225.23
820.292	5229.98
820.62	5163.08
820.948	5179.58
821.276	5190.65
821.604	5202.86
821.932	5204.89
822.259	5231.33
822.587	5217.09
822.915	5143.65
823.243	5208.28
823.57	5163.08
823.898	5106.59
824.225	5167.6
824.553	5150.88
824.88	5154.27
825.207	5122.18
825.535	5173.71
825.862	5224.1
826.189	5144.55
826.516	5129.64
826.843	5190.88
827.17	5173.48
827.497	5213.25
827.824	5154.72
828.151	5140.94
828.478	5133.25
828.805	5186.59
829.131	5148.62
829.458	5164.44
829.785	5141.16
830.111	5139.36
830.438	5136.42
830.764	5173.71
831.09	5150.88
831.417	5084.89
831.743	5136.42
832.069	5132.58
832.395	5088.74
832.722	5115.85
833.048	5107.27
833.374	5063.88
833.7	5039.02
834.026	5096.87
834.351	5071.34
834.677	5047.38
835.003	5069.98
835.329	5042.86
835.654	5073.6
835.98	5077.44
836.306	5076.31
836.631	5067.72
836.956	5059.81
837.282	5084.67
837.607	4999.02
837.932	4975.52
838.258	5004.67
838.583	4979.59
838.908	4974.84
839.233	4998.34
839.558	4965.8
839.883	4992.92
840.208	5031.11
840.533	4968.74
840.858	4968.74
841.182	4973.71
841.507	4979.81
841.832	4911.11
842.156	4927.84
842.481	4907.27
842.805	4893.71
843.13	4897.55
843.454	4895.52
843.778	4855.3
844.103	4857.1
844.427	4830.21
844.751	4803.77
845.075	4872.7
845.399	4791.12
845.723	4745.02
846.047	4786.37
846.371	4748.63
846.695	4756.54
847.019	4701.18
847.343	4735.75
847.666	4672.93
847.99	4709.09
848.313	4629.77
848.637	4596.09
848.96	4678.35
849.284	4614.62
849.607	4542.31
849.931	4539.6
850.254	4511.35
850.577	4520.39
850.9	4462.09
851.223	4465.93
851.546	4489.88
851.869	4410.56
852.192	4413.5
852.515	4446.49
852.838	4406.95
853.161	4399.71
853.483	4335.99
853.806	4383.22
854.129	4356.55
854.451	4314.52
854.774	4317.46
855.096	4303.67
855.419	4359.26
855.741	4307.51
856.063	4252.37
856.385	4321.75
856.708	4249.21
857.03	4204.47
857.352	4238.59
857.674	4183.9
857.996	4193.84
858.318	4178.93
858.64	4192.04
858.961	4175.99
859.283	4181.87
859.605	4161.53
859.926	4169.21
860.248	4100.74
860.57	4107.97
860.891	4148.65
861.212	4098.48
861.534	4096.22
861.855	4048.31
862.176	4046.28
862.498	4109.55
862.819	4104.13
863.14	4084.92
863.461	4027.3
863.782	4020.52
864.103	4010.57
864.424	4007.41
864.745	3971.03
865.065	3995.88
865.386	4011.48
865.707	4006.05
866.027	4013.96
866.348	4005.83
866.668	3921.31
866.989	3981.65
867.309	3952.95
867.63	3908.2
867.95	3925.83
868.27	3942.33
868.59	3967.64
868.91	3936.45
869.23	3949.78
869.55	3951.59
869.87	3949.78
870.19	3896.45
870.51	3929.67
870.83	3906.17
871.15	3925.38
871.469	3901.65
871.789	3849.9
872.109	3874.76
872.428	3868.66
872.748	3864.81
873.067	3806.74
873.386	3825.49
873.706	3871.14
874.025	3792.5
874.344	3831.14
874.663	3808.54
874.982	3830.46
875.301	3824.14
875.62	3783.01
875.939	3786.17
876.258	3757.25
876.577	3764.93
876.896	3758.15
877.214	3721.31
877.533	3762.67
877.852	3712.05
878.17	3780.07
878.489	3739.39
878.807	3771.71
879.125	3748.43
879.444	3783.23
879.762	3741.65
880.08	3743.69
880.398	3679.96
880.716	3717.7
881.034	3722.9
881.352	3724.25
881.67	3725.16
881.988	3734.42
882.306	3674.99
882.624	3671.37
882.941	3667.53
883.259	3616.01
883.577	3696
883.894	3648.55
884.212	3647.42
884.529	3654.88
884.846	3616.91
885.164	3622.79
885.481	3633.86
885.798	3588.44
886.115	3592.05
886.432	3589.79
886.75	3590.92
887.067	3583.24
887.383	3534.88
887.7	3533.3
888.017	3489.46
888.334	3520.64
888.651	3521.77
888.967	3520.42
889.284	3517.48
889.6	3517.03
889.917	3455.11
890.233	3452.62
890.55	3453.98
890.866	3452.4
891.182	3424.6
891.498	3454.2
891.815	3456.91
892.131	3417.82
892.447	3454.88
892.763	3432.06
893.079	3418.5
893.395	3393.41
893.71	3381.66
894.026	3366.3
894.342	3350.02
894.657	3362.68
894.973	3311.16
895.289	3349.12
895.604	3344.15
895.92	3303.47
896.235	3249.01
896.55	3291.27
896.865	3311.61
897.181	3281.78
897.496	3290.82
897.811	3276.58
898.126	3266.64
898.441	3203.14
898.756	3240.88
899.071	3220.99
899.386	3225.73
899.7	3201.1
900.015	3176.47
900.33	3177.15
900.644	3138.96
900.959	3185.96
901.273	3164.04
901.588	3130.6
901.902	3129.69
902.216	3110.71
902.531	3122.01
902.845	3116.58
903.159	3036.36
903.473	3056.02
903.787	3054.67
904.101	3061.22
904.415	3025.74
904.729	3000.2
905.042	2992.07
905.356	2988.23
905.67	2988.23
905.984	2996.81
906.297	2962.01
906.611	2971.5
906.924	2936.48
907.237	2945.52
907.551	2958.17
907.864	2966.98
908.177	2991.84
908.491	2935.57
908.804	2932.86
909.117	2858.51
909.43	2845.41
909.743	2883.82
910.056	2836.14
910.368	2814.67
910.681	2831.85
910.994	2802.47
911.307	2807.89
911.619	2789.59
911.932	2785.75
912.244	2816.93
912.557	2784.16
912.869	2785.52
913.181	2779.87
913.494	2741
913.806	2742.58
914.118	2744.84
914.43	2711.4
914.742	2707.33
915.054	2672.53
915.366	2680.44
915.678	2649.03
915.99	2651.96
916.302	2646.31
916.613	2620.1
916.925	2598.41
917.236	2630.27
917.548	2598.18
917.859	2619.65
918.171	2594.56
918.482	2570.38
918.794	2596.82
919.105	2575.13
919.416	2569.25
919.727	2555.47
920.038	2558.41
920.349	2569.48
920.66	2537.16
920.971	2538.29
921.282	2504.85
921.593	2491.06
921.903	2468.47
922.214	2460.56
922.525	2461.69
922.835	2457.84
923.146	2436.6
923.456	2445.42
923.767	2421.69
924.077	2399.54
924.387	2428.92
924.697	2423.27
925.008	2407.9
925.318	2368.36
925.628	2388.24
925.938	2394.8
926.248	2360.67
926.558	2365.19
926.867	2355.47
927.177	2331.75
927.487	2274.8
927.796	2281.58
928.106	2327.45
928.416	2271.86
928.725	2277.06
929.034	2234.35
929.344	2249.26
929.653	2252.65
929.962	2248.36
930.271	2228.47
930.581	2227.57
930.89	2213.56
931.199	2199.32
931.508	2186.67
931.817	2190.28
932.125	2193.67
932.434	2182.15
932.743	2168.36
933.051	2171.52
933.36	2124.52
933.669	2124.97
933.977	2142.6
934.286	2148.93
934.594	2110.74
934.902	2117.97
935.21	2145.99
935.519	2102.83
935.827	2139.89
936.135	2095.59
936.443	2079.32
936.751	2099.21
937.059	2059.44
937.367	2042.94
937.674	2051.75
937.982	2014.47
938.29	2007.24
938.597	2006.78
938.905	1984.19
939.213	2015.6
939.52	1988.25
939.827	1997.07
940.135	1999.55
940.442	1971.76
940.749	1974.47
941.056	1982.6
941.363	1949.84
941.67	1951.19
941.977	1935.37
942.284	1922.72
942.591	1913.68
942.898	1933.56
943.205	1884.98
943.511	1913.45
943.818	1903.96
944.125	1865.77
944.431	1875.49
944.738	1889.72
945.044	1879.56
945.35	1841.36
945.657	1847.01
945.963	1836.39
946.269	1839.78
946.575	1839.56
946.881	1799.33
947.187	1824.64
947.493	1811.76
947.799	1783.51
948.105	1789.84
948.41	1773.57
948.716	1783.06
949.022	1789.16
949.327	1768.82
949.633	1778.31
949.938	1779.44
950.244	1758.65
950.549	1739.67
950.854	1768.15
951.16	1746.23
951.465	1736.96
951.77	1726.56
952.075	1703.97
952.38	1703.06
952.685	1699.9
952.99	1709.84
953.294	1707.13
953.599	1691.99
953.904	1674.59
954.209	1656.06
954.513	1678.43
954.818	1625.55
955.122	1640.24
955.426	1638.66
955.731	1654.7
956.035	1625.78
956.339	1648.37
956.643	1616.29
956.948	1591.88
957.252	1610.86
957.556	1626.91
957.86	1610.41
958.163	1606.12
958.467	1598.88
958.771	1598.66
959.075	1585.33
959.378	1561.82
959.682	1580.81
959.985	1552.33
960.289	1520.92
960.592	1540.58
960.896	1516.17
961.199	1525.67
961.502	1503.75
961.805	1503.07
962.108	1506.68
962.411	1473.92
962.714	1487.25
963.017	1500.58
963.32	1517.98
963.623	1492.67
963.926	1478.66
964.228	1484.31
964.531	1482.73
964.833	1466.23
965.136	1457.87
965.438	1460.13
965.741	1434.82
966.043	1461.49
966.345	1444.99
966.648	1447.93
966.95	1412
967.252	1401.83
967.554	1398.66
967.856	1438.66
968.158	1402.96
968.46	1411.77
968.761	1413.13
969.063	1400.92
969.365	1391.43
969.666	1365.44
969.968	1383.97
970.269	1365.67
970.571	1374.03
970.872	1345.56
971.174	1352.11
971.475	1368.61
971.776	1338.33
972.077	1327.71
972.378	1357.31
972.679	1334.94
972.98	1332
973.281	1358.89
973.582	1325.22
973.883	1308.95
974.183	1301.49
974.484	1296.07
974.785	1300.81
975.085	1305.11
975.386	1266.01
975.686	1278.67
975.986	1278.89
976.287	1262.4
976.587	1261.94
976.887	1268.95
977.187	1272.11
977.487	1291.1
977.787	1252.68
978.087	1253.58
978.387	1246.8
978.687	1249.97
978.987	1237.31
979.286	1239.8
979.586	1270.08
979.885	1232.57
980.185	1239.8
980.484	1193.92
980.784	1201.61
981.083	1209.52
981.382	1214.26
981.682	1200.25
981.981	1186.92
982.28	1173.58
982.579	1196.18
982.878	1183.53
983.177	1165
983.475	1183.08
983.774	1171.1
984.073	1174.26
984.372	1127.03
984.67	1129.29
984.969	1132
985.267	1127.48
985.566	1143.3
985.864	1123.19
986.162	1161.61
986.461	1142.63
986.759	1112.57
987.057	1101.5
987.355	1125
987.653	1108.95
987.951	1113.02
988.249	1107.6
988.547	1105.79
988.844	1101.27
989.142	1094.94
989.44	1098.33
989.737	1070.54
990.035	1078.22
990.332	1078.9
990.63	1060.37
990.927	1038
991.224	1056.3
991.521	1075.73
991.819	1066.92
992.116	1057.43
992.413	1036.87
992.71	1038.67
993.006	1057.66
993.303	1059.01
993.6	1026.7
993.897	1034.83
994.193	1028.5
994.49	1027.83
994.787	1008.39
995.083	1033.02
995.379	1032.57
995.676	990.99
995.972	1000.71
996.268	999.13
996.565	981.05
996.861	1006.81
997.157	970.88
997.453	967.94
997.749	965.23
998.044	983.31
998.34	984.21
998.636	982.63
998.932	943.99
999.227	968.62
999.523	956.42
999.818	941.27
1000.114	936.53
1000.409	952.35
1000.704	927.04
1001	938.34
1001.295	938.79
1001.59	952.57
1001.885	920.26
1002.18	912.12
1002.475	940.6
1002.77	911.9
1003.065	915.06
1003.359	887.72
1003.654	891.33
1003.949	906.47
1004.243	903.76
1004.538	877.32
1004.832	889.75
1005.127	918
1005.421	881.62
1005.715	885.46
1006.009	869.86
1006.304	877.55
1006.598	847.27
1006.892	858.11
1007.186	866.02
1007.48	859.92
1007.773	858.11
1008.067	858.79
1008.361	851.79
1008.655	846.81
1008.948	845.68
1009.242	832.58
1009.535	804.56
1009.829	827.38
1010.122	827.15
1010.415	811.11
1010.708	807.27
1011.001	839.13
1011.295	807.04
1011.588	810.88
1011.881	803.65
1012.173	809.07
1012.466	796.87
1012.759	793.03
1013.052	796.42
1013.344	797.1
1013.637	789.19
1013.93	781.73
1014.222	766.82
1014.514	753.26
1014.807	755.52
1015.099	770.88
1015.391	732.01
1015.683	762.07
1015.976	759.81
1016.268	735.4
1016.56	741.05
1016.851	743.54
1017.143	734.5
1017.435	734.05
1017.727	750.55
1018.018	746.48
1018.31	756.19
1018.602	701.51
1018.893	708.51
1019.185	702.41
1019.476	728.85
1019.767	715.52
1020.058	697.89
1020.35	711
1020.641	707.61
1020.932	709.19
1021.223	689.53
1021.514	685.91
1021.804	699.47
1022.095	692.47
1022.386	680.26
1022.677	672.58
1022.967	706.93
1023.258	657.44
1023.548	684.11
1023.839	668.97
1024.129	678.46
1024.419	664.9
1024.709	661.96
1025	685.24
1025.29	668.29
1025.58	622.19
1025.87	653.6
1026.16	656.76
1026.449	654.28
1026.739	649.08
1027.029	628.29
1027.319	618.12
1027.608	645.46
1027.898	651.11
1028.187	630.1
1028.477	640.04
1028.766	620.15
1029.055	634.16
1029.344	622.64
1029.634	623.77
1029.923	613.37
1030.212	598.68
1030.501	634.62
1030.79	612.02
1031.078	608.85
1031.367	577.89
1031.656	591.23
1031.945	584.22
1032.233	600.94
1032.522	593.04
1032.81	591.45
1033.099	594.17
1033.387	576.09
1033.675	576.54
1033.963	560.72
1034.251	575.41
1034.54	549.19
1034.828	569.76
1035.116	565.92
1035.403	569.31
1035.691	574.5
1035.979	563.43
1036.267	565.24
1036.554	539.03
1036.842	540.83
1037.129	558.01
1037.417	565.47
1037.704	535.18
1037.992	547.16
1038.279	545.58
1038.566	527.27
1038.853	527.27
1039.14	527.27
