Data from black_metal_pc_casing_FLMS001491_00089.txt Node
Date: Wed Feb 08 14:33:38 GMT 2017
User: dcchb
Spectrometer: FLMS00149
Trigger mode: 0
Integration Time (sec): 2.000000E-2
Scans to average: 10
Electric dark correction enabled: true
Nonlinearity correction enabled: false
Boxcar width: 0
XAxis mode: Wavelengths
Number of Pixels in Spectrum: 2048
>>>>>Begin Spectral Data<<<<<
341.393	-16.37
341.776	-16.37
342.16	-16.37
342.543	-70.38
342.927	-77.84
343.31	-67.44
343.693	-80.77
344.077	-63.37
344.46	-61.57
344.843	-57.27
345.226	-33.32
345.61	-35.35
345.993	-22.47
346.376	-16.6
346.759	13.91
347.142	32.22
347.525	28.37
347.908	63.85
348.291	88.49
348.674	105.44
349.057	105.89
349.44	140.01
349.823	147.24
350.206	164.64
350.588	172.55
350.971	177.3
351.354	201.7
351.737	212.1
352.119	214.13
352.502	240.35
352.884	248.93
353.267	255.71
353.65	287.58
354.032	281.02
354.414	310.4
354.797	326.22
355.179	270.63
355.562	311.76
355.944	323.73
356.326	304.75
356.709	301.59
357.091	326.45
357.473	320.8
357.855	334.36
358.238	331.42
358.62	348.37
359.002	337.97
359.384	311.53
359.766	342.04
360.148	344.52
360.53	335.03
360.912	330.51
361.294	309.27
361.676	314.02
362.057	310.63
362.439	314.02
362.821	303.62
363.203	335.49
363.584	323.06
363.966	309.95
364.348	291.64
364.729	320.57
365.111	327.8
365.493	330.74
365.874	325.09
366.256	330.97
366.637	296.84
367.019	305.43
367.4	287.35
367.781	296.39
368.163	315.37
368.544	315.15
368.925	289.61
369.306	309.72
369.688	315.37
370.069	305.66
370.45	294.13
370.831	309.27
371.212	309.95
371.593	298.65
371.974	295.49
372.355	299.55
372.736	318.08
373.117	323.28
373.498	310.18
373.879	320.57
374.26	318.08
374.641	309.05
375.021	314.92
375.402	306.56
375.783	329.61
376.163	330.29
376.544	335.26
376.925	328.25
377.305	324.86
377.686	348.14
378.066	333.68
378.447	340.01
378.827	326.45
379.208	333.23
379.588	325.99
379.968	335.71
380.349	333.23
380.729	335.71
381.109	352.89
381.489	350.4
381.87	333.68
382.25	349.04
382.63	353.56
383.01	361.25
383.39	362.15
383.77	333.68
384.15	382.49
384.53	355.6
384.91	369.83
385.29	373.68
385.67	383.17
386.049	364.86
386.429	354.24
386.809	403.73
387.189	380
387.568	355.6
387.948	392.66
388.328	349.95
388.707	372.77
389.087	361.7
389.466	400.79
389.846	401.25
390.225	402.83
390.605	409.61
390.984	367.8
391.363	384.07
391.743	390.85
392.122	401.7
392.501	389.95
392.881	388.37
393.26	404.41
393.639	424.07
394.018	422.49
394.397	406.22
394.776	419.33
395.155	402.83
395.534	399.66
395.913	425.65
396.292	423.17
396.671	415.48
397.05	428.82
397.429	405.99
397.808	425.43
398.186	450.51
398.565	431.53
398.944	442.15
399.323	425.2
399.701	462.04
400.08	444.41
400.458	440.12
400.837	442.38
401.215	462.04
401.594	443.28
401.972	448.48
402.351	443.05
402.729	484.86
403.107	458.42
403.486	458.87
403.864	490.96
404.242	466.78
404.62	472.21
404.999	477.18
405.377	467.23
405.755	511.07
406.133	479.44
406.511	485.76
406.889	513.56
407.267	495.26
407.645	498.42
408.023	488.7
408.401	522.37
408.779	510.17
409.156	525.76
409.534	545.42
409.912	530.96
410.29	537.06
410.667	517.85
411.045	540.9
411.422	551.75
411.8	558.08
412.178	543.84
412.555	562.82
412.933	554.24
413.31	580.9
413.687	586.1
414.065	581.13
414.442	608.7
414.819	584.74
415.197	591.75
415.574	600.56
415.951	607.34
416.328	600.11
416.705	596.04
417.082	607.34
417.46	615.93
417.837	620.45
418.214	647.12
418.591	622.71
418.967	648.02
419.344	635.36
419.721	631.52
420.098	648.92
420.475	674.46
420.852	658.19
421.228	675.36
421.605	641.69
421.982	687.57
422.358	687.57
422.735	689.83
423.111	671.07
423.488	685.76
423.864	696.38
424.241	693.67
424.617	715.59
424.994	710.84
425.37	720.33
425.746	725.31
426.123	730.73
426.499	761.01
426.875	735.7
427.251	743.38
427.627	762.37
428.003	760.79
428.379	757.4
428.756	792.42
429.132	779.09
429.507	793.78
429.883	797.85
430.259	822.03
430.635	822.48
431.011	841.23
431.387	842.59
431.763	838.3
432.138	845.3
432.514	855.02
432.89	841.01
433.265	875.36
433.641	879.88
434.016	859.31
434.392	904.28
434.767	892.53
435.143	914.23
435.518	927.79
435.894	904.28
436.269	942.93
436.644	949.03
437.02	948.8
437.395	951.06
437.77	983.15
438.145	987.9
438.52	982.47
438.895	1003.04
439.271	993.77
439.646	989.93
440.021	1028.12
440.395	1018.18
440.77	1006.65
441.145	1023.15
441.52	1028.8
441.895	1052.08
442.27	1033.77
442.645	1037.61
443.019	1054.34
443.394	1049.14
443.769	1069.7
444.143	1066.09
444.518	1077.61
444.892	1099.53
445.267	1086.2
445.641	1101.34
446.016	1113.77
446.39	1116.93
446.764	1115.13
447.139	1119.87
447.513	1157.38
447.887	1148.12
448.262	1172.53
448.636	1142.47
449.01	1151.96
449.384	1170.49
449.758	1162.58
450.132	1181.11
450.506	1192.86
450.88	1207.33
451.254	1214.78
451.628	1224.28
452.002	1235.12
452.376	1234.67
452.75	1247.78
453.123	1280.32
453.497	1265.63
453.871	1297.72
454.244	1334.33
454.618	1334.1
454.992	1311.28
455.365	1338.4
455.739	1361
456.112	1376.59
456.486	1389.47
456.859	1396.02
457.232	1410.71
457.606	1422.01
457.979	1473.53
458.352	1449.58
458.725	1456.81
459.099	1474.66
459.472	1495.23
459.845	1501.1
460.218	1511.05
460.591	1531.16
460.964	1556.92
461.337	1598.5
461.71	1597.83
462.083	1624.04
462.456	1600.09
462.829	1647.99
463.201	1662.23
463.574	1632.4
463.947	1692.29
464.32	1700.87
464.692	1748.1
465.065	1757.37
465.438	1765.5
465.81	1796.01
466.183	1761.89
466.555	1816.35
466.928	1871.04
467.3	1855.45
467.672	1873.75
468.045	1929.79
468.417	1888.44
468.789	1927.31
469.161	1953.97
469.534	2002.79
469.906	2027.64
470.278	2048.89
470.65	2046.18
471.022	2096.57
471.394	2145.61
471.766	2161.88
472.138	2174.76
472.51	2225.15
472.882	2252.95
473.253	2254.31
473.625	2286.39
473.997	2356
474.369	2359.61
474.74	2345.83
475.112	2432.83
475.484	2448.2
475.855	2504.69
476.227	2481.64
476.598	2551.7
476.97	2568.65
477.341	2625.14
477.713	2657.91
478.084	2676.89
478.455	2739.26
478.827	2748.3
479.198	2862.42
479.569	2852.26
479.94	2897.45
480.311	2931.35
480.682	3019.48
481.053	3078.92
481.424	3113.49
481.795	3134.96
482.166	3184.45
482.537	3229.19
482.908	3273.71
483.279	3309.19
483.65	3353.03
484.021	3448.17
484.391	3452.47
484.762	3501.73
485.133	3525.91
485.503	3572.01
485.874	3642.74
486.244	3688.62
486.615	3754.6
486.985	3811.78
487.356	3846.81
487.726	3850.2
488.097	3915.73
488.467	3935.84
488.837	3990.3
489.207	4075.95
489.578	4139
489.948	4180.36
490.318	4242.28
490.688	4209.51
491.058	4304.42
491.428	4321.14
491.798	4393.91
492.168	4468.94
492.538	4469.39
492.908	4542.61
493.278	4554.36
493.648	4604.75
494.017	4650.63
494.387	4734.24
494.757	4773.11
495.126	4796.61
495.496	4832.32
495.866	4860.56
496.235	4922.71
496.605	4955.7
496.974	4955.7
497.344	5058.98
497.713	5036.38
498.082	5061.69
498.452	5111.63
498.821	5141.91
499.19	5174.68
499.559	5206.32
499.928	5225.07
500.298	5255.36
500.667	5342.13
501.036	5369.7
501.405	5396.37
501.774	5427.33
502.143	5449.25
502.512	5504.39
502.88	5516.82
503.249	5538.74
503.618	5588.45
503.987	5637.49
504.356	5650.37
504.724	5744.38
505.093	5696.7
505.462	5703.93
505.83	5805.62
506.199	5867.09
506.567	5911.84
506.936	5921.33
507.304	6009.23
507.672	6009.46
508.041	6045.84
508.409	6034.32
508.777	6142.34
509.145	6213.07
509.514	6180.08
509.882	6244.93
510.25	6246.06
510.618	6348.66
510.986	6344.14
511.354	6430.47
511.722	6408.77
512.09	6542.1
512.458	6498.26
512.826	6559.28
513.193	6620.74
513.561	6630.01
513.929	6704.58
514.297	6742.77
514.664	6792.49
515.032	6808.76
515.4	6869.55
515.767	6910.91
516.135	6925.14
516.502	6907.97
516.869	7116.1
517.237	7048.76
517.604	7137.57
517.972	7210.56
518.339	7206.04
518.706	7242.65
519.073	7260.5
519.44	7355.19
519.808	7396.32
520.175	7358.35
520.542	7568.97
520.909	7606.48
521.276	7568.06
521.643	7709.75
522.009	7709.3
522.376	7700.49
522.743	7801.05
523.11	7914.5
523.477	8008.5
523.843	8021.84
524.21	8075.85
524.577	8139.35
524.943	8215.28
525.31	8258.44
525.676	8353.13
526.043	8350.42
526.409	8468.83
526.776	8549.05
527.142	8511.09
527.508	8657.3
527.874	8671.31
528.241	8678.77
528.607	8810.06
528.973	8835.83
529.339	8857.07
529.705	8957.63
530.071	8931.42
530.437	8996.27
530.803	9079.44
531.169	9124.63
531.535	9199.43
531.901	9163.28
532.267	9209.15
532.632	9296.15
532.998	9347.9
533.364	9363.27
533.73	9415.25
534.095	9500.67
534.461	9467
534.826	9552.42
535.192	9559.65
535.557	9708.57
535.923	9711.96
536.288	9745.18
536.653	9763.71
537.019	9785.41
537.384	9873.31
537.749	9805.52
538.114	9891.84
538.479	9959.41
538.845	9979.07
539.21	9968.68
539.575	10015.68
539.94	10026.53
540.305	10184.94
540.67	10137.49
541.034	10225.85
541.399	10215.68
541.764	10241.21
542.129	10330.02
542.494	10358.72
542.858	10384.49
543.223	10427.42
543.587	10435.56
543.952	10390.59
544.316	10465.39
544.681	10482.34
545.045	10593.75
545.41	10628.1
545.774	10663.8
546.138	10653.41
546.503	10740.18
546.867	10689.34
547.231	10788.32
547.595	10866.73
547.959	10815.44
548.324	10938.14
548.688	10837.81
549.052	10885.94
549.416	10982.21
549.779	11005.04
550.143	11078.71
550.507	11063.79
550.871	11120.96
551.235	11144.69
551.599	11217.69
551.962	11262.2
552.326	11267.4
552.689	11345.82
553.053	11280.28
553.417	11342.88
553.78	11459.71
554.143	11512.82
554.507	11612.7
554.87	11612.48
555.234	11657.22
555.597	11663.32
555.96	11694.06
556.323	11787.84
556.686	11811.57
557.05	11881.62
557.413	11864.67
557.776	11949.42
558.139	11990.77
558.502	12092.46
558.865	12045.91
559.228	12178.56
559.59	12214.04
559.953	12221.73
560.316	12357.77
560.679	12393.93
561.041	12485
561.404	12518.44
561.767	12557.31
562.129	12518.67
562.492	12608.38
562.854	12645.44
563.217	12699.45
563.579	12703.75
563.941	12808.83
564.304	12881.37
564.666	12979.45
565.028	13018.32
565.39	13046.79
565.753	13098.31
566.115	13249.95
566.477	13219.89
566.839	13320
567.201	13343.51
567.563	13301.25
567.925	13445.88
568.287	13534.69
568.648	13500.11
569.01	13527
569.372	13645.42
569.734	13630.5
570.095	13678.86
570.457	13802.48
570.819	13825.07
571.18	13877.5
571.542	13909.14
571.903	13964.51
572.265	14059.42
572.626	14042.02
572.987	14106.42
573.349	14081.79
573.71	14140.09
574.071	14192.3
574.432	14265.74
574.794	14298.51
575.155	14271.16
575.516	14305.06
575.877	14352.29
576.238	14419.86
576.599	14501.21
576.96	14465.28
577.32	14523.81
577.681	14500.99
578.042	14514.32
578.403	14602.23
578.763	14586.41
579.124	14620.31
579.485	14688.78
579.845	14690.36
580.206	14783.47
580.566	14682.9
580.927	14794.54
581.287	14810.13
581.648	14733.53
582.008	14783.24
582.368	14724.03
582.728	14820.08
583.089	14763.58
583.449	14771.49
583.809	14797.25
584.169	14743.47
584.529	14843.8
584.889	14918.38
585.249	14883.13
585.609	14839.06
585.969	14907.31
586.329	14825.95
586.688	14926.06
587.048	14821.88
587.408	14842.67
587.768	14817.59
588.127	14890.81
588.487	14871.83
588.846	15000.41
589.206	14827.99
589.565	14903.01
589.925	14839.28
590.284	14877.93
590.643	14938.04
591.003	14941.66
591.362	14977.13
591.721	14929
592.08	14924.48
592.44	14978.94
592.799	14890.81
593.158	14927.87
593.517	15024.36
593.876	15012.61
594.235	14960.19
594.593	15019.85
594.952	15084.7
595.311	14924.25
595.67	14991.15
596.029	15118.83
596.387	15033.86
596.746	15010.35
597.104	15013.74
597.463	15058.04
597.822	15102.1
598.18	14994.99
598.538	15055.1
598.897	15190.24
599.255	15071.82
599.613	15224.81
599.972	15147.07
600.33	15153.85
600.688	15159.95
601.046	15206.51
601.404	15237.69
601.762	15153.18
602.12	15245.83
602.478	15334.64
602.836	15355.2
603.194	15190.69
603.552	15235.88
603.91	15220.52
604.268	15262.1
604.625	15281.08
604.983	15280.63
605.341	15156.79
605.698	15390.68
606.056	15418.03
606.413	15345.71
606.771	15380.29
607.128	15426.39
607.485	15289.67
607.843	15396.33
608.2	15435.2
608.557	15427.97
608.914	15415.32
609.272	15454.64
609.629	15626.61
609.986	15577.8
610.343	15392.26
610.7	15613.05
611.057	15565.14
611.414	15637.68
611.771	15598.14
612.127	15719.71
612.484	15628.42
612.841	15750
613.198	15707.06
613.554	15738.02
613.911	15747.74
614.267	15775.31
614.624	15691.69
614.98	15753.39
615.337	15779.83
615.693	15777.79
616.05	15741.63
616.406	15925.81
616.762	15871.57
617.118	15816.43
617.475	15846.94
617.831	15911.57
618.187	15864.34
618.543	15875.19
618.899	15984.57
619.255	15889.65
619.611	15851.24
619.967	16016.2
620.323	16107.27
620.678	15973.72
621.034	15909.09
621.39	15919.26
621.746	15897.79
622.101	16065.47
622.457	15934.62
622.812	16030.89
623.168	16047.84
623.523	16111.79
623.879	16008.52
624.234	16008.52
624.589	16063.43
624.945	16002.42
625.3	15959.93
625.655	16022.3
626.01	16006.71
626.365	16099.14
626.72	15962.65
627.075	15980.05
627.43	15996.77
627.785	15938.92
628.14	16081.51
628.495	15977.33
628.85	15995.41
629.205	15959.26
629.559	16061.85
629.914	15952.93
630.269	15976.43
630.623	15902.08
630.978	15859.37
631.332	16001.74
631.687	15927.84
632.041	15969.65
632.396	15797.45
632.75	15824.8
633.104	15917.9
633.459	15815.53
633.813	15847.39
634.167	15779.37
634.521	15742.76
634.875	15855.76
635.229	15675.65
635.583	15688.75
635.937	15669.32
636.291	15632.03
636.645	15668.64
636.999	15680.62
637.352	15670.45
637.706	15539.83
638.06	15578.7
638.413	15580.28
638.767	15595.88
639.121	15510.91
639.474	15458.48
639.828	15511.36
640.181	15524.01
640.534	15483.79
640.888	15446.95
641.241	15528.08
641.594	15486.95
641.947	15395.43
642.301	15366.73
642.654	15374.19
643.007	15399.5
643.36	15350.68
643.713	15314.53
644.066	15349.78
644.419	15343.45
644.771	15143.46
645.124	15042.22
645.477	14937.81
645.83	14820.98
646.182	14745.05
646.535	14761.09
646.888	14851.94
647.24	14778.5
647.593	14847.42
647.945	14766.97
648.298	14685.16
648.65	14720.64
649.002	14611.04
649.355	14671.15
649.707	14706.86
650.059	14701.89
650.411	14863.92
650.763	14893.97
651.115	15064.14
651.467	15043.57
651.819	14911.6
652.171	15002.9
652.523	14881.54
652.875	14893.29
653.227	14906.85
653.578	14975.55
653.93	14992.28
654.282	14830.7
654.633	14853.52
654.985	14844.26
655.337	14841.54
655.688	14840.19
656.039	14875.22
656.391	14678.16
656.742	14695.56
657.094	14723.13
657.445	14841.32
657.796	14715.9
658.147	14678.16
658.498	14724.94
658.849	14752.73
659.2	14696.69
659.551	14681.1
659.902	14769
660.253	14663.7
660.604	14802
660.955	14646.97
661.306	14676.13
661.656	14647.2
662.007	14677.26
662.358	14635.45
662.708	14632.06
663.059	14639.52
663.409	14597.26
663.76	14608.56
664.11	14517.71
664.461	14548.22
664.811	14585.96
665.161	14632.28
665.511	14550.93
665.862	14620.76
666.212	14651.49
666.562	14590.03
666.912	14534.66
667.262	14570.82
667.612	14604.26
667.962	14578.05
668.312	14535.34
668.662	14575.79
669.011	14509.58
669.361	14522.68
669.711	14432.97
670.06	14478.16
670.41	14416.92
670.76	14403.82
671.109	14468
671.459	14500.76
671.808	14409.69
672.157	14502.34
672.507	14339.86
672.856	14435.45
673.205	14395.91
673.554	14442.46
673.904	14336.47
674.253	14468.45
674.602	14398.84
674.951	14141.68
675.3	14142.58
675.649	14277.49
675.998	14373.08
676.346	14324.5
676.695	14376.7
677.044	14236.36
677.393	14299.19
677.741	14358.62
678.09	14247.66
678.438	14208.57
678.787	14294.89
679.135	14209.47
679.484	14152.3
679.832	14196.59
680.181	14126.08
680.529	14090.83
680.877	14081.56
681.225	14066.42
681.573	14145.97
681.922	14096.93
682.27	14020.1
682.618	14101.23
682.966	14050.15
683.314	14091.96
683.661	13993.21
684.009	13902.59
684.357	13970.38
684.705	13909.82
685.053	13938.52
685.4	13990.49
685.748	13778.07
686.095	13801.35
686.443	13740.56
686.79	13752.53
687.138	13682.48
687.485	13633.67
687.832	13689.71
688.18	13759.99
688.527	13624.63
688.874	13562.48
689.221	13524.52
689.568	13571.97
689.915	13466.44
690.262	13480.22
690.609	13443.84
690.956	13451.75
691.303	13346.89
691.65	13327.23
691.997	13313.9
692.344	13276.61
692.69	13202.04
693.037	13303.28
693.383	13002.72
693.73	13110.74
694.077	13084.75
694.423	13112.55
694.769	13034.13
695.116	13073.68
695.462	12981.25
695.808	12978.32
696.155	13003.85
696.501	12900.58
696.847	12957.3
697.193	12778.55
697.539	12829.17
697.885	12696.52
698.231	12707.59
698.577	12706.69
698.923	12619.68
699.269	12640.02
699.614	12531.1
699.96	12476.18
700.306	12541.49
700.651	12520.48
700.997	12456.52
701.342	12440.7
701.688	12412.91
702.033	12425.34
702.379	12347.83
702.724	12333.36
703.069	12319.35
703.415	12159.81
703.76	12119.58
704.105	12172.91
704.45	12134.5
704.795	12093.82
705.14	12089.07
705.485	12058.79
705.83	11959.36
706.175	12013.14
706.52	11937.67
706.865	11934.28
707.209	11877.33
707.554	11869.19
707.899	11774.51
708.243	11825.35
708.588	11890.89
708.932	11689.54
709.277	11757.78
709.621	11733.83
709.966	11655.87
710.31	11637.11
710.654	11535.64
710.998	11616.32
711.342	11602.76
711.687	11545.36
712.031	11538.13
712.375	11540.84
712.719	11520.73
713.063	11497.23
713.407	11506.27
713.75	11512.37
714.094	11445.02
714.438	11407.74
714.782	11320.06
715.125	11319.15
715.469	11387.85
715.812	11295.42
716.156	11239.38
716.499	11248.42
716.843	11293.39
717.186	11138.37
717.53	11223.79
717.873	11224.01
718.216	11184.01
718.559	11103.11
718.902	11081.19
719.246	11126.61
719.589	11096.56
719.932	11048.65
720.275	11005.94
720.617	11062.89
720.96	10934.98
721.303	10984.7
721.646	10982.89
721.989	10890.01
722.331	10917.35
722.674	10943.12
723.016	10921.2
723.359	10879.39
723.701	10979.27
724.044	10847.75
724.386	10774.08
724.729	10813.85
725.071	10779.05
725.413	10743.8
725.755	10834.42
726.097	10756.23
726.439	10648.21
726.782	10665.84
727.124	10758.71
727.465	10627.87
727.807	10597.59
728.149	10563.47
728.491	10596.46
728.833	10697.02
729.175	10565.05
729.516	10579.28
729.858	10509
730.199	10505.39
730.541	10528.44
730.882	10479.63
731.224	10533.41
731.565	10481.21
731.906	10428.1
732.248	10452.96
732.589	10406.86
732.93	10346.3
733.271	10402.11
733.612	10363.24
733.953	10373.19
734.294	10324.15
734.635	10290.48
734.976	10331.38
735.317	10262.68
735.658	10312.4
735.999	10233.08
736.339	10210.71
736.68	10254.77
737.021	10251.83
737.361	10197.6
737.702	10264.04
738.042	10141.78
738.383	10178.62
738.723	10200.76
739.063	10129.58
739.404	10149.24
739.744	10120.76
740.084	10024.27
740.424	10063.82
740.764	10044.16
741.104	10068.56
741.444	9949.24
741.784	10011.16
742.124	9991.05
742.464	9993.54
742.804	9942.24
743.143	9913.99
743.483	10008
743.823	9901.56
744.162	9866.53
744.502	9957.83
744.841	9877.16
745.181	9942.92
745.52	9835.35
745.86	9830.6
746.199	9835.12
746.538	9762.81
746.877	9774.11
747.216	9793.99
747.556	9773.66
747.895	9707.67
748.234	9678.06
748.573	9654.34
748.911	9652.3
749.25	9599.2
749.589	9664.96
749.928	9638.07
750.267	9599.87
750.605	9627.9
750.944	9610.04
751.283	9521.01
751.621	9519.2
751.96	9465.41
752.298	9521.01
752.636	9533.21
752.975	9427.45
753.313	9405.76
753.651	9418.18
753.989	9366.21
754.327	9379.09
754.666	9345.19
755.004	9354.23
755.342	9354.68
755.679	9296.61
756.017	9234.91
756.355	9330.5
756.693	9259.09
757.031	9205.31
757.368	9142.94
757.706	9157.4
758.044	9138.19
758.381	9157.63
758.719	9119.44
759.056	9109.94
759.394	9086.67
759.731	8971.42
760.068	8994.47
760.405	8930.29
760.743	8977.29
761.08	8970.74
761.417	8852.32
761.754	8904.53
762.091	8894.81
762.428	8824.3
762.765	8787.01
763.102	8814.36
763.438	8766.22
763.775	8757.41
764.112	8744.53
764.449	8690.97
764.785	8704.31
765.122	8635.15
765.458	8604.65
765.795	8579.79
766.131	8634.7
766.467	8582.05
766.804	8461.15
767.14	8515.61
767.476	8455.05
767.812	8431.32
768.148	8467.02
768.485	8342.05
768.821	8317.2
769.157	8303.41
769.492	8279.01
769.828	8323.3
770.164	8194.94
770.5	8211.66
770.836	8194.71
771.171	8143.64
771.507	8116.52
771.842	8068.62
772.178	8036.53
772.513	8084.66
772.849	8026.36
773.184	7966.02
773.519	7978.9
773.855	7918.34
774.19	7962.4
774.525	7864.33
774.86	7849.64
775.195	7891.67
775.53	7829.98
775.865	7827.94
776.2	7721.05
776.535	7673.82
776.87	7698
777.205	7657.33
777.539	7659.36
777.874	7602.41
778.209	7517.67
778.543	7470.67
778.878	7434.96
779.212	7479.03
779.547	7462.3
779.881	7458.91
780.215	7415.98
780.55	7397.67
780.884	7339.82
781.218	7352.02
781.552	7360.61
781.886	7287.17
782.22	7240.84
782.554	7215.3
782.888	7104.8
783.222	7166.72
783.556	7178.7
783.889	7110.45
784.223	7081.52
784.557	7126.49
784.89	7038.36
785.224	7017.34
785.557	6977.8
785.891	7030.45
786.224	6990.23
786.558	6915.2
786.891	6942.32
787.224	6941.19
787.557	6855.99
787.891	6845.82
788.224	6841.98
788.557	6833.39
788.89	6863
789.223	6771.47
789.556	6737.35
789.888	6790.91
790.221	6692.83
790.554	6619.39
790.887	6672.27
791.219	6611.48
791.552	6624.59
791.884	6552.72
792.217	6570.8
792.549	6502.33
792.882	6505.04
793.214	6491.71
793.546	6543.01
793.879	6452.39
794.211	6451.71
794.543	6471.37
794.875	6358.15
795.207	6403.12
795.539	6335.33
795.871	6344.14
796.203	6331.49
796.535	6260.53
796.867	6336.68
797.198	6253.07
797.53	6261.88
797.862	6258.27
798.193	6232.73
798.525	6154.77
798.856	6163.13
799.188	6121.1
799.519	6075.22
799.85	6071.38
800.182	6066.86
800.513	6051.72
800.844	6043.58
801.175	6059.63
801.506	6023.47
801.837	6017.14
802.168	6003.13
802.499	6014.43
802.83	5907.99
803.161	5890.37
803.491	5911.84
803.822	5915.9
804.153	5904.6
804.483	5816.47
804.814	5863.25
805.145	5795.68
805.475	5809.01
805.805	5778.73
806.136	5767.66
806.466	5799.97
806.796	5722.69
807.126	5726.76
807.457	5692.86
807.787	5748
808.117	5719.3
808.447	5694.21
808.777	5683.14
809.107	5619.87
809.436	5565.86
809.766	5621.45
810.096	5607.66
810.426	5582.81
810.755	5597.49
811.085	5576.48
811.414	5585.97
811.744	5507.55
812.073	5504.16
812.403	5494.9
812.732	5491.96
813.061	5501.23
813.39	5450.61
813.719	5440.21
814.049	5444.28
814.378	5463.49
814.707	5408.12
815.036	5443.37
815.365	5413.32
815.693	5378.29
816.022	5382.58
816.351	5371.06
816.68	5331.29
817.008	5330.61
817.337	5225.07
817.665	5294.9
817.994	5270.72
818.322	5306.43
818.651	5249.03
818.979	5239.54
819.307	5304.17
819.636	5253.77
819.964	5204.06
820.292	5242.48
820.62	5232.76
820.948	5198.63
821.276	5188.01
821.604	5229.82
821.932	5187.11
822.259	5228.69
822.587	5162.7
822.915	5162.7
823.243	5224.85
823.57	5195.47
823.898	5194.34
824.225	5160.44
824.553	5190.27
824.88	5198.63
825.207	5202.7
825.535	5144.62
825.862	5234.79
826.189	5109.37
826.516	5163.16
826.843	5165.64
827.17	5150.27
827.497	5224.85
827.824	5197.28
828.151	5205.19
828.478	5118.18
828.805	5180.1
829.131	5138.98
829.458	5203.38
829.785	5142.14
830.111	5127.9
830.438	5146.21
830.764	5065.3
831.09	5110.28
831.417	5052.2
831.743	5186.43
832.069	5134.91
832.395	5095.13
832.722	5139.2
833.048	5178.52
833.374	5170.16
833.7	5127
834.026	5084.97
834.351	5118.64
834.677	5114.57
835.003	5096.72
835.329	5121.8
835.654	5048.36
835.98	5078.19
836.306	5090.61
836.631	5074.34
836.956	5009.94
837.282	5094.23
837.607	5061.69
837.932	5021.24
838.258	5022.14
838.583	5070.5
838.908	5028.02
839.233	5036.83
839.558	5037.51
839.883	4994.8
840.208	4980.79
840.533	4968.81
840.858	4957.51
841.182	4995.48
841.507	4995.02
841.832	4947.34
842.156	4930.39
842.481	4902.82
842.805	4912.99
843.13	4925.87
843.454	4917.74
843.778	4915.7
844.103	4875.25
844.427	4916.38
844.751	4872.09
845.075	4811.98
845.399	4839.77
845.723	4807.68
846.047	4820.11
846.371	4826.67
846.695	4774.92
847.019	4756.16
847.343	4678.2
847.666	4684.52
847.99	4674.81
848.313	4691.08
848.637	4617.63
848.96	4632.77
849.284	4655.15
849.607	4587.8
849.931	4534.92
850.254	4535.38
850.577	4528.6
850.9	4520.46
851.223	4498.77
851.546	4497.41
851.869	4425.32
852.192	4526.79
852.515	4411.31
852.838	4428.49
853.161	4430.07
853.483	4436.39
853.806	4393.68
854.129	4335.38
854.451	4341.26
854.774	4300.8
855.096	4359.56
855.419	4282.05
855.741	4330.18
856.063	4276.4
856.385	4222.39
856.708	4241.6
857.03	4254.93
857.352	4238.43
857.674	4238.89
857.996	4259.68
858.318	4141.26
858.64	4180.13
858.961	4175.84
859.283	4190.07
859.605	4183.52
859.926	4122.73
860.248	4143.52
860.57	4124.31
860.891	4148.49
861.212	4134.26
861.534	4130.64
861.855	4098.55
862.176	4131.09
862.498	4029.63
862.819	4065.33
863.14	4099.23
863.461	4131.32
863.782	4092.9
864.103	4080.02
864.424	4076.4
864.745	4090.64
865.065	4038.44
865.386	4027.37
865.707	4014.26
866.027	4044.77
866.348	4012.45
866.668	4015.39
866.989	4003.19
867.309	3973.58
867.63	3981.72
867.95	4000.25
868.27	3938.1
868.59	3966.35
868.91	3974.26
869.23	3947.82
869.55	3926.8
869.87	3972.9
870.19	3934.03
870.51	3991.21
870.83	3990.76
871.15	3938.55
871.469	3948.95
871.789	3922.06
872.109	3918.44
872.428	3884.77
872.748	3857.43
873.067	3906.69
873.386	3895.84
873.706	3875.73
874.025	3869.18
874.344	3868.73
874.663	3867.6
874.982	3839.57
875.301	3854.04
875.62	3816.75
875.939	3845.45
876.258	3804.77
876.577	3840.03
876.896	3762.97
877.214	3802.51
877.533	3800.25
877.852	3803.87
878.17	3784.66
878.489	3778.56
878.807	3770.65
879.125	3795.28
879.444	3758.45
879.762	3728.16
880.08	3775.62
880.398	3725.23
880.716	3732.46
881.034	3754.38
881.352	3727.71
881.67	3699.24
881.988	3708.5
882.306	3743.76
882.624	3678.22
882.941	3657.21
883.259	3651.78
883.577	3647.04
883.894	3641.61
884.212	3649.07
884.529	3634.61
884.846	3623.99
885.164	3605.46
885.481	3611.11
885.798	3613.14
886.115	3618.56
886.432	3582.41
886.75	3547.83
887.067	3604.1
887.383	3618.11
887.7	3570.2
888.017	3565.91
888.334	3565.23
888.651	3529.07
888.967	3546.7
889.284	3532.69
889.6	3535.4
889.917	3510.54
890.233	3492.46
890.55	3501.73
890.866	3475.74
891.182	3466.48
891.498	3479.36
891.815	3484.1
892.131	3440.04
892.447	3426.7
892.763	3418.57
893.079	3451.11
893.395	3381.73
893.71	3380.38
894.026	3396.42
894.342	3362.52
894.657	3354.62
894.973	3349.64
895.289	3346.25
895.604	3358.46
895.92	3303.09
896.235	3311.9
896.55	3317.78
896.865	3319.14
897.181	3260.83
897.496	3281.4
897.811	3267.16
898.126	3267.84
898.441	3275.97
898.756	3221.29
899.071	3248.86
899.386	3209.99
899.7	3197.11
900.015	3197.33
900.33	3186.48
900.644	3192.81
900.959	3211.57
901.273	3173.83
901.588	3165.47
901.902	3153.94
902.216	3134.73
902.531	3106.03
902.845	3104.9
903.159	3074.17
903.473	3079.14
903.787	3131.34
904.101	3086.83
904.415	3026.94
904.729	3068.3
905.042	3053.15
905.356	3066.04
905.67	3044.57
905.984	3039.82
906.297	3030.78
906.611	2995.75
906.924	2996.43
907.237	3009.09
907.551	2953.72
907.864	2965.02
908.177	2942.2
908.491	2907.62
908.804	2929.32
909.117	2912.14
909.43	2911.24
909.743	2906.72
910.056	2873.95
910.368	2836.66
910.681	2859.71
910.994	2850
911.307	2841.18
911.619	2807.74
911.932	2784.69
912.244	2779.72
912.557	2789.66
912.869	2788.3
913.181	2798.02
913.494	2766.38
913.806	2755.99
914.118	2755.53
914.43	2755.53
914.742	2746.27
915.054	2738.36
915.366	2688.64
915.678	2681.86
915.99	2671.7
916.302	2680.51
916.613	2647.06
916.925	2638.7
917.236	2652.03
917.548	2669.66
917.859	2596.89
918.171	2624.01
918.482	2616.78
918.794	2577.23
919.105	2595.09
919.416	2560.29
919.727	2550.79
920.038	2530.23
920.349	2534.75
920.66	2520.29
920.971	2558.03
921.282	2530
921.593	2499.95
921.903	2481.19
922.214	2478.03
922.525	2480.51
922.835	2461.53
923.146	2424.7
923.456	2464.47
923.767	2459.5
924.077	2450.01
924.387	2432.83
924.697	2415.88
925.008	2409.33
925.318	2388.09
925.628	2380.18
925.938	2395.77
926.248	2382.66
926.558	2374.3
926.867	2359.39
927.177	2356.68
927.487	2349.44
927.796	2318.71
928.106	2316.45
928.416	2323
928.725	2288.2
929.034	2299.05
929.344	2280.97
929.653	2261.76
929.962	2252.5
930.271	2272.16
930.581	2254.08
930.89	2208.66
931.199	2258.37
931.508	2208.43
931.817	2213.63
932.125	2182.44
932.434	2191.48
932.743	2187.87
933.051	2154.87
933.36	2154.87
933.669	2176.79
933.977	2150.13
934.286	2156.68
934.594	2142.67
934.902	2139.51
935.21	2107.64
935.519	2110.81
935.827	2132.5
936.135	2107.42
936.443	2071.49
936.751	2057.25
937.059	2109
937.367	2062.22
937.674	2083.91
937.982	2057.02
938.29	2060.86
938.597	2067.19
938.905	2019.28
939.213	2014.09
939.52	2006.18
939.827	2035.1
940.135	2001.2
940.442	2024.48
940.749	1994.65
941.056	1954.65
941.363	1982.45
941.67	1988.32
941.977	1951.71
942.284	1916.46
942.591	1928.66
942.898	1930.47
943.205	1953.3
943.511	1927.76
943.818	1901.55
944.125	1930.92
944.431	1908.1
944.738	1880.53
945.044	1886.86
945.35	1874.65
945.657	1855.45
945.963	1877.59
946.269	1852.51
946.575	1860.64
946.881	1857.71
947.187	1832.85
947.493	1832.85
947.799	1803.24
948.105	1825.39
948.41	1802.79
948.716	1805.73
949.022	1770.7
949.327	1784.26
949.633	1752.62
949.938	1780.87
950.244	1777.93
950.549	1740.87
950.854	1757.82
951.16	1729.35
951.465	1756.92
951.77	1702.68
952.075	1729.12
952.38	1710.82
952.685	1723.02
952.99	1693.87
953.294	1687.77
953.599	1724.6
953.904	1682.79
954.209	1671.5
954.513	1673.3
954.818	1692.74
955.122	1669.69
955.426	1633.08
955.731	1651.38
956.035	1613.42
956.339	1621.33
956.643	1640.76
956.948	1633.76
957.252	1615.23
957.556	1606.64
957.86	1633.53
958.163	1631.27
958.467	1592.63
958.771	1610.03
959.075	1561.89
959.378	1568.22
959.682	1564.15
959.985	1564.15
960.289	1575.23
960.592	1526.41
960.896	1567.32
961.199	1563.48
961.502	1541.56
961.805	1532.06
962.108	1490.94
962.411	1498.84
962.714	1496.58
963.017	1511.73
963.32	1522.8
963.623	1494.1
963.926	1506.98
964.228	1482.57
964.531	1486.64
964.833	1476.7
965.136	1462.46
965.438	1493.2
965.741	1440.99
966.043	1452.07
966.345	1450.03
966.648	1433.99
966.95	1420.65
967.252	1432.86
967.554	1440.77
967.856	1438.96
968.158	1393.08
968.46	1412.29
968.761	1408.9
969.063	1401.22
969.365	1387.66
969.666	1395.12
969.968	1409.58
970.269	1408.9
970.571	1374.1
970.872	1367.1
971.174	1365.06
971.475	1363.03
971.776	1368.68
972.077	1354.22
972.378	1340.43
972.679	1353.54
972.98	1335.69
973.281	1342.46
973.582	1308.12
973.883	1351.28
974.183	1341.79
974.484	1322.13
974.785	1316.02
975.085	1291.17
975.386	1300.43
975.686	1274.9
975.986	1277.83
976.287	1291.39
976.587	1297.27
976.887	1287.55
977.187	1270.6
977.487	1279.42
977.787	1240.55
978.087	1243.94
978.387	1238.51
978.687	1256.37
978.987	1231.96
979.286	1263.37
979.586	1251.39
979.885	1199.19
980.185	1218.63
980.484	1212.75
980.784	1247.55
981.083	1219.76
981.382	1180.44
981.682	1201.23
981.981	1203.49
982.28	1189.93
982.579	1200.55
982.878	1194.9
983.177	1163.94
983.475	1169.36
983.774	1183.15
984.073	1180.21
984.372	1164.62
984.67	1160.55
984.969	1145.41
985.267	1170.04
985.566	1155.35
985.864	1146.09
986.162	1136.14
986.461	1137.72
986.759	1140.21
987.057	1154.45
987.355	1122.58
987.653	1102.02
987.951	1114.67
988.249	1098.4
988.547	1087.78
988.844	1137.95
989.142	1108.8
989.44	1115.8
989.737	1084.39
990.035	1099.99
990.332	1120.32
990.63	1080.1
990.927	1102.02
991.224	1088.23
991.521	1071.51
991.819	1069.25
992.116	1056.82
992.413	1062.7
992.71	1044.85
993.006	1032.64
993.303	1045.75
993.6	1041
993.897	1024.73
994.193	1034.22
994.49	1048.46
994.787	1030.16
995.083	1012.98
995.379	998.07
995.676	1026.31
995.972	1015.47
996.268	1027.9
996.565	990.38
996.861	986.09
997.157	993.55
997.453	1000.78
997.749	987.9
998.044	966.2
998.34	998.52
998.636	968.24
998.932	992.19
999.227	955.36
999.523	967.79
999.818	954.23
1000.114	951.51
1000.409	953.77
1000.704	950.61
1001	962.81
1001.295	914.68
1001.59	916.94
1001.885	953.77
1002.18	900.44
1002.475	924.85
1002.77	939.54
1003.065	913.1
1003.359	930.5
1003.654	921.46
1003.949	889.82
1004.243	890.27
1004.538	878.75
1004.832	894.34
1005.127	891.4
1005.421	879.2
1005.715	875.58
1006.009	887.56
1006.304	884.4
1006.598	843.04
1006.892	881.69
1007.186	886.66
1007.48	864.51
1007.773	846.21
1008.067	857.96
1008.361	841.01
1008.655	841.69
1008.948	825.87
1009.242	856.15
1009.535	829.26
1009.829	849.82
1010.122	842.36
1010.415	839.43
1010.708	811.63
1011.001	839.88
1011.295	781.35
1011.588	801.01
1011.881	816.6
1012.173	819.09
1012.466	791.52
1012.759	822.7
1013.052	795.36
1013.344	798.98
1013.637	803.5
1013.93	807.79
1014.222	781.12
1014.514	761.69
1014.807	782.25
1015.099	785.87
1015.391	775.47
1015.683	756.72
1015.976	771.18
1016.268	766.89
1016.56	738.64
1016.851	748.58
1017.143	749.49
1017.435	731.41
1017.727	734.12
1018.018	731.86
1018.31	719.66
1018.602	716.94
1018.893	731.18
1019.185	729.6
1019.476	735.02
1019.767	743.61
1020.058	698.87
1020.35	707
1020.641	743.61
1020.932	686.21
1021.223	700.22
1021.514	684.4
1021.804	694.8
1022.095	680.34
1022.386	686.21
1022.677	681.47
1022.967	697.74
1023.258	678.3
1023.548	657.74
1023.839	666.55
1024.129	690.05
1024.419	667.91
1024.709	652.99
1025	674.23
1025.29	651.41
1025.58	655.25
1025.87	643.5
1026.16	640.11
1026.449	685.53
1026.739	645.76
1027.029	629.04
1027.319	622.26
1027.608	644.4
1027.898	648.02
1028.187	631.75
1028.477	638.08
1028.766	640.34
1029.055	627.46
1029.344	616.16
1029.634	622.48
1029.923	615.25
1030.212	603.73
1030.501	588.36
1030.79	595.37
1031.078	603.73
1031.367	591.52
1031.656	594.01
1031.945	588.36
1032.233	605.99
1032.522	580.68
1032.81	595.14
1033.099	578.42
1033.387	571.41
1033.675	558.98
1033.963	579.32
1034.251	565.31
1034.54	570.28
1034.828	572.99
1035.116	568.02
1035.403	551.53
1035.691	561.92
1035.979	555.59
1036.267	549.04
1036.554	538.42
1036.842	547.46
1037.129	571.19
1037.417	540
1037.704	545.42
1037.992	555.82
1038.279	556.27
1038.566	554.01
1038.853	554.01
1039.14	554.01
