Data from black_metal_pc_casing_FLMS001491_00035.txt Node
Date: Wed Feb 08 14:32:35 GMT 2017
User: dcchb
Spectrometer: FLMS00149
Trigger mode: 0
Integration Time (sec): 2.000000E-2
Scans to average: 10
Electric dark correction enabled: true
Nonlinearity correction enabled: false
Boxcar width: 0
XAxis mode: Wavelengths
Number of Pixels in Spectrum: 2048
>>>>>Begin Spectral Data<<<<<
341.393	-23.95
341.776	-23.95
342.16	-23.95
342.543	-55.82
342.927	-74.57
343.31	-61.02
343.693	-68.92
344.077	-87.91
344.46	-73.22
344.843	-44.52
345.226	-37.29
345.61	-31.64
345.993	-5.65
346.376	-0.68
346.759	11.3
347.142	23.95
347.525	23.73
347.908	81.13
348.291	89.04
348.674	88.13
349.057	93.56
349.44	118.87
349.823	147.57
350.206	149.6
350.588	210.84
350.971	201.12
351.354	203.38
351.737	221.24
352.119	246.55
352.502	260.33
352.884	261.01
353.267	279.54
353.65	273.21
354.032	275.92
354.414	296.26
354.797	312.53
355.179	328.35
355.562	317.73
355.944	318.41
356.326	316.38
356.709	337.39
357.091	321.8
357.473	333.1
357.855	336.94
358.238	343.04
358.62	326.09
359.002	343.49
359.384	321.35
359.766	327.9
360.148	327
360.53	317.73
360.912	328.8
361.294	343.72
361.676	321.12
362.057	338.52
362.439	324.29
362.821	332.87
363.203	319.31
363.584	326.09
363.966	334.45
364.348	309.82
364.729	316.83
365.111	307.79
365.493	311.4
365.874	312.53
366.256	327.45
366.637	300.33
367.019	304.17
367.4	310.05
367.781	296.72
368.163	326.09
368.544	321.35
368.925	307.56
369.306	330.16
369.688	306.66
370.069	315.02
370.45	315.92
370.831	308.47
371.212	311.63
371.593	323.61
371.974	326.09
372.355	305.53
372.736	298.07
373.117	301.91
373.498	317.51
373.879	305.08
374.26	288.35
374.641	309.14
375.021	318.64
375.402	311.4
375.783	319.99
376.163	317.05
376.544	330.84
376.925	332.42
377.305	320.22
377.686	322.03
378.066	320.9
378.447	324.06
378.827	330.39
379.208	331.97
379.588	334
379.968	320.67
380.349	349.14
380.729	327.22
381.109	340.78
381.489	339.88
381.87	334.91
382.25	352.08
382.63	349.14
383.01	322.7
383.39	321.57
383.77	336.49
384.15	352.31
384.53	354.34
384.91	358.63
385.29	338.97
385.67	357.28
386.049	361.12
386.429	357.5
386.809	378.3
387.189	367
387.568	371.52
387.948	355.92
388.328	358.41
388.707	379.88
389.087	350.5
389.466	377.84
389.846	371.06
390.225	383.94
390.605	379.43
390.984	380.1
391.363	385.75
391.743	371.97
392.122	367.67
392.501	389.14
392.881	384.62
393.26	388.46
393.639	376.94
394.018	385.07
394.397	392.31
394.776	404.74
395.155	402.7
395.534	410.61
395.913	405.64
396.292	410.38
396.671	391.63
397.05	413.55
397.429	427.79
397.808	402.02
398.186	431.63
398.565	405.64
398.944	395.02
399.323	396.6
399.701	427.79
400.08	408.58
400.458	412.19
400.837	446.09
401.215	449.03
401.594	420.55
401.972	422.81
402.351	425.53
402.729	432.98
403.107	426.66
403.486	430.95
403.864	425.75
404.242	439.08
404.62	426.88
404.999	441.34
405.377	444.73
405.755	450.16
406.133	430.95
406.511	472.53
406.889	449.93
407.267	466.88
407.645	456.49
408.023	463.94
408.401	471.63
408.779	456.94
409.156	446.99
409.534	478.63
409.912	494.45
410.29	491.29
410.667	496.48
411.045	518.4
411.422	500.33
411.8	512.75
412.178	501.46
412.555	500.33
412.933	523.15
413.31	508.46
413.687	526.99
414.065	542.36
414.442	539.87
414.819	537.39
415.197	545.52
415.574	528.8
415.951	530.61
416.328	535.35
416.705	528.35
417.082	533.09
417.46	563.15
417.837	562.7
418.214	572.87
418.591	562.92
418.967	544.62
419.344	557.5
419.721	571.51
420.098	576.93
420.475	580.78
420.852	561.57
421.228	576.48
421.605	594.79
421.982	605.86
422.358	614.22
422.735	594.79
423.111	606.31
423.488	594.56
423.864	623.71
424.241	632.98
424.617	620.1
424.994	636.14
425.37	626.42
425.746	616.93
426.123	639.31
426.499	626.2
426.875	662.13
427.251	656.03
427.627	692.64
428.003	674.56
428.379	668.01
428.756	672.52
429.132	675.91
429.507	675.46
429.883	672.75
430.259	699.87
430.635	718.63
431.011	719.3
431.387	700.77
431.763	722.69
432.138	720.21
432.514	755.91
432.89	732.18
433.265	733.09
433.641	719.08
434.016	776.25
434.392	768.12
434.767	773.31
435.143	792.07
435.518	787.1
435.894	817.83
436.269	794.1
436.644	798.17
437.02	801.33
437.395	810.15
437.77	807.66
438.145	809.02
438.52	821.9
438.895	851.95
439.271	850.37
439.646	844.05
440.021	859.41
440.395	863.48
440.77	901.9
441.145	844.05
441.52	870.49
441.895	895.8
442.27	901.67
442.645	884.04
443.019	900.09
443.394	873.42
443.769	920.43
444.143	904.83
444.518	912.07
444.892	935.57
445.267	936.02
445.641	919.75
446.016	923.59
446.39	935.34
446.764	933.99
447.139	932.63
447.513	959.52
447.887	962.46
448.262	954.1
448.636	962.46
449.01	991.84
449.384	973.76
449.758	988
450.132	988
450.506	977.6
450.88	970.6
451.254	1005.62
451.628	1002.01
452.002	1022.8
452.376	1044.94
452.75	1037.26
453.123	1064.38
453.497	1052.4
453.871	1054.66
454.244	1079.29
454.618	1082.91
454.992	1098.73
455.365	1117.94
455.739	1119.07
456.112	1108.9
456.486	1139.86
456.859	1142.57
457.232	1155.9
457.606	1153.42
457.979	1163.81
458.352	1196.35
458.725	1206.75
459.099	1215.34
459.472	1199.29
459.845	1245.84
460.218	1261.44
460.591	1266.18
460.964	1296.01
461.337	1287.42
461.71	1318.38
462.083	1308.44
462.456	1310.02
462.829	1345.5
463.201	1341.89
463.574	1336.46
463.947	1381.43
464.32	1408.78
464.692	1388.89
465.065	1419.85
465.438	1400.42
465.81	1459.17
466.183	1446.06
466.555	1525.38
466.928	1474.09
467.3	1492.62
467.672	1513.63
468.045	1538.94
468.417	1559.06
468.789	1577.13
469.161	1558.6
469.534	1587.75
469.906	1613.97
470.278	1628.43
470.65	1664.81
471.022	1644.48
471.394	1700.52
471.766	1710.24
472.138	1699.39
472.51	1756.56
472.882	1760.18
473.253	1801.31
473.625	1830.91
473.997	1874.75
474.369	1851.02
474.74	1933.06
475.112	1928.31
475.484	1923.79
475.855	1983.9
476.227	2004.47
476.598	2017.35
476.97	2049.66
477.341	2071.81
477.713	2138.25
478.084	2093.05
478.455	2179.38
478.827	2177.57
479.198	2236.33
479.569	2252.14
479.94	2310.45
480.311	2338.02
480.682	2363.1
481.053	2394.51
481.424	2429.31
481.795	2471.8
482.166	2518.8
482.537	2539.82
482.908	2542.53
483.279	2579.82
483.65	2629.31
484.021	2687.84
484.391	2699.59
484.762	2731.91
485.133	2767.84
485.503	2797.44
485.874	2875.4
486.244	2868.85
486.615	2932.58
486.985	2968.74
487.356	3007.6
487.726	3041.5
488.097	3082.18
488.467	3091.22
488.837	3168.28
489.207	3192.01
489.578	3220.48
489.948	3249.18
490.318	3256.19
490.688	3313.36
491.058	3341.38
491.428	3404.88
491.798	3423.41
492.168	3494.15
492.538	3497.99
492.908	3533.24
493.278	3585.67
493.648	3589.51
494.017	3621.6
494.387	3657.76
494.757	3681.03
495.126	3753.12
495.496	3737.98
495.866	3747.47
496.235	3831.09
496.605	3821.59
496.974	3846.23
497.344	3919.22
497.713	3930.97
498.082	3936.39
498.452	3951.31
498.821	3952.89
499.19	4004.19
499.559	4078.31
499.928	4061.81
500.298	4105.43
500.667	4146.11
501.036	4114.47
501.405	4192.88
501.774	4217.74
502.143	4208.25
502.512	4218.19
502.88	4308.59
503.249	4300.68
503.618	4327.12
503.987	4345.42
504.356	4368.25
504.724	4412.77
505.093	4420.67
505.462	4434.46
505.83	4501.8
506.199	4500.67
506.567	4627.9
506.936	4541.35
507.304	4653.21
507.672	4612.99
508.041	4682.14
508.409	4666.32
508.777	4764.39
509.145	4798.52
509.514	4790.83
509.882	4836.48
510.25	4859.08
510.618	4895.46
510.986	4892.3
511.354	4933.2
511.722	4942.47
512.09	4993.32
512.458	5045.74
512.826	5066.99
513.193	5117.15
513.561	5110.37
513.929	5176.59
514.297	5175.23
514.664	5212.29
515.032	5282.57
515.4	5329.13
515.767	5367.32
516.135	5360.31
516.502	5374.55
516.869	5420.65
517.237	5408.22
517.604	5424.49
517.972	5536.58
518.339	5541.32
518.706	5550.14
519.073	5584.94
519.44	5667.42
519.808	5670.13
520.175	5704.71
520.542	5757.36
520.909	5860.64
521.276	5830.13
521.643	5910.13
522.009	5922.1
522.376	5943.35
522.743	6002.1
523.11	6042.33
523.477	6098.82
523.843	6078.26
524.21	6212.49
524.577	6290
524.943	6312.38
525.31	6344.01
525.676	6403.9
526.043	6417.46
526.409	6451.36
526.776	6529.77
527.142	6508.98
527.508	6574.52
527.874	6694.51
528.241	6656.32
528.607	6745.81
528.973	6774.51
529.339	6747.39
529.705	6826.71
530.071	6923.43
530.437	6859.03
530.803	6955.3
531.169	7045.46
531.535	7028.29
531.901	7038.91
532.267	7083.66
532.632	7178.79
532.998	7155.29
533.364	7171.56
533.73	7227.15
534.095	7236.87
534.461	7258.57
534.826	7343.99
535.192	7392.35
535.557	7415.4
535.923	7428.51
536.288	7445.91
536.653	7518.67
537.019	7505.11
537.384	7603.42
537.749	7630.76
538.114	7627.37
538.479	7673.24
538.845	7649.97
539.21	7695.84
539.575	7682.96
539.94	7740.59
540.305	7851.09
540.67	7785.33
541.034	7792.34
541.399	7866.91
541.764	7910.98
542.129	7916.63
542.494	7955.5
542.858	7983.52
543.223	8025.33
543.587	8061.48
543.952	8033.46
544.316	8081.14
544.681	8110.52
545.045	8118.66
545.41	8231.65
545.774	8250.86
546.138	8163.4
546.503	8210.41
546.867	8230.29
547.231	8289.05
547.595	8340.12
547.959	8373.57
548.324	8430.96
548.688	8422.38
549.052	8459.44
549.416	8422.15
549.779	8405.43
550.143	8516.16
550.507	8570.85
550.871	8600.9
551.235	8579.21
551.599	8666.44
551.962	8679.09
552.326	8725.65
552.689	8790.28
553.053	8755.93
553.417	8805.42
553.78	8926.77
554.143	8854.23
554.507	8912.08
554.87	9004.06
555.234	9022.36
555.597	8940.1
555.96	9031.85
556.323	9017.84
556.686	9083.83
557.05	9154.79
557.413	9150.04
557.776	9190.72
558.139	9268.91
558.502	9276.82
558.865	9349.36
559.228	9411.73
559.59	9377.38
559.953	9435.46
560.316	9518.62
560.679	9528.56
561.041	9580.99
561.404	9705.06
561.767	9661.89
562.129	9647.66
562.492	9790.25
562.854	9797.93
563.217	9827.76
563.579	9825.05
563.941	9901.21
564.304	9933.07
564.666	9974.65
565.028	10036.57
565.39	10129
565.753	10128.55
566.115	10254.19
566.477	10209.45
566.839	10263.46
567.201	10266.17
567.563	10336.9
567.925	10382.1
568.287	10372.61
568.648	10400.63
569.01	10465.04
569.372	10576.45
569.734	10587.97
570.095	10585.94
570.457	10689.89
570.819	10594.75
571.18	10745.93
571.542	10784.58
571.903	10744.12
572.265	10791.35
572.626	10827.96
572.987	10942.99
573.349	10927.17
573.71	10946.6
574.071	10983.67
574.432	11006.94
574.794	11086.26
575.155	11009.88
575.516	11052.14
575.877	11104.34
576.238	11131.46
576.599	11169.65
576.96	11222.76
577.32	11180.95
577.681	11272.02
578.042	11274.28
578.403	11326.48
578.763	11279.93
579.124	11296.65
579.485	11352.02
579.845	11371.45
580.206	11367.84
580.566	11390.66
580.927	11346.37
581.287	11423.43
581.648	11291
582.008	11405.58
582.368	11406.25
582.728	11416.42
583.089	11435.86
583.449	11473.82
583.809	11450.77
584.169	11454.39
584.529	11317.89
584.889	11515.86
585.249	11438.8
585.609	11333.49
585.969	11553.82
586.329	11420.94
586.688	11503.88
587.048	11492.58
587.408	11407.16
587.768	11513.82
588.127	11506.14
588.487	11442.86
588.846	11564.44
589.206	11508.62
589.565	11496.19
589.925	11541.62
590.284	11434.05
590.643	11532.8
591.003	11555.63
591.362	11568.51
591.721	11501.39
592.08	11548.4
592.44	11517.21
592.799	11639.69
593.158	11594.27
593.517	11559.47
593.876	11580.03
594.235	11604.21
594.593	11604.89
594.952	11595.18
595.311	11513.82
595.67	11627.49
596.029	11637.89
596.387	11681.73
596.746	11659.58
597.104	11618.68
597.463	11604.44
597.822	11722.63
598.18	11575.97
598.538	11612.58
598.897	11706.13
599.255	11598.79
599.613	11755.62
599.972	11593.59
600.33	11734.83
600.688	11635.17
601.046	11617.77
601.404	11775.96
601.762	11727.83
602.12	11778.9
602.478	11844.21
602.836	11735.28
603.194	11812.8
603.552	11749.07
603.91	11709.07
604.268	11789.52
604.625	11844.43
604.983	11800.37
605.341	11849.86
605.698	11902.06
606.056	11885.79
606.413	11946.13
606.771	11912.46
607.128	11984.77
607.485	11835.17
607.843	11856.19
608.2	12041.94
608.557	12003.75
608.914	11913.36
609.272	12029.74
609.629	12064.09
609.986	12157.87
610.343	12034.71
610.7	12143.41
611.057	12134.14
611.414	12093.69
611.771	12116.97
612.127	12220.24
612.484	12117.87
612.841	12135.95
613.198	12189.06
613.554	12164.2
613.911	12201.49
614.267	12197.42
614.624	12137.76
614.98	12290.07
615.337	12252.79
615.693	12254.14
616.05	12210.75
616.406	12345.66
616.762	12257.76
617.118	12284.2
617.475	12270.86
617.831	12317.19
618.187	12436.06
618.543	12359.45
618.899	12442.16
619.255	12409.62
619.611	12336.4
619.967	12398.77
620.323	12435.38
620.678	12446.45
621.034	12501.14
621.39	12368.49
621.746	12385.44
622.101	12428.6
622.457	12419.56
622.812	12353.35
623.168	12395.15
623.523	12415.04
623.879	12452.55
624.234	12456.17
624.589	12411.2
624.945	12384.76
625.3	12443.06
625.655	12416.85
626.01	12447.81
626.365	12419.33
626.72	12471.99
627.075	12422.72
627.43	12408.04
627.785	12414.81
628.14	12474.47
628.495	12519.9
628.85	12354.03
629.205	12271.54
629.559	12395.83
629.914	12349.05
630.269	12417.53
630.623	12315.38
630.978	12308.6
631.332	12399.9
631.687	12288.04
632.041	12265.21
632.396	12347.25
632.75	12347.92
633.104	12354.25
633.459	12226.12
633.813	12279.9
634.167	12227.48
634.521	12303.63
634.875	12268.15
635.229	12234.93
635.583	12196.29
635.937	12228.83
636.291	12191.77
636.645	12257.76
636.999	12111.09
637.352	12169.17
637.706	12073.58
638.06	12212.79
638.413	12121.04
638.767	12076.97
639.121	12067.71
639.474	12063.41
639.828	12056.41
640.181	12028.16
640.534	12024.54
640.888	11986.8
641.241	11947.48
641.594	11878.11
641.947	11953.58
642.301	11940.48
642.654	11924.43
643.007	11958.56
643.36	11940.93
643.713	11905
644.066	12031.32
644.419	11951.55
644.771	11809.41
645.124	11655.06
645.477	11583.88
645.83	11562.86
646.182	11517.44
646.535	11537.32
646.888	11575.06
647.24	11451
647.593	11499.36
647.945	11530.09
648.298	11457.55
648.65	11503.2
649.002	11395.86
649.355	11462.52
649.707	11395.41
650.059	11432.92
650.411	11539.13
650.763	11574.16
651.115	11705.68
651.467	11664.1
651.819	11662.29
652.171	11628.62
652.523	11535.06
652.875	11597.89
653.227	11547.27
653.578	11633.14
653.93	11658
654.282	11567.38
654.633	11608.06
654.985	11513.14
655.337	11462.98
655.688	11553.59
656.039	11536.42
656.391	11489.87
656.742	11427.72
657.094	11502.75
657.445	11502.07
657.796	11498.68
658.147	11473.6
658.498	11439.25
658.849	11461.85
659.2	11393.15
659.551	11373.03
659.902	11493.03
660.253	11427.04
660.604	11418.91
660.955	11418.23
661.306	11443.99
661.656	11402.41
662.007	11384.11
662.358	11466.82
662.708	11377.33
663.059	11373.03
663.409	11347.95
663.76	11370.55
664.11	11470.43
664.461	11430.21
664.811	11487.61
665.161	11351.34
665.511	11393.82
665.862	11395.41
666.212	11362.64
666.562	11332.13
666.912	11315.63
667.262	11359.25
667.612	11326.03
667.962	11348.63
668.312	11331.23
668.662	11379.59
669.011	11293.26
669.361	11268.4
669.711	11291.45
670.06	11286.03
670.41	11225.47
670.76	11223.21
671.109	11274.05
671.459	11225.69
671.808	11241.29
672.157	11277.67
672.507	11174.17
672.856	11135.53
673.205	11262.98
673.554	11248.29
673.904	11157.45
674.253	11287.39
674.602	11244.45
674.951	11028.41
675.3	10932.14
675.649	11139.37
675.998	11131.68
676.346	11150.44
676.695	11145.47
677.044	11034.96
677.393	11117.22
677.741	11124
678.09	11100.95
678.438	11046.26
678.787	11086.26
679.135	11063.66
679.484	11002.42
679.832	10947.73
680.181	11013.72
680.529	11007.85
680.877	10986.83
681.225	10975.76
681.573	11009.43
681.922	10964.01
682.27	10886.95
682.618	10947.51
682.966	10928.75
683.314	10871.13
683.661	10936.66
684.009	10867.28
684.357	10817.34
684.705	10763.78
685.053	10848.98
685.4	10796.55
685.748	10689.66
686.095	10732.15
686.443	10646.5
686.79	10740.96
687.138	10685.59
687.485	10618.48
687.832	10634.3
688.18	10660.28
688.527	10536.67
688.874	10620.51
689.221	10565.6
689.568	10521.31
689.915	10462.1
690.262	10441.53
690.609	10509.33
690.956	10426.62
691.303	10496.67
691.65	10369.67
691.997	10389.11
692.344	10310.24
692.69	10248.32
693.037	10324.47
693.383	10202.44
693.73	10245.15
694.077	10219.17
694.423	10123.12
694.769	10074.99
695.116	10169.45
695.462	10128.32
695.808	10066.85
696.155	10060.98
696.501	10015.56
696.847	9994.77
697.193	9930.81
697.539	9953.64
697.885	9875.9
698.231	9879.06
698.577	9917.93
698.923	9889.68
699.269	9816.92
699.614	9808.78
699.96	9778.27
700.306	9781.44
700.651	9689.46
700.997	9667.99
701.342	9691.72
701.688	9655.57
702.033	9615.57
702.379	9660.76
702.724	9614.44
703.069	9676.13
703.415	9568.34
703.76	9547.09
704.105	9559.97
704.45	9482.24
704.795	9435.01
705.14	9399.75
705.485	9401.11
705.83	9397.27
706.175	9416.93
706.52	9319.08
706.865	9324.05
707.209	9258.06
707.554	9276.14
707.899	9351.17
708.243	9259.64
708.588	9261
708.932	9185.3
709.277	9112.75
709.621	9209.02
709.966	9096.71
710.31	9105.52
710.654	9089.25
710.998	9086.31
711.342	9090.16
711.687	9046.77
712.031	9021.23
712.375	9017.39
712.719	9031.63
713.063	9004.96
713.407	9027.56
713.75	8928.8
714.094	8961.57
714.438	8908.92
714.782	8935.36
715.125	8826.66
715.469	8916.6
715.812	8835.02
716.156	8781.24
716.499	8852.87
716.843	8745.31
717.186	8762.03
717.53	8784.18
717.873	8790.05
718.216	8760.67
718.559	8724.06
718.902	8647.23
719.246	8643.61
719.589	8653.56
719.932	8651.3
720.275	8690.39
720.617	8606.55
720.96	8652.88
721.303	8540.34
721.646	8624.63
721.989	8567.46
722.331	8575.59
722.674	8548.48
723.016	8567.23
723.359	8535.14
723.701	8510.51
724.044	8467.8
724.386	8432.32
724.729	8490.17
725.071	8466.9
725.413	8449.72
725.755	8416.73
726.097	8412.21
726.439	8326.79
726.782	8392.32
727.124	8381.02
727.465	8292.89
727.807	8313.91
728.149	8287.92
728.491	8246.11
728.833	8299.22
729.175	8288.82
729.516	8248.6
729.858	8264.87
730.199	8210.86
730.541	8273.23
730.882	8191.88
731.224	8233.23
731.565	8168.15
731.906	8162.5
732.248	8166.79
732.589	8178.99
732.93	8147.58
733.271	8156.17
733.612	8160.92
733.953	8096.74
734.294	8116.62
734.635	8070.52
734.976	8089.96
735.317	8071.65
735.658	8058.32
735.999	8077.98
736.339	8005.21
736.68	8056.51
737.021	7998.43
737.361	7986.46
737.702	8013.35
738.042	8002.05
738.383	7925.22
738.723	8021.94
739.063	7979
739.404	7876.18
739.744	7849.51
740.084	7915.5
740.424	7940.81
740.764	7899
741.104	7882.96
741.444	7872.34
741.784	7828.49
742.124	7810.19
742.464	7859.91
742.804	7830.75
743.143	7810.19
743.483	7804.99
743.823	7739.23
744.162	7755.05
744.502	7739.23
744.841	7729.06
745.181	7781.94
745.52	7751.43
745.86	7733.13
746.199	7689.52
746.538	7752.79
746.877	7715.05
747.216	7686.58
747.556	7701.94
747.895	7681.83
748.234	7656.3
748.573	7581.5
748.911	7637.31
749.25	7590.08
749.589	7592.79
749.928	7528.39
750.267	7598.22
750.605	7572
750.944	7559.12
751.283	7525.68
751.621	7531.33
751.96	7526.13
752.298	7456.08
752.636	7484.55
752.975	7473.93
753.313	7409.3
753.651	7390.54
753.989	7327.94
754.327	7363.2
754.666	7312.35
755.004	7335.85
755.342	7306.02
755.679	7252.92
756.017	7280.26
756.355	7282.97
756.693	7267.61
757.031	7249.3
757.368	7219.02
757.706	7195.07
758.044	7125.91
758.381	7182.86
758.719	7164.11
759.056	7188.29
759.394	7192.35
759.731	7116.88
760.068	7109.87
760.405	7078.23
760.743	7003.21
761.08	6993.49
761.417	7028.29
761.754	6965.47
762.091	6921.17
762.428	6892.93
762.765	6937.22
763.102	6948.52
763.438	6867.39
763.775	6889.99
764.112	6887.95
764.449	6799.82
764.785	6772.7
765.122	6817.45
765.458	6789.2
765.795	6677.56
766.131	6713.04
766.467	6689.77
766.804	6671.69
767.14	6641.18
767.476	6738.35
767.812	6615.87
768.148	6624.91
768.485	6543.56
768.821	6529.09
769.157	6529.09
769.492	6547.85
769.828	6502.43
770.164	6435.54
770.5	6424.69
770.836	6444.58
771.171	6387.18
771.507	6410.45
771.842	6314.41
772.178	6390.79
772.513	6373.39
772.849	6369.1
773.184	6313.96
773.519	6289.33
773.855	6213.4
774.19	6215.66
774.525	6165.94
774.86	6156.67
775.195	6208.2
775.53	6186.28
775.865	6129.33
776.2	6094.98
776.535	6084.13
776.87	6056.34
777.205	6055.21
777.539	5953.52
777.874	5986.74
778.209	5918.26
778.543	5967.07
778.878	5954.19
779.212	5946.74
779.547	5874.87
779.881	5896.57
780.215	5901.54
780.55	5892.05
780.884	5820.64
781.218	5839.85
781.552	5849.34
781.886	5798.94
782.22	5746.29
782.554	5693.86
782.888	5714.88
783.222	5662.68
783.556	5631.49
783.889	5627.2
784.223	5598.04
784.557	5582.9
784.89	5614.09
785.224	5547.65
785.557	5517.37
785.891	5520.08
786.224	5565.73
786.558	5507.43
786.891	5493.41
787.224	5430.82
787.557	5440.99
787.891	5460.87
788.224	5464.49
788.557	5392.85
788.89	5351.27
789.223	5388.56
789.556	5323.48
789.888	5351.5
790.221	5337.94
790.554	5290.93
790.887	5231.73
791.219	5253.42
791.552	5209.58
791.884	5259.52
792.217	5224.5
792.549	5159.64
792.882	5196.47
793.214	5172.97
793.546	5115.57
793.879	5161.22
794.211	5062.24
794.543	5085.06
794.875	5079.87
795.207	5094.33
795.539	5055.23
795.871	5079.64
796.203	4993.77
796.535	4985.86
796.867	5006.87
797.198	4947.21
797.53	4946.54
797.862	4913.09
798.193	4956.93
798.525	4906.31
798.856	4962.36
799.188	4905.18
799.519	4900.89
799.85	4855.92
800.182	4858.18
800.513	4885.97
800.844	4772.3
801.175	4786.54
801.506	4847.1
801.837	4786.31
802.168	4753.1
802.499	4768.46
802.83	4689.82
803.161	4707.67
803.491	4734.79
803.822	4686.43
804.153	4692.08
804.483	4661.8
804.814	4671.74
805.145	4643.04
805.475	4652.08
805.805	4604.85
806.136	4588.13
806.466	4585.19
806.796	4624.74
807.126	4560.33
807.457	4536.15
807.787	4591.74
808.117	4521.69
808.447	4518.3
808.777	4534.8
809.107	4551.97
809.436	4550.61
809.766	4534.8
810.096	4452.76
810.426	4475.36
810.755	4441.92
811.085	4468.58
811.414	4418.41
811.744	4421.58
812.073	4397.62
812.403	4400.34
812.732	4388.13
813.061	4380.68
813.39	4371.86
813.719	4336.84
814.049	4384.74
814.378	4332.99
814.707	4313.11
815.036	4336.84
815.365	4245.76
815.693	4216.39
816.022	4233.34
816.351	4288.93
816.68	4225.88
817.008	4222.49
817.337	4228.59
817.665	4177.52
817.994	4233.11
818.322	4237.4
818.651	4189.95
818.979	4213
819.307	4231.53
819.636	4169.61
819.964	4135.71
820.292	4135.94
820.62	4140.23
820.948	4171.64
821.276	4202.15
821.604	4196.27
821.932	4151.3
822.259	4139.78
822.587	4176.39
822.915	4105.88
823.243	4121.25
823.57	4154.02
823.898	4137.52
824.225	4148.37
824.553	4107.46
824.88	4107.24
825.207	4127.35
825.535	4123.73
825.862	4124.19
826.189	4151.76
826.516	4149.72
826.843	4140.23
827.17	4140.23
827.497	4124.19
827.824	4154.69
828.151	4140.46
828.478	4088.03
828.805	4106.78
829.131	4109.5
829.458	4102.27
829.785	4096.84
830.111	4128.7
830.438	4106.33
830.764	4137.29
831.09	4132.09
831.417	4079.21
831.743	4163.28
832.069	4109.5
832.395	4056.39
832.722	4098.65
833.048	4107.46
833.374	4099.1
833.7	4053.68
834.026	4096.16
834.351	4060.91
834.677	4063.17
835.003	4067.46
835.329	4074.92
835.654	4057.07
835.98	4053.9
836.306	4065.43
836.631	4068.59
836.956	3994.7
837.282	4039.67
837.607	4041.7
837.932	4036.05
838.258	4023.4
838.583	4043.96
838.908	4019.78
839.233	3983.4
839.558	4001.25
839.883	3990.18
840.208	3978.2
840.533	3966
840.858	3961.48
841.182	3929.16
841.507	3966.9
841.832	3909.73
842.156	3937.07
842.481	3923.74
842.805	3920.35
843.13	3902.95
843.454	3923.29
843.778	3845.32
844.103	3922.83
844.427	3888.03
844.751	3902.72
845.075	3852.55
845.399	3823.4
845.723	3810.75
846.047	3834.7
846.371	3791.54
846.695	3812.33
847.019	3778.43
847.343	3768.94
847.666	3792.67
847.99	3760.35
848.313	3779.79
848.637	3719
848.96	3702.5
849.284	3715.61
849.607	3666.8
849.931	3659.11
850.254	3633.8
850.577	3620.02
850.9	3583.41
851.223	3632.22
851.546	3598.32
851.869	3584.76
852.192	3617.98
852.515	3575.73
852.838	3557.42
853.161	3528.04
853.483	3542.05
853.806	3531.66
854.129	3543.86
854.451	3530.08
854.774	3490.98
855.096	3469.06
855.419	3492.56
855.741	3462.73
856.063	3460.47
856.385	3456.41
856.708	3420.48
857.03	3445.56
857.352	3370.08
857.674	3410.53
857.996	3373.47
858.318	3383.87
858.64	3386.8
858.961	3366.01
859.283	3325.56
859.605	3344.77
859.926	3365.79
860.248	3323.08
860.57	3319.23
860.891	3338.9
861.212	3313.59
861.534	3365.34
861.855	3314.49
862.176	3295.28
862.498	3305.9
862.819	3269.52
863.14	3282.85
863.461	3267.48
863.782	3292.12
864.103	3247.6
864.424	3234.49
864.745	3246.24
865.065	3276.75
865.386	3227.49
865.707	3277.65
866.027	3247.37
866.348	3231.33
866.668	3264.77
866.989	3194.49
867.309	3171.89
867.63	3188.62
867.95	3195.85
868.27	3178.9
868.59	3202.4
868.91	3169.41
869.23	3183.65
869.55	3177.32
869.87	3169.63
870.19	3155.62
870.51	3178.9
870.83	3166.24
871.15	3148.62
871.469	3147.71
871.789	3151.56
872.109	3125.34
872.428	3124.44
872.748	3144.32
873.067	3134.15
873.386	3143.87
873.706	3137.09
874.025	3164.44
874.344	3131.67
874.663	3119.92
874.982	3121.5
875.301	3098.22
875.62	3101.84
875.939	3060.26
876.258	3060.26
876.577	3073.37
876.896	3093.7
877.214	3071.78
877.533	3044.89
877.852	3026.36
878.17	3041.73
878.489	3059.13
878.807	3056.64
879.125	3048.96
879.444	2994.72
879.762	2997.66
880.08	3041.28
880.398	3006.25
880.716	3027.49
881.034	2979.13
881.352	3019.36
881.67	3028.85
881.988	2964.67
882.306	2980.49
882.624	2976.42
882.941	3011.45
883.259	2966.02
883.577	2957.89
883.894	2965.12
884.212	2967.61
884.529	2955.63
884.846	2920.83
885.164	2902.97
885.481	2905.23
885.798	2928.51
886.115	2895.07
886.432	2921.51
886.75	2870.88
887.067	2932.13
887.383	2916.08
887.7	2869.76
888.017	2881.73
888.334	2880.15
888.651	2854.84
888.967	2902.3
889.284	2825.01
889.6	2821.39
889.917	2825.69
890.233	2841.73
890.55	2825.01
890.866	2816.2
891.182	2785.46
891.498	2778.91
891.815	2781.62
892.131	2801.51
892.447	2759.7
892.763	2737.78
893.079	2774.16
893.395	2792.47
893.71	2744.79
894.026	2739.14
894.342	2726.93
894.657	2754.28
894.973	2714.5
895.289	2749.31
895.604	2687.61
895.92	2665.69
896.235	2707.05
896.55	2655.98
896.865	2643.55
897.181	2685.81
897.496	2644.22
897.811	2648.29
898.126	2613.26
898.441	2674.51
898.756	2637.22
899.071	2636.31
899.386	2658.01
899.7	2626.6
900.015	2626.37
900.33	2587.95
900.644	2571.23
900.959	2578.92
901.273	2581.85
901.588	2579.14
901.902	2557.22
902.216	2518.8
902.531	2559.48
902.845	2510.89
903.159	2530.55
903.473	2528.97
903.787	2477
904.101	2498.69
904.415	2459.37
904.729	2495.3
905.042	2500.27
905.356	2458.47
905.67	2447.39
905.984	2447.17
906.297	2447.85
906.611	2393.61
906.924	2392.03
907.237	2435.42
907.551	2430.67
907.864	2404.68
908.177	2414.4
908.491	2378.24
908.804	2375.3
909.117	2367.4
909.43	2378.69
909.743	2367.4
910.056	2334.18
910.368	2348.86
910.681	2315.19
910.994	2343.44
911.307	2291.24
911.619	2289.66
911.932	2302.31
912.244	2294.4
912.557	2254.18
912.869	2271.13
913.181	2255.31
913.494	2237.46
913.806	2252.82
914.118	2220.51
914.43	2219.38
914.742	2228.87
915.054	2190.22
915.366	2195.87
915.678	2196.33
915.99	2210.79
916.302	2196.33
916.613	2185.71
916.925	2187.51
917.236	2159.72
917.548	2159.04
917.859	2177.57
918.171	2178.02
918.482	2123.79
918.794	2125.37
919.105	2146.16
919.416	2111.13
919.727	2107.29
920.038	2081.3
920.349	2098.7
920.66	2049.66
920.971	2051.25
921.282	2071.13
921.593	2043.56
921.903	2033.62
922.214	2043.11
922.525	2032.71
922.835	2034.75
923.146	1995.65
923.456	2004.47
923.767	1986.84
924.077	1991.59
924.387	1990.23
924.697	1988.42
925.008	1970.57
925.318	1974.86
925.628	1969.67
925.938	1972.38
926.248	1959.95
926.558	1929.67
926.867	1942.55
927.177	1948.88
927.487	1963.34
927.796	1924.92
928.106	1894.41
928.416	1896
928.725	1901.19
929.034	1877.24
929.344	1862.78
929.653	1858.48
929.962	1851.48
930.271	1839.5
930.581	1809.44
930.89	1839.73
931.199	1785.26
931.508	1834.08
931.817	1819.61
932.125	1812.61
932.434	1833.62
932.743	1815.77
933.051	1808.09
933.36	1819.16
933.669	1785.04
933.977	1772.16
934.286	1785.72
934.594	1798.14
934.902	1777.13
935.21	1747.98
935.519	1753.17
935.827	1738.94
936.135	1750.91
936.443	1727.41
936.751	1722.21
937.059	1727.41
937.367	1681.31
937.674	1702.33
937.982	1705.94
938.29	1694.87
938.597	1682.22
938.905	1651.93
939.213	1641.31
939.52	1628.88
939.827	1652.61
940.135	1636.79
940.442	1666.62
940.749	1647.41
941.056	1627.3
941.363	1649
941.67	1641.76
941.977	1637.92
942.284	1614.42
942.591	1628.43
942.898	1603.57
943.205	1569.45
943.511	1566.29
943.818	1576.68
944.125	1596.12
944.431	1541.43
944.738	1561.99
945.044	1561.77
945.35	1552.05
945.657	1531.26
945.963	1555.21
946.269	1519.73
946.575	1518.15
946.881	1495.78
947.187	1521.32
947.493	1509.11
947.799	1534.2
948.105	1505.72
948.41	1492.84
948.716	1511.82
949.022	1499.62
949.327	1476.12
949.633	1474.09
949.938	1476.12
950.244	1472.05
950.549	1430.92
950.854	1442.45
951.16	1460.07
951.465	1426.4
951.77	1427.99
952.075	1422.79
952.38	1442
952.685	1405.16
952.99	1420.98
953.294	1384.14
953.599	1415.1
953.904	1392.05
954.209	1383.69
954.513	1380.98
954.818	1391.6
955.122	1357.93
955.426	1370.36
955.731	1351.38
956.035	1361.09
956.339	1352.73
956.643	1375.56
956.948	1374.65
957.252	1345.05
957.556	1366.74
957.86	1366.74
958.163	1354.31
958.467	1339.85
958.771	1340.53
959.075	1326.52
959.378	1329.23
959.682	1319.97
959.985	1327.65
960.289	1331.72
960.592	1318.16
960.896	1292.4
961.199	1302.56
961.502	1331.26
961.805	1294.66
962.108	1284.94
962.411	1268.44
962.714	1282
963.017	1283.81
963.32	1253.3
963.623	1279.29
963.926	1251.27
964.228	1227.99
964.531	1233.41
964.833	1262.79
965.136	1237.03
965.438	1229.12
965.741	1229.35
966.043	1230.25
966.345	1222.57
966.648	1208.56
966.95	1203.13
967.252	1187.54
967.554	1204.26
967.856	1196.8
968.158	1201.1
968.46	1197.03
968.761	1177.6
969.063	1156.35
969.365	1176.24
969.666	1185.51
969.968	1177.82
970.269	1145.05
970.571	1149.57
970.872	1156.35
971.174	1154.77
971.475	1163.36
971.776	1170.36
972.077	1146.18
972.378	1163.59
972.679	1140.53
972.98	1112.74
973.281	1137.82
973.582	1145.96
973.883	1151.61
974.183	1106.41
974.484	1110.71
974.785	1122.46
975.085	1126.98
975.386	1102.34
975.686	1092.17
975.986	1089.46
976.287	1069.8
976.587	1072.06
976.887	1092.17
977.187	1070.25
977.487	1087.88
977.787	1070.25
978.087	1087.43
978.387	1048.33
978.687	1053.76
978.987	1068.9
979.286	1042.01
979.586	1050.14
979.885	1046.98
980.185	1043.81
980.484	1056.47
980.784	1034.1
981.083	1029.8
981.382	1022.8
981.682	1025.06
981.981	1015.11
982.28	1030.71
982.579	1029.35
982.878	1004.49
983.177	1005.17
983.475	1027.09
983.774	1003.14
984.073	995
984.372	976.7
984.67	1008.56
984.969	1008.79
985.267	966.75
985.566	958.84
985.864	964.72
986.162	928.56
986.461	976.7
986.759	979.64
987.057	976.02
987.355	959.97
987.653	945.74
987.951	969.92
988.249	956.13
988.547	943.7
988.844	960.88
989.142	938.73
989.44	950.94
989.737	942.8
990.035	940.31
990.332	940.77
990.63	892.63
990.927	948.68
991.224	923.14
991.521	922.46
991.819	916.36
992.116	918.17
992.413	903.03
992.71	896.7
993.006	910.26
993.303	925.85
993.6	882.46
993.897	914.1
994.193	910.48
994.49	889.02
994.787	870.49
995.083	865.51
995.379	872.97
995.676	870.94
995.972	860.32
996.268	855.34
996.565	884.95
996.861	897.15
997.157	852.18
997.453	868.23
997.749	841.79
998.044	842.69
998.34	844.27
998.636	855.8
998.932	840.43
999.227	854.67
999.523	829.81
999.818	833.88
1000.114	849.7
1000.409	823.03
1000.704	816.93
1001	814.44
1001.295	812.63
1001.59	841.56
1001.885	834.78
1002.18	781.22
1002.475	797.72
1002.77	785.74
1003.065	798.85
1003.359	788.68
1003.654	799.3
1003.949	793.88
1004.243	795.46
1004.538	796.59
1004.832	768.12
1005.127	762.69
1005.421	774.89
1005.715	769.02
1006.009	758.4
1006.304	778.74
1006.598	769.47
1006.892	783.93
1007.186	769.25
1007.48	758.62
1007.773	748.23
1008.067	771.05
1008.361	750.49
1008.655	740.32
1008.948	737.83
1009.242	746.65
1009.535	709.81
1009.829	723.37
1010.122	725.63
1010.415	720.66
1010.708	710.72
1011.001	710.26
1011.295	715.69
1011.588	715.91
1011.881	698.96
1012.173	702.13
1012.466	717.72
1012.759	684.73
1013.052	673.65
1013.344	692.41
1013.637	697.61
1013.93	711.62
1014.222	693.99
1014.514	698.51
1014.807	672.3
1015.099	662.13
1015.391	669.36
1015.683	686.54
1015.976	674.78
1016.268	677.27
1016.56	672.98
1016.851	672.3
1017.143	680.43
1017.435	651.51
1017.727	666.88
1018.018	643.6
1018.31	663.26
1018.602	645.63
1018.893	646.99
1019.185	644.05
1019.476	663.26
1019.767	634.79
1020.058	620.1
1020.35	643.37
1020.641	637.27
1020.932	614.9
1021.223	628.91
1021.514	595.69
1021.804	621.45
1022.095	634.11
1022.386	618.06
1022.677	606.99
1022.967	604.5
1023.258	579.87
1023.548	596.82
1023.839	615.13
1024.129	626.65
1024.419	588.46
1024.709	613.54
1025	576.48
1025.29	572.64
1025.58	599.76
1025.87	595.01
1026.16	586.88
1026.449	590.94
1026.739	586.43
1027.029	597.95
1027.319	584.39
1027.608	578.74
1027.898	585.52
1028.187	555.92
1028.477	564.96
1028.766	583.04
1029.055	548.91
1029.344	558.63
1029.634	564.96
1029.923	552.75
1030.212	562.7
1030.501	557.73
1030.79	560.89
1031.078	556.37
1031.367	547.56
1031.656	538.97
1031.945	538.74
1032.233	540.32
1032.522	521.57
1032.81	525.18
1033.099	531.74
1033.387	531.51
1033.675	523.83
1033.963	499.65
1034.251	529.25
1034.54	532.64
1034.828	498.07
1035.116	517.05
1035.403	512.98
1035.691	535.81
1035.979	511.4
1036.267	517.5
1036.554	486.99
1036.842	509.14
1037.129	514.11
1037.417	481.12
1037.704	507.11
1037.992	493.55
1038.279	508.24
1038.566	506.43
1038.853	506.43
1039.14	506.43
