Data from black_metal_pc_casing_FLMS001491_00087.txt Node
Date: Wed Feb 08 14:33:38 GMT 2017
User: dcchb
Spectrometer: FLMS00149
Trigger mode: 0
Integration Time (sec): 2.000000E-2
Scans to average: 10
Electric dark correction enabled: true
Nonlinearity correction enabled: false
Boxcar width: 0
XAxis mode: Wavelengths
Number of Pixels in Spectrum: 2048
>>>>>Begin Spectral Data<<<<<
341.393	-8.81
341.776	-8.81
342.16	-8.81
342.543	-59.21
342.927	-71.18
343.31	-85.65
343.693	-70.28
344.077	-58.53
344.46	-41.81
344.843	-44.52
345.226	-69.38
345.61	-16.72
345.993	-19.21
346.376	-5.65
346.759	12.2
347.142	24.63
347.525	60.11
347.908	65.53
348.291	67.79
348.674	74.8
349.057	106.66
349.44	119.32
349.823	126.55
350.206	146.89
350.588	184.18
350.971	204.06
351.354	209.49
351.737	224.63
352.119	238.86
352.502	262.14
352.884	251.29
353.267	276.6
353.65	305.53
354.032	290.39
354.414	299.65
354.797	319.09
355.179	305.53
355.562	311.4
355.944	324.74
356.326	326.32
356.709	321.57
357.091	318.86
357.473	345.75
357.855	337.62
358.238	344.62
358.62	349.37
359.002	350.05
359.384	341.46
359.766	345.08
360.148	336.04
360.53	321.8
360.912	330.16
361.294	331.29
361.676	323.83
362.057	336.26
362.439	323.38
362.821	322.7
363.203	315.02
363.584	329.71
363.966	324.96
364.348	308.47
364.729	327.67
365.111	345.98
365.493	317.73
365.874	316.83
366.256	315.7
366.637	330.39
367.019	311.86
367.4	326.09
367.781	325.42
368.163	319.31
368.544	307.34
368.925	303.04
369.306	308.69
369.688	315.25
370.069	319.77
370.45	317.05
370.831	342.36
371.212	312.08
371.593	305.98
371.974	310.05
372.355	309.6
372.736	299.88
373.117	308.47
373.498	329.26
373.879	312.08
374.26	333.1
374.641	326.32
375.021	324.96
375.402	305.53
375.783	333.1
376.163	330.84
376.544	323.38
376.925	337.39
377.305	341.01
377.686	325.19
378.066	327.45
378.447	351.18
378.827	363.61
379.208	328.58
379.588	354.79
379.968	332.42
380.349	332.42
380.729	346.43
381.109	329.71
381.489	341.91
381.87	346.88
382.25	368.35
382.63	338.75
383.01	367.67
383.39	342.82
383.77	379.65
384.15	364.28
384.53	360.22
384.91	355.02
385.29	373.55
385.67	370.84
386.049	381.46
386.429	346.66
386.809	371.74
387.189	365.64
387.568	387.56
387.948	389.59
388.328	385.98
388.707	383.04
389.087	392.98
389.466	366.54
389.846	396.37
390.225	372.87
390.605	396.6
390.984	418.07
391.363	397.28
391.743	387.56
392.122	404.28
392.501	432.76
392.881	421.46
393.26	402.48
393.639	421.01
394.018	414.23
394.397	436.82
394.776	413.32
395.155	409.03
395.534	437.95
395.913	425.98
396.292	439.08
396.671	430.27
397.05	444.28
397.429	420.55
397.808	430.27
398.186	448.58
398.565	441.8
398.944	451.29
399.323	446.99
399.701	452.42
400.08	443.38
400.458	440.44
400.837	435.92
401.215	469.14
401.594	454.23
401.972	464.17
402.351	468.24
402.729	478.18
403.107	485.41
403.486	481.57
403.864	467.11
404.242	482.25
404.62	487.9
404.999	470.04
405.377	491.06
405.755	499.87
406.133	506.2
406.511	524.51
406.889	500.33
407.267	530.38
407.645	508.69
408.023	522.25
408.401	524.05
408.779	508.69
409.156	520.89
409.534	523.38
409.912	523.6
410.29	545.75
410.667	548.23
411.045	556.82
411.422	564.5
411.8	550.27
412.178	561.57
412.555	570.38
412.933	563.6
413.31	571.51
413.687	581.91
414.065	585.52
414.442	575.35
414.819	592.98
415.197	598.85
415.574	614.9
415.951	600.66
416.328	624.39
416.705	619.19
417.082	625.52
417.46	628.23
417.837	637.95
418.214	636.82
418.591	639.98
418.967	653.99
419.344	654.22
419.721	632.53
420.098	647.44
420.475	648.34
420.852	677.04
421.228	672.3
421.605	680.21
421.982	679.53
422.358	683.15
422.735	682.24
423.111	696.7
423.488	701.68
423.864	694.9
424.241	692.86
424.617	714.33
424.994	706.65
425.37	738.06
425.746	744.61
426.123	724.27
426.499	748.91
426.875	755.23
427.251	770.83
427.627	765.4
428.003	765.86
428.379	778.96
428.756	800.88
429.132	809.24
429.507	827.1
429.883	808.34
430.259	823.26
430.635	832.07
431.011	826.42
431.387	821.67
431.763	861.9
432.138	859.19
432.514	859.41
432.89	869.58
433.265	887.21
433.641	887.66
434.016	904.38
434.392	895.34
434.767	935.57
435.143	912.74
435.518	894.44
435.894	895.57
436.269	921.33
436.644	958.17
437.02	945.74
437.395	964.95
437.77	971.05
438.145	1004.95
438.52	1026.87
438.895	1000.65
439.271	1020.54
439.646	1025.28
440.021	1011.05
440.395	1037.03
440.77	1020.76
441.145	1045.4
441.52	1042.68
441.895	1038.39
442.27	1093.3
442.645	1041.33
443.019	1067.09
443.394	1062.34
443.769	1064.38
444.143	1075
444.518	1117.26
444.892	1085.17
445.267	1086.07
445.641	1075.9
446.016	1113.87
446.39	1114.55
446.764	1119.97
447.139	1144.15
447.513	1131.95
447.887	1125.17
448.262	1158.39
448.636	1161.78
449.01	1171.95
449.384	1180.53
449.758	1199.74
450.132	1215.79
450.506	1202.68
450.88	1205.39
451.254	1244.94
451.628	1223.24
452.002	1240.65
452.376	1256.24
452.75	1249.01
453.123	1265.96
453.497	1295.11
453.871	1294.66
454.244	1338.95
454.618	1344.6
454.992	1344.82
455.365	1342.79
455.739	1357.48
456.112	1362.45
456.486	1402.67
456.859	1400.64
457.232	1428.89
457.606	1415.1
457.979	1436.35
458.352	1445.39
458.725	1497.36
459.099	1490.81
459.472	1519.28
459.845	1539.62
460.218	1558.83
460.591	1554.31
460.964	1579.17
461.337	1603.57
461.71	1636.57
462.083	1637.02
462.456	1646.28
462.829	1603.8
463.201	1670.46
463.574	1664.36
463.947	1698.71
464.32	1708.43
464.692	1738.49
465.065	1762.44
465.438	1771.7
465.81	1794.08
466.183	1788.43
466.555	1813.96
466.928	1851.25
467.3	1869.56
467.672	1917.46
468.045	1922.89
468.417	1913.4
468.789	1937.35
469.161	1967.63
469.534	2007.63
469.906	2020.29
470.278	2024.35
470.65	2099.15
471.022	2082.88
471.394	2132.83
471.766	2124.69
472.138	2189.77
472.51	2220.05
472.882	2264.35
473.253	2255.76
473.625	2296.89
473.997	2340.28
474.369	2353.61
474.74	2378.47
475.112	2423.21
475.484	2446.26
475.855	2491.69
476.227	2486.04
476.598	2568.52
476.97	2568.52
477.341	2621.4
477.713	2675.41
478.084	2711.12
478.455	2759.02
478.827	2798.8
479.198	2845.35
479.569	2860.94
479.94	2923.09
480.311	2978.23
480.682	3004.67
481.053	3070.65
481.424	3106.36
481.795	3128.96
482.166	3206.24
482.537	3209.63
482.908	3270.65
483.279	3306.81
483.65	3354.49
484.021	3414.37
484.391	3473.81
484.762	3508.83
485.133	3559.23
485.503	3584.31
485.874	3692.33
486.244	3707.25
486.615	3736.17
486.985	3799.67
487.356	3840.35
487.726	3906.56
488.097	3957.41
488.467	3981.82
488.837	4023.4
489.207	4090.06
489.578	4153.34
489.948	4175.71
490.318	4232.66
490.688	4234.69
491.058	4302.03
491.428	4356.27
491.798	4427.68
492.168	4440.56
492.538	4516.72
492.908	4547
493.278	4588.58
493.648	4615.7
494.017	4692.76
494.387	4698.86
494.757	4752.42
495.126	4784.28
495.496	4795.58
495.866	4863.15
496.235	4906.09
496.605	4957.16
496.974	4985.86
497.344	5053.2
497.713	5065.4
498.082	5096.82
498.452	5092.07
498.821	5149.7
499.19	5211.84
499.559	5262.46
499.928	5285.28
500.298	5272.86
500.667	5370.25
501.036	5320.09
501.405	5429.24
501.774	5422.68
502.143	5442.79
502.512	5482.79
502.88	5548.1
503.249	5552.62
503.618	5612.96
503.987	5612.96
504.356	5635.33
504.724	5682.79
505.093	5695.44
505.462	5751.94
505.83	5845.5
506.199	5860.86
506.567	5843.46
506.936	5938.15
507.304	6006.4
507.672	5993.51
508.041	6077.13
508.409	6061.76
508.777	6143.79
509.145	6234.41
509.514	6189.22
509.882	6222.21
510.25	6300.17
510.618	6361.19
510.986	6347.63
511.354	6392.15
511.722	6391.24
512.09	6551.01
512.458	6493.39
512.826	6562.77
513.193	6610.22
513.561	6630.33
513.929	6696.77
514.297	6760.5
514.664	6783.78
515.032	6796.21
515.4	6903.77
515.767	6920.04
516.135	6888.63
516.502	6958.24
516.869	7031.91
517.237	7071.45
517.604	7075.52
517.972	7148.96
518.339	7223.99
518.706	7217.66
519.073	7326.59
519.44	7282.29
519.808	7402.07
520.175	7420.82
520.542	7518.9
520.909	7554.38
521.276	7595.73
521.643	7658.56
522.009	7795.28
522.376	7779.91
522.743	7867.59
523.11	7927.48
523.477	8041.82
523.843	8051.54
524.21	8108.94
524.577	8160.01
524.943	8247.69
525.31	8231.42
525.676	8346.22
526.043	8409.27
526.409	8494.92
526.776	8502.15
527.142	8570.62
527.508	8633.9
527.874	8685.87
528.241	8640.9
528.607	8771.97
528.973	8846.32
529.339	8794.8
529.705	8936.71
530.071	8981.91
530.437	9026.43
530.803	9103.72
531.169	9042.25
531.535	9168.8
531.901	9152.3
532.267	9237.95
532.632	9293.99
532.998	9399.53
533.364	9367.89
533.73	9433.88
534.095	9501.45
534.461	9526.98
534.826	9563.59
535.192	9607.88
535.557	9637.49
535.923	9614.89
536.288	9685.85
536.653	9780.31
537.019	9727.65
537.384	9853.07
537.749	9959.74
538.114	9886.75
538.479	9886.97
538.845	10057.81
539.21	9984.6
539.575	10036.35
539.94	10081.77
540.305	10169.68
540.67	10129.9
541.034	10136.23
541.399	10259.39
541.764	10252.16
542.129	10241.31
542.494	10257.36
542.858	10383
543.223	10436.11
543.587	10513.85
543.952	10495.32
544.316	10544.13
544.681	10525.82
545.045	10565.37
545.41	10630.23
545.774	10655.09
546.138	10684.01
546.503	10720.17
546.867	10693.96
547.231	10774.18
547.595	10936.44
547.959	10913.61
548.324	10853.73
548.688	10972.82
549.052	10985.7
549.416	10981.63
549.779	11027.28
550.143	11039.48
550.507	11119.03
550.871	11201.29
551.235	11108.86
551.599	11190.89
551.962	11249.65
552.326	11257.11
552.689	11349.53
553.053	11322.64
553.417	11359.93
553.78	11605.57
554.143	11454.84
554.507	11557.66
554.87	11598.34
555.234	11704.78
555.597	11639.69
555.96	11746.58
556.323	11804.89
556.686	11804.66
557.05	11869.29
557.413	11877.65
557.776	11941.61
558.139	12076.07
558.502	12048.5
558.865	12111.32
559.228	12161.71
559.59	12178.21
559.953	12237.42
560.316	12445.32
560.679	12431.31
561.041	12456.4
561.404	12482.16
561.767	12601.02
562.129	12508.37
562.492	12652.55
562.854	12707.01
563.217	12669.05
563.579	12815.26
563.941	12796.5
564.304	12929.15
564.666	12945.2
565.028	13105.42
565.39	13059.54
565.753	13140.45
566.115	13168.69
566.477	13136.83
566.839	13305.64
567.201	13374.34
567.563	13376.82
567.925	13484.84
568.287	13450.27
568.648	13496.59
569.01	13589.02
569.372	13692.97
569.734	13625.18
570.095	13761.45
570.457	13811.61
570.819	13838.51
571.18	13915.34
571.542	13993.76
571.903	13911.95
572.265	13996.69
572.626	14035.56
572.987	14059.97
573.349	14150.81
573.71	14161.89
574.071	14231.94
574.432	14239.17
574.794	14230.36
575.155	14307.42
575.516	14289.79
575.877	14346.06
576.238	14422.67
576.599	14477.81
576.96	14504.7
577.32	14398.72
577.681	14544.93
578.042	14590.58
578.403	14594.64
578.763	14625.6
579.124	14647.52
579.485	14608.43
579.845	14801.19
580.206	14669.9
580.566	14704.92
580.927	14702.21
581.287	14770.23
581.648	14732.04
582.008	14821.08
582.368	14774.07
582.728	14810.68
583.089	14781.08
583.449	14826.28
583.809	14891.81
584.169	14843.45
584.529	14848.88
584.889	14960.06
585.249	14857.01
585.609	14835.99
585.969	14962.32
586.329	14820.18
586.688	14932.71
587.048	14946.05
587.408	14928.2
587.768	14908.31
588.127	14868.08
588.487	14854.98
588.846	14938.82
589.206	14912.6
589.565	14906.73
589.925	14960.51
590.284	14842.77
590.643	14939.72
591.003	14957.12
591.362	14945.82
591.721	14891.59
592.08	14939.72
592.44	14935.65
592.799	14983.56
593.158	14962.77
593.517	14993.28
593.876	14991.7
594.235	14928.65
594.593	15000.28
594.952	15001.64
595.311	14954.18
595.67	14988.98
596.029	15033.95
596.387	15055.42
596.746	15065.14
597.104	15042.99
597.463	15037.12
597.822	15089.32
598.18	15061.98
598.538	15042.77
598.897	15201.18
599.255	15082.99
599.613	15284.8
599.972	15146.49
600.33	15126.16
600.688	15076.89
601.046	15214.97
601.404	15219.26
601.762	15201.41
602.12	15323.21
602.478	15284.8
602.836	15294.51
603.194	15262.65
603.552	15139.04
603.91	15214.74
604.268	15247.96
604.625	15297
604.983	15284.57
605.341	15310.56
605.698	15362.99
606.056	15388.07
606.413	15390.1
606.771	15431.23
607.128	15431.23
607.485	15365.25
607.843	15360.5
608.2	15495.86
608.557	15500.16
608.914	15432.14
609.272	15539.48
609.629	15571.34
609.986	15621.06
610.343	15457.22
610.7	15586.93
611.057	15581.51
611.414	15621.06
611.771	15600.72
612.127	15623.32
612.484	15623.32
612.841	15611.11
613.198	15588.06
613.554	15741.06
613.911	15673.71
614.267	15764.11
614.624	15667.38
614.98	15772.01
615.337	15732.02
615.693	15797.78
616.05	15870.77
616.406	15884.1
616.762	15889.07
617.118	15842.97
617.475	15922.07
617.831	15859.47
618.187	15885.68
618.543	15902.63
618.899	15975.85
619.255	15946.02
619.611	15976.3
619.967	15862.41
620.323	16040.26
620.678	15952.57
621.034	15965.23
621.39	15973.59
621.746	15942.86
622.101	16098.33
622.457	15971.11
622.812	16060.37
623.168	16104.89
623.523	16132.68
623.879	16121.84
624.234	15916.19
624.589	16089.97
624.945	16058.11
625.3	16047.49
625.655	16070.31
626.01	16133.14
626.365	16076.87
626.72	16049.07
627.075	16015.17
627.43	16005.45
627.785	15994.16
628.14	16039.58
628.495	16043.19
628.85	16025.12
629.205	15940.6
629.559	16028.28
629.914	15976.76
630.269	15991.22
630.623	15852.24
630.978	15836.65
631.332	15973.59
631.687	16009.07
632.041	15892.24
632.396	15959.58
632.75	15949.86
633.104	16004.78
633.459	15761.17
633.813	15729.3
634.167	15833.26
634.521	15834.16
634.875	15781.73
635.229	15805.69
635.583	15786.03
635.937	15829.64
636.291	15622.87
636.645	15624.67
636.999	15679.14
637.352	15735.63
637.706	15544.45
638.06	15625.8
638.413	15593.04
638.767	15528.18
639.121	15639.81
639.474	15501.97
639.828	15469.88
640.181	15494.28
640.534	15481.63
640.888	15417.9
641.241	15399.82
641.594	15436.88
641.947	15475.53
642.301	15381.52
642.654	15466.71
643.007	15388.97
643.36	15376.54
643.713	15440.5
644.066	15416.32
644.419	15301.29
644.771	15174.29
645.124	15068.76
645.477	14944.01
645.83	14879.61
646.182	14824.24
646.535	14800.51
646.888	14815.43
647.24	14746.5
647.593	14894.52
647.945	14830.8
648.298	14727.75
648.65	14712.38
649.002	14696.11
649.355	14716.45
649.707	14690.91
650.059	14718.03
650.411	14918.93
650.763	14847.75
651.115	15037.8
651.467	14990.79
651.819	14927.74
652.171	14934.52
652.523	14895.88
652.875	14892.26
653.227	14838.71
653.578	14974.07
653.93	14909.89
654.282	14863.56
654.633	14911.25
654.985	14853.85
655.337	14881.87
655.688	14891.36
656.039	14926.39
656.391	14764.81
656.742	14743.12
657.094	14763.91
657.445	14849.1
657.796	14780.4
658.147	14699.27
658.498	14753.06
658.849	14771.36
659.2	14715.09
659.551	14683.46
659.902	14764.58
660.253	14690.24
660.604	14677.81
660.955	14608.43
661.306	14696.11
661.656	14602.55
662.007	14685.26
662.358	14637.36
662.708	14692.5
663.059	14587.41
663.409	14535.66
663.76	14668.77
664.11	14680.29
664.461	14619.73
664.811	14571.59
665.161	14591.93
665.511	14576.11
665.862	14507.19
666.212	14638.49
666.562	14691.14
666.912	14535.66
667.262	14553.74
667.612	14503.57
667.962	14566.4
668.312	14548.54
668.662	14601.42
669.011	14551.03
669.361	14468.55
669.711	14527.98
670.06	14584.48
670.41	14404.14
670.76	14433.29
671.109	14517.13
671.459	14473.52
671.808	14441.43
672.157	14538.37
672.507	14395.55
672.856	14396.68
673.205	14444.14
673.554	14492.05
673.904	14380.19
674.253	14473.97
674.602	14415.89
674.951	14218.16
675.3	14123.92
675.649	14340.87
675.998	14350.58
676.346	14356.01
676.695	14401.88
677.044	14334.54
677.393	14284.6
677.741	14311.49
678.09	14297.25
678.438	14217.25
678.787	14273.07
679.135	14238.95
679.484	14146.52
679.832	14184.94
680.181	14113.3
680.529	14163.24
680.877	14082.12
681.225	14043.7
681.573	14186.07
681.922	14029.91
682.27	14063.59
682.618	14029.69
682.966	14041.44
683.314	13982.01
683.661	13920.09
684.009	13905.4
684.357	13895.68
684.705	13826.76
685.053	13876.25
685.4	13919.63
685.748	13795.57
686.095	13836.92
686.443	13764.61
686.79	13693.2
687.138	13710.6
687.485	13754.21
687.832	13638.51
688.18	13650.26
688.527	13659.98
688.874	13624.5
689.221	13594.44
689.568	13487.78
689.915	13508.35
690.262	13538.18
690.609	13485.52
690.956	13432.19
691.303	13389.7
691.65	13384.96
691.997	13315.36
692.344	13344.06
692.69	13260.44
693.037	13267
693.383	13086.21
693.73	13193.33
694.077	13043.27
694.423	13110.39
694.769	13017.74
695.116	13018.41
695.462	12985.42
695.808	12965.31
696.155	13024.06
696.501	12858.42
696.847	12835.14
697.193	12830.4
697.539	12879.21
697.885	12719.89
698.231	12701.13
698.577	12690.06
698.923	12652.55
699.269	12591.99
699.614	12492.1
699.96	12482.84
700.306	12518.31
700.651	12537.52
700.997	12478.99
701.342	12407.13
701.688	12311.09
702.033	12394.48
702.379	12302.73
702.724	12331.88
703.069	12408.04
703.415	12268.15
703.76	12239
704.105	12157.87
704.45	12189.06
704.795	12116.52
705.14	12085.11
705.485	12062.06
705.83	11968.05
706.175	12009.85
706.52	11935.96
706.865	11882.85
707.209	11887.6
707.554	11839.46
707.899	11919.69
708.243	11864.32
708.588	11826.36
708.932	11701.84
709.277	11741.16
709.621	11737.54
709.966	11620.03
710.31	11712.69
710.654	11572.13
710.998	11617.1
711.342	11616.64
711.687	11632.46
712.031	11542.3
712.375	11527.38
712.719	11504.78
713.063	11483.54
713.407	11545.23
713.75	11419.13
714.094	11485.8
714.438	11442.64
714.782	11450.77
715.125	11340.94
715.469	11352.7
715.812	11335.07
716.156	11311.34
716.499	11239.48
716.843	11223.89
717.186	11177.33
717.53	11192.93
717.873	11235.41
718.216	11162.64
718.559	11142.98
718.902	11058.01
719.246	11095.98
719.589	11113.61
719.932	11083.78
720.275	11049.88
720.617	11059.6
720.96	10954.06
721.303	10987.06
721.646	11043.33
721.989	10950.22
722.331	10948.41
722.674	10907.06
723.016	10905.93
723.359	10937.57
723.701	10951.8
724.044	10889.43
724.386	10778.93
724.729	10853.73
725.071	10777.12
725.413	10679.27
725.755	10718.14
726.097	10677.91
726.439	10674.3
726.782	10681.53
727.124	10672.71
727.465	10665.03
727.807	10641.08
728.149	10578.93
728.491	10594.07
728.833	10612.6
729.175	10625.26
729.516	10566.73
729.858	10517.01
730.199	10501.19
730.541	10474.3
730.882	10488.31
731.224	10580.51
731.565	10431.14
731.906	10397.92
732.248	10424.58
732.589	10413.51
732.93	10319.95
733.271	10370.35
733.612	10386.39
733.953	10383.91
734.294	10314.76
734.635	10364.25
734.976	10333.06
735.317	10202.44
735.658	10276.57
735.999	10290.8
736.339	10264.14
736.68	10289.67
737.021	10255.78
737.361	10167.19
737.702	10267.07
738.042	10176.68
738.383	10147.76
738.723	10248.09
739.063	10145.5
739.404	10139.85
739.744	10129
740.084	10069.34
740.424	10132.39
740.764	10076.12
741.104	10123.12
741.444	10098.49
741.784	9992.96
742.124	9995.22
742.464	10010.81
742.804	9989.12
743.143	9954.99
743.483	9990.47
743.823	9931.26
744.162	9925.16
744.502	9892.4
744.841	9845.84
745.181	9922.9
745.52	9799.52
745.86	9885.39
746.199	9764.26
746.538	9790.93
746.877	9798.39
747.216	9758.61
747.556	9775.79
747.895	9762.68
748.234	9718.16
748.573	9679.29
748.911	9673.42
749.25	9700.08
749.589	9635.9
749.928	9665.28
750.267	9576.47
750.605	9638.62
750.944	9572.18
751.283	9543.25
751.621	9597.94
751.96	9462.35
752.298	9464.61
752.636	9472.29
752.975	9481.11
753.313	9375.8
753.651	9521.56
753.989	9394.56
754.327	9411.05
754.666	9356.82
755.004	9373.99
755.342	9390.49
755.679	9312.98
756.017	9245.63
756.355	9353.2
756.693	9212.87
757.031	9256.25
757.368	9223.26
757.706	9204.05
758.044	9162.24
758.381	9177.61
758.719	9163.37
759.056	9110.27
759.394	9110.72
759.731	8968.8
760.068	9065.52
760.405	9025.07
760.743	8957.73
761.08	8997.73
761.417	8895.81
761.754	8794.8
762.091	8901.69
762.428	8872.31
762.765	8797.28
763.102	8857.62
763.438	8764.06
763.775	8741.69
764.112	8717.74
764.449	8739.88
764.785	8724.06
765.122	8652.65
765.458	8611.3
765.795	8583.73
766.131	8541.7
766.467	8539.44
766.804	8496.05
767.14	8428.93
767.476	8501.47
767.812	8465.09
768.148	8404.52
768.485	8377.63
768.821	8351.42
769.157	8340.8
769.492	8304.19
769.828	8342.83
770.164	8201.14
770.5	8230.52
770.836	8196.17
771.171	8211.76
771.507	8186.23
771.842	8093.57
772.178	8148.94
772.513	8045.44
772.849	8036.17
773.184	8061.03
773.519	7977.42
773.855	7943.29
774.19	7944.2
774.525	7859.45
774.86	7888.61
775.195	7864.88
775.53	7808.16
775.865	7741.72
776.2	7701.27
776.535	7669.4
776.87	7685.9
777.205	7708.27
777.539	7640.03
777.874	7636.86
778.209	7525.45
778.543	7539.46
778.878	7499.01
779.212	7519.35
779.547	7453.82
779.881	7463.53
780.215	7405.45
780.55	7417.43
780.884	7327.49
781.218	7359.13
781.552	7361.39
781.886	7280.71
782.22	7237.32
782.554	7254.27
782.888	7186.03
783.222	7195.74
783.556	7137.89
783.889	7130.66
784.223	7121.85
784.557	7056.31
784.89	7077.33
785.224	7035.07
785.557	7043.2
785.891	7006.14
786.224	7002.75
786.558	7010.66
786.891	6905.81
787.224	6935.64
787.557	6876.66
787.891	6868.75
788.224	6840.95
788.557	6793.27
788.89	6807.5
789.223	6791.01
789.556	6752.14
789.888	6721.18
790.221	6711.91
790.554	6658.81
790.887	6616.1
791.219	6651.8
791.552	6622.42
791.884	6602.99
792.217	6555.31
792.549	6553.95
792.882	6526.83
793.214	6472.37
793.546	6439.83
793.879	6462.2
794.211	6417.91
794.543	6474.63
794.875	6430.34
795.207	6410.23
795.539	6401.41
795.871	6382.43
796.203	6331.81
796.535	6286.61
796.867	6275.99
797.198	6252.04
797.53	6300.4
797.862	6241.87
798.193	6216.11
798.525	6173.4
798.856	6241.42
799.188	6134.08
799.519	6142.89
799.85	6042.55
800.182	6120.74
800.513	6070.12
800.844	6082.33
801.175	6074.87
801.506	6078.71
801.837	6030.58
802.168	6031.25
802.499	5949.67
802.83	5965.49
803.161	5920.3
803.491	5951.26
803.822	5923.91
804.153	5909.68
804.483	5819.73
804.814	5838.26
805.145	5821.99
805.475	5808.43
805.805	5852.95
806.136	5800.53
806.466	5812.95
806.796	5757.81
807.126	5753.52
807.457	5742.45
807.787	5728.21
808.117	5678.04
808.447	5722.11
808.777	5705.16
809.107	5633.52
809.436	5644.37
809.766	5650.25
810.096	5600.3
810.426	5578.84
810.755	5605.5
811.085	5625.61
811.414	5584.71
811.744	5542.91
812.073	5474.43
812.403	5499.06
812.732	5501.78
813.061	5505.62
813.39	5434.66
813.719	5457.94
814.049	5461.33
814.378	5452.96
814.707	5410.93
815.036	5441.44
815.365	5394.21
815.693	5379.29
816.022	5370.71
816.351	5319.41
816.68	5338.62
817.008	5277.38
817.337	5288.67
817.665	5306.98
817.994	5282.57
818.322	5230.14
818.651	5261.78
818.979	5238.51
819.307	5247.09
819.636	5229.47
819.964	5219.75
820.292	5235.12
820.62	5234.89
820.948	5222.46
821.276	5211.16
821.604	5194.67
821.932	5210.71
822.259	5226.98
822.587	5170.03
822.915	5217.49
823.243	5199.19
823.57	5198.73
823.898	5223.82
824.225	5177.04
824.553	5175.46
824.88	5152.86
825.207	5180.65
825.535	5196.47
825.862	5224.72
826.189	5157.15
826.516	5165.29
826.843	5191.95
827.17	5214.55
827.497	5219.52
827.824	5178.62
828.151	5190.37
828.478	5154.21
828.805	5213.87
829.131	5199.41
829.458	5182.24
829.785	5101.56
830.111	5158.73
830.438	5151.28
830.764	5143.59
831.09	5144.72
831.417	5105.85
831.743	5153.54
832.069	5153.76
832.395	5134.33
832.722	5150.37
833.048	5138.85
833.374	5121.67
833.7	5115.8
834.026	5117.38
834.351	5095.46
834.677	5099.98
835.003	5141.79
835.329	5165.74
835.654	5109.7
835.98	5074.22
836.306	5073.76
836.631	5098.17
836.956	5082.13
837.282	5076.02
837.607	5061.79
837.932	5014.56
838.258	5042.58
838.583	5085.74
838.908	5045.29
839.233	5051.62
839.558	4985.18
839.883	4991.06
840.208	4991.96
840.533	4938.63
840.858	5000.32
841.182	4964.62
841.507	4960.77
841.832	4925.07
842.156	4907.89
842.481	4911.28
842.805	4885.07
843.13	4984.05
843.454	4902.7
843.778	4863.37
844.103	4862.92
844.427	4868.12
844.751	4859.31
845.075	4842.58
845.399	4850.49
845.723	4823.38
846.047	4798.07
846.371	4773.21
846.695	4763.04
847.019	4749.25
847.343	4724.85
847.666	4685.07
847.99	4674.91
848.313	4632.87
848.637	4665.64
848.96	4630.61
849.284	4648.69
849.607	4614.34
849.931	4573.21
850.254	4571.86
850.577	4546.77
850.9	4531.86
851.223	4519.2
851.546	4490.96
851.869	4435.59
852.192	4456.38
852.515	4412.09
852.838	4437.17
853.161	4419.54
853.483	4388.59
853.806	4340.45
854.129	4368.7
854.451	4332.09
854.774	4363.5
855.096	4342.26
855.419	4288.02
855.741	4275.59
856.063	4280.57
856.385	4280.57
856.708	4241.47
857.03	4207.35
857.352	4302.26
857.674	4286.21
857.996	4235.59
858.318	4236.5
858.64	4204.41
858.961	4200.57
859.283	4196.95
859.605	4198.53
859.926	4188.59
860.248	4165.99
860.57	4118.76
860.891	4142.72
861.212	4149.27
861.534	4103.39
861.855	4129.16
862.176	4137.97
862.498	4142.49
862.819	4123.51
863.14	4057.52
863.461	4093.23
863.782	4042.15
864.103	4059.55
864.424	4065.88
864.745	4076.73
865.065	4048.03
865.386	4019.56
865.707	4027.01
866.027	4008.26
866.348	3993.79
866.668	3998.54
866.989	4020.46
867.309	3999.67
867.63	4028.14
867.95	3939.56
868.27	3950.18
868.59	3989.95
868.91	3962.38
869.23	3973.23
869.55	3989.27
869.87	3947.69
870.19	3998.99
870.51	3942.5
870.83	3899.11
871.15	3928.26
871.469	3886.68
871.789	3960.8
872.109	3928.71
872.428	3907.02
872.748	3885.1
873.067	3915.38
873.386	3855.72
873.706	3877.86
874.025	3874.25
874.344	3862.95
874.663	3855.04
874.982	3853.91
875.301	3847.36
875.62	3818.43
875.939	3858.66
876.258	3825.44
876.577	3842.38
876.896	3768.26
877.214	3814.59
877.533	3789.05
877.852	3803.97
878.17	3807.13
878.489	3789.5
878.807	3781.82
879.125	3811.88
879.444	3840.35
879.762	3745.21
880.08	3766.91
880.398	3753.8
880.716	3726.91
881.034	3743.18
881.352	3746.34
881.67	3696.85
881.988	3714.7
882.306	3735.72
882.624	3704.31
882.941	3714.93
883.259	3697.3
883.577	3709.28
883.894	3648.72
884.212	3678.1
884.529	3606.68
884.846	3600.36
885.164	3634.48
885.481	3636.51
885.798	3671.32
886.115	3632.67
886.432	3589.28
886.75	3604.88
887.067	3603.75
887.383	3629.06
887.7	3572.11
888.017	3554.03
888.334	3574.37
888.651	3551.77
888.967	3536.18
889.284	3491.21
889.6	3484.43
889.917	3472.68
890.233	3533.92
890.55	3495.5
890.866	3484.43
891.182	3478.55
891.498	3444.88
891.815	3459.8
892.131	3456.41
892.447	3454.37
892.763	3438.1
893.079	3431.77
893.395	3364.66
893.71	3432.68
894.026	3404.2
894.342	3423.64
894.657	3419.35
894.973	3381.61
895.289	3328.73
895.604	3358.1
895.92	3339.8
896.235	3300.25
896.55	3330.99
896.865	3343.41
897.181	3328.5
897.496	3300.93
897.811	3268.16
898.126	3303.19
898.441	3240.59
898.756	3305
899.071	3228.84
899.386	3186.81
899.7	3232.91
900.015	3200.14
900.33	3201.05
900.644	3173.25
900.959	3127.15
901.273	3173.48
901.588	3178.45
901.902	3128.51
902.216	3105
902.531	3140.93
902.845	3140.93
903.159	3091.44
903.473	3101.39
903.787	3084.21
904.101	3075.85
904.415	3054.61
904.729	3073.59
905.042	3043.99
905.356	3047.83
905.67	3039.24
905.984	2992.69
906.297	3039.02
906.611	3008.96
906.924	3038.79
907.237	2981.84
907.551	2975.74
907.864	2966.02
908.177	2935.52
908.491	2946.59
908.804	2952.24
909.117	2905.91
909.43	2921.96
909.743	2897.78
910.056	2868.63
910.368	2875.63
910.681	2865.24
910.994	2839.02
911.307	2819.59
911.619	2847.16
911.932	2830.89
912.244	2828.85
912.557	2797.21
912.869	2783.88
913.181	2762.19
913.494	2771
913.806	2750.66
914.118	2764.9
914.43	2728.29
914.742	2762.87
915.054	2723.32
915.366	2683.55
915.678	2714.73
915.99	2679.03
916.302	2688.97
916.613	2651.46
916.925	2648.74
917.236	2658.24
917.548	2638.12
917.859	2610.33
918.171	2622.3
918.482	2611
918.794	2617.78
919.105	2612.59
919.416	2567.84
919.727	2559.03
920.038	2589.08
920.349	2561.74
920.66	2553.38
920.971	2567.62
921.282	2518.13
921.593	2517
921.903	2521.97
922.214	2482.19
922.525	2480.61
922.835	2461.86
923.146	2458.24
923.456	2470.9
923.767	2438.35
924.077	2444.68
924.387	2449.43
924.697	2432.48
925.008	2430.44
925.318	2390.45
925.628	2403.33
925.938	2411.91
926.248	2390.22
926.558	2366.04
926.867	2355.19
927.177	2364.91
927.487	2359.03
927.796	2310.22
928.106	2328.75
928.416	2296.21
928.725	2321.29
929.034	2297.57
929.344	2280.84
929.653	2309.54
929.962	2281.07
930.271	2249.66
930.581	2237.68
930.89	2243.56
931.199	2200.39
931.508	2220.96
931.817	2217.57
932.125	2215.31
932.434	2193.16
932.743	2170.34
933.051	2167.4
933.36	2187.29
933.669	2176.44
933.977	2176.67
934.286	2159.27
934.594	2142.99
934.902	2159.94
935.21	2145.93
935.519	2069.78
935.827	2146.84
936.135	2098.48
936.443	2085.37
936.751	2077.01
937.059	2101.19
937.367	2038.82
937.674	2068.19
937.982	2042.88
938.29	2054.18
938.597	2070.68
938.905	2038.82
939.213	2040.85
939.52	1998.82
939.827	2015.31
940.135	2006.27
940.442	2019.16
940.749	1992.49
941.056	2005.82
941.363	1985.03
941.67	1984.58
941.977	1978.03
942.284	1954.75
942.591	1952.49
942.898	1937.58
943.205	1932.38
943.511	1934.19
943.818	1921.76
944.125	1916.79
944.431	1914.75
944.738	1865.26
945.044	1888.31
945.35	1874.08
945.657	1861.19
945.963	1856.45
946.269	1862.1
946.575	1865.71
946.881	1852.38
947.187	1862.1
947.493	1866.39
947.799	1804.25
948.105	1833.4
948.41	1792.27
948.716	1815.32
949.022	1804.7
949.327	1804.25
949.633	1804.47
949.938	1754.76
950.244	1757.02
950.549	1763.12
950.854	1776
951.16	1772.16
951.465	1721.99
951.77	1730.12
952.075	1732.38
952.38	1711.14
952.685	1737.13
952.99	1698.71
953.294	1726.96
953.599	1713.85
953.904	1672.27
954.209	1678.37
954.513	1688.32
954.818	1636.79
955.122	1665.94
955.426	1635.89
955.731	1668.88
956.035	1635.89
956.339	1615.78
956.643	1649.45
956.948	1641.31
957.252	1626.85
957.556	1618.49
957.86	1621.43
958.163	1594.53
958.467	1569
958.771	1606.74
959.075	1603.57
959.378	1598.38
959.682	1606.96
959.985	1568.32
960.289	1563.12
960.592	1552.28
960.896	1538.26
961.199	1545.04
961.502	1551.82
961.805	1534.2
962.108	1517.7
962.411	1551.15
962.714	1529.68
963.017	1526.06
963.32	1534.42
963.623	1518.6
963.926	1489.9
964.228	1495.78
964.531	1503.69
964.833	1461.88
965.136	1512.95
965.438	1492.16
965.741	1439.51
966.043	1469.79
966.345	1457.36
966.648	1439.96
966.95	1414.2
967.252	1441.77
967.554	1450.13
967.856	1434.09
968.158	1429.11
968.46	1411.49
968.761	1430.7
969.063	1413.97
969.365	1396.12
969.666	1401.77
969.968	1390.7
970.269	1385.05
970.571	1380.3
970.872	1382.79
971.174	1378.49
971.475	1354.09
971.776	1385.73
972.077	1356.57
972.378	1358.38
972.679	1349.8
972.98	1328.33
973.281	1340.53
973.582	1333.75
973.883	1336.69
974.183	1340.76
974.484	1346.86
974.785	1302.11
975.085	1295.11
975.386	1305.5
975.686	1298.72
975.986	1284.49
976.287	1278.16
976.587	1285.16
976.887	1263.47
977.187	1267.09
977.487	1264.37
977.787	1264.83
978.087	1270.93
978.387	1253.53
978.687	1245.84
978.987	1251.27
979.286	1211.04
979.586	1248.1
979.885	1268.89
980.185	1220.08
980.484	1210.14
980.784	1233.64
981.083	1225.73
981.382	1234.09
981.682	1231.61
981.981	1232.28
982.28	1221.89
982.579	1214.21
982.878	1204.71
983.177	1199.97
983.475	1164.49
983.774	1201.55
984.073	1170.59
984.372	1156.13
984.67	1174.43
984.969	1166.07
985.267	1190.03
985.566	1158.16
985.864	1159.29
986.162	1141.21
986.461	1155.68
986.759	1144.83
987.057	1103.7
987.355	1117.71
987.653	1105.73
987.951	1113.19
988.249	1113.87
988.547	1099.41
988.844	1105.96
989.142	1112.06
989.44	1119.52
989.737	1124.72
990.035	1082.91
990.332	1095.11
990.63	1083.81
990.927	1107.09
991.224	1078.84
991.521	1074.32
991.819	1058.96
992.116	1055.34
992.413	1054.44
992.71	1050.37
993.006	1041.55
993.303	1061.22
993.6	1070.71
993.897	1063.02
994.193	1057.83
994.49	1053.98
994.787	1009.46
995.083	991.16
995.379	1030.48
995.676	1011.95
995.972	987.32
996.268	1010.82
996.565	1033.87
996.861	984.83
997.157	993.65
997.453	995.91
997.749	994.32
998.044	1010.14
998.34	993.19
998.636	995.68
998.932	973.08
999.227	963.59
999.523	962.91
999.818	940.99
1000.114	938.28
1000.409	966.98
1000.704	933.53
1001	973.99
1001.295	913.65
1001.59	948.45
1001.885	938.28
1002.18	939.41
1002.475	943.48
1002.77	928.11
1003.065	946.64
1003.359	915.46
1003.654	915.23
1003.949	887.66
1004.243	898.06
1004.538	906.87
1004.832	890.37
1005.127	892.63
1005.421	883.59
1005.715	860.32
1006.009	894.67
1006.304	880.88
1006.598	875.91
1006.892	885.4
1007.186	876.14
1007.48	839.3
1007.773	871.39
1008.067	886.76
1008.361	869.13
1008.655	812.63
1008.948	850.15
1009.242	844.05
1009.535	837.94
1009.829	850.15
1010.122	835.91
1010.415	829.58
1010.708	834.55
1011.001	817.83
1011.295	835.23
1011.588	823.03
1011.881	819.64
1012.173	793.88
1012.466	820.54
1012.759	761.11
1013.052	788.91
1013.344	792.97
1013.637	780.77
1013.93	787.32
1014.222	771.51
1014.514	769.02
1014.807	765.18
1015.099	781.45
1015.391	761.11
1015.683	755.91
1015.976	753.88
1016.268	771.05
1016.56	772.86
1016.851	755.01
1017.143	731.96
1017.435	743.94
1017.727	743.71
1018.018	745.52
1018.31	736.7
1018.602	741.9
1018.893	737.83
1019.185	716.14
1019.476	709.13
1019.767	702.35
1020.058	709.81
1020.35	726.08
1020.641	714.78
1020.932	709.59
1021.223	704.16
1021.514	696.93
1021.804	680.89
1022.095	691.28
1022.386	689.7
1022.677	679.76
1022.967	679.98
1023.258	696.25
1023.548	656.48
1023.839	682.47
1024.129	667.55
1024.419	657.16
1024.709	672.07
1025	662.13
1025.29	642.69
1025.58	643.37
1025.87	651.06
1026.16	675.46
1026.449	660.32
1026.739	652.86
1027.029	631.17
1027.319	647.44
1027.608	638.85
1027.898	625.75
1028.187	636.14
1028.477	628.46
1028.766	616.93
1029.055	618.51
1029.344	631.85
1029.634	606.31
1029.923	628.01
1030.212	596.82
1030.501	617.16
1030.79	617.16
1031.078	604.73
1031.367	610.61
1031.656	600.66
1031.945	575.13
1032.233	584.62
1032.522	591.85
1032.81	565.63
1033.099	591.62
1033.387	590.72
1033.675	566.09
1033.963	577.61
1034.251	576.71
1034.54	565.41
1034.828	600.21
1035.116	572.41
1035.403	561.79
1035.691	560.21
1035.979	562.47
1036.267	562.7
1036.554	552.53
1036.842	545.52
1037.129	550.04
1037.417	533.55
1037.704	574.67
1037.992	551.17
1038.279	554.34
1038.566	558.4
1038.853	558.4
1039.14	558.4
