Data from black_metal_pc_casing_FLMS001491_00067.txt Node
Date: Wed Feb 08 14:33:19 GMT 2017
User: dcchb
Spectrometer: FLMS00149
Trigger mode: 0
Integration Time (sec): 2.000000E-2
Scans to average: 10
Electric dark correction enabled: true
Nonlinearity correction enabled: false
Boxcar width: 0
XAxis mode: Wavelengths
Number of Pixels in Spectrum: 2048
>>>>>Begin Spectral Data<<<<<
341.393	-23.83
341.776	-23.83
342.16	-23.83
342.543	-48.23
342.927	-72.64
343.31	-68.57
343.693	-77.61
344.077	-63.15
344.46	-69.02
344.843	-50.94
345.226	-36.26
345.61	-36.26
345.993	-17.5
346.376	-7.56
346.759	7.81
347.142	46
347.525	52.1
347.908	46.68
348.291	61.14
348.674	108.82
349.057	104.31
349.44	133
349.823	137.52
350.206	161.7
350.588	168.48
350.971	184.76
351.354	203.06
351.737	224.75
352.119	230.86
352.502	251.65
352.884	257.52
353.267	274.24
353.65	287.58
354.032	247.8
354.414	319.44
354.797	296.16
355.179	312.89
355.562	306.56
355.944	314.47
356.326	337.07
356.709	327.8
357.091	325.99
357.473	323.73
357.855	342.04
358.238	321.02
358.62	323.96
359.002	312.89
359.384	344.98
359.766	324.64
360.148	339.55
360.53	325.77
360.912	334.58
361.294	325.54
361.676	312.21
362.057	321.02
362.439	325.09
362.821	326.67
363.203	342.94
363.584	321.25
363.966	313.34
364.348	308.82
364.729	305.66
365.111	300.91
365.493	318.31
365.874	302.94
366.256	302.94
366.637	292.77
367.019	311.98
367.4	304.75
367.781	294.13
368.163	283.06
368.544	324.41
368.925	298.88
369.306	314.92
369.688	303.62
370.069	306.33
370.45	313.11
370.831	290.06
371.212	288.71
371.593	274.92
371.974	322.83
372.355	318.31
372.736	312.89
373.117	318.31
373.498	305.66
373.879	324.41
374.26	306.33
374.641	320.57
375.021	274.92
375.402	305.43
375.783	333
376.163	312.21
376.544	325.32
376.925	315.6
377.305	303.85
377.686	296.62
378.066	317.63
378.447	339.1
378.827	334.36
379.208	330.29
379.588	323.06
379.968	320.12
380.349	323.28
380.729	335.49
381.109	327.58
381.489	343.85
381.87	340.68
382.25	320.57
382.63	343.17
383.01	356.5
383.39	342.27
383.77	346.11
384.15	344.07
384.53	346.33
384.91	338.42
385.29	356.73
385.67	344.98
386.049	346.78
386.429	337.29
386.809	349.72
387.189	379.33
387.568	354.24
387.948	367.12
388.328	346.33
388.707	367.12
389.087	360.8
389.466	373.9
389.846	386.56
390.225	390.17
390.605	380.68
390.984	354.47
391.363	349.72
391.743	378.2
392.122	376.16
392.501	402.83
392.881	376.39
393.26	389.04
393.639	403.51
394.018	363.73
394.397	410.96
394.776	410.29
395.155	387.91
395.534	380.46
395.913	390.17
396.292	404.64
396.671	411.64
397.05	402.83
397.429	419.78
397.808	416.16
398.186	404.41
398.565	416.16
398.944	408.93
399.323	430.62
399.701	415.94
400.08	410.06
400.458	428.82
400.837	441.7
401.215	446.9
401.594	416.39
401.972	439.44
402.351	436.05
402.729	447.12
403.107	436.05
403.486	425.43
403.864	447.57
404.242	448.93
404.62	435.6
404.999	460.45
405.377	453.22
405.755	437.18
406.133	461.36
406.511	461.13
406.889	462.26
407.267	457.29
407.645	471.75
408.023	462.94
408.401	486.89
408.779	481.24
409.156	475.37
409.534	482.37
409.912	504.97
410.29	484.41
410.667	489.38
411.045	531.86
411.422	510.4
411.8	522.6
412.178	506.55
412.555	524.41
412.933	535.25
413.31	536.61
413.687	540.68
414.065	518.98
414.442	527.8
414.819	554.69
415.197	531.64
415.574	558.08
415.951	538.87
416.328	558.3
416.705	550.62
417.082	571.64
417.46	561.92
417.837	564.86
418.214	545.65
418.591	550.85
418.967	573.22
419.344	571.41
419.721	598.53
420.098	563.28
420.475	584.29
420.852	608.25
421.228	610.96
421.605	571.41
421.982	609.15
422.358	605.08
422.735	605.31
423.111	608.7
423.488	615.48
423.864	645.76
424.241	650.73
424.617	634.01
424.994	648.7
425.37	653.22
425.746	648.92
426.123	652.31
426.499	652.77
426.875	657.28
427.251	656.38
427.627	692.76
428.003	674.01
428.379	687.34
428.756	711.07
429.132	711.97
429.507	708.36
429.883	703.84
430.259	715.36
430.635	723.05
431.011	735.25
431.387	736.6
431.763	760.56
432.138	742.25
432.514	747
432.89	747
433.265	774.34
433.641	778.41
434.016	783.61
434.392	792.65
434.767	802.14
435.143	808.24
435.518	831.07
435.894	805.53
436.269	848.69
436.644	831.74
437.02	851.18
437.395	830.61
437.77	848.47
438.145	864.51
438.52	855.7
438.895	870.61
439.271	832.65
439.646	883.49
440.021	886.66
440.395	897.28
440.77	893.44
441.145	908.8
441.52	931.4
441.895	908.58
442.27	897.96
442.645	916.71
443.019	950.16
443.394	921.23
443.769	930.05
444.143	927.11
444.518	952.87
444.892	960.55
445.267	975.69
445.641	977.5
446.016	963.49
446.39	972.3
446.764	985.86
447.139	969.37
447.513	991.74
447.887	987.67
448.262	961.46
448.636	1009.59
449.01	1018.18
449.384	1041.23
449.758	1012.98
450.132	1018.86
450.506	1026.31
450.88	1045.98
451.254	1047.56
451.628	1033.77
452.002	1054.56
452.376	1095.92
452.75	1091.4
453.123	1094.79
453.497	1095.69
453.871	1103.37
454.244	1125.07
454.618	1144.5
454.992	1160.32
455.365	1128.91
455.739	1176.82
456.112	1213.43
456.486	1182.02
456.859	1201.45
457.232	1234.44
457.606	1241.22
457.979	1233.54
458.352	1252.52
458.725	1252.75
459.099	1277.61
459.472	1288.23
459.845	1305.86
460.218	1307.44
460.591	1331.39
460.964	1345.18
461.337	1350.83
461.71	1350.15
462.083	1386.31
462.456	1385.18
462.829	1404.61
463.201	1429.02
463.574	1430.15
463.947	1449.13
464.32	1473.53
464.692	1483.93
465.065	1476.7
465.438	1512.86
465.81	1529.35
466.183	1541.1
466.555	1554.21
466.928	1571.61
467.3	1559.41
467.672	1585.4
468.045	1639.41
468.417	1615.68
468.789	1635.34
469.161	1662.68
469.534	1681.21
469.906	1716.24
470.278	1715.56
470.65	1731.38
471.022	1771.83
471.394	1784.94
471.766	1826.07
472.138	1838.72
472.51	1837.37
472.882	1910.36
473.253	1892.28
473.625	1930.25
473.997	1960.75
474.369	1953.97
474.74	2003.69
475.112	2002.33
475.484	2041.2
475.855	2111.03
476.227	2120.07
476.598	2165.49
476.97	2182.67
477.341	2184.48
477.713	2234.42
478.084	2222.22
478.455	2293.17
478.827	2323.46
479.198	2362.32
479.569	2394.19
479.94	2439.39
480.311	2488.42
480.682	2517.35
481.053	2589.44
481.424	2611.13
481.795	2594.86
482.166	2669.89
482.537	2665.82
482.908	2717.34
483.279	2767.74
483.65	2784.91
484.021	2853.39
484.391	2899.94
484.762	2903.78
485.133	2979.94
485.503	2966.83
485.874	3048.63
486.244	3061.29
486.615	3117.79
486.985	3133.38
487.356	3213.83
487.726	3223.09
488.097	3272.81
488.467	3311.45
488.837	3330.21
489.207	3394.16
489.578	3443.2
489.948	3490.2
490.318	3514.38
490.688	3527.04
491.058	3578.11
491.428	3621.27
491.798	3664.21
492.168	3725.45
492.538	3762.74
492.908	3809.07
493.278	3830.76
493.648	3849.74
494.017	3879.35
494.387	3889.97
494.757	3966.8
495.126	3988.27
495.496	4021.26
495.866	4080.7
496.235	4132.9
496.605	4088.83
496.974	4156.18
497.344	4182.62
497.713	4191.66
498.082	4267.36
498.452	4255.61
498.821	4332.67
499.19	4283.4
499.559	4375.61
499.928	4368.37
500.298	4385.77
500.667	4396.17
501.036	4477.75
501.405	4513.68
501.774	4529.73
502.143	4564.53
502.512	4574.24
502.88	4585.54
503.249	4583.74
503.618	4635.03
503.987	4685.43
504.356	4692.21
504.724	4762.49
505.093	4739.66
505.462	4760.45
505.83	4795.03
506.199	4838.64
506.567	4879.55
506.936	4887.91
507.304	4972.65
507.672	4987.11
508.041	5046.55
508.409	5019.2
508.777	5077.96
509.145	5106.21
509.514	5164.51
509.882	5164.74
510.25	5181.69
510.618	5230.5
510.986	5281.34
511.354	5288.58
511.722	5358.63
512.09	5348.91
512.458	5385.97
512.826	5430.27
513.193	5479.98
513.561	5522.92
513.929	5563.14
514.297	5605.18
514.664	5601.34
515.032	5662.8
515.4	5658.28
515.767	5715.91
516.135	5785.96
516.502	5708.23
516.869	5880.88
517.237	5876.36
517.604	5825.51
517.972	5949.12
518.339	5963.59
518.706	6044.49
519.073	6019.63
519.44	6079.97
519.808	6140.53
520.175	6131.49
520.542	6218.27
520.909	6261.66
521.276	6259.17
521.643	6344.14
522.009	6378.49
522.376	6467.08
522.743	6524.7
523.11	6534.64
523.477	6554.53
523.843	6597.92
524.21	6686.5
524.577	6767.41
524.943	6809.21
525.31	6830.46
525.676	6916.1
526.043	6868.42
526.409	6971.47
526.776	7070.22
527.142	7061.41
527.508	7088.75
527.874	7143.44
528.241	7265.02
528.607	7187.06
528.973	7274.29
529.339	7334.17
529.705	7375.75
530.071	7362.65
530.437	7418.92
530.803	7450.78
531.169	7526.71
531.535	7526.71
531.901	7596.99
532.267	7605.12
532.632	7672.02
532.998	7729.64
533.364	7741.39
533.73	7780.04
534.095	7844.21
534.461	7898.45
534.826	7853.25
535.192	7976.19
535.557	8018
535.923	8083.3
536.288	8025.23
536.653	8111.55
537.019	8117.88
537.384	8133.92
537.749	8127.37
538.114	8201.95
538.479	8193.81
538.845	8275.84
539.21	8266.8
539.575	8235.39
539.94	8292.34
540.305	8411.21
540.67	8340.7
541.034	8395.39
541.399	8454.14
541.764	8431.32
542.129	8486.23
542.494	8488.04
542.858	8513.12
543.223	8566.46
543.587	8618.66
543.952	8606.23
544.316	8595.16
544.681	8619.79
545.045	8728.94
545.41	8757.86
545.774	8810.06
546.138	8754.93
546.503	8775.49
546.867	8814.81
547.231	8866.79
547.595	8857.52
547.959	8967.12
548.324	9025.88
548.688	9003.51
549.052	9017.97
549.416	9055.48
549.779	9085.09
550.143	9077.18
550.507	9179.32
550.871	9157.17
551.235	9196.27
551.599	9226.33
551.962	9225.87
552.326	9367.56
552.689	9307
553.053	9304.29
553.417	9422.03
553.78	9449.14
554.143	9468.8
554.507	9505.64
554.87	9558.75
555.234	9659.08
555.597	9602.59
555.96	9654.79
556.323	9727.1
556.686	9729.81
557.05	9796.93
557.413	9720.1
557.776	9810.49
558.139	9843.71
558.502	9898.4
558.865	9877.38
559.228	10039.19
559.59	10004.61
559.953	10033.54
560.316	10131.16
560.679	10223.59
561.041	10144.04
561.404	10270.59
561.767	10379.52
562.129	10295.22
562.492	10442.11
562.854	10373.64
563.217	10396.01
563.579	10506.52
563.941	10524.14
564.304	10587.42
564.666	10630.36
565.028	10707.19
565.39	10679.62
565.753	10781.31
566.115	10714.87
566.477	10849.56
566.839	10878.71
567.201	10926.85
567.563	10989.44
567.925	10990.57
568.287	11071.02
568.648	11040.29
569.01	11176.33
569.372	11258.59
569.734	11216.33
570.095	11252.71
570.457	11231.47
570.819	11308.53
571.18	11311.24
571.542	11388.3
571.903	11393.5
572.265	11488.19
572.626	11517.34
572.987	11492.48
573.349	11561.63
573.71	11552.14
574.071	11590.56
574.432	11701.29
574.794	11794.17
575.155	11687.73
575.516	11695.19
575.877	11743.55
576.238	11789.87
576.599	11864.22
576.96	11800.27
577.32	11883.43
577.681	11876.88
578.042	11924.56
578.403	11882.98
578.763	11911.9
579.124	11927.05
579.485	11992.35
579.845	12000.94
580.206	11943.77
580.566	12005.69
580.927	12036.19
581.287	12181.5
581.648	12103.99
582.008	12058.79
582.368	12099.02
582.728	12035.97
583.089	12104.89
583.449	12129.53
583.809	12172.24
584.169	12143.31
584.529	12102.63
584.889	12187.38
585.249	12022.64
585.609	12068.74
585.969	12201.16
586.329	12136.98
586.688	12110.54
587.048	12158.9
587.408	12108.51
587.768	12142.41
588.127	12119.36
588.487	12135.85
588.846	12240.94
589.206	12133.82
589.565	12171.11
589.925	12198.45
590.284	12226.25
590.643	12176.98
591.003	12183.99
591.362	12279.58
591.721	12222.63
592.08	12270.76
592.44	12312.57
592.799	12289.97
593.158	12251.33
593.517	12220.6
593.876	12245.68
594.235	12259.01
594.593	12205
594.952	12282.29
595.311	12254.49
595.67	12276.41
596.029	12338.79
596.387	12285.45
596.746	12324.55
597.104	12320.48
597.463	12296.53
597.822	12311.89
598.18	12304.44
598.538	12338.56
598.897	12388.28
599.255	12268.51
599.613	12519.8
599.972	12374.27
600.33	12375.17
600.688	12356.19
601.046	12436.64
601.404	12535.84
601.762	12359.35
602.12	12443.42
602.478	12505.56
602.836	12570.42
603.194	12467.37
603.552	12432.57
603.91	12491.32
604.268	12474.83
604.625	12525
604.983	12523.19
605.341	12440.48
605.698	12598.44
606.056	12557.09
606.413	12646.35
606.771	12652.22
607.128	12550.76
607.485	12608.84
607.843	12609.74
608.2	12625.56
608.557	12700.13
608.914	12688.83
609.272	12755.5
609.629	12682.05
609.986	12739.91
610.343	12694.26
610.7	12690.19
611.057	12743.07
611.414	12819.23
611.771	12845.21
612.127	12824.2
612.484	12914.59
612.841	12880.69
613.198	12816.74
613.554	12845.89
613.911	12931.09
614.267	12966.11
614.624	12872.33
614.98	12888.15
615.337	13021.48
615.693	12965.89
616.05	12958.88
616.406	13064.42
616.762	12947.36
617.118	13033.46
617.475	12927.92
617.831	13080.24
618.187	12997.3
618.543	13007.02
618.899	13065.32
619.255	13073.68
619.611	13086.56
619.967	13139.67
620.323	13149.39
620.678	13102.61
621.034	13045.66
621.39	13067.58
621.746	13040.24
622.101	13239.55
622.457	13133.79
622.812	13092.44
623.168	13160.46
623.523	13161.14
623.879	13161.36
624.234	13033.23
624.589	13114.13
624.945	13139.44
625.3	13161.59
625.655	13149.84
626.01	13097.86
626.365	13148.03
626.72	13066.22
627.075	13121.82
627.43	13117.75
627.785	13018.09
628.14	13105.32
628.495	13131.99
628.85	13111.42
629.205	13030.52
629.559	13136.73
629.914	13074.81
630.269	13081.37
630.623	13089.05
630.978	12984.42
631.332	13051.99
631.687	13118.88
632.041	12993.23
632.396	13001.14
632.75	12957.53
633.104	12996.62
633.459	12974.48
633.813	12948.26
634.167	12977.19
634.521	12900.8
634.875	12944.19
635.229	12803.18
635.583	12822.39
635.937	12832.33
636.291	12863.97
636.645	12779.45
636.999	12778.1
637.352	12780.81
637.706	12764.76
638.06	12788.49
638.413	12801.15
638.767	12733.13
639.121	12778.32
639.474	12686.12
639.828	12582.85
640.181	12696.74
640.534	12703.75
640.888	12620.36
641.241	12600.7
641.594	12655.61
641.947	12689.28
642.301	12623.75
642.654	12568.61
643.007	12622.39
643.36	12582.85
643.713	12588.72
644.066	12661.49
644.419	12477.31
644.771	12424.89
645.124	12280.71
645.477	12262.4
645.83	12308.28
646.182	12111.22
646.535	12106.7
646.888	12047.27
647.24	12027.38
647.593	12138.11
647.945	12050.43
648.298	12009.08
648.65	12020.83
649.002	11974.95
649.355	12039.13
649.707	11975.86
650.059	12051.56
650.411	12277.32
650.763	12214.72
651.115	12290.88
651.467	12321.61
651.819	12353.25
652.171	12274.61
652.523	12272.8
652.875	12205.46
653.227	12250.65
653.578	12233.25
653.93	12174.5
654.282	12173.82
654.633	12171.56
654.985	12194.61
655.337	12199.58
655.688	12128.85
656.039	12202.29
656.391	12149.86
656.742	12119.36
657.094	12148.96
657.445	12132.69
657.796	12077.55
658.147	12087.27
658.498	12053.6
658.849	12088.85
659.2	12079.13
659.551	12084.78
659.902	12070.09
660.253	12079.13
660.604	12076.42
660.955	11985.57
661.306	12048.17
661.656	11992.58
662.007	12025.35
662.358	11950.1
662.708	12036.87
663.059	11957.55
663.409	11963.65
663.76	12051.11
664.11	11937.67
664.461	11972.02
664.811	11959.81
665.161	11999.59
665.511	11890.89
665.862	11870.1
666.212	11973.37
666.562	11927.72
666.912	11921.85
667.262	11913.71
667.612	11886.82
667.962	11966.14
668.312	11833.94
668.662	12050.66
669.011	11857.44
669.361	11868.29
669.711	11788.07
670.06	11860.38
670.41	11904.22
670.76	11865.35
671.109	11850.89
671.459	11885.01
671.808	11880.27
672.157	11869.19
672.507	11773.15
672.856	11711.23
673.205	11748.97
673.554	11772.02
673.904	11751.91
674.253	11774.73
674.602	11801.4
674.951	11638.01
675.3	11606.6
675.649	11792.13
675.998	11752.59
676.346	11680.27
676.695	11748.97
677.044	11662.42
677.393	11667.39
677.741	11661.74
678.09	11636.43
678.438	11666.04
678.787	11609.99
679.135	11694.28
679.484	11595.08
679.832	11625.13
680.181	11551.01
680.529	11624
680.877	11558.92
681.225	11573.16
681.573	11661.06
681.922	11508.75
682.27	11427.85
682.618	11414.29
682.966	11524.12
683.314	11471.92
683.661	11423.1
684.009	11257.91
684.357	11353.05
684.705	11350.34
685.053	11414.97
685.4	11260.17
685.748	11230.11
686.095	11241.64
686.443	11284.35
686.79	11224.01
687.138	11204.13
687.485	11195.31
687.832	11203.22
688.18	11158.48
688.527	11113.06
688.874	11131.81
689.221	11072.6
689.568	11105.15
689.915	10998.71
690.262	11015.2
690.609	10988.09
690.956	11021.76
691.303	10934.98
691.65	10874.19
691.997	10904.02
692.344	10828.09
692.69	10732.05
693.037	10862.21
693.383	10696.12
693.73	10754.65
694.077	10692.73
694.423	10724.82
694.769	10636.91
695.116	10645.95
695.462	10641.88
695.808	10584.48
696.155	10602.56
696.501	10568.66
696.847	10549.23
697.193	10407.99
697.539	10531.38
697.885	10424.49
698.231	10437.14
698.577	10433.53
698.923	10351.95
699.269	10263.13
699.614	10318.95
699.96	10283.7
700.306	10310.36
700.651	10212.29
700.997	10230.14
701.342	10156.47
701.688	10195.34
702.033	10088.9
702.379	10122.35
702.724	10100.65
703.069	10079.41
703.415	9977.49
703.76	10031.73
704.105	10067.43
704.45	10014.55
704.795	9995.34
705.14	9910.83
705.485	9859.53
705.83	9778.85
706.175	9816.37
706.52	9805.52
706.865	9837.38
707.209	9753.09
707.554	9746.54
707.899	9731.4
708.243	9667.9
708.588	9706.54
708.932	9631.06
709.277	9673.09
709.621	9663.6
709.966	9584.51
710.31	9607.11
710.654	9481.23
710.998	9574.11
711.342	9485.53
711.687	9530.72
712.031	9402.59
712.375	9409.6
712.719	9474.23
713.063	9392.65
713.407	9416.6
713.75	9344.74
714.094	9396.94
714.438	9373.44
714.782	9341.12
715.125	9334.12
715.469	9399.2
715.812	9328.7
716.156	9224.74
716.499	9259.32
716.843	9247.34
717.186	9266.55
717.53	9216.83
717.873	9203.73
718.216	9213.9
718.559	9166.21
718.902	9100.68
719.246	9159.66
719.589	9061.58
719.932	9026.56
720.275	9063.17
720.617	9056.39
720.96	9022.71
721.303	9002.38
721.646	9062.94
721.989	8962.6
722.331	8983.17
722.674	8960.12
723.016	8941.13
723.359	8929.61
723.701	8999.89
724.044	8862.27
724.386	8814.58
724.729	8847.8
725.071	8779.33
725.413	8853.68
725.755	8847.8
726.097	8837.18
726.439	8823.62
726.782	8765.77
727.124	8824.3
727.465	8754.02
727.807	8798.54
728.149	8667.92
728.491	8722.61
728.833	8667.47
729.175	8636.74
729.516	8583.63
729.858	8662.05
730.199	8614.59
730.541	8613.23
730.882	8606
731.224	8581.37
731.565	8537.3
731.906	8536.4
732.248	8559.45
732.589	8474.93
732.93	8476.74
733.271	8533.46
733.612	8463.41
733.953	8507.93
734.294	8495.27
734.635	8445.1
734.976	8514.93
735.317	8420.7
735.658	8409.62
735.999	8455.05
736.339	8329.63
736.68	8354.03
737.021	8400.36
737.361	8351.32
737.702	8349.51
738.042	8362.39
738.383	8276.29
738.723	8365.1
739.063	8326.91
739.404	8320.13
739.744	8305.9
740.084	8300.7
740.424	8227.03
740.764	8262.51
741.104	8340.25
741.444	8208.5
741.784	8162.62
742.124	8245.33
742.464	8211.89
742.804	8173.7
743.143	8161.72
743.483	8152.68
743.823	8094.38
744.162	8117.2
744.502	8140.25
744.841	8119.46
745.181	8124.43
745.52	8083.76
745.86	8057.54
746.199	8116.52
746.538	8036.07
746.877	8065.23
747.216	8049.86
747.556	8033.14
747.895	7932.35
748.234	7971.67
748.573	7947.04
748.911	7911.11
749.25	8014.15
749.589	7882.18
749.928	7913.59
750.267	7930.31
750.605	7863.2
750.944	7850.54
751.283	7824.1
751.621	7846.7
751.96	7796.53
752.298	7781.17
752.636	7818.45
752.975	7743.43
753.313	7728.96
753.651	7817.77
753.989	7721.51
754.327	7675.18
754.666	7604.9
755.004	7685.35
755.342	7687.38
755.679	7656.65
756.017	7647.84
756.355	7576.2
756.693	7572.58
757.031	7567.84
757.368	7576.88
757.706	7526.26
758.044	7592.02
758.381	7569.19
758.719	7487.61
759.056	7475.64
759.394	7491.91
759.731	7412.14
760.068	7382.98
760.405	7360.84
760.743	7340.5
761.08	7406.94
761.417	7308.86
761.754	7309.54
762.091	7307.28
762.428	7250.33
762.765	7238.58
763.102	7237.9
763.438	7150.9
763.775	7207.4
764.112	7210.56
764.449	7173.5
764.785	7098.7
765.122	7097.79
765.458	7039.49
765.795	7057.79
766.131	7044.91
766.467	7043.56
766.804	7012.15
767.14	6977.8
767.476	6924.46
767.812	6887.86
768.148	6925.59
768.485	6898.7
768.821	6798.82
769.157	6855.09
769.492	6860.96
769.828	6812.15
770.164	6744.58
770.5	6770.12
770.836	6730.12
771.171	6698.03
771.507	6724.02
771.842	6588.2
772.178	6700.97
772.513	6625.94
772.849	6638.14
773.184	6600.18
773.519	6549.33
773.855	6539.84
774.19	6545.27
774.525	6463.23
774.86	6538.71
775.195	6448.09
775.53	6450.58
775.865	6476.57
776.2	6410.13
776.535	6249.23
776.87	6308.21
777.205	6291.49
777.539	6296.46
777.874	6328.32
778.209	6203.81
778.543	6196.8
778.878	6147.54
779.212	6222.11
779.547	6120.64
779.881	6181.43
780.215	6102.11
780.55	6147.54
780.884	6069.12
781.218	6054.66
781.552	6051.04
781.886	6010.82
782.22	5958.39
782.554	5969.46
782.888	5917.49
783.222	5867.09
783.556	5924.27
783.889	5898.73
784.223	5881.55
784.557	5830.03
784.89	5825.96
785.224	5782.57
785.557	5760.2
785.891	5723.82
786.224	5780.54
786.558	5697.6
786.891	5709.36
787.224	5684.27
787.557	5689.02
787.891	5654.67
788.224	5625.29
788.557	5669.36
788.89	5603.6
789.223	5603.37
789.556	5532.86
789.888	5543.48
790.221	5525.41
790.554	5506.2
790.887	5501.68
791.219	5473.88
791.552	5470.49
791.884	5405.63
792.217	5407.22
792.549	5373.32
792.882	5378.52
793.214	5347.56
793.546	5332.42
793.879	5264.62
794.211	5265.75
794.543	5304.17
794.875	5275.24
795.207	5274.79
795.539	5218.52
795.871	5287.67
796.203	5208.8
796.535	5182.82
796.867	5170.39
797.198	5179.43
797.53	5182.36
797.862	5112.08
798.193	5134
798.525	5078.64
798.856	5125.64
799.188	5044.97
799.519	4994.35
799.85	5029.83
800.182	5037.96
800.513	5035.25
800.844	4999.77
801.175	4980.56
801.506	4997.74
801.837	4986.21
802.168	4963.16
802.499	4930.84
802.83	4917.96
803.161	4902.15
803.491	4936.27
803.822	4874.8
804.153	4872.77
804.483	4824.63
804.814	4808.36
805.145	4854.01
805.475	4812.66
805.805	4767.01
806.136	4818.76
806.466	4759.55
806.796	4723.17
807.126	4723.39
807.457	4731.75
807.787	4753
808.117	4703.28
808.447	4680.91
808.777	4700.34
809.107	4677.29
809.436	4651.76
809.766	4655.15
810.096	4673.22
810.426	4636.62
810.755	4600.46
811.085	4611.08
811.414	4629.38
811.744	4544.41
812.073	4544.87
812.403	4540.57
812.732	4487.69
813.061	4572.21
813.39	4524.08
813.719	4520.23
814.049	4506
814.378	4503.29
814.707	4489.05
815.036	4464.87
815.365	4428.03
815.693	4419.9
816.022	4414.93
816.351	4407.69
816.68	4402.72
817.008	4423.74
817.337	4395.27
817.665	4402.72
817.994	4405.66
818.322	4378.77
818.651	4334.25
818.979	4324.76
819.307	4401.82
819.636	4324.99
819.964	4334.02
820.292	4355.72
820.62	4331.31
820.948	4328.83
821.276	4291.54
821.604	4289.96
821.932	4311.65
822.259	4294.48
822.587	4322.73
822.915	4340.13
823.243	4308.26
823.57	4280.47
823.898	4302.16
824.225	4238.21
824.553	4282.5
824.88	4237.08
825.207	4307.13
825.535	4300.13
825.862	4301.48
826.189	4272.33
826.516	4302.61
826.843	4314.14
827.17	4310.97
827.497	4319.79
827.824	4249.73
828.151	4276.62
828.478	4267.36
828.805	4277.98
829.131	4270.52
829.458	4281.14
829.785	4230.52
830.111	4321.6
830.438	4263.97
830.764	4270.75
831.09	4292.67
831.417	4240.69
831.743	4235.95
832.069	4235.72
832.395	4242.73
832.722	4259.22
833.048	4286.57
833.374	4240.69
833.7	4284.76
834.026	4257.87
834.351	4207.47
834.677	4213.58
835.003	4221.49
835.329	4217.19
835.654	4184.2
835.98	4196.63
836.306	4172.22
836.631	4202.05
836.956	4190.98
837.282	4205.89
837.607	4139.45
837.932	4195.5
838.258	4187.81
838.583	4156.85
838.908	4127.25
839.233	4173.8
839.558	4145.55
839.883	4191.66
840.208	4135.16
840.533	4128.83
840.858	4168.15
841.182	4099.91
841.507	4117.08
841.832	4106.23
842.156	4107.59
842.481	4080.47
842.805	4061.72
843.13	4077.53
843.454	4046.12
843.778	4071.43
844.103	4030.3
844.427	3982.4
844.751	4019.91
845.075	3999.34
845.399	4022.85
845.723	3969.74
846.047	3991.21
846.371	3932.91
846.695	3975.39
847.019	3908.72
847.343	3908.72
847.666	3928.84
847.99	3878.67
848.313	3866.47
848.637	3837.54
848.96	3841.16
849.284	3886.35
849.607	3807.26
849.931	3790.31
850.254	3747.83
850.577	3780.14
850.9	3765
851.223	3751.44
851.546	3670.77
851.869	3698.33
852.192	3691.78
852.515	3716.64
852.838	3702.4
853.161	3667.15
853.483	3641.84
853.806	3634.83
854.129	3656.08
854.451	3622.18
854.774	3614.72
855.096	3630.77
855.419	3590.09
855.741	3541.05
856.063	3555.97
856.385	3554.16
856.708	3581.28
857.03	3529.98
857.352	3517.32
857.674	3500.83
857.996	3510.32
858.318	3528.4
858.64	3499.47
858.961	3466.7
859.283	3444.33
859.605	3478.45
859.926	3480.04
860.248	3438.23
860.57	3424.67
860.891	3460.38
861.212	3416.53
861.534	3427.38
861.855	3416.53
862.176	3466.48
862.498	3431.68
862.819	3417.21
863.14	3397.55
863.461	3414.27
863.782	3409.53
864.103	3392.13
864.424	3401.17
864.745	3348.51
865.065	3383.09
865.386	3341.06
865.707	3336.76
866.027	3340.6
866.348	3329.53
866.668	3338.34
866.989	3316.65
867.309	3275.97
867.63	3325.92
867.95	3278.68
868.27	3285.24
868.59	3304.67
868.91	3232.36
869.23	3271.91
869.55	3260.15
869.87	3287.72
870.19	3268.74
870.51	3272.36
870.83	3230.55
871.15	3202.98
871.469	3250.44
871.789	3249.08
872.109	3259.48
872.428	3222.87
872.748	3225.13
873.067	3243.66
873.386	3224.45
873.706	3217.22
874.025	3191.23
874.344	3183.32
874.663	3181.06
874.982	3179.93
875.301	3181.51
875.62	3166.82
875.939	3188.29
876.258	3213.15
876.577	3176.09
876.896	3181.51
877.214	3195.3
877.533	3139.71
877.852	3139.03
878.17	3142.19
878.489	3153.04
878.807	3137.45
879.125	3132.47
879.444	3096.32
879.762	3142.87
880.08	3130.21
880.398	3094.74
880.716	3115.07
881.034	3089.09
881.352	3066.04
881.67	3078.24
881.988	3106.26
882.306	3110.78
882.624	3043.66
882.941	3059.48
883.259	3043.89
883.577	3049.54
883.894	3050.67
884.212	3030.1
884.529	3032.36
884.846	3032.59
885.164	3050.89
885.481	3004.79
885.798	2967.73
886.115	3016.09
886.432	2967.28
886.75	2993.27
887.067	3026.26
887.383	3005.25
887.7	2980.84
888.017	2927.28
888.334	2944.68
888.651	2991.69
888.967	2973.83
889.284	2951.24
889.6	2920.28
889.917	2906.27
890.233	2895.19
890.55	2943.1
890.866	2915.76
891.182	2875.98
891.498	2899.26
891.815	2877.11
892.131	2890.67
892.447	2873.05
892.763	2816.78
893.079	2835.08
893.395	2858.13
893.71	2822.2
894.026	2847.06
894.342	2842.76
894.657	2818.13
894.973	2816.55
895.289	2758.25
895.604	2787.62
895.92	2770
896.235	2757.57
896.55	2735.2
896.865	2727.74
897.181	2749.66
897.496	2785.14
897.811	2714.41
898.126	2720.51
898.441	2724.35
898.756	2723.67
899.071	2696.1
899.386	2690
899.7	2670.34
900.015	2690
900.33	2665.14
900.644	2638.93
900.959	2692.03
901.273	2651.13
901.588	2616.33
901.902	2623.79
902.216	2600.96
902.531	2645.48
902.845	2582.43
903.159	2593.05
903.473	2578.82
903.787	2581.75
904.101	2571.81
904.415	2569.55
904.729	2563.22
905.042	2523
905.356	2553.28
905.67	2556.9
905.984	2510.12
906.297	2497.46
906.611	2509.21
906.924	2519.38
907.237	2488.42
907.551	2507.63
907.864	2480.06
908.177	2470.8
908.491	2457.24
908.804	2456.33
909.117	2446.39
909.43	2444.81
909.743	2409.1
910.056	2419.05
910.368	2384.7
910.681	2410.46
910.994	2356.9
911.307	2343.12
911.619	2362.32
911.932	2350.57
912.244	2369.1
912.557	2327.98
912.869	2329.56
913.181	2300.18
913.494	2335.43
913.806	2322.78
914.118	2299.5
914.43	2276.68
914.742	2255.66
915.054	2293.63
915.366	2246.4
915.678	2283
915.99	2262.44
916.302	2228.77
916.613	2286.17
916.925	2193.52
917.236	2261.08
917.548	2209.56
917.859	2229.22
918.171	2207.75
918.482	2168.66
918.794	2188.32
919.105	2197.58
919.416	2177.92
919.727	2141.54
920.038	2150.13
920.349	2136.12
920.66	2142.22
920.971	2128.43
921.282	2124.59
921.593	2089.56
921.903	2084.37
922.214	2093.86
922.525	2101.31
922.835	2123.24
923.146	2085.27
923.456	2088.89
923.767	2073.29
924.077	2057.93
924.387	2058.38
924.697	2061.32
925.008	2056.8
925.318	2041.2
925.628	2044.82
925.938	2038.04
926.248	2018.15
926.558	1995.55
926.867	1946.97
927.177	2003.24
927.487	1986.52
927.796	1978.61
928.106	1944.03
928.416	1983.35
928.725	1967.98
929.034	1946.97
929.344	1944.26
929.653	1933.41
929.962	1898.61
930.271	1895.67
930.581	1848.67
930.89	1916.91
931.199	1906.07
931.508	1912.39
931.817	1869.46
932.125	1868.33
932.434	1883.47
932.743	1831.49
933.051	1880.08
933.36	1876.46
933.669	1844.6
933.977	1820.42
934.286	1836.69
934.594	1821.32
934.902	1829.01
935.21	1775.67
935.519	1794.43
935.827	1751.95
936.135	1794.43
936.443	1775.45
936.751	1767.99
937.059	1755.11
937.367	1720.76
937.674	1740.19
937.982	1740.42
938.29	1756.69
938.597	1744.49
938.905	1710.82
939.213	1699.74
939.52	1703.81
939.827	1709.23
940.135	1718.95
940.442	1689.35
940.749	1675.34
941.056	1668.56
941.363	1673.3
941.67	1678.5
941.977	1672.17
942.284	1655.22
942.591	1650.71
942.898	1625.4
943.205	1647.32
943.511	1621.78
943.818	1626.07
944.125	1618.84
944.431	1617.26
944.738	1595.57
945.044	1605.06
945.35	1600.54
945.657	1583.36
945.963	1603.93
946.269	1604.83
946.575	1573.87
946.881	1578.84
947.187	1562.35
947.493	1551.5
947.799	1582.46
948.105	1548.56
948.41	1528
948.716	1530.26
949.022	1505.4
949.327	1505.17
949.633	1525.51
949.938	1500.65
950.244	1527.09
950.549	1519.64
950.854	1498.62
951.16	1499.52
951.465	1491.61
951.77	1447.32
952.075	1449.81
952.38	1438.51
952.685	1465.4
952.99	1463.59
953.294	1466.53
953.599	1415.68
953.904	1466.53
954.209	1431.95
954.513	1438.96
954.818	1410.71
955.122	1435.8
955.426	1411.16
955.731	1427.43
956.035	1421.11
956.339	1417.04
956.643	1390.37
956.948	1370.94
957.252	1396.93
957.556	1367.77
957.86	1392.41
958.163	1382.92
958.467	1358.74
958.771	1379.3
959.075	1381.33
959.378	1359.87
959.682	1380.43
959.985	1346.76
960.289	1332.3
960.592	1345.18
960.896	1328
961.199	1328
961.502	1326.19
961.805	1312.18
962.108	1325.29
962.411	1310.15
962.714	1295.46
963.017	1297.04
963.32	1294.33
963.623	1296.14
963.926	1301.34
964.228	1278.06
964.531	1281.9
964.833	1287.1
965.136	1264.95
965.438	1274.44
965.741	1248.91
966.043	1240.77
966.345	1276.03
966.648	1218.17
966.95	1222.02
967.252	1209.36
967.554	1204.62
967.856	1233.54
968.158	1221.11
968.46	1210.72
968.761	1203.49
969.063	1212.75
969.365	1232.86
969.666	1196.03
969.968	1204.39
970.269	1187.89
970.571	1177.95
970.872	1188.57
971.174	1164.39
971.475	1203.26
971.776	1172.75
972.077	1153.54
972.378	1146.31
972.679	1144.96
972.98	1142.24
973.281	1162.36
973.582	1154
973.883	1142.7
974.183	1137.95
974.484	1122.81
974.785	1127.56
975.085	1109.7
975.386	1123.26
975.686	1118.29
975.986	1112.64
976.287	1130.94
976.587	1119.19
976.887	1118.29
977.187	1096.82
977.487	1090.49
977.787	1074.22
978.087	1083.71
978.387	1073.32
978.687	1088.69
978.987	1081
979.286	1043.72
979.586	1076.48
979.885	1079.42
980.185	1080.1
980.484	1082.81
980.784	1057.5
981.083	1087.78
981.382	1056.82
981.682	1062.7
981.981	1044.85
982.28	1036.03
982.579	1036.94
982.878	1028.12
983.177	1033.55
983.475	1035.13
983.774	1037.84
984.073	1031.06
984.372	1041.91
984.67	1015.47
984.969	1016.37
985.267	997.84
985.566	1016.82
985.864	978.18
986.162	1003.72
986.461	976.82
986.759	1010.72
987.057	983.38
987.355	1014.79
987.653	958.52
987.951	973.66
988.249	972.76
988.547	989.71
988.844	950.38
989.142	951.29
989.44	968.01
989.737	929.82
990.035	942.25
990.332	920.78
990.63	951.06
990.927	941.8
991.224	935.24
991.521	942.48
991.819	920.33
992.116	949.03
992.413	934.34
992.71	935.02
993.006	921.23
993.303	929.59
993.6	927.79
993.897	916.49
994.193	906.77
994.49	902.25
994.787	887.11
995.083	903.38
995.379	898.18
995.676	867
995.972	901.12
996.268	896.83
996.565	892.98
996.861	885.53
997.157	883.04
997.453	862.7
997.749	892.53
998.044	850.5
998.34	869.26
998.636	869.71
998.932	878.52
999.227	843.49
999.523	858.41
999.818	864.29
1000.114	826.09
1000.409	852.99
1000.704	842.59
1001	844.85
1001.295	808.47
1001.59	825.42
1001.885	843.72
1002.18	833.1
1002.475	794.91
1002.77	801.24
1003.065	844.85
1003.359	814.12
1003.654	801.01
1003.949	812.54
1004.243	805.98
1004.538	780.45
1004.832	801.91
1005.127	778.41
1005.421	793.1
1005.715	805.76
1006.009	804.4
1006.304	775.25
1006.598	779.32
1006.892	781.35
1007.186	754.68
1007.48	762.59
1007.773	747.23
1008.067	759.66
1008.361	744.97
1008.655	747.68
1008.948	755.36
1009.242	749.71
1009.535	742.93
1009.829	755.81
1010.122	741.35
1010.415	745.87
1010.708	710.39
1011.001	726.89
1011.295	709.71
1011.588	733.44
1011.881	718.07
1012.173	697.96
1012.466	686.66
1012.759	697.96
1013.052	693.89
1013.344	681.01
1013.637	711.97
1013.93	707.23
1014.222	701.13
1014.514	678.75
1014.807	671.07
1015.099	687.34
1015.391	706.1
1015.683	694.8
1015.976	700.22
1016.268	697.74
1016.56	671.3
1016.851	658.19
1017.143	672.2
1017.435	659.32
1017.727	673.78
1018.018	643.05
1018.31	675.82
1018.602	659.32
1018.893	659.54
1019.185	645.53
1019.476	632.65
1019.767	640.56
1020.058	656.61
1020.35	641.92
1020.641	643.73
1020.932	644.63
1021.223	650.73
1021.514	631.97
1021.804	624.29
1022.095	640.11
1022.386	620.22
1022.677	607.57
1022.967	609.6
1023.258	587.46
1023.548	588.13
1023.839	613.44
1024.129	620.22
1024.419	618.87
1024.709	615.7
1025	601.47
1025.29	611.18
1025.58	604.63
1025.87	613.67
1026.16	618.64
1026.449	591.75
1026.739	586.33
1027.029	594.24
1027.319	587.23
1027.608	563.73
1027.898	575.71
1028.187	580.68
1028.477	592.65
1028.766	569.83
1029.055	582.03
1029.344	580.9
1029.634	565.54
1029.923	573.45
1030.212	563.73
1030.501	564.18
1030.79	565.76
1031.078	553.56
1031.367	565.08
1031.656	552.65
1031.945	548.81
1032.233	545.88
1032.522	528.93
1032.81	532.54
1033.099	523.05
1033.387	532.32
1033.675	528.25
1033.963	535.48
1034.251	532.77
1034.54	544.29
1034.828	529.15
1035.116	512.88
1035.403	535.48
1035.691	541.36
1035.979	532.54
1036.267	524.63
1036.554	511.07
1036.842	513.33
1037.129	527.34
1037.417	501.36
1037.704	512.43
1037.992	525.99
1038.279	500.45
1038.566	508.14
1038.853	508.14
1039.14	508.14
