Data from black_plastic_tray_FLMS001491_064.txt Node
Date: Tue Feb 07 10:40:21 GMT 2017
User: dcchb
Spectrometer: FLMS00149
Trigger mode: 0
Integration Time (sec): 2.000000E-2
Scans to average: 10
Electric dark correction enabled: true
Nonlinearity correction enabled: false
Boxcar width: 0
XAxis mode: Wavelengths
Number of Pixels in Spectrum: 2048
>>>>>Begin Spectral Data<<<<<
341.393	-2.39
341.776	-2.39
342.16	-2.39
342.543	-74.02
342.927	-61.14
343.31	-61.37
343.693	-60.24
344.077	-50.3
344.46	-59.33
344.843	-70.86
345.226	-45.55
345.61	-31.31
345.993	-13.69
346.376	-16.62
346.759	12.53
347.142	10.95
347.525	44.17
347.908	69.48
348.291	81.68
348.674	85.75
349.057	104.73
349.44	134.11
349.823	134.78
350.206	154.22
350.588	175.01
350.971	179.76
351.354	209.58
351.737	228.57
352.119	232.64
352.502	220.66
352.884	262.92
353.267	257.49
353.65	268.79
354.032	287.1
354.414	292.29
354.797	285.29
355.179	304.27
355.562	299.98
355.944	316.7
356.326	318.28
356.709	342.91
357.091	326.87
357.473	316.93
357.855	311.96
358.238	337.04
358.62	317.6
359.002	332.97
359.384	315.8
359.766	334.78
360.148	299.53
360.53	320.54
360.912	326.19
361.294	316.02
361.676	307.89
362.057	319.41
362.439	315.34
362.821	313.76
363.203	311.73
363.584	315.57
363.966	299.75
364.348	315.8
364.729	296.14
365.111	328.23
365.493	304.95
365.874	297.94
366.256	311.28
366.637	295.46
367.019	318.06
367.4	292.29
367.781	284.39
368.163	315.12
368.544	315.12
368.925	332.52
369.306	306.53
369.688	290.49
370.069	316.02
370.45	288.45
370.831	315.34
371.212	302.01
371.593	297.49
371.974	312.18
372.355	303.82
372.736	316.47
373.117	308.34
373.498	297.04
373.879	300.2
374.26	316.47
374.641	288.68
375.021	297.04
375.402	301.33
375.783	302.92
376.163	318.51
376.544	300.88
376.925	338.85
377.305	305.4
377.686	320.54
378.066	309.47
378.447	331.16
378.827	317.83
379.208	309.7
379.588	334.1
379.968	322.35
380.349	331.84
380.729	322.8
381.109	343.14
381.489	323.03
381.87	315.12
382.25	296.59
382.63	320.54
383.01	322.12
383.39	321.9
383.77	333.42
384.15	341.56
384.53	357.83
384.91	344.95
385.29	342.01
385.67	362.12
386.049	359.64
386.429	347.66
386.809	372.07
387.189	338.62
387.568	338.85
387.948	370.03
388.328	344.95
388.707	345.4
389.087	367.09
389.466	351.28
389.846	363.71
390.225	346.76
390.605	357.6
390.984	369.13
391.363	370.48
391.743	360.32
392.122	383.59
392.501	364.84
392.881	398.51
393.26	379.07
393.639	390.6
394.018	375
394.397	373.65
394.776	401.22
395.155	387.43
395.534	389.47
395.913	386.3
396.292	394.89
396.671	400.54
397.05	379.98
397.429	380.88
397.808	390.15
398.186	389.92
398.565	392.4
398.944	410.48
399.323	407.77
399.701	406.64
400.08	415
400.458	416.36
400.837	422.01
401.215	428.34
401.594	417.26
401.972	421.78
402.351	418.17
402.729	432.63
403.107	439.64
403.486	407.09
403.864	424.49
404.242	437.6
404.62	423.82
404.999	449.13
405.377	409.13
405.755	443.03
406.133	443.93
406.511	427.66
406.889	464.49
407.267	451.16
407.645	463.59
408.023	475.34
408.401	472.85
408.779	482.8
409.156	469.69
409.534	470.82
409.912	480.09
410.29	473.53
410.667	478.96
411.045	489.13
411.422	512.4
411.8	488.45
412.178	499.07
412.555	508.33
412.933	499.97
413.31	499.29
413.687	513.53
414.065	517.83
414.442	516.47
414.819	534.77
415.197	537.71
415.574	552.85
415.951	550.37
416.328	525.28
416.705	540.2
417.082	557.15
417.46	549.91
417.837	544.04
418.214	575.9
418.591	550.82
418.967	553.3
419.344	548.79
419.721	568.67
420.098	570.93
420.475	582.68
420.852	589.91
421.228	602.79
421.605	596.02
421.982	567.99
422.358	598.73
422.735	603.47
423.111	589.46
423.488	605.28
423.864	586.98
424.241	615
424.617	616.35
424.994	620.65
425.37	624.26
425.746	651.16
426.123	643.92
426.499	646.18
426.875	645.51
427.251	677.82
427.627	683.47
428.003	676.01
428.379	673.98
428.756	669.46
429.132	669.01
429.507	671.49
429.883	678.73
430.259	708.55
430.635	727.76
431.011	732.51
431.387	724.83
431.763	724.37
432.138	745.16
432.514	737.48
432.89	754.2
433.265	745.62
433.641	747.88
434.016	758.95
434.392	786.29
434.767	812.05
435.143	795.33
435.518	811.38
435.894	834.2
436.269	802.11
436.644	812.51
437.02	815.9
437.395	840.08
437.77	816.12
438.145	857.7
438.52	835.11
438.895	852.73
439.271	855.67
439.646	867.42
440.021	880.3
440.395	887.76
440.77	881.88
441.145	908.55
441.52	866.97
441.895	900.41
442.27	901.54
442.645	919.4
443.019	937.48
443.394	904.71
443.769	918.27
444.143	901.77
444.518	934.31
444.892	962.56
445.267	955.33
445.641	943.35
446.016	958.72
446.39	970.69
446.764	936.57
447.139	971.37
447.513	958.94
447.887	957.59
448.262	991.26
448.636	992.62
449.01	980.41
449.384	1012.28
449.758	1024.7
450.132	1009.34
450.506	1029.9
450.88	1038.72
451.254	1022.9
451.628	1054.53
452.002	1057.92
452.376	1066.74
452.75	1082.33
453.123	1085.27
453.497	1080.52
453.871	1090.69
454.244	1126.17
454.618	1138.6
454.992	1138.15
455.365	1144.02
455.739	1125.94
456.112	1172.27
456.486	1163.01
456.859	1205.26
457.232	1197.13
457.606	1229.67
457.979	1229.9
458.352	1240.74
458.725	1257.92
459.099	1268.77
459.472	1255.21
459.845	1289.33
460.218	1283.45
460.591	1310.35
460.964	1294.75
461.337	1347.18
461.71	1349.89
462.083	1385.15
462.456	1359.39
462.829	1378.82
463.201	1396.67
463.574	1420.85
463.947	1436.9
464.32	1471.92
464.692	1480.74
465.065	1485.94
465.438	1506.95
465.81	1507.63
466.183	1516.67
466.555	1538.82
466.928	1555.54
467.3	1565.71
467.672	1580.17
468.045	1618.36
468.417	1636.89
468.789	1645.25
469.161	1684.57
469.534	1684.57
469.906	1698.81
470.278	1723.44
470.65	1748.75
471.022	1758.7
471.394	1775.19
471.766	1761.86
472.138	1845.25
472.51	1868.75
472.882	1864.68
473.253	1875.98
473.625	1915.75
473.997	1971.8
474.369	1973.38
474.74	1996.2
475.112	1995.07
475.484	2051.8
475.855	2079.82
476.227	2073.26
476.598	2138.57
476.97	2163.66
477.341	2176.99
477.713	2228.06
478.084	2240.72
478.455	2325.46
478.827	2327.72
479.198	2378.57
479.569	2387.15
479.94	2446.59
480.311	2464.44
480.682	2507.15
481.053	2530.43
481.424	2605.68
481.795	2621.5
482.166	2642.29
482.537	2682.29
482.908	2759.35
483.279	2726.13
483.65	2843.64
484.021	2800.03
484.391	2870.98
484.762	2885.45
485.133	2971.55
485.503	3037.53
485.874	3040.02
486.244	3080.92
486.615	3151.88
486.985	3141.03
487.356	3209.51
487.726	3226.45
488.097	3289.05
488.467	3306.68
488.837	3386.9
489.207	3386.9
489.578	3499.89
489.948	3496.5
490.318	3507.13
490.688	3585.77
491.058	3592.32
491.428	3631.42
491.798	3620.34
492.168	3738.76
492.538	3756.61
492.908	3803.16
493.278	3887.68
493.648	3814.91
494.017	3883.39
494.387	3907.34
494.757	3914.57
495.126	3979.43
495.496	3949.15
495.866	4064.17
496.235	4123.61
496.605	4133.32
496.974	4100.33
497.344	4205.41
497.713	4171.06
498.082	4231.63
498.452	4259.87
498.821	4279.31
499.19	4357.5
499.559	4312.75
499.928	4372.19
500.298	4409.93
500.667	4427.55
501.036	4437.27
501.405	4457.16
501.774	4520.66
502.143	4535.8
502.512	4529.92
502.88	4595.46
503.249	4606.31
503.618	4649.69
503.987	4644.04
504.356	4675.68
504.724	4707.55
505.093	4730.37
505.462	4758.39
505.83	4813.31
506.199	4767.21
506.567	4874.77
506.936	4897.37
507.304	4917.26
507.672	4978.5
508.041	4995.9
508.409	5062.11
508.777	5029.12
509.145	5111.83
509.514	5087.65
509.882	5149.79
510.25	5106.86
510.618	5156.57
510.986	5187.08
511.354	5293.52
511.722	5321.99
512.09	5382.33
512.458	5352.05
512.826	5426.4
513.193	5463.46
513.561	5448.54
513.929	5521.76
514.297	5544.59
514.664	5618.26
515.032	5627.07
515.4	5662.32
515.767	5689.21
516.135	5768.99
516.502	5725.37
516.869	5848.98
517.237	5840.62
517.604	5827.52
517.972	5928.08
518.339	5983.67
518.706	5975.76
519.073	6059.83
519.44	6077.23
519.808	6120.16
520.175	6112.93
520.542	6220.73
520.909	6278.8
521.276	6284.45
521.643	6322.87
522.009	6412.13
522.376	6425.47
522.743	6467.5
523.11	6531
523.477	6562.41
523.843	6604.22
524.21	6705.01
524.577	6695.74
524.943	6768.51
525.31	6797.43
525.676	6866.36
526.043	6932.35
526.409	6933.48
526.776	6993.81
527.142	7030.2
527.508	7043.08
527.874	7088.5
528.241	7177.09
528.607	7188.84
528.973	7261.38
529.339	7276.52
529.705	7330.08
530.071	7400.58
530.437	7391.54
530.803	7478.77
531.169	7505.44
531.535	7492.33
531.901	7530.07
532.267	7611.65
532.632	7654.59
532.998	7593.35
533.364	7727.13
533.73	7751.99
534.095	7742.49
534.461	7820.46
534.826	7857.52
535.192	7884.86
535.557	7890.74
535.923	7971.19
536.288	7926.22
536.653	7992.43
537.019	7974.35
537.384	8069.04
537.749	8092.32
538.114	8127.79
538.479	8094.58
538.845	8199.66
539.21	8231.75
539.575	8239.88
539.94	8247.79
540.305	8280.11
540.67	8220
541.034	8322.59
541.399	8395.58
541.764	8349.94
542.129	8412.53
542.494	8415.92
542.858	8424.51
543.223	8511.51
543.587	8476.49
543.952	8551.06
544.316	8566.43
544.681	8553.09
545.045	8676.93
545.41	8667.44
545.774	8700.89
546.138	8626.54
546.503	8742.24
546.867	8776.14
547.231	8800.32
547.595	8846.19
547.959	8918.96
548.324	8897.49
548.688	8910.15
549.052	8975
549.416	8974.1
549.779	8982.24
550.143	8990.14
550.507	9095
550.871	9087.77
551.235	9109.46
551.599	9158.73
551.962	9173.19
552.326	9186.98
552.689	9360.98
553.053	9330.25
553.417	9308.55
553.78	9394.65
554.143	9405.73
554.507	9556.23
554.87	9551.71
555.234	9619.51
555.597	9579.96
555.96	9614.76
556.323	9632.84
556.686	9687.3
557.05	9704.7
557.413	9704.02
557.776	9759.16
558.139	9832.83
558.502	9905.15
558.865	9841.87
559.228	10019.27
559.59	9944.7
559.953	10123.67
560.316	10221.07
560.679	10110.34
561.041	10153.28
561.404	10233.5
561.767	10315.99
562.129	10211.36
562.492	10371.8
562.854	10397.79
563.217	10376.78
563.579	10463.33
563.941	10439.82
564.304	10520.27
564.666	10618.35
565.028	10654.73
565.39	10606.6
565.753	10665.13
566.115	10706.94
566.477	10692.7
566.839	10732.02
567.201	10850.66
567.563	10872.81
567.925	10953.26
568.287	10841.17
568.648	10907.16
569.01	11013.82
569.372	11134.95
569.734	11009.07
570.095	11075.74
570.457	11139.24
570.819	11207.94
571.18	11237.32
571.542	11266.02
571.903	11299.24
572.265	11341.5
572.626	11379.23
572.987	11311.21
573.349	11406.8
573.71	11432.34
574.071	11427.37
574.432	11426.01
574.794	11495.84
575.155	11502.62
575.516	11513.24
575.877	11563.86
576.238	11592.56
576.599	11590.75
576.96	11589.4
577.32	11619.23
577.681	11624.43
578.042	11694.71
578.403	11779.45
578.763	11646.8
579.124	11802.05
579.485	11830.07
579.845	11834.36
580.206	11853.12
580.566	11806.12
580.927	11762.73
581.287	11896.06
581.648	11724.76
582.008	11994.81
582.368	11868.49
582.728	11884.31
583.089	11850.41
583.449	11856.96
583.809	11917.75
584.169	11947.36
584.529	11938.54
584.889	11974.25
585.249	11904.87
585.609	11887.47
585.969	11980.35
586.329	11924.98
586.688	12014.47
587.048	12021.7
587.408	11826.68
587.768	11933.8
588.127	11965.89
588.487	11882.72
588.846	11931.76
589.206	11934.7
589.565	11961.82
589.925	12058.31
590.284	11961.37
590.643	12039.1
591.003	12013.12
591.362	12081.82
591.721	12026.45
592.08	12090.85
592.44	12073.23
592.799	12076.62
593.158	12055.83
593.517	12052.21
593.876	12161.36
594.235	12137.86
594.593	12067.58
594.952	12141.93
595.311	12044.75
595.67	12051.99
596.029	12254.92
596.387	12176.5
596.746	12110.29
597.104	12062.61
597.463	12101.93
597.822	12179.67
598.18	12129.95
598.538	12091.08
598.897	12151.19
599.255	12068.26
599.613	12237.07
599.972	12156.16
600.33	12171.08
600.688	12122.72
601.046	12247.69
601.404	12315.93
601.762	12241.36
602.12	12267.57
602.478	12274.58
602.836	12323.39
603.194	12276.84
603.552	12340.34
603.91	12377.17
604.268	12337.18
604.625	12341.47
604.983	12323.62
605.341	12257.86
605.698	12277.06
606.056	12346.44
606.413	12294.92
606.771	12410.62
607.128	12428.92
607.485	12320.23
607.843	12301.24
608.2	12339.44
608.557	12412.88
608.914	12395.03
609.272	12445.65
609.629	12447.91
609.986	12469.83
610.343	12475.48
610.7	12504.4
611.057	12491.3
611.414	12486.32
611.771	12431.41
612.127	12519.77
612.484	12490.84
612.841	12548.7
613.198	12423.5
613.554	12572.65
613.911	12634.12
614.267	12656.04
614.624	12478.19
614.98	12536.94
615.337	12614.91
615.693	12635.7
616.05	12624.85
616.406	12698.07
616.762	12610.16
617.118	12559.77
617.475	12606.55
617.831	12620.56
618.187	12628.02
618.543	12637.05
618.899	12663.04
619.255	12730.61
619.611	12667.11
619.967	12744.62
620.323	12743.27
620.678	12649.03
621.034	12616.26
621.39	12748.69
621.746	12694.45
622.101	12814.45
622.457	12692.19
622.812	12762.7
623.168	12798.86
623.523	12757.05
623.879	12774.23
624.234	12695.36
624.589	12733.55
624.945	12685.87
625.3	12750.27
625.655	12783.94
626.01	12832.76
626.365	12810.38
626.72	12741.01
627.075	12749.59
627.43	12751.18
627.785	12737.62
628.14	12824.62
628.495	12747.79
628.85	12710.73
629.205	12674.57
629.559	12613.33
629.914	12659.43
630.269	12690.39
630.623	12619.88
630.978	12604.74
631.332	12640.44
631.687	12777.84
632.041	12641.12
632.396	12617.62
632.75	12563.16
633.104	12530.62
633.459	12597.51
633.813	12505.98
634.167	12559.32
634.521	12569.26
634.875	12506.44
635.229	12458.53
635.583	12459.66
635.937	12350.06
636.291	12438.42
636.645	12380.56
636.999	12357.29
637.352	12453.78
637.706	12279.32
638.06	12371.3
638.413	12335.37
638.767	12338.31
639.121	12380.11
639.474	12187.58
639.828	12324.07
640.181	12258.08
640.534	12245.2
640.888	12224.64
641.241	12083.17
641.594	12171.76
641.947	12137.41
642.301	12215.14
642.654	12215.37
643.007	12109.61
643.36	12166.33
643.713	12119.1
644.066	12173.56
644.419	12082.49
644.771	12017.86
645.124	11950.97
645.477	11923.85
645.83	11806.79
646.182	11759.79
646.535	11636.63
646.888	11663.75
647.24	11590.75
647.593	11631.66
647.945	11673.01
648.298	11612.22
648.65	11585.33
649.002	11522.96
649.355	11694.03
649.707	11581.72
650.059	11663.97
650.411	11705.78
650.763	11813.35
651.115	11935.6
651.467	11883.18
651.819	11869.84
652.171	11861.26
652.523	11791.88
652.875	11838.21
653.227	11702.39
653.578	11827.13
653.93	11692.9
654.282	11722.05
654.633	11707.14
654.985	11741.71
655.337	11748.04
655.688	11642.96
656.039	11681.37
656.391	11637.53
656.742	11724.99
657.094	11634.14
657.445	11728.6
657.796	11647.7
658.147	11661.26
658.498	11647.93
658.849	11662.62
659.2	11652.9
659.551	11592.11
659.902	11589.17
660.253	11633.24
660.604	11610.19
660.955	11509.17
661.306	11514.82
661.656	11526.35
662.007	11583.75
662.358	11601.83
662.708	11564.09
663.059	11515.95
663.409	11369.74
663.76	11550.3
664.11	11511.43
664.461	11571.09
664.811	11521.83
665.161	11547.14
665.511	11483.64
665.862	11509.85
666.212	11577.42
666.562	11520.25
666.912	11507.82
667.262	11438.22
667.612	11413.36
667.962	11389.86
668.312	11379.69
668.662	11397.77
669.011	11316.41
669.361	11323.42
669.711	11355.73
670.06	11329.29
670.41	11223.98
670.76	11257.2
671.109	11289.07
671.459	11250.65
671.808	11198.45
672.157	11273.25
672.507	11190.31
672.856	11210.2
673.205	11174.72
673.554	11236.64
673.904	11209.75
674.253	11287.94
674.602	11232.12
674.951	11046.59
675.3	10980.83
675.649	11113.48
675.998	11144.89
676.346	11167.94
676.695	11240.71
677.044	11172.01
677.393	11145.57
677.741	11174.27
678.09	11104.44
678.438	10979.25
678.787	11149.64
679.135	11068.73
679.484	10977.44
679.832	11108.51
680.181	11065.34
680.529	11026.7
680.877	11025.8
681.225	11049.98
681.573	11086.81
681.922	10988.06
682.27	10890.66
682.618	10899.7
682.966	10943.31
683.314	10931.56
683.661	10979.47
684.009	10819.25
684.357	10888.63
684.705	10897.44
685.053	10877.33
685.4	10847.27
685.748	10706.03
686.095	10729.76
686.443	10723.66
686.79	10740.61
687.138	10635.75
687.485	10784.9
687.832	10667.16
688.18	10658.8
688.527	10613.61
688.874	10610.89
689.221	10577.9
689.568	10506.72
689.915	10599.37
690.262	10581.06
690.609	10493.83
690.956	10495.42
691.303	10374.29
691.65	10423.55
691.997	10437.79
692.344	10358.47
692.69	10342.2
693.037	10352.6
693.383	10232.37
693.73	10338.13
694.077	10245.93
694.423	10259.04
694.769	10266.04
695.116	10235.54
695.462	10146.5
695.808	10143.11
696.155	10136.78
696.501	10066.5
696.847	10150.79
697.193	9986.5
697.539	10135.65
697.885	10028.76
698.231	9905.15
698.577	9953.74
698.923	9931.36
699.269	9876.22
699.614	9774.53
699.96	9817.69
700.306	9777.47
700.651	9705.38
700.997	9689.79
701.342	9701.99
701.688	9691.14
702.033	9579.96
702.379	9667.87
702.724	9675.32
703.069	9627.87
703.415	9535.67
703.76	9600.52
704.105	9551.94
704.45	9475.1
704.795	9499.28
705.14	9408.67
705.485	9441.21
705.83	9377.48
706.175	9353.75
706.52	9395.33
706.865	9325.96
707.209	9329.8
707.554	9254.77
707.899	9253.87
708.243	9213.42
708.588	9203.92
708.932	9175.45
709.277	9207.77
709.621	9192.17
709.966	9205.05
710.31	9182.68
710.654	9043.48
710.998	9060.88
711.342	9061.33
711.687	9077.37
712.031	8984.27
712.375	8944.95
712.719	8984.27
713.063	9007.32
713.407	8952.86
713.75	8915.8
714.094	8866.08
714.438	8788.12
714.782	8825.18
715.125	8839.19
715.469	8842.58
715.812	8713.32
716.156	8711.51
716.499	8719.64
716.843	8752.64
717.186	8717.16
717.53	8741.34
717.873	8721
718.216	8663.37
718.559	8623.15
718.902	8589.03
719.246	8636.26
719.589	8569.14
719.932	8545.64
720.275	8546.31
720.617	8568.46
720.96	8478.75
721.303	8476.03
721.646	8491.85
721.989	8488.69
722.331	8481.01
722.674	8428.58
723.016	8471.97
723.359	8415.02
723.701	8441.68
724.044	8382.7
724.386	8331.63
724.729	8385.19
725.071	8350.61
725.413	8372.76
725.755	8280.11
726.097	8231.97
726.439	8235.36
726.782	8212.31
727.124	8262.71
727.465	8254.35
727.807	8196.95
728.149	8195.36
728.491	8196.95
728.833	8130.73
729.175	8163.73
729.516	8116.04
729.858	8151.75
730.199	8172.54
730.541	8164.4
730.882	8081.69
731.224	8144.97
731.565	8083.28
731.906	8078.76
732.248	8034.69
732.589	8033.79
732.93	8036.5
733.271	7997.85
733.612	8015.03
733.953	8040.11
734.294	7994.01
734.635	8004.41
734.976	7960.12
735.317	7940.68
735.658	7959.21
735.999	7935.71
736.339	7918.31
736.68	7880.57
737.021	7903.17
737.361	7888.48
737.702	7883.96
738.042	7859.33
738.383	7809.61
738.723	7828.59
739.063	7770.97
739.404	7784.53
739.744	7754.92
740.084	7729.84
740.424	7751.53
740.764	7715.38
741.104	7765.09
741.444	7667.24
741.784	7735.71
742.124	7705.43
742.464	7735.04
742.804	7686.68
743.143	7727.81
743.483	7691.2
743.823	7660.24
744.162	7656.39
744.502	7692.1
744.841	7650.52
745.181	7632.21
745.52	7649.62
745.86	7640.35
746.199	7569.84
746.538	7590.63
746.877	7598.32
747.216	7610.75
747.556	7574.14
747.895	7558.32
748.234	7523.74
748.573	7492.78
748.911	7486.23
749.25	7541.6
749.589	7456.17
749.928	7474.25
750.267	7440.58
750.605	7398.1
750.944	7363.97
751.283	7380.02
751.621	7416.4
751.96	7337.31
752.298	7319
752.636	7351.54
752.975	7316.97
753.313	7319
753.651	7310.19
753.989	7305.9
754.327	7253.24
754.666	7204.2
755.004	7260.25
755.342	7201.04
755.679	7251.66
756.017	7180.02
756.355	7112.45
756.693	7159.46
757.031	7118.1
757.368	7149.97
757.706	7180.7
758.044	7071.33
758.381	7169.63
758.719	7061.16
759.056	7074.49
759.394	7043.08
759.731	6992.91
760.068	6946.13
760.405	6922.85
760.743	6927.37
761.08	6949.75
761.417	6818.68
761.754	6849.41
762.091	6837.66
762.428	6866.36
762.765	6789.75
763.102	6834.27
763.438	6777.1
763.775	6784.1
764.112	6751.11
764.449	6747.04
764.785	6685.57
765.122	6685.12
765.458	6636.53
765.795	6651.45
766.131	6645.57
766.467	6686.48
766.804	6564.45
767.14	6550.89
767.476	6572.13
767.812	6557.21
768.148	6509.31
768.485	6463.66
768.821	6462.53
769.157	6419.14
769.492	6442.87
769.828	6365.81
770.164	6292.81
770.5	6359.48
770.836	6333.27
771.171	6249.65
771.507	6239.93
771.842	6313.38
772.178	6288.75
772.513	6261.63
772.849	6224.79
773.184	6179.6
773.519	6181.86
773.855	6123.55
774.19	6118.13
774.525	6115.87
774.86	6149.09
775.195	6077.68
775.53	6052.37
775.865	6048.3
776.2	5996.55
776.535	5988.87
776.87	5882.43
777.205	5925.37
777.539	5888.53
777.874	5902.09
778.209	5836.78
778.543	5812.6
778.878	5848.31
779.212	5893.73
779.547	5824.35
779.881	5830.91
780.215	5720.63
780.55	5689.67
780.884	5723.56
781.218	5671.81
781.552	5647.86
781.886	5648.76
782.22	5587.52
782.554	5585.71
782.888	5562.21
783.222	5521.31
783.556	5541.87
783.889	5538.26
784.223	5489.67
784.557	5529.67
784.89	5446.74
785.224	5437.47
785.557	5416.91
785.891	5423.23
786.224	5345.95
786.558	5402.44
786.891	5334.2
787.224	5344.82
787.557	5298.04
787.891	5285.38
788.224	5348.43
788.557	5366.74
788.89	5305.95
789.223	5261.2
789.556	5283.8
789.888	5253.52
790.221	5160.42
790.554	5144.6
790.887	5192.28
791.219	5096.91
791.552	5157.03
791.884	5084.71
792.217	5022.57
792.549	5070.93
792.882	4992.74
793.214	4959.06
793.546	5045.62
793.879	4997.03
794.211	4937.37
794.543	4993.19
794.875	4935.11
795.207	4908.9
795.539	4870.93
795.871	4912.51
796.203	4907.31
796.535	4799.07
796.867	4807.88
797.198	4826.64
797.53	4777.37
797.862	4793.19
798.193	4783.93
798.525	4805.17
798.856	4786.19
799.188	4724.95
799.519	4723.36
799.85	4679.07
800.182	4699.86
800.513	4702.57
800.844	4641.78
801.175	4681.33
801.506	4654.89
801.837	4662.12
802.168	4682.01
802.499	4630.49
802.83	4572.41
803.161	4603.37
803.491	4566.53
803.822	4576.7
804.153	4546.65
804.483	4469.36
804.814	4515.69
805.145	4468.46
805.475	4530.38
805.805	4505.52
806.136	4467.55
806.466	4499.64
806.796	4508.45
807.126	4431.62
807.457	4439.98
807.787	4412.19
808.117	4411.96
808.447	4375.13
808.777	4399.76
809.107	4421.23
809.436	4396.59
809.766	4402.24
810.096	4327.44
810.426	4248.12
810.755	4280.89
811.085	4317.95
811.414	4278.63
811.744	4230.95
812.073	4271.17
812.403	4247.67
812.732	4230.95
813.061	4210.84
813.39	4233.21
813.719	4193.43
814.049	4214.9
814.378	4242.93
814.707	4149.14
815.036	4192.98
815.365	4211.74
815.693	4110.05
816.022	4155.24
816.351	4129.48
816.68	4152.53
817.008	4135.36
817.337	4077.05
817.665	4068.47
817.994	4079.31
818.322	4087.68
818.651	4062.59
818.979	4006.55
819.307	4044.51
819.636	4031.86
819.964	4027.56
820.292	4036.83
820.62	4027.56
820.948	4011.74
821.276	4044.29
821.604	4044.06
821.932	4025.76
822.259	4012.87
822.587	4068.24
822.915	4010.16
823.243	4020.11
823.57	4016.26
823.898	4042.93
824.225	3968.81
824.553	4037.05
824.88	4043.83
825.207	4038.86
825.535	4030.5
825.862	4049.26
826.189	4008.58
826.516	4040.9
826.843	4028.92
827.17	4042.7
827.497	4099.43
827.824	4014.23
828.151	4026.21
828.478	3994.34
828.805	4021.91
829.131	3997.28
829.458	4065.75
829.785	3964.97
830.111	3997.06
830.438	4065.08
830.764	4051.52
831.09	4035.92
831.417	4040.44
831.743	3992.76
832.069	3968.36
832.395	3972.42
832.722	4006.1
833.048	4005.87
833.374	4000.45
833.7	4001.35
834.026	4007.68
834.351	3975.81
834.677	3979.88
835.003	3981.69
835.329	3943.72
835.654	3941.01
835.98	3906.44
836.306	3986.89
836.631	3936.27
836.956	3955.25
837.282	3952.31
837.607	3916.15
837.932	3959.99
838.258	3929.04
838.583	3895.82
838.908	3925.42
839.233	3927
839.558	3925.65
839.883	3902.6
840.208	3944.85
840.533	3867.12
840.858	3908.47
841.182	3861.69
841.507	3854.69
841.832	3823.95
842.156	3856.95
842.481	3866.21
842.805	3792.54
843.13	3775.14
843.454	3840.22
843.778	3811.75
844.103	3806.1
844.427	3799.1
844.751	3757.06
845.075	3701.92
845.399	3751.19
845.723	3717.97
846.047	3749.38
846.371	3698.76
846.695	3714.35
847.019	3668.03
847.343	3701.47
847.666	3655.37
847.99	3663.28
848.313	3661.02
848.637	3608.37
848.96	3600
849.284	3609.72
849.607	3577.63
849.931	3577.18
850.254	3569.27
850.577	3547.8
850.9	3560.91
851.223	3512.1
851.546	3502.38
851.869	3501.48
852.192	3470.97
852.515	3473
852.838	3418.99
853.161	3431.87
853.483	3440.01
853.806	3442.27
854.129	3451.76
854.451	3378.54
854.774	3400.01
855.096	3354.81
855.419	3345.77
855.741	3350.52
856.063	3343.74
856.385	3331.31
856.708	3352.33
857.03	3320.46
857.352	3340.8
857.674	3315.27
857.996	3269.62
858.318	3290.18
858.64	3279.79
858.961	3275.72
859.283	3261.03
859.605	3269.17
859.926	3235.95
860.248	3265.78
860.57	3177.87
860.891	3239.56
861.212	3226.23
861.534	3219.45
861.855	3235.49
862.176	3239.11
862.498	3225.55
862.819	3191.65
863.14	3197.08
863.461	3140.81
863.782	3157.08
864.103	3177.19
864.424	3176.06
864.745	3147.13
865.065	3140.58
865.386	3139.9
865.707	3160.92
866.027	3126.12
866.348	3099
866.668	3135.61
866.989	3108.27
867.309	3106.23
867.63	3087.48
867.95	3079.79
868.27	3028.04
868.59	3060.36
868.91	3122.28
869.23	3082.73
869.55	3096.29
869.87	3122.28
870.19	3101.94
870.51	3058.32
870.83	3061.94
871.15	3025.1
871.469	3067.59
871.789	3056.74
872.109	3019.68
872.428	3015.61
872.748	3015.84
873.067	3020.13
873.386	2989.17
873.706	3004.77
874.025	2991.43
874.344	2994.82
874.663	2978.78
874.982	2979
875.301	3037.31
875.62	2960.47
875.939	2932
876.258	2990.75
876.577	2948.5
876.896	2932.9
877.214	2948.95
877.533	2940.59
877.852	2960.7
878.17	2978.55
878.489	2967.48
878.807	2947.59
879.125	2934.71
879.444	2901.72
879.762	2912.34
880.08	2919.34
880.398	2850.87
880.716	2892.9
881.034	2888.84
881.352	2907.82
881.67	2902.85
881.988	2851.32
882.306	2887.71
882.624	2877.54
882.941	2908.5
883.259	2866.01
883.577	2857.65
883.894	2868.27
884.212	2836.41
884.529	2814.71
884.846	2831.89
885.164	2846.35
885.481	2792.12
885.798	2834.37
886.115	2768.39
886.432	2820.59
886.75	2772
887.067	2783.3
887.383	2753.25
887.7	2730.87
888.017	2746.02
888.334	2734.49
888.651	2740.37
888.967	2743.08
889.284	2726.13
889.6	2703.76
889.917	2703.08
890.233	2699.24
890.55	2721.84
890.866	2708.28
891.182	2678.22
891.498	2687.49
891.815	2725.68
892.131	2687.49
892.447	2691.55
892.763	2697.66
893.079	2699.01
893.395	2660.82
893.71	2679.8
894.026	2657.2
894.342	2643.19
894.657	2654.49
894.973	2607.71
895.289	2652.91
895.604	2594.83
895.92	2601.84
896.235	2571.1
896.55	2575.4
896.865	2619.01
897.181	2595.06
897.496	2585.79
897.811	2549.41
898.126	2559.81
898.441	2524.78
898.756	2494.72
899.071	2506.47
899.386	2484.1
899.7	2513.03
900.015	2487.94
900.33	2491.33
900.644	2518.22
900.959	2492.46
901.273	2513.93
901.588	2492.24
901.902	2451.33
902.216	2441.39
902.531	2431.67
902.845	2455.18
903.159	2400.04
903.473	2440.71
903.787	2420.83
904.101	2375.63
904.415	2386.48
904.729	2401.84
905.042	2395.52
905.356	2391
905.67	2376.99
905.984	2367.95
906.297	2343.09
906.611	2337.89
906.924	2350.77
907.237	2348.51
907.551	2346.03
907.864	2306.48
908.177	2294.28
908.491	2321.62
908.804	2309.19
909.117	2289.08
909.43	2222.41
909.743	2287.27
910.056	2247.5
910.368	2221.51
910.681	2246.37
910.994	2236.88
911.307	2227.38
911.619	2205.69
911.932	2258.12
912.244	2202.07
912.557	2232.81
912.869	2174.5
913.181	2177.67
913.494	2187.39
913.806	2160.95
914.118	2156.88
914.43	2163.66
914.742	2177.67
915.054	2114.85
915.366	2135.64
915.678	2146.94
915.99	2129.08
916.302	2101.51
916.613	2111.91
916.925	2096.77
917.236	2080.5
917.548	2064.45
917.859	2042.31
918.171	2057.45
918.482	2057.9
918.794	2048.41
919.105	2036.2
919.416	2039.37
919.727	1999.14
920.038	2007.28
920.349	2025.58
920.66	2017.67
920.971	2015.87
921.282	2004.79
921.593	1963.89
921.903	2012.7
922.214	1986.04
922.525	2003.66
922.835	1960.95
923.146	1922.08
923.456	1928.86
923.767	1926.15
924.077	1936.09
924.387	1919.6
924.697	1905.81
925.008	1920.5
925.318	1921.63
925.628	1924.79
925.938	1882.54
926.248	1885.7
926.558	1879.37
926.867	1889.77
927.177	1856.1
927.487	1846.83
927.796	1855.87
928.106	1845.47
928.416	1855.42
928.725	1845.02
929.034	1815.42
929.344	1810.67
929.653	1797.34
929.962	1790.11
930.271	1766.15
930.581	1786.72
930.89	1788.98
931.199	1753.95
931.508	1770
931.817	1777.91
932.125	1769.32
932.434	1770
932.743	1773.61
933.051	1762.54
933.36	1727.29
933.669	1739.26
933.977	1723.22
934.286	1732.93
934.594	1723.9
934.902	1700.17
935.21	1683.67
935.519	1709.88
935.827	1688.42
936.135	1673.28
936.443	1658.13
936.751	1678.7
937.059	1678.47
937.367	1659.94
937.674	1656.33
937.982	1660.62
938.29	1614.97
938.597	1671.69
938.905	1637.57
939.213	1642.09
939.52	1640.06
939.827	1625.82
940.135	1625.59
940.442	1624.91
940.749	1599.15
941.056	1620.17
941.363	1577.46
941.67	1586.95
941.977	1579.72
942.284	1554.86
942.591	1551.24
942.898	1542.66
943.205	1531.58
943.511	1560.96
943.818	1489.55
944.125	1520.06
944.431	1515.31
944.738	1530.68
945.044	1495.43
945.35	1511.47
945.657	1527.29
945.963	1522.77
946.269	1487.07
946.575	1511.02
946.881	1480.96
947.187	1485.94
947.493	1475.77
947.799	1435.54
948.105	1467.18
948.41	1446.39
948.716	1457.46
949.022	1423.34
949.327	1434.64
949.633	1425.6
949.938	1457.46
950.244	1428.99
950.549	1426.28
950.854	1426.28
951.16	1407.52
951.465	1418.37
951.77	1395.99
952.075	1409.55
952.38	1426.28
952.685	1367.52
952.99	1387.18
953.294	1364.58
953.599	1382.89
953.904	1349.44
954.209	1360.06
954.513	1371.14
954.818	1360.74
955.122	1355.09
955.426	1333.17
955.731	1321.19
956.035	1347.41
956.339	1330.46
956.643	1331.82
956.948	1320.06
957.252	1292.49
957.556	1322.1
957.86	1303.79
958.163	1316
958.467	1306.73
958.771	1295.66
959.075	1290.69
959.378	1282.33
959.682	1312.38
959.985	1283.45
960.289	1249.33
960.592	1271.25
960.896	1257.01
961.199	1247.52
961.502	1241.65
961.805	1254.3
962.108	1250.24
962.411	1221.99
962.714	1220.86
963.017	1214.98
963.32	1203.46
963.623	1221.08
963.926	1223.57
964.228	1190.8
964.531	1192.38
964.833	1178.37
965.136	1196.9
965.438	1231.7
965.741	1172.95
966.043	1204.59
966.345	1179.28
966.648	1190.12
966.95	1181.54
967.252	1143.12
967.554	1153.29
967.856	1162.55
968.158	1166.4
968.46	1182.44
968.761	1133.18
969.063	1174.53
969.365	1132.27
969.666	1121.43
969.968	1087.53
970.269	1128.88
970.571	1136.34
970.872	1124.59
971.174	1124.36
971.475	1130.01
971.776	1113.97
972.077	1123.69
972.378	1106.06
972.679	1078.94
972.98	1113.29
973.281	1090.69
973.582	1098.83
973.883	1095.66
974.183	1104.02
974.484	1075.78
974.785	1053.4
975.085	1048.43
975.386	1040.07
975.686	1047.3
975.986	1041.43
976.287	1042.33
976.587	1038.04
976.887	1047.98
977.187	1014.31
977.487	1051.82
977.787	1012.95
978.087	1038.26
978.387	1040.3
978.687	1018.15
978.987	1038.72
979.286	1004.14
979.586	1007.08
979.885	1004.82
980.185	1011.15
980.484	1044.59
980.784	995.55
981.083	1005.27
981.382	987.87
981.682	1003.46
981.981	1007.08
982.28	1003.69
982.579	984.25
982.878	986.74
983.177	976.12
983.475	976.57
983.774	938.38
984.073	965.72
984.372	970.69
984.67	979.06
984.969	966.63
985.267	948.1
985.566	944.71
985.864	943.8
986.162	927.31
986.461	927.08
986.759	940.87
987.057	929.79
987.355	925.95
987.653	924.37
987.951	955.78
988.249	920.98
988.547	908.55
988.844	924.82
989.142	917.36
989.44	905.84
989.737	923.92
990.035	894.09
990.332	895.89
990.63	901.32
990.927	904.48
991.224	892.28
991.521	885.05
991.819	885.95
992.116	894.54
992.413	896.12
992.71	872.39
993.006	870.58
993.303	853.64
993.6	876.23
993.897	873.97
994.193	858.61
994.49	853.18
994.787	859.74
995.083	831.26
995.379	848.66
995.676	826.29
995.972	805.5
996.268	821.32
996.565	815.22
996.861	831.72
997.157	828.55
997.453	826.74
997.749	815.44
998.044	796.46
998.34	799.63
998.636	796.01
998.932	800.76
999.227	798.27
999.523	799.63
999.818	808.21
1000.114	799.4
1000.409	784.03
1000.704	780.64
1001	792.39
1001.295	803.92
1001.59	789.91
1001.885	772.96
1002.18	755.79
1002.475	777.03
1002.77	796.69
1003.065	773.64
1003.359	753.98
1003.654	778.38
1003.949	747.42
1004.243	744.49
1004.538	775.22
1004.832	751.72
1005.127	759.85
1005.421	727.54
1005.715	748.1
1006.009	707.42
1006.304	735.22
1006.598	732.51
1006.892	711.27
1007.186	731.38
1007.48	731.61
1007.773	710.14
1008.067	728.44
1008.361	727.31
1008.655	708.55
1008.948	711.72
1009.242	736.12
1009.535	725.73
1009.829	725.05
1010.122	710.81
1010.415	695.22
1010.708	693.41
1011.001	692.96
1011.295	717.59
1011.588	699.74
1011.881	691.83
1012.173	706.07
1012.466	691.15
1012.759	663.58
1013.052	693.19
1013.344	663.36
1013.637	657.48
1013.93	661.78
1014.222	675.11
1014.514	673.75
1014.807	671.04
1015.099	666.52
1015.391	639.63
1015.683	657.93
1015.976	676.69
1016.268	649.35
1016.56	642.34
1016.851	656.13
1017.143	647.77
1017.435	640.31
1017.727	628.56
1018.018	636.47
1018.31	640.31
1018.602	616.81
1018.893	629.23
1019.185	600.08
1019.476	629.91
1019.767	634.43
1020.058	607.31
1020.35	603.25
1020.641	633.3
1020.932	611.61
1021.223	625.39
1021.514	593.98
1021.804	608.67
1022.095	612.06
1022.386	589.69
1022.677	624.49
1022.967	578.39
1023.258	572.06
1023.548	595.56
1023.839	579.74
1024.129	579.97
1024.419	578.61
1024.709	565.96
1025	579.97
1025.29	565.96
1025.58	589.46
1025.87	575
1026.16	554.89
1026.449	552.85
1026.739	563.25
1027.029	550.82
1027.319	553.08
1027.608	565.51
1027.898	544.27
1028.187	544.04
1028.477	531.38
1028.766	568.45
1029.055	542.91
1029.344	535.45
1029.634	542.01
1029.923	546.07
1030.212	545.17
1030.501	527.77
1030.79	548.11
1031.078	528.22
1031.367	527.99
1031.656	525.73
1031.945	533.42
1032.233	527.09
1032.522	513.76
1032.81	530.71
1033.099	541.1
1033.387	518.96
1033.675	508.79
1033.963	515.34
1034.251	513.76
1034.54	518.05
1034.828	514.21
1035.116	498.84
1035.403	513.76
1035.691	498.62
1035.979	508.79
1036.267	518.05
1036.554	499.75
1036.842	501.1
1037.129	502.01
1037.417	494.32
1037.704	500.65
1037.992	506.07
1038.279	493.87
1038.566	472.85
1038.853	472.85
1039.14	472.85
