Data from black_metal_pc_casing_FLMS001491_00010.txt Node
Date: Wed Feb 08 14:31:51 GMT 2017
User: dcchb
Spectrometer: FLMS00149
Trigger mode: 0
Integration Time (sec): 2.000000E-2
Scans to average: 10
Electric dark correction enabled: true
Nonlinearity correction enabled: false
Boxcar width: 0
XAxis mode: Wavelengths
Number of Pixels in Spectrum: 2048
>>>>>Begin Spectral Data<<<<<
341.393	10.21
341.776	10.21
342.16	10.21
342.543	-59.62
342.927	-67.3
343.31	-66.62
343.693	-75.44
344.077	-68.88
344.46	-58.26
344.843	-68.66
345.226	-27.53
345.61	-38.83
345.993	-8.77
346.376	8.63
346.759	-10.8
347.142	32.58
347.525	48.18
347.908	56.99
348.291	81.4
348.674	80.49
349.057	115.52
349.44	117.55
349.823	136.54
350.206	168.17
350.588	205.46
350.971	214.5
351.354	225.12
351.737	225.12
352.119	221.51
352.502	269.64
352.884	271.45
353.267	277.55
353.65	266.02
354.032	269.41
354.414	283.65
354.797	296.98
355.179	319.13
355.562	303.09
355.944	318
356.326	314.61
356.709	317.32
357.091	310.32
357.473	342.41
357.855	317.77
358.238	328.62
358.62	319.36
359.002	341.05
359.384	334.27
359.766	342.18
360.148	316.19
360.53	349.19
360.912	328.4
361.294	302.63
361.676	341.73
362.057	329.53
362.439	322.97
362.821	328.4
363.203	346.02
363.584	315.97
363.966	333.14
364.348	319.81
364.729	324.55
365.111	300.37
365.493	308.28
365.874	297.66
366.256	316.87
366.637	309.86
367.019	306.47
367.4	313.03
367.781	320.26
368.163	307.15
368.544	311.45
368.925	323.2
369.306	324.78
369.688	300.15
370.069	299.47
370.45	300.83
370.831	298.34
371.212	299.92
371.593	300.83
371.974	318.9
372.355	302.18
372.736	320.49
373.117	288.4
373.498	317.1
373.879	303.99
374.26	325.68
374.641	313.03
375.021	304.89
375.402	330.2
375.783	329.3
376.163	316.87
376.544	354.61
376.925	323.88
377.305	341.05
377.686	302.86
378.066	320.03
378.447	336.08
378.827	348.06
379.208	324.1
379.588	348.51
379.968	325.01
380.349	327.49
380.729	320.49
381.109	331.56
381.489	357.32
381.87	348.06
382.25	348.28
382.63	337.89
383.01	344.89
383.39	343.54
383.77	322.29
384.15	334.95
384.53	346.93
384.91	340.37
385.29	361.61
385.67	372.24
386.049	371.78
386.429	348.28
386.809	344.89
387.189	351.67
387.568	344.44
387.948	350.09
388.328	343.54
388.707	364.1
389.087	351.22
389.466	379.47
389.846	357.1
390.225	369.3
390.605	390.99
390.984	371.11
391.363	368.39
391.743	381.28
392.122	404.78
392.501	367.49
392.881	382.63
393.26	371.56
393.639	375.63
394.018	374.72
394.397	397.09
394.776	389.86
395.155	386.25
395.534	388.96
395.913	398.45
396.292	393.93
396.671	405
397.05	399.35
397.429	389.86
397.808	393.48
398.186	408.85
398.565	388.73
398.944	412.91
399.323	402.29
399.701	399.13
400.08	396.64
400.458	417.88
400.837	401.39
401.215	410.88
401.594	417.88
401.972	422.18
402.351	428.73
402.729	422.86
403.107	426.02
403.486	423.31
403.864	438.9
404.242	447.94
404.62	443.87
404.999	440.48
405.377	428.96
405.755	430.31
406.133	453.14
406.511	447.49
406.889	452.23
407.267	468.28
407.645	479.8
408.023	446.58
408.401	467.37
408.779	464.89
409.156	475.51
409.534	480.26
409.912	479.58
410.29	479.13
410.667	505.11
411.045	466.92
411.422	473.48
411.8	474.15
412.178	504.21
412.555	498.79
412.933	507.83
413.31	505.11
413.687	503.08
414.065	510.76
414.442	523.87
414.819	526.13
415.197	538.11
415.574	520.93
415.951	524.55
416.328	508.28
416.705	536.53
417.082	538.79
417.46	536.53
417.837	552.12
418.214	557.54
418.591	550.99
418.967	554.15
419.344	573.13
419.721	571.55
420.098	547.6
420.475	562.51
420.852	548.28
421.228	574.72
421.605	585.79
421.982	583.3
422.358	575.62
422.735	597.77
423.111	590.76
423.488	580.14
423.864	586.02
424.241	599.12
424.617	623.75
424.994	624.88
425.37	604.09
425.746	636.64
426.123	604.09
426.499	630.76
426.875	647.26
427.251	636.64
427.627	658.33
428.003	656.97
428.379	644.77
428.756	664.21
429.132	691.32
429.507	685.67
429.883	685
430.259	689.06
430.635	718.22
431.011	720.7
431.387	716.63
431.763	694.26
432.138	717.76
432.514	717.54
432.89	725.67
433.265	752.56
433.641	757.54
434.016	768.61
434.392	782.39
434.767	779.68
435.143	768.61
435.518	784.65
435.894	791.43
436.269	771.32
436.644	792.79
437.02	819.91
437.395	808.61
437.77	800.25
438.145	828.5
438.52	823.52
438.895	844.31
439.271	834.37
439.646	844.77
440.021	841.6
440.395	868.95
440.77	843.86
441.145	854.03
441.52	865.56
441.895	860.36
442.27	901.26
442.645	852.45
443.019	860.13
443.394	877.76
443.769	893.58
444.143	907.14
444.518	907.14
444.892	885.89
445.267	937.87
445.641	887.02
446.016	910.53
446.39	919.79
446.764	931.09
447.139	919.11
447.513	959.11
447.887	941.49
448.262	951.43
448.636	943.07
449.01	963.63
449.384	980.13
449.758	971.09
450.132	976.51
450.506	1002.28
450.88	977.64
451.254	1001.82
451.628	1008.83
452.002	999.34
452.376	1020.13
452.75	1026.91
453.123	1039.56
453.497	1069.84
453.871	1067.81
454.244	1059.22
454.618	1104.65
454.992	1084.99
455.365	1081.6
455.739	1103.29
456.112	1166.11
456.486	1153.68
456.859	1155.04
457.232	1168.83
457.606	1149.16
457.979	1186.45
458.352	1182.16
458.725	1184.64
459.099	1198.43
459.472	1214.93
459.845	1210.18
460.218	1235.72
460.591	1236.85
460.964	1248.37
461.337	1276.84
461.71	1304.87
462.083	1291.99
462.456	1304.19
462.829	1300.35
463.201	1323.85
463.574	1347.13
463.947	1357.29
464.32	1400.91
464.692	1409.95
465.065	1371.53
465.438	1412.43
465.81	1440
466.183	1452.89
466.555	1477.29
466.928	1472.32
467.3	1480.91
467.672	1501.25
468.045	1510.29
468.417	1553.22
468.789	1561.81
469.161	1558.65
469.534	1582.83
469.906	1583.05
470.278	1655.82
470.65	1665.31
471.022	1686.78
471.394	1684.74
471.766	1694.46
472.138	1713.9
472.51	1764.74
472.882	1751.41
473.253	1804.97
473.625	1823.5
473.997	1876.83
474.369	1813.78
474.74	1865.08
475.112	1887.22
475.484	1925.87
475.855	1969.71
476.227	1966.09
476.598	2022.59
476.97	2028.92
477.341	2118.86
477.713	2111.4
478.084	2114.34
478.455	2164.96
478.827	2169.7
479.198	2256.93
479.569	2247.67
479.94	2313.43
480.311	2281.56
480.682	2356.59
481.053	2381.45
481.424	2413.76
481.795	2451.5
482.166	2481.56
482.537	2499.64
482.908	2595.68
483.279	2583.93
483.65	2621.89
484.021	2673.64
484.391	2699.41
484.762	2717.71
485.133	2765.17
485.503	2753.42
485.874	2821.89
486.244	2870.02
486.615	2898.05
486.985	2931.94
487.356	2997.25
487.726	2997.48
488.097	3063.92
488.467	3042.9
488.837	3158.83
489.207	3165.38
489.578	3220.97
489.948	3228.43
490.318	3260.3
490.688	3314.76
491.058	3342.33
491.428	3397.69
491.798	3441.53
492.168	3477.69
492.538	3503
492.908	3508.65
493.278	3592.94
493.648	3601.98
494.017	3614.64
494.387	3669.55
494.757	3684.47
495.126	3722.2
495.496	3718.59
495.866	3765.82
496.235	3817.34
496.605	3806.5
496.974	3844.91
497.344	3868.64
497.713	3897.34
498.082	3885.14
498.452	3983.21
498.821	4013.27
499.19	4000.39
499.559	4060.05
499.928	4103.66
500.298	4103.66
500.667	4144.11
501.036	4162.42
501.405	4213.72
501.774	4198.8
502.143	4232.93
502.512	4270.44
502.88	4266.37
503.249	4303.21
503.618	4343.66
503.987	4413.94
504.356	4407.84
504.724	4382.98
505.093	4436.08
505.462	4452.58
505.83	4533.26
506.199	4533.26
506.567	4586.36
506.936	4581.84
507.304	4639.92
507.672	4673.37
508.041	4675.17
508.409	4700.26
508.777	4779.58
509.145	4774.15
509.514	4801.05
509.882	4853.7
510.25	4856.86
510.618	4856.64
510.986	4886.92
511.354	4919.01
511.722	4923.75
512.09	5017.09
512.458	5015.28
512.826	5086.91
513.193	5069.29
513.561	5165.1
513.929	5166.69
514.297	5218.44
514.664	5281.71
515.032	5271.09
515.4	5338.21
515.767	5289.62
516.135	5345.21
516.502	5367.36
516.869	5410.52
517.237	5455.27
517.604	5440.35
517.972	5550.63
518.339	5598.09
518.706	5605.77
519.073	5653.45
519.44	5690.06
519.808	5697.29
520.175	5681.25
520.542	5815.03
520.909	5805.54
521.276	5868.14
521.643	5895.71
522.009	5943.61
522.376	6001.24
522.743	6030.17
523.11	6051.41
523.477	6150.84
523.843	6145.19
524.21	6219.09
524.577	6253.66
524.943	6313.77
525.31	6290.72
525.676	6392.87
526.043	6417.95
526.409	6465.86
526.776	6556.71
527.142	6542.02
527.508	6598.06
527.874	6658.17
528.241	6660.43
528.607	6735.91
528.973	6806.42
529.339	6708.34
529.705	6816.36
530.071	6913.98
530.437	6881.44
530.803	6947.88
531.169	7038.73
531.535	7009.12
531.901	7109.23
532.267	7082.34
532.632	7085.73
532.998	7180.42
533.364	7215.45
533.73	7236.01
534.095	7306.29
534.461	7279.17
534.826	7335.67
535.192	7385.38
535.557	7486.17
535.923	7456.8
536.288	7443.46
536.653	7517.13
537.019	7551.93
537.384	7495.89
537.749	7595.32
538.114	7557.81
538.479	7592.61
538.845	7669.9
539.21	7638.26
539.575	7664.7
539.94	7734.53
540.305	7786.28
540.67	7716.68
541.034	7776.34
541.399	7800.29
541.764	7869.44
542.129	7828.76
542.494	7895.43
542.858	7919.61
543.223	7928.42
543.587	8021.98
543.952	7958.25
544.316	8025.82
544.681	8063.79
545.045	8078.7
545.41	8162.54
545.774	8143.11
546.138	8166.61
546.503	8177
546.867	8210.45
547.231	8242.99
547.595	8261.29
547.959	8334.74
548.324	8322.76
548.688	8339.71
549.052	8355.75
549.416	8356.88
549.779	8382.65
550.143	8424.23
550.507	8493.6
550.871	8505.13
551.235	8531.12
551.599	8554.39
551.962	8579.93
552.326	8618.35
552.689	8688.85
553.053	8646.37
553.417	8705.12
553.78	8835.29
554.143	8791.45
554.507	8833.71
554.87	8831
555.234	8942.18
555.597	8910.77
555.96	8967.04
556.323	8973.59
556.686	9068.96
557.05	9122.74
557.413	9018.79
557.776	9097.2
558.139	9189.18
558.502	9216.3
558.865	9162.74
559.228	9258.33
559.59	9333.36
559.953	9283.19
560.316	9426.69
560.679	9454.48
561.041	9479.57
561.404	9432.56
561.767	9581.71
562.129	9517.98
562.492	9681.82
562.854	9634.37
563.217	9681.82
563.579	9744.19
563.941	9768.83
564.304	9820.12
564.666	9885.88
565.028	9858.54
565.39	9910.74
565.753	10050.63
566.115	10007.01
566.477	10049.95
566.839	10090.17
567.201	10057.18
567.563	10189.15
567.925	10182.15
568.287	10212.88
568.648	10228.93
569.01	10282.03
569.372	10387.11
569.734	10298.3
570.095	10418.75
570.457	10479.09
570.819	10508.01
571.18	10553.21
571.542	10628.01
571.903	10575.36
572.265	10675.02
572.626	10654.45
572.987	10721.34
573.349	10689.7
573.71	10732.64
574.071	10778.29
574.432	10791.17
574.794	10973.09
575.155	10849.02
575.516	10819.64
575.877	10840.66
576.238	10940.55
576.599	10897.38
576.96	11041.56
577.32	10987.1
577.681	11067.1
578.042	11099.19
578.403	11063.48
578.763	10999.53
579.124	11047.21
579.485	11119.07
579.845	11137.38
580.206	11245.62
580.566	11188.22
580.927	11158.62
581.287	11171.95
581.648	11151.39
582.008	11237.71
582.368	11166.98
582.728	11240.42
583.089	11260.54
583.449	11179.41
583.809	11238.62
584.169	11240.65
584.529	11251.72
584.889	11298.5
585.249	11218.73
585.609	11248.79
585.969	11336.02
586.329	11249.46
586.688	11276.81
587.048	11347.09
587.408	11296.92
587.768	11255.34
588.127	11204.27
588.487	11280.65
588.846	11353.42
589.206	11276.13
589.565	11272.29
589.925	11337.15
590.284	11305.96
590.643	11240.88
591.003	11348.22
591.362	11344.15
591.721	11286.07
592.08	11352.06
592.44	11394.55
592.799	11354.55
593.158	11339.63
593.517	11324.72
593.876	11369.23
594.235	11294.21
594.593	11412.62
594.952	11337.37
595.311	11282.46
595.67	11303.02
596.029	11407.2
596.387	11440.65
596.746	11438.84
597.104	11395
597.463	11433.64
597.822	11501.66
598.18	11383.25
598.538	11411.04
598.897	11479.29
599.255	11425.5
599.613	11472.28
599.972	11488.78
600.33	11518.16
600.688	11438.16
601.046	11466.18
601.404	11529.46
601.762	11483.81
602.12	11690.81
602.478	11553.41
602.836	11566.52
603.194	11457.37
603.552	11545.28
603.91	11561.09
604.268	11596.12
604.625	11550.25
604.983	11635.44
605.341	11602.22
605.698	11638.61
606.056	11628.21
606.413	11634.54
606.771	11725.61
607.128	11724.71
607.485	11634.31
607.843	11724.93
608.2	11770.13
608.557	11873.85
608.914	11729
609.272	11752.95
609.629	11804.48
609.986	11802.67
610.343	11823.46
610.7	11979.84
611.057	11822.78
611.414	11753.41
611.771	11918.37
612.127	11932.84
612.484	11896.68
612.841	11904.14
613.198	11927.64
613.554	11860.75
613.911	11992.95
614.267	11919.5
614.624	12026.17
614.98	11950.69
615.337	11988.65
615.693	12037.01
616.05	11991.82
616.406	12019.61
616.762	12063.91
617.118	12038.14
617.475	11999.5
617.831	11992.04
618.187	12090.57
618.543	12089.67
618.899	12154.07
619.255	12068.88
619.611	12056.67
619.967	12236.33
620.323	12130.8
620.678	12163.11
621.034	12130.57
621.39	12104.36
621.746	12119.27
622.101	12253.28
622.457	12132.6
622.812	12167.18
623.168	12236.56
623.523	12176.45
623.879	12230.23
624.234	12101.65
624.589	12141.87
624.945	12136.45
625.3	12171.7
625.655	12194.52
626.01	12209.89
626.365	12189.33
626.72	12177.12
627.075	12160.63
627.43	12175.09
627.785	12169.67
628.14	12199.95
628.495	12184.35
628.85	12091.93
629.205	12125.15
629.559	12162.89
629.914	12178.93
630.269	12082.21
630.623	12020.07
630.978	12096.45
631.332	12122.66
631.687	12117.92
632.041	12098.93
632.396	12118.82
632.75	12060.06
633.104	12036.79
633.459	12017.13
633.813	11942.1
634.167	11968.09
634.521	12064.13
634.875	11977.58
635.229	11926.73
635.583	11897.36
635.937	11921.54
636.291	11898.26
636.645	11911.59
636.999	11787.08
637.352	11913.18
637.706	11830.47
638.06	11878.6
638.413	11841.09
638.767	11920.86
639.121	11850.8
639.474	11753.63
639.828	11731.49
640.181	11758.6
640.534	11729.45
640.888	11785.72
641.241	11600.64
641.594	11658.94
641.947	11763.35
642.301	11652.17
642.654	11780.3
643.007	11625.27
643.36	11682.45
643.713	11667.98
644.066	11691.03
644.419	11653.75
644.771	11576.91
645.124	11456.01
645.477	11424.6
645.83	11336.02
646.182	11323.36
646.535	11292.4
646.888	11275.9
647.24	11162.46
647.593	11257.15
647.945	11141.9
648.298	11195
648.65	11116.13
649.002	11118.17
649.355	11183.03
649.707	11122.69
650.059	11145.06
650.411	11233.42
650.763	11378.95
651.115	11390.93
651.467	11382.57
651.819	11355.9
652.171	11326.52
652.523	11311.16
652.875	11279.75
653.227	11276.13
653.578	11420.76
653.93	11323.36
654.282	11245.62
654.633	11185.74
654.985	11271.16
655.337	11277.49
655.688	11209.92
656.039	11331.72
656.391	11163.14
656.742	11162.01
657.094	11230.26
657.445	11280.42
657.796	11209.92
658.147	11185.51
658.498	11085.4
658.849	11154.1
659.2	11141.9
659.551	11171.73
659.902	11153.87
660.253	11138.28
660.604	11192.29
660.955	11156.59
661.306	11146.64
661.656	11191.39
662.007	11180.54
662.358	11157.26
662.708	11154.78
663.059	11114.1
663.409	11058.06
663.76	11137.83
664.11	11178.96
664.461	11145.96
664.811	11115.46
665.161	11081.11
665.511	11097.15
665.862	11059.64
666.212	11063.03
666.562	11130.82
666.912	11086.98
667.262	11014.89
667.612	11033.2
667.962	11041.56
668.312	11010.15
668.662	11128.79
669.011	11075.68
669.361	11029.81
669.711	11104.84
670.06	10975.8
670.41	11048.79
670.76	11038.4
671.109	10983.48
671.459	11036.81
671.808	10945.07
672.157	10927.44
672.507	10911.62
672.856	10927.89
673.205	10939.87
673.554	11010.6
673.904	10913.65
674.253	11020.54
674.602	10974.9
674.951	10871.39
675.3	10741
675.649	10999.75
675.998	10956.36
676.346	10903.48
676.695	10987.55
677.044	10842.47
677.393	10895.58
677.741	10959.3
678.09	10788.01
678.438	10838.18
678.787	10825.52
679.135	10890.83
679.484	10787.33
679.832	10786.65
680.181	10704.85
680.529	10720.21
680.877	10757.95
681.225	10705.3
681.573	10792.3
681.922	10721.34
682.27	10682.7
682.618	10723.6
682.966	10724.05
683.314	10708.91
683.661	10651.51
684.009	10633.21
684.357	10648.35
684.705	10538.52
685.053	10561.35
685.4	10466.43
685.748	10512.53
686.095	10492.87
686.443	10452.2
686.79	10412.2
687.138	10482.7
687.485	10483.83
687.832	10382.37
688.18	10435.25
688.527	10347.11
688.874	10277.29
689.221	10363.84
689.568	10254.24
689.915	10243.84
690.262	10282.71
690.609	10202.71
690.956	10157.97
691.303	10108.93
691.65	10137.63
691.997	10081.59
692.344	10044.52
692.69	10021.93
693.037	10130.17
693.383	9937.18
693.73	9979.22
694.077	9923.17
694.423	9916.62
694.769	9931.76
695.116	9935.15
695.462	9874.13
695.808	9843.85
696.155	9889.27
696.501	9768.15
696.847	9756.62
697.193	9699
697.539	9720.01
697.885	9704.42
698.231	9661.71
698.577	9715.95
698.923	9657.42
699.269	9663.97
699.614	9557.31
699.96	9579.68
700.306	9558.66
700.651	9529.06
700.997	9495.61
701.342	9478.44
701.688	9439.34
702.033	9462.62
702.379	9450.64
702.724	9385.78
703.069	9363.86
703.415	9263.3
703.76	9324.32
704.105	9267.37
704.45	9293.81
704.795	9267.6
705.14	9233.47
705.485	9194.6
705.83	9165.68
706.175	9191.67
706.52	9168.16
706.865	9143.3
707.209	9087.71
707.554	9014.95
707.899	9113.02
708.243	8998.9
708.588	8993.25
708.932	8917.1
709.277	8950.09
709.621	8950.77
709.966	8914.38
710.31	8937.43
710.654	8793.71
710.998	8838.91
711.342	8870.77
711.687	8831.67
712.031	8768.4
712.375	8748.06
712.719	8842.75
713.063	8765.69
713.407	8763.88
713.75	8706.93
714.094	8696.08
714.438	8692.47
714.782	8737.89
715.125	8653.83
715.469	8648.4
715.812	8575.41
716.156	8597.33
716.499	8631
716.843	8614.51
717.186	8541.74
717.53	8653.37
717.873	8581.51
718.216	8498.12
718.559	8527.73
718.902	8442.08
719.246	8398.01
719.589	8404.79
719.932	8355.75
720.275	8391.01
720.617	8444.11
720.96	8377.22
721.303	8378.81
721.646	8416.09
721.989	8294.06
722.331	8359.82
722.674	8305.59
723.016	8311.46
723.359	8367.96
723.701	8344.23
724.044	8210.22
724.386	8187.17
724.729	8258.81
725.071	8160.96
725.413	8183.33
725.755	8198.02
726.097	8248.41
726.439	8135.65
726.782	8108.98
727.124	8135.42
727.465	8136.78
727.807	8196.21
728.149	8115.54
728.491	8103.11
728.833	8134.07
729.175	8113.28
729.516	8078.93
729.858	8017.01
730.199	8050.23
730.541	8071.47
730.882	7972.71
731.224	8057.01
731.565	7941.08
731.906	7983.56
732.248	7967.29
732.589	7924.35
732.93	7965.26
733.271	7908.76
733.612	7901.98
733.953	7926.39
734.294	7919.38
734.635	7828.09
734.976	7856.78
735.317	7850.23
735.658	7860.63
735.999	7873.51
736.339	7821.08
736.68	7839.84
737.021	7859.04
737.361	7797.35
737.702	7841.87
738.042	7803.45
738.383	7786.96
738.723	7808.2
739.063	7762.78
739.404	7792.83
739.744	7770.46
740.084	7696.11
740.424	7738.37
740.764	7697.24
741.104	7707.64
741.444	7664.93
741.784	7623.57
742.124	7682.33
742.464	7648.2
742.804	7593.06
743.143	7584.02
743.483	7643.23
743.823	7505.16
744.162	7526.62
744.502	7592.61
744.841	7469
745.181	7554.42
745.52	7446.17
745.86	7452.95
746.199	7468.09
746.538	7467.87
746.877	7498.15
747.216	7515.1
747.556	7464.03
747.895	7413.41
748.234	7471.03
748.573	7424.71
748.911	7356.01
749.25	7383.8
749.589	7354.88
749.928	7339.51
750.267	7419.73
750.605	7353.3
750.944	7294.77
751.283	7290.02
751.621	7272.62
751.96	7256.35
752.298	7203.02
752.636	7268.33
752.975	7212.51
753.313	7161.66
753.651	7266.29
753.989	7214.32
754.327	7222
754.666	7077.82
755.004	7123.7
755.342	7157.14
755.679	7104.71
756.017	7065.17
756.355	7138.84
756.693	7042.57
757.031	7050.48
757.368	7011.16
757.706	7009.8
758.044	6997.6
758.381	6998.28
758.719	6974.77
759.056	6940.2
759.394	6936.36
759.731	6833.08
760.068	6825.85
760.405	6822.46
760.743	6803.25
761.08	6802.8
761.417	6767.32
761.754	6770.26
762.091	6747.89
762.428	6754.89
762.765	6699.3
763.102	6710.15
763.438	6706.98
763.775	6679.87
764.112	6739.07
764.449	6662.24
764.785	6655.01
765.122	6600.77
765.458	6528.23
765.795	6515.35
766.131	6576.37
766.467	6512.41
766.804	6497.95
767.14	6449.36
767.476	6466.76
767.812	6537.72
768.148	6463.15
768.485	6415.69
768.821	6361.01
769.157	6364.17
769.492	6342.7
769.828	6378.86
770.164	6295.47
770.5	6257.28
770.836	6243.04
771.171	6201.01
771.507	6215.92
771.842	6119.2
772.178	6132.76
772.513	6159.88
772.849	6132.54
773.184	6084.85
773.519	6101.12
773.855	6093.44
774.19	6009.6
774.525	6038.3
774.86	6022.03
775.195	5991.75
775.53	5996.04
775.865	5954.69
776.2	5904.52
776.535	5882.83
776.87	5934.58
777.205	5888.02
777.539	5808.25
777.874	5798.31
778.209	5784.98
778.543	5774.35
778.878	5719.44
779.212	5755.37
779.547	5717.41
779.881	5722.83
780.215	5688.25
780.55	5695.26
780.884	5638.31
781.218	5640.8
781.552	5624.53
781.886	5650.97
782.22	5623.85
782.554	5543.17
782.888	5556.73
783.222	5518.09
783.556	5483.29
783.889	5457.75
784.223	5464.53
784.557	5428.83
784.89	5459.33
785.224	5431.09
785.557	5399.67
785.891	5379.79
786.224	5348.83
786.558	5387.7
786.891	5310.19
787.224	5261.15
787.557	5238.1
787.891	5267.25
788.224	5257.76
788.557	5232.9
788.89	5194.71
789.223	5200.36
789.556	5135.95
789.888	5137.08
790.221	5181.6
790.554	5095.05
790.887	5060.93
791.219	5109.51
791.552	5064.99
791.884	5088.04
792.217	5031.55
792.549	4990.65
792.882	4994.94
793.214	4970.31
793.546	4976.18
793.879	4975.96
794.211	4964.43
794.543	4973.02
794.875	4951.78
795.207	4925.11
795.539	4888.28
795.871	4875.17
796.203	4869.29
796.535	4833.36
796.867	4837.66
797.198	4796.98
797.53	4760.82
797.862	4781.61
798.193	4799.24
798.525	4752.69
798.856	4755.4
799.188	4696.42
799.519	4712.01
799.85	4645.57
800.182	4710.88
800.513	4679.02
800.844	4643.54
801.175	4635.4
801.506	4647.6
801.837	4632.24
802.168	4660.48
802.499	4563.54
802.83	4595.4
803.161	4575.52
803.491	4597.66
803.822	4531.22
804.153	4542.3
804.483	4503.43
804.814	4525.35
805.145	4478.57
805.475	4503.88
805.805	4498
806.136	4440.15
806.466	4458.46
806.796	4443.32
807.126	4424.33
807.457	4393.15
807.787	4444.67
808.117	4413.26
808.447	4389.08
808.777	4392.92
809.107	4389.08
809.436	4312.92
809.766	4349.31
810.096	4320.15
810.426	4352.92
810.755	4293.04
811.085	4301.85
811.414	4300.72
811.744	4268.63
812.073	4260.27
812.403	4285.13
812.732	4226.82
813.061	4288.52
813.39	4192.47
813.719	4187.28
814.049	4194.28
814.378	4206.03
814.707	4190.44
815.036	4166.26
815.365	4184.11
815.693	4107.5
816.022	4146.6
816.351	4135.3
816.68	4115.87
817.008	4099.14
817.337	4107.28
817.665	4059.37
817.994	4084.23
818.322	4109.54
818.651	4063.89
818.979	4071.35
819.307	4075.42
819.636	4063.89
819.964	4003.78
820.292	4011.01
820.62	4035.64
820.948	3999.26
821.276	4040.84
821.604	4000.84
821.932	4004.91
822.259	4018.02
822.587	3976.66
822.915	4003.78
823.243	3987.96
823.57	4018.02
823.898	3974.85
824.225	3975.08
824.553	3979.15
824.88	4024.8
825.207	4019.82
825.535	3967.85
825.862	3989.54
826.189	3969.43
826.516	3990.67
826.843	4027.06
827.17	4011.46
827.497	3997.9
827.824	3982.54
828.151	4022.54
828.478	3999.03
828.805	4017.11
829.131	3988.41
829.458	3986.6
829.785	3962.65
830.111	3942.31
830.438	3997.9
830.764	3984.34
831.09	4015.76
831.417	4001.52
831.743	3983.67
832.069	3994.29
832.395	3969.2
832.722	3970.56
833.048	3964.68
833.374	3928.3
833.7	3946.83
834.026	3945.25
834.351	4002.2
834.677	3960.16
835.003	3940.96
835.329	3935.53
835.654	3910.67
835.98	3916.55
836.306	3942.76
836.631	3923.33
836.956	3933.27
837.282	3931.24
837.607	3905.48
837.932	3913.61
838.258	3910.67
838.583	3898.7
838.908	3861.86
839.233	3886.27
839.558	3827.51
839.883	3865.7
840.208	3819.83
840.533	3841.52
840.858	3810.34
841.182	3806.95
841.507	3859.15
841.832	3784.58
842.156	3780.06
842.481	3780.96
842.805	3764.69
843.13	3745.93
843.454	3804.69
843.778	3730.11
844.103	3708.42
844.427	3742.54
844.751	3747.06
845.075	3747.06
845.399	3738.93
845.723	3717.46
846.047	3728.53
846.371	3669.55
846.695	3663.45
847.019	3638.14
847.343	3645.14
847.666	3608.08
847.99	3603.79
848.313	3600.63
848.637	3607.18
848.96	3589.55
849.284	3590.68
849.607	3580.06
849.931	3526.73
850.254	3526.05
850.577	3459.16
850.9	3460.52
851.223	3510.01
851.546	3461.87
851.869	3447.86
852.192	3484.92
852.515	3459.39
852.838	3445.15
853.161	3408.31
853.483	3385.49
853.806	3421.65
854.129	3414.19
854.451	3397.47
854.774	3384.13
855.096	3354.08
855.419	3349.33
855.741	3352.72
856.063	3313.63
856.385	3335.1
856.708	3294.87
857.03	3319.73
857.352	3289.45
857.674	3295.55
857.996	3299.62
858.318	3215.1
858.64	3240.64
858.961	3263.23
859.283	3264.82
859.605	3245.38
859.926	3272.72
860.248	3231.37
860.57	3235.44
860.891	3239.73
861.212	3218.04
861.534	3221.88
861.855	3209
862.176	3186.4
862.498	3216.91
862.819	3228.66
863.14	3183.91
863.461	3177.13
863.782	3175.55
864.103	3175.78
864.424	3122.22
864.745	3153.63
865.065	3121.09
865.386	3128.32
865.707	3104.82
866.027	3147.3
866.348	3138.49
866.668	3112.5
866.989	3125.84
867.309	3093.29
867.63	3093.29
867.95	3094.2
868.27	3056.91
868.59	3100.98
868.91	3064.37
869.23	3044.03
869.55	3019.62
869.87	3044.71
870.19	3054.65
870.51	3058.04
870.83	3057.82
871.15	3020.98
871.469	3020.75
871.789	3022.56
872.109	3021.43
872.428	3035.67
872.748	2997.93
873.067	3008.32
873.386	3052.39
873.706	3014.65
874.025	2985.05
874.344	2963.58
874.663	3001.32
874.982	2995.67
875.301	3007.19
875.62	2977.59
875.939	2945.5
876.258	3001.32
876.577	2965.39
876.896	2958.38
877.214	2958.83
877.533	2934.2
877.852	2959.96
878.17	2944.37
878.489	2942.56
878.807	2957.25
879.125	2950.47
879.444	2978.95
879.762	2898.72
880.08	2910.25
880.398	2907.54
880.716	2897.14
881.034	2941.66
881.352	2892.85
881.67	2891.04
881.988	2900.08
882.306	2867.99
882.624	2886.07
882.941	2895.33
883.259	2874.54
883.577	2855.56
883.894	2879.74
884.212	2862.34
884.529	2824.37
884.846	2806.07
885.164	2843.81
885.481	2835
885.798	2803.58
886.115	2811.95
886.432	2790.7
886.75	2790.7
887.067	2807.2
887.383	2800.87
887.7	2800.65
888.017	2752.29
888.334	2777.6
888.651	2742.8
888.967	2744.83
889.284	2777.82
889.6	2766.07
889.917	2718.39
890.233	2721.1
890.55	2714.77
890.866	2715.23
891.182	2718.16
891.498	2724.49
891.815	2715
892.131	2747.09
892.447	2701.67
892.763	2694.89
893.079	2690.37
893.395	2667.99
893.71	2651.95
894.026	2680.42
894.342	2623.48
894.657	2654.89
894.973	2633.87
895.289	2623.93
895.604	2621.89
895.92	2587.77
896.235	2604.49
896.55	2581.9
896.865	2599.97
897.181	2579.64
897.496	2569.69
897.811	2569.47
898.126	2547.09
898.441	2547.55
898.756	2544.83
899.071	2545.06
899.386	2508.68
899.7	2501.9
900.015	2516.81
900.33	2480.2
900.644	2512.07
900.959	2525.17
901.273	2504.16
901.588	2478.85
901.902	2485.85
902.216	2466.87
902.531	2487.66
902.845	2451.05
903.159	2441.11
903.473	2404.72
903.787	2402.69
904.101	2377.38
904.415	2397.27
904.729	2420.54
905.042	2390.49
905.356	2381.45
905.67	2364.5
905.984	2390.71
906.297	2343.03
906.611	2357.95
906.924	2378.96
907.237	2341.22
907.551	2329.7
907.864	2312.98
908.177	2338.51
908.491	2293.54
908.804	2331.73
909.117	2298.51
909.43	2254.22
909.743	2267.1
910.056	2267.1
910.368	2262.36
910.681	2220.1
910.994	2250.83
911.307	2238.85
911.619	2217.61
911.932	2202.92
912.244	2230.49
912.557	2200.21
912.869	2192.3
913.181	2153.21
913.494	2187.33
913.806	2161.34
914.118	2177.16
914.43	2124.51
914.742	2150.49
915.054	2150.49
915.366	2138.74
915.678	2120.89
915.99	2101
916.302	2078.63
916.613	2094
916.925	2091.06
917.236	2092.64
917.548	2085.41
917.859	2047.45
918.171	2047.45
918.482	2046.32
918.794	2033.44
919.105	2025.53
919.416	2018.29
919.727	1996.6
920.038	2025.75
920.349	2008.35
920.66	1994.79
920.971	2014.9
921.282	1982.82
921.593	1945.3
921.903	1965.19
922.214	1976.71
922.525	1991.63
922.835	1943.27
923.146	1961.12
923.456	1940.1
923.767	1964.28
924.077	1913.66
924.387	1920.9
924.697	1921.57
925.008	1904.17
925.318	1914.34
925.628	1910.05
925.938	1885.42
926.248	1876.15
926.558	1882.25
926.867	1878.64
927.177	1866.66
927.487	1830.5
927.796	1836.83
928.106	1849.71
928.416	1867.34
928.725	1806.55
929.034	1825.31
929.344	1810.39
929.653	1812.65
929.962	1814.91
930.271	1821.92
930.581	1809.49
930.89	1767.23
931.199	1776.49
931.508	1784.63
931.817	1774.46
932.125	1761.58
932.434	1762.03
932.743	1732.2
933.051	1749.83
933.36	1764.29
933.669	1731.97
933.977	1695.82
934.286	1705.08
934.594	1705.99
934.902	1709.6
935.21	1696.49
935.519	1701.69
935.827	1672.77
936.135	1689.04
936.443	1669.38
936.751	1670.96
937.059	1666.21
937.367	1680
937.674	1630.06
937.982	1644.07
938.29	1666.44
938.597	1637.06
938.905	1618.53
939.213	1628.47
939.52	1645.87
939.827	1603.16
940.135	1623.95
940.442	1624.18
940.749	1579.44
941.056	1577.85
941.363	1606.1
941.67	1567.23
941.977	1594.12
942.284	1547.35
942.591	1552.77
942.898	1565.42
943.205	1552.32
943.511	1544.86
943.818	1512.54
944.125	1523.39
944.431	1519.32
944.738	1519.1
945.044	1540.34
945.35	1503.96
945.657	1494.47
945.963	1496.05
946.269	1509.83
946.575	1492.88
946.881	1492.43
947.187	1497.86
947.493	1473.22
947.799	1477.07
948.105	1466.67
948.41	1435.48
948.716	1442.26
949.022	1442.26
949.327	1425.54
949.633	1423.51
949.938	1420.57
950.244	1439.33
950.549	1435.03
950.854	1449.04
951.16	1402.27
951.465	1397.75
951.77	1400.91
952.075	1409.27
952.38	1366.11
952.685	1387.58
952.99	1382.6
953.294	1383.73
953.599	1365.88
953.904	1369.72
954.209	1351.65
954.513	1374.47
954.818	1353.68
955.122	1342.61
955.426	1340.57
955.731	1350.52
956.035	1320.23
956.339	1329.5
956.643	1308.93
956.948	1313.68
957.252	1288.37
957.556	1297.18
957.86	1317.52
958.163	1310.06
958.467	1317.3
958.771	1276.17
959.075	1291.31
959.378	1249.05
959.682	1250.18
959.985	1258.31
960.289	1277.3
960.592	1241.37
960.896	1261.48
961.199	1265.55
961.502	1242.27
961.805	1240.24
962.108	1208.6
962.411	1239.78
962.714	1230.97
963.017	1216.51
963.32	1214.47
963.623	1212.89
963.926	1214.47
964.228	1208.6
964.531	1190.75
964.833	1193.68
965.136	1207.92
965.438	1181.25
965.741	1221.93
966.043	1175.15
966.345	1178.99
966.648	1181.93
966.95	1164.98
967.252	1174.02
967.554	1149.39
967.856	1150.75
968.158	1169.28
968.46	1144.87
968.761	1132.22
969.063	1187.58
969.365	1147.36
969.666	1141.48
969.968	1118.66
970.269	1146.23
970.571	1141.03
970.872	1119.11
971.174	1125.44
971.475	1122.27
971.776	1095.83
972.077	1126.79
972.378	1117.98
972.679	1111.2
972.98	1114.14
973.281	1076.4
973.582	1111.2
973.883	1088.83
974.183	1082.05
974.484	1066
974.785	1085.44
975.085	1087.92
975.386	1108.26
975.686	1083.18
975.986	1073.23
976.287	1054.7
976.587	1055.16
976.887	1039.34
977.187	1059.45
977.487	1047.7
977.787	1030.98
978.087	1046.12
978.387	1051.99
978.687	1044.08
978.987	1030.75
979.286	1019.22
979.586	1038.21
979.885	1014.7
980.185	1021.48
980.484	990.3
980.784	1020.35
981.083	988.04
981.382	1013.58
981.682	987.59
981.981	1004.08
982.28	980.36
982.579	975.16
982.878	958.89
983.177	988.04
983.475	967.25
983.774	967.93
984.073	962.5
984.372	971.54
984.67	978.77
984.969	956.63
985.267	961.82
985.566	938.32
985.864	957.53
986.162	966.8
986.461	943.07
986.759	952.33
987.057	919.79
987.355	969.28
987.653	958.21
987.951	964.31
988.249	941.71
988.547	932.67
988.844	931.32
989.142	921.37
989.44	908.49
989.737	912.11
990.035	919.57
990.332	903.97
990.63	918.21
990.927	916.85
991.224	896.29
991.521	914.37
991.819	905.56
992.116	894.26
992.413	900.81
992.71	888.15
993.006	880.25
993.303	870.3
993.6	895.39
993.897	864.65
994.193	870.53
994.49	876.63
994.787	868.27
995.083	826.91
995.379	875.5
995.676	854.26
995.972	855.39
996.268	865.33
996.565	854.71
996.861	857.87
997.157	862.17
997.453	835.73
997.749	846.12
998.044	847.25
998.34	823.52
998.636	816.07
998.932	837.53
999.227	822.85
999.523	828.04
999.818	786.69
1000.114	797.31
1000.409	795.73
1000.704	805.67
1001	806.12
1001.295	804.99
1001.59	802.51
1001.885	786.69
1002.18	807.7
1002.475	783.75
1002.77	770.42
1003.065	786.01
1003.359	795.73
1003.654	781.94
1003.949	784.2
1004.243	778.78
1004.538	735.84
1004.832	750.76
1005.127	776.75
1005.421	771.77
1005.715	751.44
1006.009	769.51
1006.304	752.79
1006.598	762.73
1006.892	752.79
1007.186	757.99
1007.48	749.63
1007.773	730.19
1008.067	759.34
1008.361	716.41
1008.655	720.48
1008.948	715.28
1009.242	714.15
1009.535	746.24
1009.829	707.59
1010.122	718.44
1010.415	712.34
1010.708	709.85
1011.001	701.94
1011.295	712.34
1011.588	702.62
1011.881	712.11
1012.173	726.12
1012.466	689.29
1012.759	674.83
1013.052	678.89
1013.344	696.97
1013.637	672.79
1013.93	671.21
1014.222	672.57
1014.514	671.21
1014.807	658.78
1015.099	672.34
1015.391	665.11
1015.683	657.65
1015.976	659.01
1016.268	662.62
1016.56	666.92
1016.851	659.01
1017.143	641.38
1017.435	654.26
1017.727	627.82
1018.018	641.83
1018.31	631.66
1018.602	637.54
1018.893	647.48
1019.185	637.99
1019.476	623.08
1019.767	622.4
1020.058	632.12
1020.35	609.74
1020.641	612.91
1020.932	622.62
1021.223	632.57
1021.514	600.03
1021.804	616.3
1022.095	624.88
1022.386	618.56
1022.677	605.9
1022.967	610.42
1023.258	608.39
1023.548	602.06
1023.839	615.17
1024.129	586.69
1024.419	580.37
1024.709	604.32
1025	589.63
1025.29	585.56
1025.58	563.19
1025.87	588.95
1026.16	582.85
1026.449	573.59
1026.739	549.41
1027.029	588.95
1027.319	555.51
1027.608	559.8
1027.898	583.76
1028.187	559.12
1028.477	565
1028.766	565.45
1029.055	556.86
1029.344	568.16
1029.634	541.72
1029.923	542.18
1030.212	558.9
1030.501	566.81
1030.79	541.05
1031.078	550.08
1031.367	531.33
1031.656	541.27
1031.945	527.94
1032.233	516.86
1032.522	547.82
1032.81	535.62
1033.099	506.47
1033.387	516.41
1033.675	559.58
1033.963	529.75
1034.251	528.62
1034.54	533.81
1034.828	499.24
1035.116	523.19
1035.403	523.42
1035.691	507.6
1035.979	505.57
1036.267	496.98
1036.554	503.31
1036.842	488.84
1037.129	496.98
1037.417	497.43
1037.704	503.76
1037.992	487.04
1038.279	527.49
1038.566	501.27
1038.853	501.27
1039.14	501.27
