Data from black_plastic_tray_FLMS001491_058.txt Node
Date: Tue Feb 07 10:40:10 GMT 2017
User: dcchb
Spectrometer: FLMS00149
Trigger mode: 0
Integration Time (sec): 2.000000E-2
Scans to average: 10
Electric dark correction enabled: true
Nonlinearity correction enabled: false
Boxcar width: 0
XAxis mode: Wavelengths
Number of Pixels in Spectrum: 2048
>>>>>Begin Spectral Data<<<<<
341.393	-6.64
341.776	-6.64
342.16	-6.64
342.543	-63.13
342.927	-50.7
343.31	-67.43
343.693	-58.84
344.077	-81.89
344.46	-68.11
344.843	-51.38
345.226	-30.37
345.61	-22.68
345.993	8.05
346.376	-18.16
346.759	15.73
347.142	11.44
347.525	29.07
347.908	48.73
348.291	90.31
348.674	89.18
349.057	106.35
349.44	141.61
349.823	139.35
350.206	162.85
350.588	179.12
350.971	212.79
351.354	248.5
351.737	202.17
352.119	238.78
352.502	254.82
352.884	269.96
353.267	287.14
353.65	275.61
354.032	268.16
354.414	305.67
354.797	291.88
355.179	309.96
355.562	293.01
355.944	310.19
356.326	328.95
356.709	320.58
357.091	329.85
357.473	336.86
357.855	328.72
358.238	340.25
358.62	318.55
359.002	345.22
359.384	308.83
359.766	302.51
360.148	327.14
360.53	357.19
360.912	341.15
361.294	347.48
361.676	337.08
362.057	325.78
362.439	320.36
362.821	297.31
363.203	333.01
363.584	301.6
363.966	342.05
364.348	325.1
364.729	302.28
365.111	292.79
365.493	322.39
365.874	321.94
366.256	316.74
366.637	319.45
367.019	302.96
367.4	321.94
367.781	325.1
368.163	311.09
368.544	306.35
368.925	313.58
369.306	340.47
369.688	303.64
370.069	315.61
370.45	314.03
370.831	314.03
371.212	325.33
371.593	327.59
371.974	313.35
372.355	296.4
372.736	311.55
373.117	320.58
373.498	307.25
373.879	314.48
374.26	296.18
374.641	306.8
375.021	304.31
375.402	322.17
375.783	344.99
376.163	314.71
376.544	341.15
376.925	344.99
377.305	334.6
377.686	326.69
378.066	330.75
378.447	338.66
378.827	352.22
379.208	328.49
379.588	353.13
379.968	355.16
380.349	354.93
380.729	346.12
381.109	343.18
381.489	373.24
381.87	342.51
382.25	345.44
382.63	360.58
383.01	370.53
383.39	366.23
383.77	361.26
384.15	367.59
384.53	363.3
384.91	354.71
385.29	339.34
385.67	364.65
386.049	339.34
386.429	388.83
386.809	353.8
387.189	377.08
387.568	366.46
387.948	378.66
388.328	394.71
388.707	391.09
389.087	376.63
389.466	375.27
389.846	378.44
390.225	387.25
390.605	379.57
390.984	377.76
391.363	422.5
391.743	393.58
392.122	406.01
392.501	390.19
392.881	421.83
393.26	389.28
393.639	421.37
394.018	426.12
394.397	397.19
394.776	414.59
395.155	434.25
395.534	414.14
395.913	429.96
396.292	429.28
396.671	422.95
397.05	445.78
397.429	425.44
397.808	441.03
398.186	446.46
398.565	425.89
398.944	418.21
399.323	443.07
399.701	425.67
400.08	448.27
400.458	434.48
400.837	448.04
401.215	464.76
401.594	480.35
401.972	440.58
402.351	460.24
402.729	478.32
403.107	479
403.486	491.65
403.864	473.35
404.242	470.86
404.62	482.16
404.999	484.2
405.377	460.92
405.755	499.56
406.133	483.52
406.511	496.85
406.889	497.98
407.267	501.82
407.645	498.21
408.023	511.31
408.401	519.45
408.779	531.43
409.156	527.58
409.534	530.3
409.912	545.21
410.29	549.28
410.667	533.69
411.045	556.96
411.422	555.38
411.8	547.47
412.178	540.47
412.555	552.22
412.933	572.1
413.31	576.62
413.687	587.47
414.065	574.14
414.442	600.35
414.819	597.64
415.197	593.57
415.574	633.8
415.951	585.21
416.328	628.83
416.705	618.66
417.082	608.94
417.46	646.23
417.837	658.43
418.214	631.54
418.591	649.39
418.967	655.04
419.344	640.8
419.721	661.37
420.098	652.78
420.475	624.76
420.852	655.27
421.228	682.61
421.605	673.34
421.982	676.06
422.358	677.64
422.735	703.4
423.111	671.31
423.488	690.07
423.864	702.72
424.241	709.28
424.617	722.61
424.994	721.93
425.37	725.55
425.746	723.29
426.123	719.44
426.499	723.06
426.875	737.07
427.251	768.48
427.627	766.67
428.003	792.44
428.379	776.84
428.756	787.92
429.132	804.64
429.507	784.53
429.883	801.02
430.259	841.02
430.635	827.46
431.011	855.26
431.387	852.1
431.763	862.04
432.138	867.92
432.514	869.5
432.89	890.74
433.265	917.63
433.641	909.72
434.016	880.12
434.392	929.38
434.767	931.64
435.143	926.22
435.518	953.34
435.894	940.23
436.269	970.96
436.644	958.31
437.02	977.06
437.395	979.32
437.77	1002.37
438.145	1012.77
438.52	1016.16
438.895	1026.33
439.271	1025.43
439.646	1029.72
440.021	1035.14
440.395	1062.94
440.77	1053.67
441.145	1067.68
441.52	1077.4
441.895	1100
442.27	1074.92
442.645	1072.88
443.019	1103.84
443.394	1105.42
443.769	1112.2
444.143	1093.22
444.518	1141.58
444.892	1086.44
445.267	1100.68
445.641	1129.15
446.016	1151.3
446.39	1161.47
446.764	1156.27
447.139	1148.36
447.513	1175.48
447.887	1197.62
448.262	1199.66
448.636	1204.86
449.01	1217.06
449.384	1212.99
449.758	1222.48
450.132	1270.62
450.506	1231.52
450.88	1259.09
451.254	1255.25
451.628	1263.84
452.002	1301.12
452.376	1284.18
452.75	1307.9
453.123	1325.08
453.497	1349.71
453.871	1345.19
454.244	1370.5
454.618	1379.99
454.992	1368.47
455.365	1383.61
455.739	1383.38
456.112	1411.18
456.486	1431.97
456.859	1436.26
457.232	1466.09
457.606	1470.84
457.979	1490.95
458.352	1514.68
458.725	1546.09
459.099	1557.84
459.472	1584.51
459.845	1587.44
460.218	1624.28
460.591	1616.14
460.964	1637.16
461.337	1656.82
461.71	1673.09
462.083	1671.96
462.456	1701.34
462.829	1699.31
463.201	1721.23
463.574	1723.71
463.947	1794.9
464.32	1797.16
464.692	1812.75
465.065	1837.61
465.438	1859.53
465.81	1856.14
466.183	1889.13
466.555	1908.79
466.928	1945.4
467.3	1922.12
467.672	1942.69
468.045	2005.96
468.417	2001.67
468.789	2028.79
469.161	2060.43
469.534	2117.83
469.906	2084.38
470.278	2138.62
470.65	2114.89
471.022	2202.8
471.394	2201.89
471.766	2242.34
472.138	2262.23
472.51	2292.74
472.882	2359.63
473.253	2367.99
473.625	2421.09
473.997	2412.96
474.369	2446.86
474.74	2506.97
475.112	2519.85
475.484	2548.55
475.855	2591.94
476.227	2665.61
476.598	2688.21
476.97	2694.31
477.341	2755.32
477.713	2836
478.084	2804.36
478.455	2904.25
478.827	2890.01
479.198	2991.48
479.569	3011.81
479.94	3091.81
480.311	3089.33
480.682	3160.51
481.053	3219.49
481.424	3263.11
481.795	3334.06
482.166	3339.94
482.537	3429.2
482.908	3449.77
483.279	3471.24
483.65	3595.3
484.021	3626.03
484.391	3679.14
484.762	3686.6
485.133	3709.42
485.503	3765.01
485.874	3819.48
486.244	3864.45
486.615	4000.49
486.985	3995.97
487.356	4038.68
487.726	4113.71
488.097	4193.93
488.467	4162.29
488.837	4261.95
489.207	4298.33
489.578	4370.65
489.948	4384.88
490.318	4461.04
490.688	4501.72
491.058	4594.6
491.428	4597.53
491.798	4617.87
492.168	4703.52
492.538	4774.03
492.908	4806.57
493.278	4866.45
493.648	4830.52
494.017	4897.87
494.387	4929.05
494.757	5008.6
495.126	5078.88
495.496	5076.62
495.866	5143.06
496.235	5194.81
496.605	5199.55
496.974	5245.88
497.344	5326.33
497.713	5355.71
498.082	5422.15
498.452	5439.77
498.821	5466.89
499.19	5489.04
499.559	5523.39
499.928	5547.79
500.298	5537.4
500.667	5672.76
501.036	5643.83
501.405	5681.8
501.774	5719.54
502.143	5786.88
502.512	5784.85
502.88	5885.41
503.249	5842.25
503.618	5933.54
503.987	5969.7
504.356	5962.92
504.724	6060.32
505.093	6018.51
505.462	6125.4
505.83	6081.79
506.199	6204.05
506.567	6252.86
506.936	6315.68
507.304	6350.48
507.672	6315.23
508.041	6394.32
508.409	6438.62
508.777	6500.31
509.145	6528.78
509.514	6553.64
509.882	6672.51
510.25	6643.58
510.618	6631.61
510.986	6733.75
511.354	6832.96
511.722	6874.76
512.09	6931.03
512.458	6933.52
512.826	6985.72
513.193	7030.69
513.561	7041.76
513.929	7133.51
514.297	7191.82
514.664	7186.17
515.032	7233.85
515.4	7315.88
515.767	7342.1
516.135	7353.39
516.502	7408.99
516.869	7542.09
517.237	7565.14
517.604	7473.39
517.972	7665.25
518.339	7691.92
518.706	7696.66
519.073	7754.06
519.44	7871.35
519.808	7913.38
520.175	7955.64
520.542	7979.14
520.909	8046.48
521.276	8037.9
521.643	8187.04
522.009	8217.1
522.376	8275.63
522.743	8347.49
523.11	8408.28
523.477	8524.66
523.843	8480.14
524.21	8634.04
524.577	8666.81
524.943	8709.52
525.31	8764.66
525.676	8813.02
526.043	8969.85
526.409	8978.89
526.776	9061.82
527.142	9101.37
527.508	9103.4
527.874	9176.85
528.241	9258.88
528.607	9251.42
528.973	9426.79
529.339	9419.33
529.705	9513.79
530.071	9514.02
530.437	9639.89
530.803	9714.01
531.169	9732.09
531.535	9679.66
531.901	9730.96
532.267	9764.4
532.632	9817.28
532.998	9936.15
533.364	9910.16
533.73	9989.48
534.095	10074.68
534.461	10071.06
534.826	10181.57
535.192	10178.18
535.557	10257.05
535.923	10280.1
536.288	10350.15
536.653	10433.77
537.019	10408.23
537.384	10443.48
537.749	10483.03
538.114	10550.6
538.479	10564.16
538.845	10629.24
539.21	10611.84
539.575	10604.83
539.94	10742.91
540.305	10715.79
540.67	10729.8
541.034	10838.05
541.399	10791.72
541.764	10860.65
542.129	10926.86
542.494	10940.64
542.858	10964.15
543.223	10987.2
543.587	11055.22
543.952	11073.07
544.316	11070.58
544.681	11083.01
545.045	11182.22
545.41	11160.53
545.774	11281.88
546.138	11334.31
546.503	11304.48
546.867	11343.57
547.231	11491.82
547.595	11446.39
547.959	11550.12
548.324	11591.93
548.688	11605.71
549.052	11592.15
549.416	11641.64
549.779	11578.14
550.143	11719.61
550.507	11717.35
550.871	11910.56
551.235	11802.77
551.599	11971.8
551.962	11866.72
552.326	12005.25
552.689	12056.32
553.053	12003.44
553.417	12056.1
553.78	12215.64
554.143	12247.05
554.507	12299.48
554.87	12373.6
555.234	12460.83
555.597	12333.15
555.96	12409.08
556.323	12441.4
556.686	12555.29
557.05	12659.47
557.413	12617.44
557.776	12613.82
558.139	12730.88
558.502	12785.79
558.865	12819.24
559.228	12917.09
559.59	13007.93
559.953	12968.61
560.316	13105.56
560.679	13052.23
561.041	13212.9
561.404	13191.21
561.767	13257.65
562.129	13260.13
562.492	13402.27
562.854	13417.19
563.217	13442.27
563.579	13588.03
563.941	13563.63
564.304	13685.43
564.666	13743.96
565.028	13783.06
565.39	13867.8
565.753	13911.19
566.115	13865.31
566.477	13935.14
566.839	14045.87
567.201	14138.75
567.563	14070.28
567.925	14204.51
568.287	14204.74
568.648	14291.52
569.01	14334.23
569.372	14367.22
569.734	14393.44
570.095	14562.47
570.457	14642.69
570.819	14677.04
571.18	14705.52
571.542	14671.17
571.903	14738.96
572.265	14899.41
572.626	14759.3
572.987	14866.64
573.349	14853.08
573.71	14947.32
574.071	14965.4
574.432	15037.71
574.794	15190.02
575.155	15106.41
575.516	15082.91
575.877	15146.18
576.238	15200.42
576.599	15273.41
576.96	15137.6
577.32	15238.61
577.681	15257.59
578.042	15346.86
578.403	15379.17
578.763	15431.6
579.124	15490.36
579.485	15449.9
579.845	15480.64
580.206	15397.48
580.566	15403.35
580.927	15499.85
581.287	15463.69
581.648	15393.41
582.008	15525.61
582.368	15557.25
582.728	15525.83
583.089	15540.75
583.449	15571.03
583.809	15604.93
584.169	15584.59
584.529	15433.41
584.889	15662.78
585.249	15584.36
585.609	15513.63
585.969	15637.47
586.329	15595.89
586.688	15700.29
587.048	15647.64
587.408	15551.37
587.768	15630.92
588.127	15654.87
588.487	15539.85
588.846	15688.32
589.206	15503.01
589.565	15489.23
589.925	15623.01
590.284	15662.78
590.643	15663.68
591.003	15767.41
591.362	15702.78
591.721	15684.47
592.08	15741.42
592.44	15718.15
592.799	15693.51
593.158	15619.62
593.517	15716.34
593.876	15745.04
594.235	15720.41
594.593	15865.26
594.952	15715.43
595.311	15670.24
595.67	15717.69
596.029	15756.34
596.387	15773.74
596.746	15813.74
597.104	15783.46
597.463	15763.12
597.822	15795.43
598.18	15720.41
598.538	15716.56
598.897	15800.4
599.255	15726.73
599.613	15893.28
599.972	15884.92
600.33	15879.27
600.688	15836.34
601.046	15927.41
601.404	15938.48
601.762	15915.88
602.12	15980.51
602.478	16039.04
602.836	16060.74
603.194	16008.08
603.552	15911.14
603.91	15935.99
604.268	16071.36
604.625	15994.3
604.983	15942.09
605.341	15869.1
605.698	16003.79
606.056	16015.99
606.413	15984.58
606.771	16064.58
607.128	16109.32
607.485	16065.03
607.843	15974.18
608.2	16132.15
608.557	16221.86
608.914	16103.45
609.272	16173.05
609.629	16277
609.986	16128.98
610.343	16099.15
610.7	16322.42
611.057	16276.1
611.414	16256.21
611.771	16259.83
612.127	16278.36
612.484	16316.77
612.841	16347.73
613.198	16323.78
613.554	16412.14
613.911	16407.85
614.267	16408.3
614.624	16358.58
614.98	16400.16
615.337	16514.74
615.693	16475.41
616.05	16422.31
616.406	16601.06
616.762	16532.81
617.118	16532.14
617.475	16515.19
617.831	16594.06
618.187	16624.79
618.543	16592.25
618.899	16752.24
619.255	16627.5
619.611	16622.53
619.967	16727.16
620.323	16739.36
620.678	16605.35
621.034	16658.69
621.39	16639.03
621.746	16619.14
622.101	16805.8
622.457	16623.43
622.812	16720.83
623.168	16754.95
623.523	16721.51
623.879	16804.9
624.234	16637.22
624.589	16675.18
624.945	16764.22
625.3	16721.28
625.655	16694.39
626.01	16648.07
626.365	16669.08
626.72	16795.41
627.075	16637.67
627.43	16738.01
627.785	16664.11
628.14	16750.44
628.495	16761.96
628.85	16720.15
629.205	16638.12
629.559	16778.01
629.914	16705.24
630.269	16693.49
630.623	16607.39
630.978	16475.19
631.332	16672.92
631.687	16625.92
632.041	16674.96
632.396	16650.1
632.75	16599.25
633.104	16588.86
633.459	16516.32
633.813	16516.09
634.167	16493.72
634.521	16472.93
634.875	16460.5
635.229	16330.11
635.583	16314.29
635.937	16380.28
636.291	16256.21
636.645	16264.35
636.999	16253.73
637.352	16293.5
637.706	16113.39
638.06	16251.92
638.413	16193.61
638.767	16160.39
639.121	16130.79
639.474	15996.33
639.828	16104.35
640.181	16101.41
640.534	16149.55
640.888	16054.86
641.241	15895.54
641.594	16004.01
641.947	15946.84
642.301	15992.26
642.654	16003.11
643.007	15881.53
643.36	15906.39
643.713	15943.68
644.066	15905.71
644.419	15745.26
644.771	15741.87
645.124	15558.6
645.477	15641.09
645.83	15433.18
646.182	15382.11
646.535	15229.8
646.888	15332.39
647.24	15170.36
647.593	15356.8
647.945	15238.84
648.298	15251.04
648.65	15251.27
649.002	15152.74
649.355	15215.33
649.707	15181.44
650.059	15171.95
650.411	15440.41
650.763	15495.78
651.115	15667.3
651.467	15524.7
651.819	15473.63
652.171	15385.5
652.523	15431.6
652.875	15450.36
653.227	15389.12
653.578	15466.18
653.93	15454.65
654.282	15353.18
654.633	15295.33
654.985	15343.92
655.337	15413.3
655.688	15302.56
656.039	15292.85
656.391	15209.23
656.742	15273.86
657.094	15269.12
657.445	15359.74
657.796	15317.25
658.147	15308.44
658.498	15364.71
658.849	15336.46
659.2	15215.56
659.551	15261.89
659.902	15302.34
660.253	15232.51
660.604	15238.61
660.955	15186.86
661.306	15164.49
661.656	15104.83
662.007	15106.64
662.358	15119.07
662.708	15146.18
663.059	15139.86
663.409	15108.67
663.76	15157.48
664.11	15192.51
664.461	15137.37
664.811	15161.78
665.161	15090.59
665.511	15073.87
665.862	15054.89
666.212	15116.35
666.562	15090.82
666.912	15009.46
667.262	15016.24
667.612	15043.81
667.962	14916.81
668.312	14909.58
668.662	14984.61
669.011	14913.65
669.361	14997.49
669.711	14959.75
670.06	14929.92
670.41	14838.17
670.76	14836.36
671.109	14983.02
671.459	14905.29
671.808	14826.87
672.157	14886.98
672.507	14788.45
672.856	14789.36
673.205	14810.15
673.554	14851.28
673.904	14871.84
674.253	14778.96
674.602	14878.39
674.951	14491.06
675.3	14539.19
675.649	14756.59
675.998	14712.3
676.346	14776.48
676.695	14729.92
677.044	14670.04
677.393	14690.15
677.741	14700.09
678.09	14604.95
678.438	14462.81
678.787	14576.93
679.135	14568.35
679.484	14581.23
679.832	14557.95
680.181	14524.96
680.529	14639.98
680.877	14488.57
681.225	14525.18
681.573	14571.51
681.922	14351.63
682.27	14311.4
682.618	14328.35
682.966	14372.19
683.314	14396.15
683.661	14436.82
684.009	14245.42
684.357	14248.58
684.705	14144.4
685.053	14259.43
685.4	14235.93
685.748	14183.5
686.095	14239.09
686.443	14094.23
686.79	14053.33
687.138	14036.61
687.485	13964.29
687.832	14025.76
688.18	13991.41
688.527	13824.86
688.874	14028.25
689.221	13885.43
689.568	13897.85
689.915	13756.84
690.262	13747.8
690.609	13787.35
690.956	13721.81
691.303	13683.17
691.65	13639.1
691.997	13521.14
692.344	13485.66
692.69	13495.15
693.037	13516.85
693.383	13475.95
693.73	13536.73
694.077	13420.35
694.423	13391.2
694.769	13390.3
695.116	13300.58
695.462	13307.14
695.808	13278.21
696.155	13293.35
696.501	13170.42
696.847	13204.31
697.193	13093.13
697.539	13146.46
697.885	13065.11
698.231	13072.34
698.577	12949.86
698.923	12960.93
699.269	12897.66
699.614	12870.99
699.96	12840.26
700.306	12803.42
700.651	12765.91
700.997	12681.84
701.342	12668.51
701.688	12647.49
702.033	12671.45
702.379	12625.12
702.724	12586.25
703.069	12648.62
703.415	12494.5
703.76	12517.55
704.105	12553.48
704.45	12515.52
704.795	12351.23
705.14	12414.5
705.485	12400.04
705.83	12333.6
706.175	12320.95
706.52	12211.8
706.865	12201.4
707.209	12239.37
707.554	12128.41
707.899	12247.95
708.243	12114.62
708.588	12167.05
708.932	12074.4
709.277	12060.16
709.621	12071.01
709.966	11947.17
710.31	11970
710.654	11922.09
710.998	11808.87
711.342	11878.47
711.687	11872.37
712.031	11809.1
712.375	11762.77
712.719	11692.49
713.063	11706.5
713.407	11773.17
713.75	11615.88
714.094	11669.89
714.438	11577.69
714.782	11584.47
715.125	11594.41
715.469	11630.8
715.812	11481.2
716.156	11480.07
716.499	11496.11
716.843	11467.86
717.186	11418.15
717.53	11470.57
717.873	11473.29
718.216	11446.17
718.559	11433.74
718.902	11303.8
719.246	11354.64
719.589	11306.06
719.932	11220.41
720.275	11251.6
720.617	11264.25
720.96	11232.16
721.303	11144.71
721.646	11216.34
721.989	11138.83
722.331	11175.89
722.674	11145.84
723.016	11123.46
723.359	11060.19
723.701	11117.82
724.044	11081.66
724.386	10982.9
724.729	10993.52
725.071	11033.07
725.413	10935.67
725.755	10963.24
726.097	10876.24
726.439	10843.47
726.782	10847.31
727.124	10930.02
727.465	10821.1
727.807	10844.38
728.149	10787.65
728.491	10803.7
728.833	10843.25
729.175	10794.66
729.516	10723.93
729.858	10734.55
730.199	10748.56
730.541	10752.63
730.882	10732.29
731.224	10723.7
731.565	10615
731.906	10598.05
732.248	10634.21
732.589	10595.57
732.93	10535.46
733.271	10587.66
733.612	10585.4
733.953	10583.59
734.294	10549.92
734.635	10505.85
734.976	10568
735.317	10453.65
735.658	10459.3
735.999	10427.44
736.339	10415.69
736.68	10398.51
737.021	10375.46
737.361	10327.1
737.702	10325.52
738.042	10323.49
738.383	10274.9
738.723	10289.81
739.063	10284.62
739.404	10259.98
739.744	10219.31
740.084	10189.93
740.424	10191.96
740.764	10271.28
741.104	10261.57
741.444	10158.52
741.784	10142.25
742.124	10148.8
742.464	10076.26
742.804	10131.63
743.143	10149.25
743.483	10114.45
743.823	10025.87
744.162	10101.57
744.502	10072.87
744.841	9989.71
745.181	10058.18
745.52	10091.4
745.86	10090.27
746.199	10002.82
746.538	9986.55
746.877	9925.08
747.216	9923.27
747.556	9830.39
747.895	9900.45
748.234	9872.65
748.573	9890.95
748.911	9847.34
749.25	9866.1
749.589	9795.14
749.928	9789.49
750.267	9789.26
750.605	9767.34
750.944	9727.8
751.283	9679.66
751.621	9712.88
751.96	9679.66
752.298	9673.33
752.636	9654.8
752.975	9601.92
753.313	9577.29
753.651	9624.75
753.989	9604.63
754.327	9520.79
754.666	9492.1
755.004	9489.61
755.342	9458.42
755.679	9479.89
756.017	9399.89
756.355	9349.05
756.693	9300.69
757.031	9360.12
757.368	9337.07
757.706	9322.61
758.044	9283.06
758.381	9343.62
758.719	9274.93
759.056	9273.57
759.394	9244.64
759.731	9123.74
760.068	9117.19
760.405	9075.83
760.743	9060.69
761.08	9082.84
761.417	9065.89
761.754	8974.59
762.091	9007.81
762.428	9003.29
762.765	8920.36
763.102	9053.69
763.438	8911.55
763.775	8824.99
764.112	8880.36
764.449	8872
764.785	8805.79
765.122	8719.46
765.458	8709.06
765.795	8664.32
766.131	8763.75
766.467	8643.76
766.804	8629.29
767.14	8556.3
767.476	8535.28
767.812	8451.44
768.148	8586.58
768.485	8495.06
768.821	8472.01
769.157	8446.92
769.492	8443.54
769.828	8430.2
770.164	8389.3
770.5	8403.99
770.836	8383.42
771.171	8246.93
771.507	8276.99
771.842	8214.16
772.178	8171.23
772.513	8160.15
772.849	8109.76
773.184	8122.19
773.519	8046.71
773.855	8036.54
774.19	7999.48
774.525	8058.01
774.86	7953.15
775.195	8010.78
775.53	7908.86
775.865	7871.35
776.2	7806.04
776.535	7748.86
776.87	7772.82
777.205	7853.04
777.539	7784.34
777.874	7756.32
778.209	7653.73
778.543	7653.95
778.878	7663.89
779.212	7597.23
779.547	7597.68
779.881	7629.32
780.215	7531.92
780.55	7497.35
780.884	7426.61
781.218	7374.18
781.552	7376.22
781.886	7392.26
782.22	7365.37
782.554	7237.69
782.888	7258.93
783.222	7180.74
783.556	7093.97
783.889	7213.74
784.223	7205.15
784.557	7155.89
784.89	7159.73
785.224	7159.73
785.557	7124.25
785.891	7072.5
786.224	7077.47
786.558	7098.94
786.891	7005.61
787.224	6950.01
787.557	7026.85
787.891	6988.21
788.224	6940.07
788.557	6933.97
788.89	6892.39
789.223	6900.07
789.556	6837.02
789.888	6850.13
790.221	6846.74
790.554	6766.97
790.887	6806.06
791.219	6724.26
791.552	6690.36
791.884	6630.7
792.217	6601.1
792.549	6582.12
792.882	6547.54
793.214	6569.69
793.546	6630.7
793.879	6549.8
794.211	6566.97
794.543	6598.61
794.875	6513.42
795.207	6550.03
795.539	6460.76
795.871	6460.08
796.203	6336.92
796.535	6352.52
796.867	6345.74
797.198	6326.3
797.53	6371.73
797.862	6292.18
798.193	6253.08
798.525	6260.54
798.856	6265.74
799.188	6214.44
799.519	6120.66
799.85	6173.54
800.182	6192.29
800.513	6146.87
800.844	6064.61
801.175	6158.4
801.506	6126.76
801.837	6052.64
802.168	6113.43
802.499	6067.33
802.83	6056.25
803.161	6035.46
803.491	5967.44
803.822	5966.54
804.153	5938.74
804.483	5879.31
804.814	5902.81
805.145	5787.56
805.475	5856.48
805.805	5880.44
806.136	5846.32
806.466	5879.76
806.796	5851.74
807.126	5784.62
807.457	5817.16
807.787	5773.77
808.117	5707.79
808.447	5746.2
808.777	5742.82
809.107	5799.31
809.436	5735.58
809.766	5712.99
810.096	5673.89
810.426	5650.16
810.755	5672.53
811.085	5618.52
811.414	5647.68
811.744	5570.84
812.073	5606.1
812.403	5571.07
812.732	5515.02
813.061	5540.79
813.39	5503.05
813.719	5521.35
814.049	5503.27
814.378	5491.97
814.707	5479.32
815.036	5484.74
815.365	5460.11
815.693	5404.07
816.022	5439.09
816.351	5401.13
816.68	5362.26
817.008	5369.27
817.337	5329.72
817.665	5357.97
817.994	5328.81
818.322	5311.19
818.651	5326.1
818.979	5309.15
819.307	5322.94
819.636	5276.39
819.964	5262.83
820.292	5298.98
820.62	5275.03
820.948	5246.33
821.276	5235.03
821.604	5212.66
821.932	5249.49
822.259	5242.26
822.587	5228.03
822.915	5191.87
823.243	5244.98
823.57	5271.87
823.898	5227.12
824.225	5182.38
824.553	5231.42
824.88	5255.14
825.207	5248.36
825.535	5291.53
825.862	5253.79
826.189	5277.74
826.516	5258.53
826.843	5278.87
827.17	5252.43
827.497	5297.4
827.824	5238.2
828.151	5275.48
828.478	5220.34
828.805	5291.53
829.131	5207.91
829.458	5196.61
829.785	5160.01
830.111	5209.5
830.438	5225.54
830.764	5165.43
831.09	5219.67
831.417	5144.86
831.743	5226.22
832.069	5161.81
832.395	5131.08
832.722	5224.64
833.048	5155.03
833.374	5162.27
833.7	5152.77
834.026	5171.98
834.351	5164.07
834.677	5158.2
835.003	5188.03
835.329	5135.15
835.654	5124.53
835.98	5186.67
836.306	5132.21
836.631	5118.65
836.956	5150.51
837.282	5162.49
837.607	5116.16
837.932	5075.49
838.258	5030.07
838.583	5051.76
838.908	5046.34
839.233	5039.33
839.558	5043.62
839.883	5046.34
840.208	5005.43
840.533	5028.48
840.858	5034.36
841.182	5020.57
841.507	5031.65
841.832	4962.95
842.156	4958.2
842.481	4932.67
842.805	4996.62
843.13	4950.75
843.454	4918.88
843.778	4903.29
844.103	4894.7
844.427	4925.44
844.751	4910.29
845.075	4906.9
845.399	4930.41
845.723	4849.73
846.047	4873.69
846.371	4847.92
846.695	4855.83
847.019	4850.41
847.343	4825.1
847.666	4796.85
847.99	4748.04
848.313	4740.81
848.637	4695.39
848.96	4721.6
849.284	4703.07
849.607	4700.36
849.931	4634.14
850.254	4630.98
850.577	4552.34
850.9	4557.31
851.223	4527.25
851.546	4541.04
851.869	4497.2
852.192	4553.92
852.515	4492.45
852.838	4457.2
853.161	4470.98
853.483	4390.08
853.806	4428.05
854.129	4379.69
854.451	4391.44
854.774	4348.95
855.096	4419.46
855.419	4370.65
855.741	4368.84
856.063	4376.52
856.385	4326.36
856.708	4342.4
857.03	4334.49
857.352	4284.32
857.674	4282.51
857.996	4263.76
858.318	4254.94
858.64	4220.82
858.961	4258.79
859.283	4214.95
859.605	4193.93
859.926	4240.48
860.248	4209.3
860.57	4194.83
860.891	4160.94
861.212	4192.35
861.534	4183.31
861.855	4121.39
862.176	4138.56
862.498	4139.47
862.819	4162.07
863.14	4100.6
863.461	4104.67
863.782	4110.77
864.103	4085.68
864.424	4068.51
864.745	4043.88
865.065	4080.94
865.386	4079.36
865.707	4071.45
866.027	4050.88
866.348	4029.87
866.668	4045.23
866.989	4049.75
867.309	4013.6
867.63	4034.16
867.95	4013.37
868.27	3958
868.59	3959.81
868.91	3946.7
869.23	3986.7
869.55	3985.8
869.87	3993.03
870.19	3993.03
870.51	3937.44
870.83	3988.28
871.15	3946.03
871.469	3950.55
871.789	3939.25
872.109	3961.17
872.428	3942.41
872.748	3948.29
873.067	3952.58
873.386	3900.6
873.706	3876.88
874.025	3861.28
874.344	3851.57
874.663	3874.84
874.982	3861.28
875.301	3802.3
875.62	3805.69
875.939	3835.97
876.258	3842.75
876.577	3855.41
876.896	3835.07
877.214	3824
877.533	3793.71
877.852	3824.67
878.17	3828.52
878.489	3865.12
878.807	3830.1
879.125	3841.85
879.444	3779.25
879.762	3772.47
880.08	3719.59
880.398	3809.76
880.716	3771.12
881.034	3753.94
881.352	3788.97
881.67	3724.34
881.988	3769.31
882.306	3743.55
882.624	3716.43
882.941	3721.4
883.259	3693.6
883.577	3743.09
883.894	3761.62
884.212	3711.23
884.529	3749.2
884.846	3724.56
885.164	3707.39
885.481	3696.99
885.798	3678.46
886.115	3614.06
886.432	3632.36
886.75	3593.72
887.067	3593.27
887.383	3594.62
887.7	3553.27
888.017	3539.26
888.334	3577.67
888.651	3571.57
888.967	3587.62
889.284	3533.61
889.6	3560.73
889.917	3508.98
890.233	3504.23
890.55	3497.68
890.866	3532.93
891.182	3528.41
891.498	3489.32
891.815	3483.21
892.131	3516.43
892.447	3494.74
892.763	3480.05
893.079	3447.73
893.395	3465.59
893.71	3458.13
894.026	3444.34
894.342	3407.96
894.657	3391.69
894.973	3417
895.289	3362.76
895.604	3371.35
895.92	3378.36
896.235	3322.99
896.55	3340.84
896.865	3316.44
897.181	3322.31
897.496	3321.18
897.811	3278.02
898.126	3271.92
898.441	3245.71
898.756	3278.47
899.071	3241.64
899.386	3242.77
899.7	3228.3
900.015	3242.77
900.33	3211.36
900.644	3209.55
900.959	3267.4
901.273	3228.98
901.588	3202.09
901.902	3205.03
902.216	3161.41
902.531	3127.52
902.845	3188.31
903.159	3160.51
903.473	3150.79
903.787	3123.45
904.101	3099.27
904.415	3063.56
904.729	3070.12
905.042	3091.13
905.356	3082.32
905.67	3049.78
905.984	3029.44
906.297	3001.19
906.611	3030.8
906.924	3008.42
907.237	3017.91
907.551	3005.26
907.864	2984.92
908.177	3019.5
908.491	2973.17
908.804	2942.66
909.117	2938.82
909.43	2901.53
909.743	2941.76
910.056	2885.26
910.368	2861.53
910.681	2836.22
910.994	2841.2
911.307	2801.65
911.619	2835.09
911.932	2883.91
912.244	2822.67
912.557	2844.13
912.869	2837.13
913.181	2809.56
913.494	2814.76
913.806	2793.74
914.118	2800.75
914.43	2755.77
914.742	2724.82
915.054	2737.7
915.366	2731.59
915.678	2744.48
915.99	2718.26
916.302	2696.57
916.613	2672.39
916.925	2642.33
917.236	2665.83
917.548	2687.53
917.859	2647.3
918.171	2624.25
918.482	2621.09
918.794	2582.22
919.105	2586.74
919.416	2594.65
919.727	2589
920.038	2589.23
920.349	2513.75
920.66	2547.64
920.971	2588.1
921.282	2540.19
921.593	2530.7
921.903	2513.97
922.214	2494.54
922.525	2465.61
922.835	2511.04
923.146	2493.18
923.456	2485.5
923.767	2497.93
924.077	2467.2
924.387	2452.51
924.697	2445.95
925.008	2431.49
925.318	2453.64
925.628	2426.52
925.938	2399.85
926.248	2407.31
926.558	2367.31
926.867	2356.69
927.177	2392.17
927.487	2343.58
927.796	2367.08
928.106	2305.17
928.416	2353.07
928.725	2352.85
929.034	2302.23
929.344	2300.87
929.653	2248.67
929.962	2265.62
930.271	2213.19
930.581	2270.14
930.89	2266.75
931.199	2240.31
931.508	2256.13
931.817	2240.31
932.125	2199.41
932.434	2200.08
932.743	2186.98
933.051	2187.65
933.36	2177.94
933.669	2199.41
933.977	2143.81
934.286	2175
934.594	2155.79
934.902	2183.13
935.21	2125.96
935.519	2142.91
935.827	2165.96
936.135	2113.53
936.443	2102.23
936.751	2090.26
937.059	2104.27
937.367	2116.7
937.674	2066.98
937.982	2092.97
938.29	2064.49
938.597	2065.17
938.905	2036.7
939.213	2050.48
939.52	2021.56
939.827	2045.06
940.135	2040.09
940.442	2015
940.749	1996.25
941.056	2021.33
941.363	1991.5
941.67	1967.32
941.977	1975.23
942.284	1958.51
942.591	1955.12
942.898	1951.28
943.205	1971.84
943.511	1889.81
943.818	1911.5
944.125	1901.79
944.431	1908.79
944.738	1916.25
945.044	1879.41
945.35	1876.48
945.657	1873.99
945.963	1879.64
946.269	1870.83
946.575	1883.03
946.881	1866.98
947.187	1848.23
947.493	1863.82
947.799	1841
948.105	1813.65
948.41	1833.54
948.716	1806.42
949.022	1814.1
949.327	1819.53
949.633	1776.59
949.938	1781.79
950.244	1789.02
950.549	1790.6
950.854	1772.98
951.16	1802.35
951.465	1790.83
951.77	1782.69
952.075	1741.56
952.38	1732.98
952.685	1761.45
952.99	1758.29
953.294	1713.32
953.599	1716.03
953.904	1703.37
954.209	1678.74
954.513	1684.16
954.818	1711.28
955.122	1683.49
955.426	1662.92
955.731	1690.27
956.035	1667.67
956.339	1676.26
956.643	1679.65
956.948	1652.53
957.252	1650.04
957.556	1655.24
957.86	1645.75
958.163	1662.02
958.467	1651.62
958.771	1628.57
959.075	1645.97
959.378	1612.53
959.682	1608.01
959.985	1588.35
960.289	1587.9
960.592	1580.21
960.896	1597.39
961.199	1591.51
961.502	1563.94
961.805	1572.98
962.108	1526.2
962.411	1551.29
962.714	1528.91
963.017	1506.54
963.32	1524.17
963.623	1525.07
963.926	1524.39
964.228	1551.51
964.531	1543.83
964.833	1510.16
965.136	1491.4
965.438	1523.04
965.741	1486.2
966.043	1468.13
966.345	1484.85
966.648	1475.81
966.95	1479.88
967.252	1434.68
967.554	1432.19
967.856	1454.34
968.158	1464.28
968.46	1424.06
968.761	1415.7
969.063	1396.94
969.365	1398.07
969.666	1426.54
969.968	1387
970.269	1379.99
970.571	1408.92
970.872	1406.66
971.174	1371.86
971.475	1405.75
971.776	1398.3
972.077	1403.27
972.378	1362.59
972.679	1378.18
972.98	1365.08
973.281	1335.93
973.582	1333.21
973.883	1358.98
974.183	1311.75
974.484	1358.3
974.785	1314
975.085	1316.49
975.386	1290.5
975.686	1302.48
975.986	1309.94
976.287	1308.81
976.587	1320.11
976.887	1279.88
977.187	1304.29
977.487	1286.89
977.787	1275.81
978.087	1283.5
978.387	1255.25
978.687	1294.57
978.987	1261.58
979.286	1271.97
979.586	1252.09
979.885	1261.35
980.185	1267
980.484	1229.49
980.784	1243.95
981.083	1240.33
981.382	1235.36
981.682	1219.09
981.981	1240.11
982.28	1199.66
982.579	1181.13
982.878	1222.26
983.177	1207.12
983.475	1180.68
983.774	1203.5
984.073	1188.36
984.372	1156.04
984.67	1176.38
984.969	1181.81
985.267	1180.68
985.566	1190.17
985.864	1164.18
986.162	1175.03
986.461	1142.26
986.759	1135.25
987.057	1175.48
987.355	1118.76
987.653	1166.89
987.951	1154.24
988.249	1146.1
988.547	1119.21
988.844	1100
989.142	1095.93
989.44	1101.58
989.737	1094.35
990.035	1082.82
990.332	1117.4
990.63	1105.2
990.927	1098.87
991.224	1098.64
991.521	1062.71
991.819	1074.01
992.116	1089.38
992.413	1082.82
992.71	1061.81
993.006	1068.36
993.303	1061.13
993.6	1074.69
993.897	1085.54
994.193	1067.46
994.49	1038.08
994.787	1041.47
995.083	1041.47
995.379	1045.31
995.676	1043.96
995.972	1025.43
996.268	1031.98
996.565	1029.49
996.861	1015.03
997.157	1005.09
997.453	1016.61
997.749	1012.09
998.044	986.56
998.34	982.04
998.636	975.93
998.932	970.51
999.227	958.99
999.523	988.59
999.818	958.53
1000.114	952.88
1000.409	963.51
1000.704	952.66
1001	965.77
1001.295	960.57
1001.59	966.9
1001.885	971.64
1002.18	959.66
1002.475	953.79
1002.77	916.73
1003.065	937.74
1003.359	948.14
1003.654	906.78
1003.949	929.83
1004.243	917.18
1004.538	896.16
1004.832	933
1005.127	899.33
1005.421	903.62
1005.715	909.72
1006.009	907.91
1006.304	885.99
1006.598	873.34
1006.892	864.3
1007.186	872.66
1007.48	889.61
1007.773	900.46
1008.067	867.01
1008.361	863.17
1008.655	865.43
1008.948	837.86
1009.242	869.27
1009.535	876.95
1009.829	841.7
1010.122	854.13
1010.415	829.05
1010.708	848.03
1011.001	806.9
1011.295	829.72
1011.588	827.69
1011.881	818.2
1012.173	807.35
1012.466	812.55
1012.759	803.96
1013.052	814.58
1013.344	787.47
1013.637	793.79
1013.93	799.44
1014.222	801.7
1014.514	764.87
1014.807	775.71
1015.099	772.1
1015.391	775.26
1015.683	761.7
1015.976	777.97
1016.268	769.84
1016.56	758.54
1016.851	768.26
1017.143	744.75
1017.435	760.35
1017.727	758.09
1018.018	766.9
1018.31	760.57
1018.602	733.23
1018.893	736.39
1019.185	725.09
1019.476	734.36
1019.767	712.89
1020.058	722.38
1020.35	716.51
1020.641	734.13
1020.932	700.46
1021.223	713.79
1021.514	687.13
1021.804	687.81
1022.095	674.25
1022.386	692.33
1022.677	693.68
1022.967	679.22
1023.258	683.51
1023.548	706.56
1023.839	674.25
1024.129	693
1024.419	690.07
1024.709	687.13
1025	670.63
1025.29	674.93
1025.58	688.03
1025.87	672.67
1026.16	657.53
1026.449	648.03
1026.739	648.71
1027.029	657.53
1027.319	640.58
1027.608	644.42
1027.898	631.76
1028.187	639.9
1028.477	641.03
1028.766	634.25
1029.055	639.45
1029.344	604.65
1029.634	643.74
1029.923	639.67
1030.212	620.46
1030.501	613.23
1030.79	616.17
1031.078	606.68
1031.367	608.94
1031.656	588.6
1031.945	606
1032.233	604.42
1032.522	598.54
1032.81	604.42
1033.099	593.35
1033.387	601.93
1033.675	580.01
1033.963	568.71
1034.251	577.08
1034.54	562.84
1034.828	587.7
1035.116	569.17
1035.403	555.38
1035.691	589.5
1035.979	581.59
1036.267	557.87
1036.554	584.76
1036.842	564.65
1037.129	559.9
1037.417	533.46
1037.704	549.73
1037.992	550.86
1038.279	557.41
1038.566	540.47
1038.853	540.47
1039.14	540.47
