Data from black_metal_pc_casing_FLMS001491_00004.txt Node
Date: Wed Feb 08 14:31:50 GMT 2017
User: dcchb
Spectrometer: FLMS00149
Trigger mode: 0
Integration Time (sec): 2.000000E-2
Scans to average: 10
Electric dark correction enabled: true
Nonlinearity correction enabled: false
Boxcar width: 0
XAxis mode: Wavelengths
Number of Pixels in Spectrum: 2048
>>>>>Begin Spectral Data<<<<<
341.393	-24.35
341.776	-24.35
342.16	-24.35
342.543	-55.76
342.927	-75.65
343.31	-84.01
343.693	-55.76
344.077	-67.29
344.46	-67.29
344.843	-34.52
345.226	-34.29
345.61	-40.62
345.993	-13.05
346.376	-18.25
346.759	15.2
347.142	42.77
347.525	37.12
347.908	58.59
348.291	87.29
348.674	71.69
349.057	102.43
349.44	131.58
349.823	154.85
350.206	172.03
350.588	177.45
350.971	201.18
351.354	226.27
351.737	245.25
352.119	226.72
352.502	258.58
352.884	270.11
353.267	279.15
353.65	288.64
354.032	274.17
354.414	290.67
354.797	305.13
355.179	301.52
355.562	324.12
355.944	315.53
356.326	318.01
356.709	334.51
357.091	324.57
357.473	336.09
357.855	319.37
358.238	326.15
358.62	342.87
359.002	333.61
359.384	335.87
359.766	323.89
360.148	322.53
360.53	328.64
360.912	328.18
361.294	347.39
361.676	326.6
362.057	333.16
362.439	324.79
362.821	315.08
363.203	325.02
363.584	317.79
363.966	326.6
364.348	314.85
364.729	309.2
365.111	304.46
365.493	314.85
365.874	308.07
366.256	288.86
366.637	319.6
367.019	330.67
367.4	302.87
367.781	306.04
368.163	313.95
368.544	315.53
368.925	312.59
369.306	308.75
369.688	319.37
370.069	280.73
370.45	300.39
370.831	325.7
371.212	297
371.593	333.83
371.974	297.9
372.355	301.07
372.736	314.17
373.117	302.65
373.498	308.52
373.879	318.01
374.26	299.71
374.641	295.19
375.021	323.21
375.402	329.31
375.783	346.94
376.163	317.11
376.544	325.7
376.925	325.7
377.305	315.53
377.686	324.12
378.066	324.57
378.447	333.61
378.827	329.09
379.208	316.66
379.588	321.63
379.968	337.9
380.349	334.96
380.729	324.34
381.109	339.48
381.489	334.96
381.87	336.77
382.25	339.48
382.63	348.97
383.01	330.9
383.39	350.33
383.77	356.21
384.15	329.99
384.53	342.65
384.91	338.8
385.29	348.75
385.67	329.99
386.049	352.59
386.429	344
386.809	359.14
387.189	354.62
387.568	363.44
387.948	348.97
388.328	353.04
388.707	379.71
389.087	365.92
389.466	371.12
389.846	336.54
390.225	376.09
390.605	368.18
390.984	362.31
391.363	361.4
391.743	382.19
392.122	368.18
392.501	366.37
392.881	387.16
393.26	380.16
393.639	385.58
394.018	386.26
394.397	377
394.776	390.55
395.155	399.59
395.534	368.86
395.913	372.25
396.292	369.76
396.671	412.7
397.05	391.23
397.429	402.31
397.808	384
398.186	388.29
398.565	397.33
398.944	388.75
399.323	398.92
399.701	403.21
400.08	424.23
400.458	405.7
400.837	412.48
401.215	416.99
401.594	419.48
401.972	418.58
402.351	426.49
402.729	401.63
403.107	410.67
403.486	432.59
403.864	431.91
404.242	414.51
404.62	456.77
404.999	445.92
405.377	435.07
405.755	445.47
406.133	421.74
406.511	471
406.889	462.19
407.267	447.5
407.645	440.27
408.023	464
408.401	476.43
408.779	482.98
409.156	461.97
409.534	484.34
409.912	485.47
410.29	495.41
410.667	491.57
411.045	480.5
411.422	486.82
411.8	484.11
412.178	493.38
412.555	501.29
412.933	517.11
413.31	514.62
413.687	504.9
414.065	526.37
414.442	527.5
414.819	536.99
415.197	539.48
415.574	522.75
415.951	514.17
416.328	540.83
416.705	534.51
417.082	541.06
417.46	546.93
417.837	541.06
418.214	542.87
418.591	557.56
418.967	536.77
419.344	559.36
419.721	572.47
420.098	565.47
420.475	555.07
420.852	587.84
421.228	551.23
421.605	586.03
421.982	586.93
422.358	583.09
422.735	591.23
423.111	588.74
423.488	590.55
423.864	598.46
424.241	606.14
424.617	614.96
424.994	609.08
425.37	608.85
425.746	593.04
426.123	631.45
426.499	628.51
426.875	628.29
427.251	628.29
427.627	631.45
428.003	661.51
428.379	654.5
428.756	667.16
429.132	667.84
429.507	683.88
429.883	699.7
430.259	662.86
430.635	694.73
431.011	699.25
431.387	683.2
431.763	698.8
432.138	698.57
432.514	732.24
432.89	712.58
433.265	748.96
433.641	750.09
434.016	761.17
434.392	754.84
434.767	771.56
435.143	764.1
435.518	780.37
435.894	767.04
436.269	789.64
436.644	802.97
437.02	807.04
437.395	789.41
437.77	788.51
438.145	818.79
438.52	818.34
438.895	845.46
439.271	840.94
439.646	849.98
440.021	809.3
440.395	846.59
440.77	860.6
441.145	841.16
441.52	848.4
441.895	852.46
442.27	877.32
442.645	872.12
443.019	895.4
443.394	880.94
443.769	887.72
444.143	868.51
444.518	921.16
444.892	904.21
445.267	900.37
445.641	926.13
446.016	923.2
446.39	914.16
446.764	910.09
447.139	932.24
447.513	929.98
447.887	926.36
448.262	950.31
448.636	950.54
449.01	976.3
449.384	950.54
449.758	946.25
450.132	980.6
450.506	986.92
450.88	1022.4
451.254	990.99
451.628	1008.17
452.002	999.8
452.376	1015.62
452.75	1000.03
453.123	1030.09
453.497	1030.09
453.871	1050.2
454.244	1074.6
454.618	1086.58
454.992	1068.05
455.365	1065.11
455.739	1092.23
456.112	1108.05
456.486	1109.86
456.859	1129.07
457.232	1153.02
457.606	1161.61
457.979	1182.85
458.352	1158.44
458.725	1197.31
459.099	1197.77
459.472	1209.74
459.845	1199.35
460.218	1237.76
460.591	1214.49
460.964	1285.22
461.337	1268.05
461.71	1309.63
462.083	1308.27
462.456	1298.55
462.829	1336.29
463.201	1331.55
463.574	1342.62
463.947	1358.21
464.32	1381.72
464.692	1415.84
465.065	1400.7
465.438	1413.8
465.81	1436.85
466.183	1453.35
466.555	1452.9
466.928	1438.44
467.3	1459.23
467.672	1491.09
468.045	1503.29
468.417	1532.22
468.789	1530.41
469.161	1526.12
469.534	1582.16
469.906	1599.56
470.278	1623.74
470.65	1638.88
471.022	1665.78
471.394	1689.5
471.766	1691.31
472.138	1712.55
472.51	1751.2
472.882	1771.99
473.253	1790.07
473.625	1824.42
473.997	1829.61
474.369	1863.96
474.74	1834.13
475.112	1896.5
475.484	1905.32
475.855	1927.24
476.227	1985.99
476.598	2004.98
476.97	2045.88
477.341	2089.04
477.713	2077.29
478.084	2148.02
478.455	2151.19
478.827	2174.01
479.198	2247.23
479.569	2269.38
479.94	2291.75
480.311	2310.05
480.682	2334.91
481.053	2417.17
481.424	2434.34
481.795	2453.1
482.166	2501.69
482.537	2536.04
482.908	2569.93
483.279	2599.99
483.65	2620.1
484.021	2668.69
484.391	2704.84
484.762	2698.74
485.133	2736.71
485.503	2750.49
485.874	2846.76
486.244	2860.32
486.615	2923.37
486.985	2922.24
487.356	2959.98
487.726	3007.89
488.097	3078.39
488.467	3071.84
488.837	3123.36
489.207	3171.95
489.578	3217.82
489.948	3275.9
490.318	3306.86
490.688	3296.02
491.058	3348.67
491.428	3370.82
491.798	3399.97
492.168	3464.82
492.538	3487.2
492.908	3523.35
493.278	3547.08
493.648	3580.75
494.017	3600.87
494.387	3659.17
494.757	3701.65
495.126	3713.63
495.496	3691.26
495.866	3810.8
496.235	3819.62
496.605	3856.23
496.974	3845.38
497.344	3901.65
497.713	3942.78
498.082	3918.6
498.452	3989.56
498.821	3962.66
499.19	4028.65
499.559	4060.06
499.928	4063
500.298	4104.58
500.667	4098.48
501.036	4152.94
501.405	4182.77
501.774	4178.7
502.143	4259.38
502.512	4268.64
502.88	4320.85
503.249	4296.44
503.618	4365.82
503.987	4316.78
504.356	4413.95
504.724	4412.37
505.093	4406.27
505.462	4463.22
505.83	4502.54
506.199	4503.21
506.567	4572.59
506.936	4593.16
507.304	4631.35
507.672	4618.01
508.041	4665.92
508.409	4708.86
508.777	4732.36
509.145	4793.38
509.514	4825.47
509.882	4819.82
510.25	4776.88
510.618	4893.26
510.986	4870.89
511.354	4926.71
511.722	4970.55
512.09	5026.14
512.458	5046.48
512.826	5053.71
513.193	5074.95
513.561	5051
513.929	5169.64
514.297	5216.19
514.664	5265.68
515.032	5262.29
515.4	5314.27
515.767	5328.73
516.135	5386.36
516.502	5328.73
516.869	5420.25
517.237	5430.65
517.604	5496.64
517.972	5545.22
518.339	5564.66
518.706	5569.85
519.073	5614.15
519.44	5615.28
519.808	5692.79
520.175	5722.84
520.542	5797.64
520.909	5777.31
521.276	5768.27
521.643	5886.23
522.009	5955.15
522.376	6003.97
522.743	6030.86
523.11	6091.42
523.477	6100.46
523.843	6141.82
524.21	6284.19
524.577	6242.38
524.943	6277.86
525.31	6312.43
525.676	6384.97
526.043	6418.42
526.409	6481.24
526.776	6592.65
527.142	6551.75
527.508	6580.9
527.874	6652.76
528.241	6697.73
528.607	6680.56
528.973	6763.49
529.339	6751.52
529.705	6826.77
530.071	6856.83
530.437	6908.8
530.803	6949.25
531.169	6993.32
531.535	6997.84
531.901	7021.79
532.267	7091.4
532.632	7108.8
532.998	7158.06
533.364	7170.94
533.73	7167.33
534.095	7318.96
534.461	7310.6
534.826	7336.81
535.192	7393.53
535.557	7407.32
535.923	7440.09
536.288	7449.13
536.653	7560.08
537.019	7528.67
537.384	7547.65
537.749	7509.46
538.114	7573.19
538.479	7610.48
538.845	7600.99
539.21	7639.4
539.575	7618.16
539.94	7763.02
540.305	7768.67
540.67	7747.2
541.034	7753.07
541.399	7782.68
541.764	7813.18
542.129	7912.84
542.494	7895.67
542.858	7954.88
543.223	7941.77
543.587	8061.54
543.952	7997.59
544.316	7951.71
544.681	8031.26
545.045	8078.26
545.41	8095.44
545.774	8160.97
546.138	8169.33
546.503	8208.43
546.867	8175.21
547.231	8263.34
547.595	8316
547.959	8317.58
548.324	8334.98
548.688	8376.79
549.052	8367.97
549.416	8336.79
549.779	8422.21
550.143	8464.01
550.507	8477.8
550.871	8488.87
551.235	8514.41
551.599	8662.2
551.962	8672.82
552.326	8620.17
552.689	8706.95
553.053	8626.72
553.417	8720.05
553.78	8801.41
554.143	8781.29
554.507	8788.75
554.87	8874.85
555.234	8942.87
555.597	8936.54
555.96	8883.66
556.323	8975.64
556.686	8923.66
557.05	9078.69
557.413	9096.99
557.776	9118.91
558.139	9175.86
558.502	9159.82
558.865	9200.72
559.228	9248.63
559.59	9261.96
559.953	9307.16
560.316	9410.66
560.679	9387.61
561.041	9376.31
561.404	9515.96
561.767	9562.52
562.129	9549.86
562.492	9646.13
562.854	9600.71
563.217	9669.86
563.579	9720.7
563.941	9724.55
564.304	9786.92
564.666	9858.33
565.028	9870.53
565.39	9920.25
565.753	9979.23
566.115	10042.5
566.477	10004.54
566.839	10070.07
567.201	10132.45
567.563	10178.09
567.925	10237.53
568.287	10251.99
568.648	10302.84
569.01	10334.47
569.372	10369.73
569.734	10398.2
570.095	10465.54
570.457	10404.98
570.819	10490.63
571.18	10531.31
571.542	10546.9
571.903	10618.76
572.265	10616.5
572.626	10646.56
572.987	10683.39
573.349	10727.68
573.71	10767.23
574.071	10739.66
574.432	10792.09
574.794	10882.26
575.155	10832.09
575.516	10908.47
575.877	10938.07
576.238	10890.17
576.599	10992.08
576.96	11009.94
577.32	11003.61
577.681	11039.99
578.042	11086.54
578.403	10970.39
578.763	11039.31
579.124	11037.05
579.485	11151.18
579.845	11158.63
580.206	11119.76
580.566	11104.85
580.927	11138.07
581.287	11202.25
581.648	11148.01
582.008	11226.88
582.368	11198.41
582.728	11203.83
583.089	11186.66
583.449	11213.32
583.809	11245.41
584.169	11255.81
584.529	11211.29
584.889	11364.96
585.249	11310.72
585.609	11210.84
585.969	11304.17
586.329	11282.47
586.688	11322.24
587.048	11273.88
587.408	11312.08
587.768	11343.26
588.127	11265.52
588.487	11201.57
588.846	11312.75
589.206	11290.16
589.565	11240.44
589.925	11319.08
590.284	11284.28
590.643	11309.14
591.003	11303.04
591.362	11270.95
591.721	11269.14
592.08	11281.79
592.44	11398.63
592.799	11351.62
593.158	11385.52
593.517	11379.87
593.876	11403.15
594.235	11288.8
594.593	11388.23
594.952	11409.25
595.311	11316.37
595.67	11363.37
596.029	11446.99
596.387	11417.16
596.746	11399.98
597.104	11361.11
597.463	11313.43
597.822	11426.87
598.18	11439.53
598.538	11424.16
598.897	11470.94
599.255	11399.98
599.613	11533.31
599.972	11524.05
600.33	11529.24
600.688	11456.03
601.046	11547.78
601.404	11570.37
601.762	11532.63
602.12	11581.45
602.478	11571.28
602.836	11573.09
603.194	11495.12
603.552	11660.09
603.91	11539.19
604.268	11574.22
604.625	11560.2
604.983	11608.56
605.341	11644.5
605.698	11642.69
606.056	11754.78
606.413	11656.93
606.771	11600.66
607.128	11715.91
607.485	11620.54
607.843	11696.92
608.2	11726.98
608.557	11771.27
608.914	11668
609.272	11754.55
609.629	11782.8
609.986	11845.62
610.343	11849.46
610.7	11882.23
611.057	11889.24
611.414	11764.27
611.771	11919.07
612.127	11850.37
612.484	11919.52
612.841	11923.81
613.198	11868.22
613.554	11897.6
613.911	11990.25
614.267	11967.65
614.624	11907.77
614.98	11999.97
615.337	12025.05
615.693	12031.6
616.05	12031.38
616.406	12093.75
616.762	12050.14
617.118	11970.59
617.475	12071.15
617.831	12067.31
618.187	12055.11
618.543	12044.26
618.899	12134.88
619.255	12156.12
619.611	12110.92
619.967	12147.76
620.323	12162.9
620.678	12116.35
621.034	12100.98
621.39	12185.05
621.746	12025.28
622.101	12223.69
622.457	12090.13
622.812	12166.97
623.168	12156.8
623.523	12184.37
623.879	12218.94
624.234	12087.65
624.589	12133.3
624.945	12110.92
625.3	12228.66
625.655	12154.54
626.01	12200.19
626.365	12154.77
626.72	12204.93
627.075	12171.04
627.43	12151.15
627.785	12186.4
628.14	12078.16
628.495	12204.71
628.85	12188.66
629.205	12115.22
629.559	12232.96
629.914	12159.28
630.269	12137.82
630.623	12083.35
630.978	12064.6
631.332	12162
631.687	12130.58
632.041	12113.86
632.396	12075.9
632.75	12042.9
633.104	12079.06
633.459	12002.68
633.813	11961.32
634.167	11962.68
634.521	12005.16
634.875	12002
635.229	11966.97
635.583	11897.82
635.937	11868.22
636.291	11932.85
636.645	11938.05
636.999	11914.09
637.352	11955
637.706	11893.76
638.06	11905.51
638.413	11818.73
638.767	11795.9
639.121	11861.89
639.474	11687.43
639.828	11726.08
640.181	11717.26
640.534	11755.45
640.888	11740.54
641.241	11751.84
641.594	11748.9
641.947	11705.51
642.301	11634.55
642.654	11712.97
643.007	11661.22
643.36	11658.96
643.713	11665.51
644.066	11658.96
644.419	11600.88
644.771	11550.49
645.124	11391.17
645.477	11375.35
645.83	11359.53
646.182	11303.71
646.535	11235.02
646.888	11294.67
647.24	11205.64
647.593	11300.1
647.945	11172.87
648.298	11198.86
648.65	11070.73
649.002	11096.71
649.355	11204.73
649.707	11125.19
650.059	11150.95
650.411	11261.68
650.763	11379.42
651.115	11384.39
651.467	11430.04
651.819	11348.68
652.171	11324.96
652.523	11341.68
652.875	11342.58
653.227	11244.28
653.578	11315.92
653.93	11322.7
654.282	11258.52
654.633	11177.62
654.985	11251.96
655.337	11260.55
655.688	11231.4
656.039	11355.01
656.391	11185.3
656.742	11242.7
657.094	11241.57
657.445	11252.19
657.796	11207.22
658.147	11102.82
658.498	11128.8
658.849	11173.55
659.2	11242.7
659.551	11156.6
659.902	11202.93
660.253	11161.8
660.604	11148.69
660.955	11167.22
661.306	11148.92
661.656	11166.99
662.007	11232.3
662.358	11153.44
662.708	11106.66
663.059	11056.04
663.409	11019.65
663.76	11088.35
664.11	11118.41
664.461	11118.18
664.811	11090.61
665.161	11048.13
665.511	11072.76
665.862	11070.73
666.212	11115.02
666.562	11122.02
666.912	11021.69
667.262	10964.74
667.612	11035.47
667.962	11067.56
668.312	11089.93
668.662	11099.65
669.011	11070.5
669.361	10981.01
669.711	10988.92
670.06	11055.36
670.41	11066.88
670.76	11039.09
671.109	10964.51
671.459	11024.4
671.808	10965.87
672.157	11001.58
672.507	10913.89
672.856	10963.84
673.205	10990.5
673.554	10941.92
673.904	10853.33
674.253	10980.78
674.602	10933.55
674.951	10854.91
675.3	10784.41
675.649	10969.26
675.998	10894.91
676.346	10839.77
676.695	10966.1
677.044	10840.68
677.393	10923.39
677.741	10905.53
678.09	10862.37
678.438	10807.23
678.787	10816.27
679.135	10894.46
679.484	10731.75
679.832	10818.98
680.181	10830.96
680.529	10779.43
680.877	10698.08
681.225	10732.66
681.573	10752.32
681.922	10692.66
682.27	10632.55
682.618	10726.55
682.966	10670.51
683.314	10708.7
683.661	10668.7
684.009	10612.21
684.357	10565.88
684.705	10527.46
685.053	10535.6
685.4	10531.08
685.748	10475.04
686.095	10510.29
686.443	10447.24
686.79	10329.5
687.138	10398.2
687.485	10447.47
687.832	10343.29
688.18	10448.6
688.527	10368.15
688.874	10371.31
689.221	10357.07
689.568	10240.01
689.915	10281.82
690.262	10251.31
690.609	10239.56
690.956	10165.21
691.303	10210.64
691.65	10128.83
691.997	10039.34
692.344	10092.45
692.69	10069.85
693.037	10052.9
693.383	9994.14
693.73	10021.26
694.077	9975.39
694.423	9937.2
694.769	9899.68
695.116	9861.94
695.462	9938.33
695.808	9810.42
696.155	9807.71
696.501	9760.93
696.847	9705.56
697.193	9670.31
697.539	9760.93
697.885	9729.74
698.231	9665.57
698.577	9637.54
698.923	9652.46
699.269	9614.94
699.614	9493.14
699.96	9588.96
700.306	9569.52
700.651	9455.4
700.997	9453.37
701.342	9466.47
701.688	9451.56
702.033	9383.09
702.379	9394.39
702.724	9335.63
703.069	9403.65
703.415	9332.24
703.76	9266.03
704.105	9296.54
704.45	9261.06
704.795	9209.98
705.14	9218.57
705.485	9174.05
705.83	9155.07
706.175	9188.29
706.52	9110.1
706.865	9093.83
707.209	9065.58
707.554	9031.68
707.899	9070.55
708.243	9031.23
708.588	9013.83
708.932	8959.14
709.277	8988.75
709.621	8936.32
709.966	8920.05
710.31	8918.69
710.654	8807.06
710.998	8819.71
711.342	8799.6
711.687	8829.43
712.031	8713.5
712.375	8736.32
712.719	8766.38
713.063	8710.34
713.407	8755.53
713.75	8712.82
714.094	8683.22
714.438	8739.26
714.782	8652.48
715.125	8678.7
715.469	8717.57
715.812	8608.87
716.156	8592.82
716.499	8609.1
716.843	8568.19
717.186	8529.1
717.53	8624.01
717.873	8627.85
718.216	8518.48
718.559	8518.48
718.902	8434.64
719.246	8412.49
719.589	8386.95
719.932	8388.76
720.275	8360.51
720.617	8400.97
720.96	8398.93
721.303	8374.53
721.646	8378.37
721.989	8284.36
722.331	8435.09
722.674	8344.02
723.016	8374.3
723.359	8314.41
723.701	8315.54
724.044	8257.24
724.386	8219.73
724.729	8249.11
725.071	8198.94
725.413	8209.78
725.755	8238.94
726.097	8148.99
726.439	8147.19
726.782	8158.03
727.124	8176.79
727.465	8161.65
727.807	8175.43
728.149	8170.46
728.491	8101.54
728.833	8150.58
729.175	8042.56
729.516	8101.54
729.858	7991.48
730.199	8043.01
730.541	8036.23
730.882	7960.75
731.224	8039.39
731.565	7927.31
731.906	7969.11
732.248	7989.22
732.589	7986.97
732.93	7932.73
733.271	7932.05
733.612	7937.47
733.953	7889.57
734.294	7854.09
734.635	7869.68
734.976	7886.18
735.317	7804.6
735.658	7888.44
735.999	7853.18
736.339	7820.64
736.68	7909.23
737.021	7880.3
737.361	7791.72
737.702	7839.62
738.042	7765.28
738.383	7772.73
738.723	7765.95
739.063	7711.27
739.404	7774.77
739.744	7700.42
740.084	7699.97
740.424	7659.52
740.764	7715.11
741.104	7754.88
741.444	7631.95
741.784	7666.75
742.124	7667.43
742.464	7665.39
742.804	7584.49
743.143	7570.03
743.483	7598.73
743.823	7512.18
744.162	7511.5
744.502	7550.37
744.841	7509.69
745.181	7550.82
745.52	7460.65
745.86	7485.74
746.199	7480.31
746.538	7477.83
746.877	7421.78
747.216	7501.1
747.556	7498.84
747.895	7443.7
748.234	7431.73
748.573	7407.32
748.911	7377.26
749.25	7396.7
749.589	7372.07
749.928	7387.66
750.267	7360.99
750.605	7349.02
750.944	7270.83
751.283	7252.97
751.621	7292.97
751.96	7250.71
752.298	7262.24
752.636	7248.45
752.975	7228.34
753.313	7219.08
753.651	7221.79
753.989	7188.79
754.327	7118.97
754.666	7142.24
755.004	7154.22
755.342	7155.57
755.679	7098.63
756.017	7090.49
756.355	7052.75
756.693	7081
757.031	7030.61
757.368	7021.11
757.706	7026.99
758.044	7066.76
758.381	6917.84
758.719	7011.62
759.056	7009.36
759.394	6916.48
759.731	6916.03
760.068	6889.37
760.405	6835.58
760.743	6836.94
761.08	6845.75
761.417	6779.09
761.754	6770.05
762.091	6786.09
762.428	6778.18
762.765	6686.66
763.102	6680.11
763.438	6702.48
763.775	6655.7
764.112	6628.81
764.449	6662.48
764.785	6648.7
765.122	6600.11
765.458	6561.01
765.795	6544.52
766.131	6506.78
766.467	6515.82
766.804	6496.38
767.14	6468.59
767.476	6517.85
767.812	6474.69
768.148	6454.35
768.485	6398.98
768.821	6370.28
769.157	6349.49
769.492	6342.26
769.828	6342.26
770.164	6321.7
770.5	6245.77
770.836	6315.37
771.171	6230.85
771.507	6227.69
771.842	6158.09
772.178	6163.51
772.513	6167.13
772.849	6127.35
773.184	6077.18
773.519	6102.04
773.855	6059.33
774.19	5996.73
774.525	5981.82
774.86	6006.23
775.195	5996.96
775.53	5983.18
775.865	5945.89
776.2	5933.69
776.535	5899.79
776.87	5871.54
777.205	5867.25
777.539	5846.68
777.874	5837.19
778.209	5826.34
778.543	5794.93
778.878	5754.26
779.212	5778.21
779.547	5696.4
779.881	5693.24
780.215	5679.23
780.55	5742.96
780.884	5696.4
781.218	5629.29
781.552	5647.59
781.886	5633.13
782.22	5586.8
782.554	5608.95
782.888	5516.52
783.222	5511.32
783.556	5478.56
783.889	5529.4
784.223	5481.49
784.557	5461.38
784.89	5442.63
785.224	5425.22
785.557	5365.79
785.891	5362.63
786.224	5334.61
786.558	5280.37
786.891	5318.11
787.224	5248.51
787.557	5195.17
787.891	5253.03
788.224	5238.11
788.557	5237.43
788.89	5174.84
789.223	5194.27
789.556	5126.93
789.888	5148.4
790.221	5173.03
790.554	5075.86
790.887	5114.5
791.219	5091.9
791.552	5074.5
791.884	5008.96
792.217	5075.4
792.549	5010.55
792.882	5042.64
793.214	4930.32
793.546	4944.11
793.879	4927.61
794.211	4868.18
794.543	4888.52
794.875	4903.88
795.207	4925.35
795.539	4903.66
795.871	4901.62
796.203	4840.38
796.535	4841.74
796.867	4822.53
797.198	4786.82
797.53	4798.8
797.862	4747.73
798.193	4778.46
798.525	4769.65
798.856	4721.06
799.188	4712.7
799.519	4684.23
799.85	4651.23
800.182	4695.53
800.513	4675.41
800.844	4616.21
801.175	4621.4
801.506	4643.55
801.837	4619.82
802.168	4622.31
802.499	4627.28
802.83	4594.74
803.161	4572.82
803.491	4560.61
803.822	4555.19
804.153	4530.78
804.483	4544.12
804.814	4500.05
805.145	4514.29
805.475	4488.07
805.805	4418.92
806.136	4507.73
806.466	4457.79
806.796	4477.9
807.126	4427.96
807.457	4448.08
807.787	4437
808.117	4407.62
808.447	4397.45
808.777	4391.35
809.107	4362.65
809.436	4337.34
809.766	4356.33
810.096	4308.64
810.426	4324.91
810.755	4308.19
811.085	4296.44
811.414	4263.22
811.744	4266.16
812.073	4299.83
812.403	4278.36
812.732	4255.54
813.061	4246.72
813.39	4189.32
813.719	4204.47
814.049	4218.25
814.378	4171.25
814.707	4185.71
815.036	4189.32
815.365	4188.65
815.693	4093.73
816.022	4181.87
816.351	4123.79
816.68	4099.61
817.008	4063.68
817.337	4084.47
817.665	4057.8
817.994	4108.42
818.322	4054.87
818.651	4041.98
818.979	4011.93
819.307	4052.83
819.636	4013.06
819.964	4020.74
820.292	3988.2
820.62	3995.21
820.948	3968.54
821.276	4009.22
821.604	3965.83
821.932	4028.43
822.259	4054.41
822.587	3970.12
822.915	4033.4
823.243	4002.66
823.57	4020.74
823.898	4033.62
824.225	4044.24
824.553	3972.61
824.88	3980.52
825.207	3968.09
825.535	4048.76
825.862	4001.08
826.189	3998.6
826.516	4001.76
826.843	4012.38
827.17	4035.66
827.497	4013.28
827.824	3989.56
828.151	3999.05
828.478	4015.32
828.805	4047.18
829.131	3964.7
829.458	3976.22
829.785	3974.19
830.111	3998.37
830.438	4002.66
830.764	3964.02
831.09	3985.94
831.417	3954.53
831.743	3956.56
832.069	3993.17
832.395	3944.36
832.722	3991.36
833.048	3935.32
833.374	3984.58
833.7	3910.69
834.026	3925.6
834.351	3923.34
834.677	3922.67
835.003	3941.2
835.329	3960.4
835.654	3966.05
835.98	3900.07
836.306	3917.02
836.631	3895.55
836.956	3908.65
837.282	3963.79
837.607	3891.03
837.932	3867.53
838.258	3903.68
838.583	3858.03
838.908	3899.61
839.233	3853.74
839.558	3868.88
839.883	3863.23
840.208	3878.6
840.533	3796.34
840.858	3853.97
841.182	3831.37
841.507	3819.62
841.832	3792.5
842.156	3839.05
842.481	3827.53
842.805	3777.81
843.13	3779.17
843.454	3786.85
843.778	3754.76
844.103	3766.06
844.427	3734.2
844.751	3738.94
845.075	3743.91
845.399	3778.26
845.723	3710.02
846.047	3723.57
846.371	3676.34
846.695	3671.6
847.019	3650.13
847.343	3635.89
847.666	3610.36
847.99	3629.34
848.313	3606.29
848.637	3557.93
848.96	3609.23
849.284	3563.13
849.607	3554.31
849.931	3530.81
850.254	3524.03
850.577	3516.57
850.9	3460.98
851.223	3462.79
851.546	3470.25
851.869	3444.26
852.192	3511.6
852.515	3430.93
852.838	3397.71
853.161	3414.88
853.483	3384.83
853.806	3404.03
854.129	3430.02
854.451	3376.24
854.774	3368.56
855.096	3366.07
855.419	3384.37
855.741	3372.4
856.063	3324.71
856.385	3335.11
856.708	3322.23
857.03	3275.9
857.352	3320.2
857.674	3298.05
857.996	3290.37
858.318	3266.86
858.64	3223.93
858.961	3240.88
859.283	3266.19
859.605	3223.25
859.926	3260.31
860.248	3235
860.57	3220.08
860.891	3181.67
861.212	3250.59
861.534	3181.67
861.855	3195.9
862.176	3164.72
862.498	3205.17
862.819	3171.95
863.14	3195
863.461	3144.15
863.782	3171.27
864.103	3171.27
864.424	3135.57
864.745	3159.3
865.065	3131.95
865.386	3109.81
865.707	3095.34
866.027	3160.2
866.348	3130.82
866.668	3136.25
866.989	3133.76
867.309	3079.98
867.63	3093.99
867.95	3089.92
868.27	3078.39
868.59	3071.39
868.91	3107.77
869.23	3074.55
869.55	3074.1
869.87	3079.98
870.19	3072.29
870.51	3066.87
870.83	3082.46
871.15	3048.56
871.469	3008.56
871.789	2978.06
872.109	3028.45
872.428	3009.02
872.748	3011.95
873.067	3067.09
873.386	2980.77
873.706	3037.26
874.025	3012.41
874.344	2947.78
874.663	3003.37
874.982	2969.7
875.301	2964.5
875.62	2999.07
875.939	3001.11
876.258	2981.22
876.577	2949.36
876.896	2944.16
877.214	2957.49
877.533	2952.52
877.852	2935.57
878.17	2959.53
878.489	2908.68
878.807	2947.1
879.125	2968.57
879.444	2921.79
879.762	2915.01
880.08	2924.73
880.398	2912.07
880.716	2898.74
881.034	2901
881.352	2888.34
881.67	2886.08
881.988	2906.19
882.306	2906.42
882.624	2882.69
882.941	2869.59
883.259	2882.01
883.577	2855.35
883.894	2828.23
884.212	2875.46
884.529	2846.76
884.846	2831.85
885.164	2861.9
885.481	2831.85
885.798	2831.62
886.115	2795.69
886.432	2811.51
886.75	2777.61
887.067	2798.4
887.383	2787.78
887.7	2797.05
888.017	2789.59
888.334	2777.38
888.651	2775.35
888.967	2783.26
889.284	2771.28
889.6	2743.49
889.917	2741.91
890.233	2769.93
890.55	2691.51
890.866	2714.11
891.182	2744.84
891.498	2703.04
891.815	2708.01
892.131	2639.31
892.447	2684.05
892.763	2686.09
893.079	2699.65
893.395	2659.65
893.71	2672.98
894.026	2647.9
894.342	2637.73
894.657	2602.25
894.973	2641.79
895.289	2615.81
895.604	2615.35
895.92	2600.44
896.235	2581.23
896.55	2594.79
896.865	2588.91
897.181	2545.75
897.496	2576.49
897.811	2545.07
898.126	2535.13
898.441	2536.04
898.756	2523.38
899.071	2564.51
899.386	2537.16
899.7	2504.4
900.015	2519.31
900.33	2464.4
900.644	2472.99
900.959	2508.92
901.273	2488.58
901.588	2514.34
901.902	2476.38
902.216	2442.03
902.531	2459.88
902.845	2419.43
903.159	2432.99
903.473	2431.18
903.787	2398.19
904.101	2412.65
904.415	2385.08
904.729	2407.9
905.042	2367.9
905.356	2362.48
905.67	2365.87
905.984	2367.68
906.297	2351.63
906.611	2352.76
906.924	2310.28
907.237	2305.31
907.551	2305.08
907.864	2303.95
908.177	2290.17
908.491	2354.34
908.804	2249.26
909.117	2271.41
909.43	2282.93
909.743	2276.83
910.056	2247.91
910.368	2222.37
910.681	2267.34
910.994	2231.18
911.307	2210.39
911.619	2211.52
911.932	2214.46
912.244	2201.81
912.557	2203.16
912.869	2174.91
913.181	2145.76
913.494	2138.53
913.806	2161.13
914.118	2145.54
914.43	2104.41
914.742	2140.79
915.054	2178.08
915.366	2109.15
915.678	2130.4
915.99	2109.38
916.302	2115.03
916.613	2069.83
916.925	2078.87
917.236	2094.24
917.548	2052.21
917.859	2082.94
918.171	2076.84
918.482	2048.82
918.794	2054.01
919.105	2058.99
919.416	2024.41
919.727	2044.75
920.038	2031.87
920.349	2004.3
920.66	1988.25
920.971	1990.96
921.282	1985.09
921.593	1986.67
921.903	1982.15
922.214	1953.45
922.525	1960.46
922.835	1936.5
923.146	1945.09
923.456	1935.6
923.767	1952.55
924.077	1957.75
924.387	1927.46
924.697	1911.19
925.008	1910.97
925.318	1909.16
925.628	1900.35
925.938	1870.29
926.248	1877.75
926.558	1896.5
926.867	1843.85
927.177	1857.63
927.487	1873.23
927.796	1856.28
928.106	1830.52
928.416	1837.75
928.725	1834.13
929.034	1797.75
929.344	1807.24
929.653	1801.82
929.962	1795.72
930.271	1780.12
930.581	1774.47
930.89	1769.73
931.199	1784.19
931.508	1791.65
931.817	1783.96
932.125	1722.5
932.434	1774.7
932.743	1739.9
933.051	1732.44
933.36	1713.91
933.669	1723.4
933.977	1712.55
934.286	1706.23
934.594	1718.88
934.902	1701.93
935.21	1706.68
935.519	1684.76
935.827	1660.58
936.135	1665.55
936.443	1671.42
936.751	1647.92
937.059	1649.96
937.367	1628.94
937.674	1657.41
937.982	1651.76
938.29	1654.93
938.597	1616.74
938.905	1606.34
939.213	1602.73
939.52	1609.51
939.827	1593.46
940.135	1592.78
940.442	1595.95
940.749	1594.82
941.056	1595.72
941.363	1573.57
941.67	1551.65
941.977	1583.07
942.284	1541.71
942.591	1519.56
942.898	1534.71
943.205	1545.78
943.511	1541.94
943.818	1555.27
944.125	1528.38
944.431	1531.99
944.738	1478.66
945.044	1510.53
945.35	1525.67
945.657	1513.69
945.963	1485.67
946.269	1493.58
946.575	1494.25
946.881	1475.5
947.187	1461.94
947.493	1456.97
947.799	1473.46
948.105	1461.26
948.41	1427.36
948.716	1432.56
949.022	1464.42
949.327	1466.01
949.633	1430.3
949.938	1413.13
950.244	1433.24
950.549	1410.64
950.854	1397.99
951.16	1428.04
951.465	1391.66
951.77	1409.74
952.075	1385.1
952.38	1360.02
952.685	1370.64
952.99	1372
953.294	1376.52
953.599	1381.72
953.904	1337.2
954.209	1334.26
954.513	1356.41
954.818	1375.39
955.122	1358.21
955.426	1349.17
955.731	1322.73
956.035	1316.18
956.339	1332.68
956.643	1322.96
956.948	1299.91
957.252	1294.03
957.556	1335.16
957.86	1305.33
958.163	1307.82
958.467	1289.74
958.771	1303.3
959.075	1273.02
959.378	1279.57
959.682	1292.9
959.985	1267.37
960.289	1250.65
960.592	1267.59
960.896	1267.37
961.199	1253.13
961.502	1245.67
961.805	1266.69
962.108	1237.31
962.411	1256.07
962.714	1241.83
963.017	1220.36
963.32	1226.69
963.623	1203.87
963.926	1210.42
964.228	1216.52
964.531	1240.93
964.833	1164.77
965.136	1175.62
965.438	1189.18
965.741	1198.44
966.043	1172.46
966.345	1174.49
966.648	1177.43
966.95	1160.03
967.252	1147.82
967.554	1155.05
967.856	1152.12
968.158	1136.75
968.46	1155.28
968.761	1151.44
969.063	1138.33
969.365	1143.3
969.666	1147.14
969.968	1123.42
970.269	1110.31
970.571	1145.11
970.872	1118.22
971.174	1101.72
971.475	1118.45
971.776	1091.55
972.077	1116.86
972.378	1091.1
972.679	1101.72
972.98	1104.66
973.281	1073.02
973.582	1076.64
973.883	1061.95
974.183	1068.95
974.484	1092.01
974.785	1083.87
975.085	1075.73
975.386	1052.68
975.686	1062.18
975.986	1070.76
976.287	1068.95
976.587	1050.65
976.887	1034.38
977.187	1036.87
977.487	1064.44
977.787	1044.77
978.087	1049.75
978.387	1026.7
978.687	1029.63
978.987	1013.82
979.286	999.35
979.586	1023.98
979.885	1027.6
980.185	1013.82
980.484	998
980.784	1004.55
981.083	1021.72
981.382	1008.39
981.682	974.72
981.981	1009.97
982.28	990.09
982.579	977.88
982.878	976.98
983.177	976.75
983.475	980.82
983.774	953.03
984.073	975.85
984.372	946.7
984.67	965
984.969	983.99
985.267	982.18
985.566	975.4
985.864	942.4
986.162	947.38
986.461	945.12
986.759	933.59
987.057	926.59
987.355	932.69
987.653	925.23
987.951	903.31
988.249	958.9
988.547	939.01
988.844	928.39
989.142	920.94
989.44	903.76
989.737	906.7
990.035	904.44
990.332	907.38
990.63	914.61
990.927	886.81
991.224	887.26
991.521	896.53
991.819	872.8
992.116	883.88
992.413	896.08
992.71	869.41
993.006	879.81
993.303	870.09
993.6	878.45
993.897	875.51
994.193	871.45
994.49	853.37
994.787	861.28
995.083	863.31
995.379	870.09
995.676	855.4
995.972	835.97
996.268	846.81
996.565	836.64
996.861	838.23
997.157	842.52
997.453	826.02
997.749	813.59
998.044	838.68
998.34	804.78
998.636	841.62
998.932	793.48
999.227	846.59
999.523	849.07
999.818	829.87
1000.114	792.58
1000.409	793.26
1000.704	777.66
1001	803.2
1001.295	798.68
1001.59	789.87
1001.885	792.13
1002.18	771.34
1002.475	786.02
1002.77	765.23
1003.065	766.59
1003.359	784.89
1003.654	786.48
1003.949	771.56
1004.243	764.33
1004.538	745.35
1004.832	753.71
1005.127	779.92
1005.421	749.19
1005.715	767.49
1006.009	741.28
1006.304	740.38
1006.598	756.19
1006.892	741.73
1007.186	740.83
1007.48	728.62
1007.773	730.66
1008.067	735.63
1008.361	703.31
1008.655	726.37
1008.948	705.12
1009.242	715.97
1009.535	723.65
1009.829	708.29
1010.122	725.69
1010.415	692.24
1010.708	703.77
1011.001	717.1
1011.295	713.26
1011.588	700.15
1011.881	686.14
1012.173	709.64
1012.466	671.23
1012.759	672.13
1013.052	681.39
1013.344	692.69
1013.637	662.41
1013.93	690.43
1014.222	689.3
1014.514	652.24
1014.807	655.18
1015.099	657.21
1015.391	682.07
1015.683	663.32
1015.976	663.77
1016.268	645.24
1016.56	652.69
1016.851	657.67
1017.143	629.87
1017.435	632.58
1017.727	654.05
1018.018	653.82
1018.31	627.38
1018.602	634.39
1018.893	637.1
1019.185	640.27
1019.476	621.96
1019.767	629.64
1020.058	624.22
1020.35	618.57
1020.641	623.77
1020.932	604.33
1021.223	613.6
1021.514	628.06
1021.804	587.84
1022.095	580.15
1022.386	602.53
1022.677	605.69
1022.967	591.23
1023.258	595.75
1023.548	587.84
1023.839	609.76
1024.129	592.81
1024.419	567.95
1024.709	602.98
1025	579.93
1025.29	587.39
1025.58	592.13
1025.87	590.32
1026.16	571.79
1026.449	576.76
1026.739	577.67
1027.029	564.34
1027.319	549.42
1027.608	559.36
1027.898	553.26
1028.187	555.52
1028.477	564.34
1028.766	551
1029.055	552.36
1029.344	550.55
1029.634	556.2
1029.923	543.77
1030.212	568.86
1030.501	551
1030.79	539.93
1031.078	554.84
1031.367	538.8
1031.656	518.23
1031.945	540.38
1032.233	524.56
1032.522	524.34
1032.81	514.17
1033.099	517.78
1033.387	533.38
1033.675	497.67
1033.963	514.85
1034.251	521.62
1034.54	500.83
1034.828	518.23
1035.116	514.17
1035.403	513.26
1035.691	499.03
1035.979	503.09
1036.267	507.84
1036.554	512.13
1036.842	485.47
1037.129	506.71
1037.417	501.06
1037.704	521.85
1037.992	498.8
1038.279	513.26
1038.566	482.76
1038.853	482.76
1039.14	482.76
