Data from black_plastic_tray_FLMS001491_063.txt Node
Date: Tue Feb 07 10:40:21 GMT 2017
User: dcchb
Spectrometer: FLMS00149
Trigger mode: 0
Integration Time (sec): 2.000000E-2
Scans to average: 10
Electric dark correction enabled: true
Nonlinearity correction enabled: false
Boxcar width: 0
XAxis mode: Wavelengths
Number of Pixels in Spectrum: 2048
>>>>>Begin Spectral Data<<<<<
341.393	-17.88
341.776	-17.88
342.16	-17.88
342.543	-70.53
342.927	-56.52
343.31	-58.33
343.693	-63.76
344.077	-62.17
344.46	-56.75
344.843	-52.91
345.226	-41.61
345.61	-45.22
345.993	-14.94
346.376	-12.23
346.759	11.27
347.142	18.05
347.525	64.15
347.908	51.27
348.291	83.59
348.674	75.68
349.057	103.92
349.44	111.38
349.823	153.41
350.206	177.82
350.588	178.05
350.971	208.78
351.354	208.1
351.737	223.92
352.119	247.87
352.502	238.61
352.884	267.99
353.267	259.63
353.65	271.6
354.032	301.88
354.414	280.87
354.797	274.54
355.179	291.72
355.562	319.29
355.944	302.56
356.326	321.32
356.709	317.93
357.091	312.73
357.473	312.73
357.855	319.51
358.238	323.81
358.62	329
359.002	333.97
359.384	328.1
359.766	334.2
360.148	325.39
360.53	335.78
360.912	322.68
361.294	311.38
361.676	312.05
362.057	322.45
362.439	319.74
362.821	290.36
363.203	334.88
363.584	291.49
363.966	297.14
364.348	293.07
364.729	321.32
365.111	307.99
365.493	306.86
365.874	308.89
366.256	294.2
366.637	286.97
367.019	297.14
367.4	307.08
367.781	298.27
368.163	292.39
368.544	311.6
368.925	284.03
369.306	295.11
369.688	280.87
370.069	281.55
370.45	297.82
370.831	324.93
371.212	281.77
371.593	299.62
371.974	317.7
372.355	320.64
372.736	310.02
373.117	307.99
373.498	303.47
373.879	302.34
374.26	314.99
374.641	295.11
375.021	303.92
375.402	291.72
375.783	334.43
376.163	307.08
376.544	331.71
376.925	307.08
377.305	316.35
377.686	330.58
378.066	306.18
378.447	344.82
378.827	314.77
379.208	319.96
379.588	318.16
379.968	318.83
380.349	333.75
380.729	330.58
381.109	298.49
381.489	338.04
381.87	315.67
382.25	340.53
382.63	336.69
383.01	330.36
383.39	323.58
383.77	337.59
384.15	347.31
384.53	322
384.91	329
385.29	356.12
385.67	338.49
386.049	346.18
386.429	354.99
386.809	344.14
387.189	358.61
387.568	340.75
387.948	359.96
388.328	350.92
388.707	361.09
389.087	370.13
389.466	363.13
389.846	357.93
390.225	373.52
390.605	377.59
390.984	345.95
391.363	369.23
391.743	368.78
392.122	371.71
392.501	389.57
392.881	382.33
393.26	358.61
393.639	393.63
394.018	396.8
394.397	375.78
394.776	400.41
395.155	390.92
395.534	379.62
395.913	387.31
396.292	393.86
396.671	400.19
397.05	408.77
397.429	400.87
397.808	398.38
398.186	390.7
398.565	409
398.944	410.13
399.323	407.19
399.701	427.98
400.08	397.7
400.458	414.2
400.837	415.55
401.215	408.32
401.594	400.64
401.972	402.45
402.351	427.31
402.729	441.32
403.107	432.73
403.486	443.12
403.864	437.02
404.242	445.84
404.62	427.98
404.999	430.69
405.377	443.35
405.755	460.52
406.133	439.96
406.511	472.95
406.889	462.11
407.267	443.58
407.645	449.68
408.023	451.26
408.401	471.37
408.779	467.3
409.156	489.45
409.534	479.06
409.912	494.2
410.29	496.46
410.667	485.61
411.045	490.13
411.422	487.42
411.8	491.94
412.178	492.16
412.555	508.21
412.933	491.26
413.31	504.59
413.687	530.58
414.065	523.57
414.442	545.49
414.819	530.13
415.197	543.69
415.574	557.92
415.951	519.28
416.328	566.51
416.705	541.43
417.082	560.18
417.46	563.12
417.837	567.41
418.214	560.41
418.591	540.52
418.967	553.63
419.344	566.51
419.721	580.52
420.098	574.65
420.475	601.99
420.852	587.3
421.228	605.61
421.605	591.59
421.982	589.79
422.358	576.23
422.735	624.59
423.111	587.3
423.488	611.03
423.864	605.15
424.241	627.98
424.617	611.03
424.994	627.75
425.37	651.25
425.746	635.89
426.123	636.34
426.499	641.76
426.875	651.03
427.251	671.14
427.627	671.14
428.003	673.85
428.379	693.29
428.756	680.18
429.132	693.06
429.507	693.29
429.883	688.54
430.259	675.21
430.635	714.76
431.011	712.95
431.387	733.96
431.763	745.49
432.138	733.74
432.514	731.93
432.89	741.42
433.265	786.17
433.641	777.8
434.016	807.86
434.392	776.22
434.767	778.48
435.143	771.93
435.518	785.71
435.894	818.71
436.269	824.81
436.644	824.58
437.02	812.83
437.395	811.25
437.77	824.13
438.145	840.18
438.52	860.97
438.895	874.07
439.271	853.51
439.646	862.55
440.021	869.33
440.395	896.45
440.77	863.68
441.145	905.03
441.52	918.14
441.895	884.02
442.27	899.61
442.645	920.4
443.019	894.86
443.394	905.26
443.769	926.28
444.143	914.52
444.518	944.35
444.892	930.79
445.267	948.87
445.641	955.2
446.016	957.91
446.39	982.09
446.764	952.49
447.139	946.84
447.513	977.57
447.887	982.54
448.262	965.82
448.636	990.91
449.01	1000.17
449.384	999.04
449.758	1000.85
450.132	1043.79
450.506	1004.92
450.88	1046.05
451.254	1040.17
451.628	1055.31
452.002	1073.62
452.376	1084.24
452.75	1073.84
453.123	1084.91
453.497	1122.88
453.871	1078.14
454.244	1097.12
454.618	1125.37
454.992	1144.57
455.365	1139.83
455.739	1151.35
456.112	1173.73
456.486	1180.73
456.859	1183.22
457.232	1221.41
457.606	1236.1
457.979	1222.76
458.352	1238.36
458.725	1248.53
459.099	1277.9
459.472	1258.47
459.845	1298.47
460.218	1328.07
460.591	1328.75
460.964	1322.65
461.337	1359.71
461.71	1352.25
462.083	1401.97
462.456	1374.62
462.829	1383.44
463.201	1422.08
463.574	1429.54
463.947	1450.33
464.32	1451.68
464.692	1472.02
465.065	1462.53
465.438	1497.33
465.81	1538.46
466.183	1526.71
466.555	1539.82
466.928	1555.64
467.3	1585.69
467.672	1577.33
468.045	1610.32
468.417	1620.49
468.789	1627.95
469.161	1667.72
469.534	1723.54
469.906	1703.2
470.278	1721.51
470.65	1719.47
471.022	1750.66
471.394	1787.04
471.766	1826.36
472.138	1806.7
472.51	1856.19
472.882	1869.08
473.253	1892.13
473.625	1941.39
473.997	1971.67
474.369	1946.81
474.74	1978.9
475.112	2013.7
475.484	2046.02
475.855	2077.43
476.227	2105
476.598	2148.84
476.97	2177.32
477.341	2216.18
477.713	2199.91
478.084	2258.9
478.455	2314.71
478.827	2315.62
479.198	2384.77
479.569	2359.46
479.94	2419.34
480.311	2443.07
480.682	2494.6
481.053	2560.81
481.424	2601.26
481.795	2616.4
482.166	2646
482.537	2674.93
482.908	2779.33
483.279	2767.58
483.65	2809.84
484.021	2867.47
484.391	2918.09
484.762	2900.69
485.133	2937.97
485.503	2949.27
485.874	3021.14
486.244	3078.31
486.615	3137.74
486.985	3155.37
487.356	3162.37
487.726	3210.96
488.097	3316.95
488.467	3312.65
488.837	3351.52
489.207	3392.65
489.578	3455.93
489.948	3479.2
490.318	3507.22
490.688	3521.01
491.058	3604.4
491.428	3624.51
491.798	3694.79
492.168	3702.25
492.538	3752.87
492.908	3831.51
493.278	3817.95
493.648	3822.92
494.017	3924.84
494.387	3901.79
494.757	3951.28
495.126	3999.64
495.496	4038.51
495.866	4041.67
496.235	4111.5
496.605	4110.6
496.974	4078.28
497.344	4184.72
497.713	4208.9
498.082	4201.9
498.452	4211.84
498.821	4231.95
499.19	4264.94
499.559	4397.6
499.928	4376.35
500.298	4417.03
500.667	4420.42
501.036	4426.97
501.405	4426.3
501.774	4473.3
502.143	4525.95
502.512	4557.14
502.88	4607.53
503.249	4568.89
503.618	4643.47
503.987	4593.07
504.356	4698.15
504.724	4684.14
505.093	4710.13
505.462	4700.64
505.83	4742.45
506.199	4807.08
506.567	4914.42
506.936	4906.28
507.304	4917.36
507.672	4966.39
508.041	4985.6
508.409	5009.56
508.777	5015.43
509.145	5084.36
509.514	5091.36
509.882	5151.7
510.25	5147.63
510.618	5193.96
510.986	5213.62
511.354	5238.48
511.722	5314.41
512.09	5342.43
512.458	5380.4
512.826	5444.57
513.193	5449.09
513.561	5471.47
513.929	5536.32
514.297	5551.46
514.664	5554.85
515.032	5605.7
515.4	5645.7
515.767	5688.18
516.135	5769.76
516.502	5694.51
516.869	5801.4
517.237	5862.87
517.604	5817.45
517.972	5944.67
518.339	5994.16
518.706	5985.58
519.073	6025.8
519.44	6120.71
519.808	6139.92
520.175	6144.67
520.542	6224.21
520.909	6305.12
521.276	6249.52
521.643	6370.88
522.009	6351.22
522.376	6411.55
522.743	6455.85
523.11	6547.14
523.477	6577.43
523.843	6601.15
524.21	6708.27
524.577	6711.89
524.943	6747.36
525.31	6736.29
525.676	6859.68
526.043	6895.84
526.409	6950.3
526.776	7013.35
527.142	7070.07
527.508	7073.91
527.874	7121.14
528.241	7114.59
528.607	7155.26
528.973	7261.25
529.339	7214.47
529.705	7355.71
530.071	7313.45
530.437	7408.14
530.803	7485.65
531.169	7531.53
531.535	7548.93
531.901	7595.7
532.267	7581.24
532.632	7644.97
532.998	7660.79
533.364	7693.1
533.73	7703.5
534.095	7807.22
534.461	7852.42
534.826	7825.53
535.192	7869.6
535.557	7918.86
535.923	7900.78
536.288	8004.73
536.653	7965.64
537.019	7998.18
537.384	8053.77
537.749	8047.22
538.114	8115.01
538.479	8144.39
538.845	8143.94
539.21	8238.4
539.575	8184.62
539.94	8207.21
540.305	8253.54
540.67	8312.07
541.034	8287.44
541.399	8397.04
541.764	8430.94
542.129	8446.08
542.494	8444.5
542.858	8391.39
543.223	8479.97
543.587	8516.13
543.952	8545.28
544.316	8592.06
544.681	8585.06
545.045	8634.77
545.41	8680.42
545.774	8699.4
546.138	8766.29
546.503	8776.69
546.867	8735.34
547.231	8811.27
547.595	8792.28
547.959	8863.69
548.324	8887.87
548.688	8940.98
549.052	8989.11
549.416	8962
549.779	8954.54
550.143	8935.56
550.507	9043.58
550.871	9073.18
551.235	9114.99
551.599	9189.33
551.962	9277.02
552.326	9252.84
552.689	9265.26
553.053	9277.24
553.417	9330.35
553.78	9453.51
554.143	9454.41
554.507	9428.65
554.87	9513.39
555.234	9633.16
555.597	9567.18
555.96	9659.6
556.323	9698.7
556.686	9629.32
557.05	9758.81
557.413	9837.23
557.776	9759.04
558.139	9852.82
558.502	9839.71
558.865	9888.98
559.228	9984.12
559.59	9989.77
559.953	10038.8
560.316	10158.12
560.679	10114.28
561.041	10201.74
561.404	10185.92
561.767	10275.41
562.129	10222.3
562.492	10359.93
562.854	10413.71
563.217	10345.46
563.579	10401.96
563.941	10471.11
564.304	10584.33
564.666	10565.12
565.028	10599.47
565.39	10620.71
565.753	10646.25
566.115	10747.94
566.477	10734.6
566.839	10816.86
567.201	10766.69
567.563	10850.53
567.925	10902.28
568.287	10898.44
568.648	10994.03
569.01	11001.26
569.372	11076.29
569.734	11004.88
570.095	11131.43
570.457	11197.19
570.819	11175.5
571.18	11193.8
571.542	11373.91
571.903	11321.03
572.265	11314.48
572.626	11291.65
572.987	11369.39
573.349	11455.04
573.71	11417.98
574.071	11463.17
574.432	11463.85
574.794	11595.6
575.155	11528.71
575.516	11480.8
575.877	11611.64
576.238	11555.37
576.599	11665.2
576.96	11652.77
577.32	11645.32
577.681	11665.43
578.042	11743.17
578.403	11694.58
578.763	11730.74
579.124	11787.91
579.485	11840.34
579.845	11875.59
580.206	11800.11
580.566	11828.59
580.927	11761.24
581.287	11835.82
581.648	11841.92
582.008	11856.38
582.368	11835.59
582.728	11880.56
583.089	11855.71
583.449	11808.93
583.809	11852.77
584.169	11954.23
584.529	11988.58
584.889	11977.74
585.249	11902.71
585.609	11845.99
585.969	11919.88
586.329	11894.12
586.688	11966.21
587.048	11906.78
587.408	11882.15
587.768	11955.36
588.127	11905.42
588.487	11902.71
588.846	12017.51
589.206	11963.27
589.565	11867.23
589.925	11917.85
590.284	11968.92
590.643	11987.91
591.003	12033.1
591.362	12087.56
591.721	12015.02
592.08	12074.91
592.44	12138.41
592.799	12071.97
593.158	12103.38
593.517	12090.5
593.876	12132.31
594.235	12184.28
594.593	12150.84
594.952	12152.65
595.311	12136.15
595.67	12064.06
596.029	12187
596.387	12182.7
596.746	12123.04
597.104	12101.12
597.463	12153.32
597.822	12127.56
598.18	12149.71
598.538	12187.45
598.897	12149.48
599.255	12108.13
599.613	12249.82
599.972	12118.07
600.33	12206.2
600.688	12148.13
601.046	12181.57
601.404	12268.8
601.762	12237.84
602.12	12312.64
602.478	12305.18
602.836	12342.47
603.194	12241.01
603.552	12292.3
603.91	12212.31
604.268	12370.95
604.625	12320.55
604.983	12313.09
605.341	12294.11
605.698	12395.8
606.056	12391.96
606.413	12343.15
606.771	12382.02
607.128	12405.3
607.485	12284.17
607.843	12297.05
608.2	12322.13
608.557	12401.23
608.914	12321
609.272	12490.49
609.629	12448.01
609.986	12454.56
610.343	12332.3
610.7	12499.08
611.057	12452.07
611.414	12427.67
611.771	12478.97
612.127	12477.38
612.484	12490.94
612.841	12532.75
613.198	12585.18
613.554	12535.24
613.911	12591.28
614.267	12634.67
614.624	12500.89
614.98	12616.59
615.337	12636.48
615.693	12586.08
616.05	12586.08
616.406	12671.95
616.762	12618.62
617.118	12617.95
617.475	12613.88
617.831	12686.19
618.187	12695.01
618.543	12657.94
618.899	12780.65
619.255	12724.38
619.611	12711.5
619.967	12742.01
620.323	12750.14
620.678	12690.03
621.034	12669.92
621.39	12719.86
621.746	12655.01
622.101	12891.38
622.457	12759.18
622.812	12748.79
623.168	12819.3
623.523	12685.74
623.879	12803.7
624.234	12712.86
624.589	12808.9
624.945	12814.1
625.3	12782.91
625.655	12749.92
626.01	12742.24
626.365	12762.57
626.72	12759.64
627.075	12659.3
627.43	12717.83
627.785	12672.63
628.14	12728
628.495	12755.34
628.85	12612.07
629.205	12643.93
629.559	12785.62
629.914	12670.15
630.269	12620.88
630.623	12557.38
630.978	12561.45
631.332	12672.18
631.687	12716.93
632.041	12618.85
632.396	12642.8
632.75	12590.15
633.104	12643.48
633.459	12587.66
633.813	12614.1
634.167	12518.74
634.521	12495.01
634.875	12474.67
635.229	12472.19
635.583	12424.96
635.937	12402.58
636.291	12426.54
636.645	12390.38
636.999	12331.62
637.352	12381.34
637.706	12266.32
638.06	12388.12
638.413	12305.86
638.767	12317.84
639.121	12337.73
639.474	12289.59
639.828	12220.89
640.181	12221.35
640.534	12259.08
640.888	12244.62
641.241	12155.81
641.594	12168.01
641.947	12210.95
642.301	12147.22
642.654	12131.18
643.007	12187.45
643.36	12128.24
643.713	12123.95
644.066	12100.22
644.419	12050.28
644.771	12073.1
645.124	11906.33
645.477	11911.97
645.83	11834.01
646.182	11630.63
646.535	11655.94
646.888	11678.31
647.24	11542.95
647.593	11735.26
647.945	11660.68
648.298	11645.32
648.65	11610.97
649.002	11535.26
649.355	11638.54
649.707	11598.76
650.059	11615.26
650.411	11784.07
650.763	11856.16
651.115	11962.37
651.467	11896.83
651.819	11900
652.171	11843.28
652.523	11868.13
652.875	11792.43
653.227	11814.12
653.578	11741.81
653.93	11735.93
654.282	11770.06
654.633	11709.95
654.985	11714.69
655.337	11710.4
655.688	11728.7
656.039	11658.42
656.391	11623.39
656.742	11602.38
657.094	11597.63
657.445	11645.09
657.796	11680.34
658.147	11629.27
658.498	11583.4
658.849	11644.64
659.2	11581.14
659.551	11681.7
659.902	11664.3
660.253	11599.67
660.604	11598.99
660.955	11518.31
661.306	11581.14
661.656	11489.61
662.007	11525.09
662.358	11539.1
662.708	11555.6
663.059	11537.97
663.409	11381.37
663.76	11475.83
664.11	11561.7
664.461	11536.39
664.811	11565.77
665.161	11492.78
665.511	11466.34
665.862	11500.01
666.212	11540.46
666.562	11493.68
666.912	11428.82
667.262	11452.33
667.612	11404.87
667.962	11359.45
668.312	11408.26
668.662	11421.82
669.011	11344.53
669.361	11300.69
669.711	11321.48
670.06	11283.97
670.41	11226.12
670.76	11273.8
671.109	11330.52
671.459	11223.18
671.808	11339.79
672.157	11258.21
672.507	11209.39
672.856	11175.27
673.205	11202.62
673.554	11276.96
673.904	11180.24
674.253	11238.55
674.602	11199.23
674.951	11100.92
675.3	10986.8
675.649	11154.03
675.998	11118.32
676.346	11183.86
676.695	11272.22
677.044	11196.74
677.393	11104.54
677.741	11180.02
678.09	11161.94
678.438	11045.56
678.787	11027.7
679.135	11181.15
679.484	11023.64
679.832	10965.33
680.181	11010.76
680.529	11048.95
680.877	11022.73
681.225	11016.63
681.573	11025.9
681.922	11001.72
682.27	10936.86
682.618	10845.34
682.966	10921.49
683.314	10964.88
683.661	10937.99
684.009	10903.87
684.357	10843.98
684.705	10842.17
685.053	10849.86
685.4	10834.72
685.748	10789.52
686.095	10742.74
686.443	10725.79
686.79	10686.24
687.138	10669.97
687.485	10670.2
687.832	10671.1
688.18	10639.92
688.527	10614.61
688.874	10573.03
689.221	10575.29
689.568	10561.5
689.915	10562.86
690.262	10480.6
690.609	10533.48
690.956	10451
691.303	10424.78
691.65	10426.59
691.997	10359.47
692.344	10351.56
692.69	10337.33
693.037	10334.16
693.383	10328.29
693.73	10307.27
694.077	10259.36
694.423	10196.31
694.769	10205.13
695.116	10197.9
695.462	10161.51
695.808	10066.6
696.155	10110.67
696.501	10127.84
696.847	10093.49
697.193	9979.82
697.539	10012.82
697.885	9940.95
698.231	9936.21
698.577	9949.09
698.923	9967.17
699.269	9830.67
699.614	9828.87
699.96	9783.9
700.306	9815.76
700.651	9802.43
700.997	9652.15
701.342	9690.56
701.688	9696.44
702.033	9596.78
702.379	9638.81
702.724	9651.47
703.069	9698.93
703.415	9521.08
703.76	9639.27
704.105	9556.33
704.45	9592.04
704.795	9491.7
705.14	9389.56
705.485	9474.98
705.83	9349.33
706.175	9402.89
706.52	9321.99
706.865	9267.98
707.209	9298.94
707.554	9278.82
707.899	9302.55
708.243	9261.2
708.588	9243.57
708.932	9198.6
709.277	9174.87
709.621	9205.61
709.966	9151.82
710.31	9190.69
710.654	9079.28
710.998	9133.29
711.342	9132.16
711.687	9043.8
712.031	8942.34
712.375	9044.71
712.719	9020.53
713.063	8931.49
713.407	8992.05
713.75	8878.83
714.094	8885.16
714.438	8818.04
714.782	8862.79
715.125	8789.8
715.469	8844.94
715.812	8813.75
716.156	8742.11
716.499	8694.66
716.843	8728.56
717.186	8668.44
717.53	8742.79
717.873	8725.39
718.216	8688.1
718.559	8656.24
718.902	8595.45
719.246	8640.2
719.589	8629.35
719.932	8586.86
720.275	8520.43
720.617	8573.08
720.96	8491.05
721.303	8566.98
721.646	8528.11
721.989	8477.71
722.331	8416.47
722.674	8485.85
723.016	8454.44
723.359	8415.57
723.701	8369.02
724.044	8328.79
724.386	8327.44
724.729	8362.01
725.071	8290.83
725.413	8332.18
725.755	8276.82
726.097	8213.54
726.439	8220.77
726.782	8206.99
727.124	8286.76
727.465	8224.16
727.807	8235.01
728.149	8209.47
728.491	8222.81
728.833	8190.72
729.175	8229.81
729.516	8119.08
729.858	8113.88
730.199	8155.24
730.541	8152.53
730.882	8157.72
731.224	8113.2
731.565	8050.16
731.906	8096.71
732.248	8097.39
732.589	8028.46
732.93	7969.03
733.271	7983.49
733.612	8009.93
733.953	8049.03
734.294	8036.37
734.635	7998.18
734.976	8044.05
735.317	7936.26
735.658	7958.86
735.999	7999.54
736.339	7918.63
736.68	7944.4
737.021	7875.02
737.361	7787.56
737.702	7884.28
738.042	7863.49
738.383	7818.75
738.723	7813.78
739.063	7791.41
739.404	7764.51
739.744	7743.27
740.084	7749.15
740.424	7747.56
740.764	7771.74
741.104	7806.09
741.444	7747.79
741.784	7690.39
742.124	7731.52
742.464	7692.2
742.804	7719.99
743.143	7656.49
743.483	7670.28
743.823	7629.83
744.162	7717.96
744.502	7697.4
744.841	7631.64
745.181	7652.43
745.52	7614.23
745.86	7648.81
746.199	7581.92
746.538	7607
746.877	7524.52
747.216	7563.84
747.556	7517.97
747.895	7524.75
748.234	7487.01
748.573	7518.19
748.911	7453.79
749.25	7474.35
749.589	7459.44
749.928	7442.26
750.267	7454.24
750.605	7424.64
750.944	7427.57
751.283	7451.08
751.621	7420.12
751.96	7365.43
752.298	7313.9
752.636	7304.41
752.975	7278.2
753.313	7277.29
753.651	7335.15
753.989	7265.09
754.327	7206.34
754.666	7236.62
755.004	7240.69
755.342	7273.9
755.679	7220.8
756.017	7158.2
756.355	7171.53
756.693	7057.64
757.031	7124.98
757.368	7138.77
757.706	7162.72
758.044	7058.09
758.381	7021.26
758.719	7045.89
759.056	7125.89
759.394	6952.11
759.731	6939
760.068	7018.32
760.405	6940.13
760.743	6886.34
761.08	6913.46
761.417	6855.61
761.754	6841.15
762.091	6856.97
762.428	6867.36
762.765	6741.49
763.102	6849.74
763.438	6772.22
763.775	6757.76
764.112	6746.24
764.449	6664.2
764.785	6738.78
765.122	6698.1
765.458	6695.16
765.795	6659.01
766.131	6650.64
766.467	6619.23
766.804	6562.74
767.14	6561.61
767.476	6558.22
767.812	6510.08
768.148	6520.03
768.485	6452.46
768.821	6489.52
769.157	6479.58
769.492	6455.17
769.828	6369.75
770.164	6314.83
770.5	6394.61
770.836	6354.15
771.171	6355.28
771.507	6252.69
771.842	6249.07
772.178	6273.03
772.513	6216.31
772.849	6242.07
773.184	6178.79
773.519	6183.54
773.855	6092.24
774.19	6138.79
774.525	6091.34
774.86	6082.3
775.195	6076.2
775.53	6076.42
775.865	6015.86
776.2	5968.63
776.535	5916.2
776.87	5906.94
777.205	5880.27
777.539	5941.96
777.874	5914.62
778.209	5858.35
778.543	5821.74
778.878	5803.89
779.212	5845.69
779.547	5751.01
779.881	5809.08
780.215	5742.65
780.55	5721.4
780.884	5700.61
781.218	5663.55
781.552	5667.17
781.886	5618.58
782.22	5680.95
782.554	5611.12
782.888	5526.38
783.222	5478.47
783.556	5517.79
783.889	5527.51
784.223	5456.78
784.557	5462.43
784.89	5493.39
785.224	5447.29
785.557	5383.33
785.891	5375.88
786.224	5397.57
786.558	5387.17
786.891	5339.49
787.224	5341.3
787.557	5302.66
787.891	5309.66
788.224	5327.06
788.557	5359.6
788.89	5304.92
789.223	5296.1
789.556	5247.74
789.888	5206.39
790.221	5197.35
790.554	5179.72
790.887	5129.33
791.219	5127.52
791.552	5146.73
791.884	5095.43
792.217	5071.02
792.549	5051.36
792.882	5037.35
793.214	5032.38
793.546	5046.84
793.879	5038.03
794.211	4946.73
794.543	4991.48
794.875	4907.19
795.207	4919.84
795.539	4891.14
795.871	4909.45
796.203	4829.22
796.535	4853.18
796.867	4822.44
797.198	4802.78
797.53	4812.05
797.862	4745.16
798.193	4752.84
798.525	4724.82
798.856	4773.86
799.188	4706.97
799.519	4731.82
799.85	4683.01
800.182	4726.63
800.513	4720.75
800.844	4680.3
801.175	4645.27
801.506	4667.87
801.837	4635.33
802.168	4659.28
802.499	4624.03
802.83	4631.94
803.161	4610.25
803.491	4633.97
803.822	4578.61
804.153	4585.16
804.483	4480.76
804.814	4461.1
805.145	4502.68
805.475	4483.02
805.805	4490.02
806.136	4484.83
806.466	4486.63
806.796	4442.34
807.126	4413.19
807.457	4414.77
807.787	4404.83
808.117	4360.76
808.447	4422.23
808.777	4418.16
809.107	4400.76
809.436	4403.25
809.766	4393.3
810.096	4343.81
810.426	4286.86
810.755	4310.14
811.085	4312.85
811.414	4308.56
811.744	4281.67
812.073	4235.57
812.403	4261.55
812.732	4224.72
813.061	4224.72
813.39	4221.33
813.719	4240.99
814.049	4218.17
814.378	4205.06
814.707	4185.85
815.036	4151.05
815.365	4176.81
815.693	4120.54
816.022	4120.09
816.351	4164.83
816.68	4104.95
817.008	4150.6
817.337	4079.64
817.665	4059.98
817.994	4070.15
818.322	4059.07
818.651	4071.5
818.979	4043.03
819.307	4064.72
819.636	4059.75
819.964	4052.52
820.292	4057.49
820.62	4056.59
820.948	4015.91
821.276	4050.94
821.604	4026.76
821.932	4033.99
822.259	4036.02
822.587	4002.58
822.915	4009.81
823.243	4043.26
823.57	3965.97
823.898	3998.06
824.225	4008.45
824.553	4024.72
824.88	4025.63
825.207	4036.7
825.535	4034.67
825.862	4084.38
826.189	4007.32
826.516	4062.69
826.843	4020.88
827.17	4015.91
827.497	4056.59
827.824	4010.04
828.151	4052.97
828.478	4004.39
828.805	4009.58
829.131	4040.32
829.458	4038.51
829.785	3992.18
830.111	4020.21
830.438	4036.25
830.764	4001.45
831.09	4001.45
831.417	3983.82
831.743	4005.52
832.069	3984.27
832.395	3993.99
832.722	3989.7
833.048	3976.14
833.374	4003.26
833.7	3945.86
834.026	3990.38
834.351	4002.8
834.677	3968.68
835.003	3997.83
835.329	4005.06
835.654	3978.17
835.98	3975.69
836.306	3956.7
836.631	3955.12
836.956	3947.89
837.282	3947.89
837.607	3908.34
837.932	3919.42
838.258	3890.94
838.583	3896.59
838.908	3884.84
839.233	3914.22
839.558	3868.8
839.883	3910.15
840.208	3863.6
840.533	3855.69
840.858	3920.09
841.182	3866.08
841.507	3839.64
841.832	3869.25
842.156	3856.59
842.481	3840.55
842.805	3845.52
843.13	3832.41
843.454	3782.7
843.778	3800.78
844.103	3799.19
844.427	3772.08
844.751	3798.74
845.075	3779.08
845.399	3741.57
845.723	3717.16
846.047	3693.43
846.371	3714.22
846.695	3692.98
847.019	3672.87
847.343	3673.32
847.666	3637.62
847.99	3685.52
848.313	3614.34
848.637	3615.7
848.96	3626.09
849.284	3613.21
849.607	3591.52
849.931	3559.2
850.254	3538.41
850.577	3527.34
850.9	3508.81
851.223	3485.08
851.546	3526.21
851.869	3439.88
852.192	3499.99
852.515	3455.7
852.838	3431.29
853.161	3425.42
853.483	3421.8
853.806	3398.3
854.129	3451.18
854.451	3372.54
854.774	3373.44
855.096	3365.98
855.419	3343.61
855.741	3356.27
856.063	3327.79
856.385	3345.42
856.708	3334.12
857.03	3350.62
857.352	3308.36
857.674	3328.02
857.996	3300.68
858.318	3258.87
858.64	3290.73
858.961	3284.41
859.283	3276.5
859.605	3257.51
859.926	3276.95
860.248	3277.85
860.57	3184.75
860.891	3247.12
861.212	3205.09
861.534	3215.48
861.855	3207.8
862.176	3231.98
862.498	3201.47
862.819	3221.81
863.14	3195.82
863.461	3154.47
863.782	3141.36
864.103	3145.65
864.424	3099.78
864.745	3155.14
865.065	3158.31
865.386	3119.44
865.707	3142.94
866.027	3143.17
866.348	3132.32
866.668	3087.35
866.989	3086.9
867.309	3074.92
867.63	3109.27
867.95	3097.07
868.27	3074.47
868.59	3083.96
868.91	3103.39
869.23	3077.4
869.55	3099.78
869.87	3117.4
870.19	3059.1
870.51	3073.56
870.83	3054.13
871.15	3038.31
871.469	3049.16
871.789	3071.08
872.109	3045.09
872.428	3026.33
872.748	3034.24
873.067	3021.81
873.386	3038.54
873.706	3033.34
874.025	3011.87
874.344	2953.79
874.663	2940.46
874.982	2976.62
875.301	2971.87
875.62	2944.3
875.939	2980.01
876.258	2968.93
876.577	2937.52
876.896	2936.62
877.214	2909.73
877.533	2926.67
877.852	2917.64
878.17	2935.71
878.489	2928.48
878.807	2959.44
879.125	2928.48
879.444	2943.62
879.762	2900.23
880.08	2943.17
880.398	2890.07
880.716	2871.08
881.034	2909.5
881.352	2917.41
881.67	2858.65
881.988	2879.67
882.306	2870.63
882.624	2861.82
882.941	2831.54
883.259	2853.23
883.577	2861.59
883.894	2843.06
884.212	2845.32
884.529	2824.98
884.846	2824.08
885.164	2836.96
885.481	2810.52
885.798	2803.51
886.115	2772.1
886.432	2805.77
886.75	2745.89
887.067	2753.8
887.383	2763.74
887.7	2777.75
888.017	2746.11
888.334	2725.32
888.651	2751.54
888.967	2736.4
889.284	2752.44
889.6	2729.17
889.917	2681.94
890.233	2728.04
890.55	2746.11
890.866	2686.45
891.182	2699.11
891.498	2693.91
891.815	2715.15
892.131	2664.76
892.447	2698.43
892.763	2652.11
893.079	2688.26
893.395	2655.72
893.71	2644.87
894.026	2628.6
894.342	2668.15
894.657	2641.26
894.973	2578.21
895.289	2620.24
895.604	2616.17
895.92	2646.68
896.235	2604.88
896.55	2565.78
896.865	2553.12
897.181	2577.31
897.496	2592.45
897.811	2554.25
898.126	2525.33
898.441	2545.44
898.756	2503.86
899.071	2523.07
899.386	2532.56
899.7	2466.35
900.015	2519.91
900.33	2495.73
900.644	2542.96
900.959	2504.54
901.273	2484.43
901.588	2497.31
901.902	2470.87
902.216	2478.32
902.531	2468.16
902.845	2394.49
903.159	2402.39
903.473	2433.81
903.787	2392.9
904.101	2398.78
904.415	2397.87
904.729	2420.25
905.042	2352.68
905.356	2351.32
905.67	2377.31
905.984	2352.23
906.297	2369.17
906.611	2312
906.924	2354.94
907.237	2345.22
907.551	2339.35
907.864	2328.72
908.177	2331.89
908.491	2310.65
908.804	2291.89
909.117	2281.95
909.43	2289.18
909.743	2260.03
910.056	2258.22
910.368	2216.64
910.681	2244.88
910.994	2228.39
911.307	2218.67
911.619	2226.81
911.932	2220.25
912.244	2231.1
912.557	2223.42
912.869	2192.23
913.181	2171.21
913.494	2165.79
913.806	2173.25
914.118	2175.96
914.43	2147.26
914.742	2159.24
915.054	2113.81
915.366	2140.48
915.678	2143.19
915.99	2105.23
916.302	2107.03
916.613	2098.9
916.925	2075.85
917.236	2082.63
917.548	2079.47
917.859	2073.82
918.171	2071.33
918.482	2063.42
918.794	2018.22
919.105	2031.1
919.416	2032.46
919.727	2021.39
920.038	2053.7
920.349	2031.1
920.66	1998.34
920.971	2027.94
921.282	2015.51
921.593	1977.55
921.903	1942.52
922.214	1970.77
922.525	1945.23
922.835	1974.84
923.146	1938.68
923.456	1953.14
923.767	1947.72
924.077	1931.45
924.387	1909.75
924.697	1926.7
925.008	1931.9
925.318	1904.55
925.628	1916.53
925.938	1888.51
926.248	1904.1
926.558	1867.72
926.867	1893.93
927.177	1876.76
927.487	1832.92
927.796	1851.45
928.106	1851.22
928.416	1838.79
928.725	1833.37
929.034	1824.78
929.344	1813.71
929.653	1806.03
929.962	1800.83
930.271	1805.12
930.581	1758.8
930.89	1787.27
931.199	1763.77
931.508	1768.06
931.817	1794.05
932.125	1781.62
932.434	1772.58
932.743	1760.6
933.051	1771.45
933.36	1728.06
933.669	1707.72
933.977	1723.77
934.286	1749.76
934.594	1726.25
934.902	1708.85
935.21	1732.58
935.519	1738.91
935.827	1718.34
936.135	1672.24
936.443	1728.74
936.751	1653.94
937.059	1674.73
937.367	1675.86
937.674	1662.53
937.982	1619.82
938.29	1637.44
938.597	1640.38
938.905	1606.26
939.213	1637.67
939.52	1620.49
939.827	1648.29
940.135	1628.4
940.442	1601.96
940.749	1573.72
941.056	1588.4
941.363	1590.66
941.67	1573.49
941.977	1572.59
942.284	1549.08
942.591	1553.6
942.898	1551.57
943.205	1557.9
943.511	1543.89
943.818	1523.55
944.125	1517.45
944.431	1517.9
944.738	1514.06
945.044	1507.05
945.35	1517.9
945.657	1503.44
945.963	1487.39
946.269	1501.18
946.575	1480.84
946.881	1467.5
947.187	1476.77
947.493	1457.33
947.799	1454.85
948.105	1459.59
948.41	1429.99
948.716	1458.24
949.022	1437
949.327	1413.95
949.633	1429.54
949.938	1424.57
950.244	1429.54
950.549	1387.73
950.854	1419.14
951.16	1401.52
951.465	1425.7
951.77	1388.64
952.075	1392.25
952.38	1412.36
952.685	1399.26
952.99	1380.95
953.294	1380.5
953.599	1342.54
953.904	1336.66
954.209	1336.66
954.513	1357
954.818	1337.11
955.122	1336.89
955.426	1358.13
955.731	1368.75
956.035	1322.42
956.339	1309.32
956.643	1326.49
956.948	1307.51
957.252	1315.64
957.556	1297.34
957.86	1310.9
958.163	1293.72
958.467	1304.8
958.771	1284.91
959.075	1280.39
959.378	1316.1
959.682	1273.84
959.985	1275.42
960.289	1277.23
960.592	1251.24
960.896	1256.66
961.199	1243.1
961.502	1259.83
961.805	1250.56
962.108	1219.37
962.411	1218.24
962.714	1209.66
963.017	1242.2
963.32	1220.73
963.623	1206.04
963.926	1200.62
964.228	1197.68
964.531	1197.68
964.833	1197.68
965.136	1203.1
965.438	1219.83
965.741	1166.04
966.043	1207.85
966.345	1180.05
966.648	1193.84
966.95	1165.36
967.252	1130.11
967.554	1135.31
967.856	1162.43
968.158	1124.69
968.46	1144.35
968.761	1159.26
969.063	1133.73
969.365	1110.9
969.666	1137.57
969.968	1155.65
970.269	1125.59
970.571	1150.45
970.872	1134.18
971.174	1141.64
971.475	1138.47
971.776	1113.84
972.077	1087.17
972.378	1102.09
972.679	1113.61
972.98	1103.45
973.281	1073.39
973.582	1122.43
973.883	1091.47
974.183	1075.2
974.484	1064.8
974.785	1062.32
975.085	1065.93
975.386	1079.49
975.686	1059.15
975.986	1065.93
976.287	1051.47
976.587	1044.46
976.887	1050.34
977.187	1065.25
977.487	1008.31
977.787	1069.32
978.087	1000.17
978.387	1032.04
978.687	1054.86
978.987	1007.4
979.286	1006.05
979.586	1017.57
979.885	1007.85
980.185	1006.5
980.484	1005.6
980.784	988.19
981.083	1017.35
981.382	1032.26
981.682	988.87
981.981	967.63
982.28	966.5
982.579	956.1
982.878	965.6
983.177	957.69
983.475	968.99
983.774	975.77
984.073	968.76
984.372	933.05
984.67	951.13
984.969	951.81
985.267	943.9
985.566	946.61
985.864	921.08
986.162	938.7
986.461	921.76
986.759	969.66
987.057	949.55
987.355	921.53
987.653	934.86
987.951	933.96
988.249	935.54
988.547	910.46
988.844	888.99
989.142	902.55
989.44	886.28
989.737	894.41
990.035	894.86
990.332	876.78
990.63	884.02
990.927	878.59
991.224	843.34
991.521	909.78
991.819	890.12
992.116	867.97
992.413	901.87
992.71	860.97
993.006	869.78
993.303	862.77
993.6	853.06
993.897	855.99
994.193	861.19
994.49	854.19
994.787	848.99
995.083	850.34
995.379	815.32
995.676	844.47
995.972	834.3
996.268	843.57
996.565	826.39
996.861	822.32
997.157	806.96
997.453	812.83
997.749	811.02
998.044	811.93
998.34	795.43
998.636	804.02
998.932	804.92
999.227	791.36
999.523	792.49
999.818	801.31
1000.114	806.73
1000.409	800.85
1000.704	789.1
1001	794.08
1001.295	777.8
1001.59	776.67
1001.885	776.22
1002.18	744.13
1002.475	767.86
1002.77	802.21
1003.065	759.95
1003.359	768.77
1003.654	761.31
1003.949	769.44
1004.243	740.97
1004.538	768.99
1004.832	771.02
1005.127	741.2
1005.421	745.71
1005.715	731.03
1006.009	743.46
1006.304	766.73
1006.598	732.83
1006.892	725.38
1007.186	732.83
1007.48	740.52
1007.773	712.04
1008.067	716.79
1008.361	707.3
1008.655	690.12
1008.948	716.34
1009.242	728.99
1009.535	719.73
1009.829	706.62
1010.122	686.96
1010.415	688.99
1010.708	683.34
1011.001	675.89
1011.295	689.22
1011.588	700.07
1011.881	663.91
1012.173	664.36
1012.466	670.01
1012.759	696.45
1013.052	662.78
1013.344	667.75
1013.637	661.88
1013.93	660.97
1014.222	658.03
1014.514	638.6
1014.807	644.47
1015.099	649.9
1015.391	645.6
1015.683	635.21
1015.976	646.28
1016.268	661.65
1016.56	623.46
1016.851	646.06
1017.143	639.5
1017.435	622.78
1017.727	640.41
1018.018	625.72
1018.31	642.67
1018.602	613.97
1018.893	633.63
1019.185	637.02
1019.476	625.94
1019.767	608.09
1020.058	602.89
1020.35	582.33
1020.641	617.36
1020.932	605.15
1021.223	617.81
1021.514	591.82
1021.804	597.92
1022.095	595.21
1022.386	614.87
1022.677	597.47
1022.967	598.15
1023.258	601.09
1023.548	580.97
1023.839	582.1
1024.129	570.8
1024.419	584.82
1024.709	575.1
1025	561.76
1025.29	580.3
1025.58	589.79
1025.87	558.15
1026.16	565.83
1026.449	569.45
1026.739	572.61
1027.029	561.31
1027.319	543.46
1027.608	555.44
1027.898	562.22
1028.187	538.04
1028.477	562.44
1028.766	539.39
1029.055	542.56
1029.344	523.8
1029.634	527.87
1029.923	550.92
1030.212	554.99
1030.501	519.96
1030.79	506.63
1031.078	542.33
1031.367	526.29
1031.656	536.68
1031.945	532.84
1032.233	519.51
1032.522	519.05
1032.81	514.99
1033.099	519.05
1033.387	501.88
1033.675	514.76
1033.963	544.82
1034.251	507.76
1034.54	505.95
1034.828	499.39
1035.116	500.3
1035.403	499.17
1035.691	503.91
1035.979	488.55
1036.267	483.12
1036.554	514.99
1036.842	502.11
1037.129	507.76
1037.417	473.86
1037.704	473.86
1037.992	486.29
1038.279	495.1
1038.566	497.36
1038.853	497.36
1039.14	497.36
