Data from black_plastic_tray_FLMS001491_086.txt Node
Date: Tue Feb 07 10:40:52 GMT 2017
User: dcchb
Spectrometer: FLMS00149
Trigger mode: 0
Integration Time (sec): 2.000000E-2
Scans to average: 10
Electric dark correction enabled: true
Nonlinearity correction enabled: false
Boxcar width: 0
XAxis mode: Wavelengths
Number of Pixels in Spectrum: 2048
>>>>>Begin Spectral Data<<<<<
341.393	2.39
341.776	2.39
342.16	2.39
342.543	-56.82
342.927	-49.82
343.31	-66.54
343.693	-74.45
344.077	-74.22
344.46	-73.77
344.843	-28.57
345.226	-17.05
345.61	-58.18
345.993	-22.02
346.376	0.58
346.759	9.62
347.142	20.69
347.525	40.58
347.908	72.44
348.291	69.28
348.674	94.81
349.057	106.79
349.44	135.04
349.823	125.1
350.206	171.87
350.588	187.69
350.971	167.58
351.354	201.93
351.737	201.03
352.119	252.55
352.502	249.39
352.884	264.3
353.267	260.46
353.65	295.26
354.032	275.37
354.414	278.99
354.797	290.51
355.179	305.43
355.562	290.74
355.944	306.56
356.326	310.4
356.709	328.71
357.091	314.02
357.473	325.32
357.855	311.08
358.238	315.37
358.62	312.66
359.002	332.77
359.384	326.67
359.766	340.91
360.148	317.41
360.53	329.38
360.912	317.18
361.294	323.06
361.676	333.23
362.057	327.8
362.439	326.45
362.821	323.96
363.203	333.23
363.584	316.5
363.966	329.38
364.348	307.46
364.729	309.95
365.111	325.32
365.493	300.23
365.874	299.1
366.256	305.43
366.637	305.43
367.019	300.91
367.4	320.34
367.781	289.16
368.163	323.28
368.544	299.55
368.925	304.53
369.306	297.52
369.688	311.53
370.069	282.15
370.45	312.89
370.831	293.45
371.212	314.24
371.593	331.19
371.974	315.37
372.355	313.11
372.736	336.16
373.117	325.99
373.498	328.93
373.879	318.99
374.26	329.38
374.641	321.7
375.021	299.33
375.402	318.54
375.783	304.07
376.163	305.88
376.544	325.09
376.925	316.28
377.305	334.36
377.686	350.17
378.066	327.8
378.447	321.93
378.827	325.32
379.208	327.58
379.588	336.16
379.968	345.88
380.349	330.51
380.729	330.97
381.109	330.74
381.489	335.03
381.87	351.98
382.25	347.91
382.63	340.91
383.01	340.68
383.39	336.84
383.77	343.39
384.15	346.11
384.53	328.25
384.91	351.76
385.29	367.35
385.67	339.78
386.049	359.44
386.429	361.25
386.809	378.87
387.189	372.32
387.568	349.5
387.948	374.81
388.328	379.78
388.707	382.49
389.087	374.35
389.466	377.97
389.846	388.59
390.225	389.27
390.605	364.19
390.984	386.78
391.363	399.89
391.743	390.17
392.122	383.85
392.501	388.59
392.881	398.99
393.26	391.53
393.639	384.52
394.018	382.04
394.397	368.7
394.776	398.76
395.155	400.57
395.534	404.18
395.913	397.63
396.292	403.96
396.671	414.13
397.05	398.53
397.429	395.82
397.808	391.76
398.186	424.52
398.565	417.07
398.944	397.4
399.323	427.01
399.701	426.78
400.08	430.85
400.458	419.1
400.837	446.44
401.215	455.71
401.594	436.95
401.972	448.25
402.351	440.79
402.729	437.18
403.107	447.12
403.486	468.59
403.864	452.54
404.242	437.18
404.62	455.26
404.999	482.6
405.377	464.97
405.755	453.22
406.133	469.27
406.511	506.78
406.889	467.23
407.267	478.76
407.645	485.99
408.023	482.37
408.401	469.49
408.779	490.06
409.156	483.73
409.534	514.69
409.912	518.98
410.29	494.8
410.667	503.84
411.045	525.76
411.422	525.31
411.8	510.85
412.178	522.37
412.555	538.19
412.933	511.3
413.31	532.99
413.687	525.31
414.065	566.89
414.442	556.95
414.819	558.3
415.197	549.49
415.574	583.39
415.951	592.43
416.328	579.09
416.705	565.99
417.082	587
417.46	605.08
417.837	597.4
418.214	574.8
418.591	608.02
418.967	598.76
419.344	595.14
419.721	586.78
420.098	590.39
420.475	638.75
420.852	609.83
421.228	630.39
421.605	636.49
421.982	649.15
422.358	643.05
422.735	639.88
423.111	646.66
423.488	643.73
423.864	641.47
424.241	670.39
424.617	680.34
424.994	676.27
425.37	691.41
425.746	669.94
426.123	671.75
426.499	706.78
426.875	711.52
427.251	722.59
427.627	723.05
428.003	729.37
428.379	719.2
428.756	736.38
429.132	742.03
429.507	737.28
429.883	758.3
430.259	764.17
430.635	785.42
431.011	762.14
431.387	788.81
431.763	798.75
432.138	782.48
432.514	798.75
432.89	810.73
433.265	827
433.641	835.81
434.016	850.05
434.392	832.42
434.767	850.95
435.143	885.3
435.518	857.96
435.894	870.84
436.269	879.2
436.644	887.34
437.02	906.32
437.395	882.14
437.77	901.12
438.145	923.49
438.52	921.46
438.895	921.23
439.271	929.37
439.646	939.76
440.021	943.38
440.395	970.72
440.77	954.45
441.145	936.6
441.52	994
441.895	991.06
442.27	1006.88
442.645	990.16
443.019	995.36
443.394	1011.4
443.769	1021.57
444.143	991.51
444.518	1035.13
444.892	1027.22
445.267	1032.42
445.641	1031.06
446.016	1058.18
446.39	1058.4
446.764	1055.69
447.139	1064.96
447.513	1073.32
447.887	1084.84
448.262	1108.57
448.636	1107.89
449.01	1083.94
449.384	1084.62
449.758	1089.36
450.132	1112.19
450.506	1127.33
450.88	1138.63
451.254	1143.15
451.628	1141.57
452.002	1180.21
452.376	1194.22
452.75	1203.71
453.123	1176.59
453.497	1187.44
453.871	1221.56
454.244	1223.6
454.618	1240.32
454.992	1258.4
455.365	1253.65
455.739	1289.36
456.112	1273.77
456.486	1299.53
456.859	1300.43
457.232	1324.16
457.606	1316.48
457.979	1337.72
458.352	1381.33
458.725	1361.45
459.099	1405.06
459.472	1433.76
459.845	1424.27
460.218	1422.69
460.591	1447.09
460.964	1457.72
461.337	1474.21
461.71	1512.63
462.083	1513.76
462.456	1560.54
462.829	1527.54
463.201	1540.88
463.574	1566.64
463.947	1583.81
464.32	1611.16
464.692	1626.75
465.065	1633.53
465.438	1681.44
465.81	1667.43
466.183	1702.23
466.555	1702.23
466.928	1746.07
467.3	1721.44
467.672	1753.53
468.045	1815.9
468.417	1799.18
468.789	1815.67
469.161	1885.5
469.534	1842.56
469.906	1931.6
470.278	1924.37
470.65	1961.88
471.022	1976.35
471.394	2012.05
471.766	2027.19
472.138	2012.73
472.51	2066.06
472.882	2116.91
473.253	2122.33
473.625	2140.64
473.997	2209.11
474.369	2219.5
474.74	2230.8
475.112	2278.26
475.484	2344.02
475.855	2325.94
476.227	2392.83
476.598	2413.4
476.97	2386.05
477.341	2473.51
477.713	2528.65
478.084	2538.37
478.455	2558.93
478.827	2622.66
479.198	2692.71
479.569	2681.41
479.94	2758.92
480.311	2778.81
480.682	2865.14
481.053	2862.88
481.424	2941.97
481.795	2944
482.166	2991.91
482.537	3033.49
482.908	3054.96
483.279	3140.61
483.65	3193.72
484.021	3222.64
484.391	3294.05
484.762	3312.58
485.133	3281.17
485.503	3385.8
485.874	3433.94
486.244	3476.42
486.615	3512.58
486.985	3546.93
487.356	3641.61
487.726	3670.31
488.097	3711.67
488.467	3733.36
488.837	3808.39
489.207	3870.08
489.578	3889.52
489.948	3902.85
490.318	4020.81
490.688	3960.25
491.058	4090.42
491.428	4096.52
491.798	4178.1
492.168	4238.43
492.538	4217.42
492.908	4283.63
493.278	4312.33
493.648	4371.31
494.017	4410.86
494.387	4453.12
494.757	4546.45
495.126	4537.63
495.496	4560.91
495.866	4621.25
496.235	4607.01
496.605	4677.29
496.974	4723.17
497.344	4768.36
497.713	4736.73
498.082	4782.15
498.452	4870.51
498.821	4856.04
499.19	4900.56
499.559	4893.56
499.928	4930.39
500.298	5012.88
500.667	5041.35
501.036	5042.71
501.405	5110.05
501.774	5131.74
502.143	5153.89
502.512	5153.89
502.88	5171.97
503.249	5242.93
503.618	5275.92
503.987	5317.95
504.356	5347.78
504.724	5414.22
505.093	5406.99
505.462	5439.76
505.83	5463.94
506.199	5508.23
506.567	5565.4
506.936	5594.78
507.304	5671.16
507.672	5660.32
508.041	5707.1
508.409	5721.11
508.777	5801.33
509.145	5807.43
509.514	5811.27
509.882	5886.3
510.25	5953.64
510.618	5951.38
510.986	5997.94
511.354	6031.83
511.722	6053.53
512.09	6111.38
512.458	6170.13
512.826	6197.25
513.193	6241.54
513.561	6225.05
513.929	6350.02
514.297	6406.06
514.664	6450.35
515.032	6442.9
515.4	6492.16
515.767	6503.23
516.135	6607.86
516.502	6523.8
516.869	6684.92
517.237	6692.15
517.604	6715.88
517.972	6792.94
518.339	6837.46
518.706	6870.68
519.073	6889.21
519.44	6963.79
519.808	7031.13
520.175	7049.66
520.542	7164.91
520.909	7155.87
521.276	7195.64
521.643	7293.95
522.009	7334.85
522.376	7417.56
522.743	7420.95
523.11	7489.65
523.477	7565.13
523.843	7625.92
524.21	7726.25
524.577	7685.57
524.943	7745.23
525.31	7857.1
525.676	7841.95
526.043	7987.49
526.409	7962.4
526.776	8103.87
527.142	8136.18
527.508	8160.36
527.874	8203.53
528.241	8243.75
528.607	8346.8
528.973	8402.39
529.339	8385.22
529.705	8479
530.071	8523.52
530.437	8564.65
530.803	8662.27
531.169	8662.05
531.535	8630.41
531.901	8739.33
532.267	8756.51
532.632	8864.07
532.998	8854.81
533.364	8949.5
533.73	8923.51
534.095	8969.16
534.461	9042.38
534.826	9113.56
535.192	9198.3
535.557	9217.74
535.923	9237.85
536.288	9271.07
536.653	9260.9
537.019	9252.99
537.384	9301.35
537.749	9382.48
538.114	9396.26
538.479	9447.79
538.845	9537.05
539.21	9533.89
539.575	9487.34
539.94	9546.54
540.305	9560.78
540.67	9623.15
541.034	9696.14
541.399	9745.63
541.764	9731.4
542.129	9751.51
542.494	9739.08
542.858	9789.7
543.223	9816.14
543.587	9892.97
543.952	9892.07
544.316	9933.2
544.681	9890.49
545.045	9967.77
545.41	10080.99
545.774	10052.97
546.138	10007.32
546.503	10037.15
546.867	10180.88
547.231	10223.59
547.595	10207.77
547.959	10300.65
548.324	10306.3
548.688	10315.79
549.052	10396.46
549.416	10381.55
549.779	10441.43
550.143	10423.81
550.507	10452.73
550.871	10532.96
551.235	10556.01
551.599	10639.4
551.962	10632.62
552.326	10649.56
552.689	10746.96
553.053	10748.32
553.417	10772.95
553.78	10940.86
554.143	10916.9
554.507	10980.4
554.87	11023.34
555.234	11077.8
555.597	11038.93
555.96	11101.08
556.323	11169.78
556.686	11183.79
557.05	11196.44
557.413	11289.77
557.776	11338.81
558.139	11447.06
558.502	11457.9
558.865	11496.77
559.228	11576.77
559.59	11547.62
559.953	11648.18
560.316	11720.27
560.679	11729.31
561.041	11830.55
561.404	11866.71
561.767	11873.94
562.129	11836.88
562.492	12076.42
562.854	12069.41
563.217	12056.99
563.579	12162.07
563.941	12251.78
564.304	12241.16
564.666	12284.55
565.028	12330.42
565.39	12424.21
565.753	12445.68
566.115	12478.44
566.477	12575.39
566.839	12574.26
567.201	12607.93
567.563	12643.86
567.925	12743.97
568.287	12811.54
568.648	12787.36
569.01	12811.09
569.372	12920.24
569.734	12937.87
570.095	13017.41
570.457	13061.25
570.819	13130.18
571.18	13139.89
571.542	13056.96
571.903	13221.93
572.265	13231.42
572.626	13272.77
572.987	13418.31
573.349	13415.14
573.71	13418.53
574.071	13416.27
574.432	13521.58
574.794	13513.44
575.155	13581.69
575.516	13550.96
575.877	13565.42
576.238	13578.53
576.599	13675.7
576.96	13638.64
577.32	13635.93
577.681	13687.68
578.042	13874.56
578.403	13774
578.763	13856.03
579.124	13797.5
579.485	13866.88
579.845	13905.07
580.206	13823.04
580.566	13844.28
580.927	13976.26
581.287	13922.47
581.648	13842.02
582.008	13950.49
582.368	13964.96
582.728	13969.7
583.089	14010.83
583.449	13947.56
583.809	14008.57
584.169	13972.42
584.529	13950.72
584.889	14129.25
585.249	14021.23
585.609	13954.56
585.969	14026.2
586.329	14001.57
586.688	14040.44
587.048	14027.78
587.408	14031.4
587.768	13966.77
588.127	14021.91
588.487	13955.69
588.846	14073.88
589.206	13889.25
589.565	13916.37
589.925	14055.12
590.284	14008.57
590.643	14019.19
591.003	14029.59
591.362	14029.59
591.721	14034.79
592.08	14143.71
592.44	14123.82
592.799	14079.98
593.158	14083.15
593.517	14112.3
593.876	14144.61
594.235	14161.11
594.593	14137.38
594.952	14232.97
595.311	14123.37
595.67	14136.93
596.029	14236.81
596.387	14251.96
596.746	14220.09
597.104	14178.74
597.463	14124.73
597.822	14262.8
598.18	14253.09
598.538	14041.34
598.897	14229.36
599.255	14120.43
599.613	14356.81
599.972	14234.78
600.33	14361.33
600.688	14348.45
601.046	14298.73
601.404	14241.11
601.762	14288.34
602.12	14364.5
602.478	14411.05
602.836	14405.17
603.194	14340.54
603.552	14378.73
603.91	14266.42
604.268	14479.29
604.625	14376.92
604.983	14508.67
605.341	14341.44
605.698	14418.28
606.056	14459.86
606.413	14420.09
606.771	14545.96
607.128	14474.32
607.485	14547.77
607.843	14502.12
608.2	14646.3
608.557	14571.04
608.914	14591.38
609.272	14602.46
609.629	14582.57
609.986	14637.03
610.343	14527.43
610.7	14759.06
611.057	14708.21
611.414	14757.71
611.771	14729.46
612.127	14756.58
612.484	14814.88
612.841	14842
613.198	14784.6
613.554	14752.73
613.911	14931.94
614.267	14865.5
614.624	14889.23
614.98	14801.32
615.337	14935.33
615.693	14911.6
616.05	14876.57
616.406	15011.26
616.762	14944.37
617.118	14875.44
617.475	14909.11
617.831	14865.95
618.187	14909.34
618.543	15014.87
618.899	15050.13
619.255	14995.44
619.611	14984.59
619.967	15162.44
620.323	15146.4
620.678	15028.66
621.034	15031.37
621.39	15025.27
621.746	14953.63
622.101	15150.69
622.457	15030.01
622.812	15038.15
623.168	15148.66
623.523	15164.02
623.879	15144.59
624.234	14962.67
624.589	15024.36
624.945	15118.37
625.3	15123.12
625.655	15082.67
626.01	14999.73
626.365	15111.82
626.72	15146.4
627.075	15046.51
627.43	15043.12
627.785	15039.28
628.14	15049
628.495	14989.11
628.85	14915.22
629.205	14954.99
629.559	15066.17
629.914	14997.02
630.269	14920.86
630.623	14875.89
630.978	14954.31
631.332	14934.42
631.687	15001.31
632.041	14971.94
632.396	14976.23
632.75	14876.8
633.104	14917.02
633.459	14847.42
633.813	14763.13
634.167	14901.2
634.521	14809.46
634.875	14760.42
635.229	14774.65
635.583	14761.09
635.937	14773.07
636.291	14658.27
636.645	14606.75
636.999	14627.77
637.352	14594.09
637.706	14549.58
638.06	14754.09
638.413	14590.25
638.767	14565.62
639.121	14543.25
639.474	14493.76
639.828	14534.66
640.181	14538.5
640.534	14501.44
640.888	14512.74
641.241	14284.72
641.594	14439.97
641.947	14444.72
642.301	14411.73
642.654	14463.25
643.007	14323.59
643.36	14315.91
643.713	14367.88
644.066	14370.82
644.419	14303.93
644.771	14153.88
645.124	14139.64
645.477	14079.76
645.83	13960.89
646.182	13842.93
646.535	13835.24
646.888	13853.77
647.24	13785.08
647.593	13743.49
647.945	13785.08
648.298	13707.56
648.65	13735.36
649.002	13651.29
649.355	13722.03
649.707	13582.14
650.059	13738.75
650.411	13965.41
650.763	13933.55
651.115	14144.61
651.467	13983.71
651.819	14021
652.171	13947.33
652.523	14005.63
652.875	13949.59
653.227	13985.52
653.578	13959.76
653.93	14032.3
654.282	13886.54
654.633	13876.15
654.985	13924.51
655.337	13881.57
655.688	13811.97
656.039	13970.38
656.391	13803.83
656.742	13856.26
657.094	13790.72
657.445	13868.01
657.796	13861.01
658.147	13818.97
658.498	13839.31
658.849	13838.18
659.2	13789.6
659.551	13689.71
659.902	13798.18
660.253	13863.72
660.604	13855.81
660.955	13686.55
661.306	13735.81
661.656	13744.17
662.007	13665.08
662.358	13658.3
662.708	13701.91
663.059	13566.55
663.409	13611.75
663.76	13635.93
664.11	13659.65
664.461	13689.94
664.811	13780.56
665.161	13616.72
665.511	13633.21
665.862	13635.93
666.212	13696.49
666.562	13674.8
666.912	13605.42
667.262	13624.4
667.612	13631.86
667.962	13576.49
668.312	13613.78
668.662	13737.39
669.011	13587.34
669.361	13561.13
669.711	13460.11
670.06	13559.09
670.41	13490.85
670.76	13444.52
671.109	13584.18
671.459	13536.72
671.808	13510.05
672.157	13551.18
672.507	13427.8
672.856	13479.77
673.205	13547.79
673.554	13558.87
673.904	13406.78
674.253	13499.66
674.602	13386.44
674.951	13283.85
675.3	13192.77
675.649	13364.52
675.998	13418.98
676.346	13427.12
676.695	13508.25
677.044	13334.92
677.393	13414.92
677.741	13413.11
678.09	13280.23
678.438	13294.69
678.787	13277.52
679.135	13297.86
679.484	13228.93
679.832	13312.09
680.181	13237.52
680.529	13245.2
680.877	13188.93
681.225	13244.3
681.573	13266.67
681.922	13148.26
682.27	13153.68
682.618	13195.03
682.966	13068.94
683.314	13224.19
683.661	13129.05
684.009	13018.09
684.357	13014.7
684.705	12943.74
685.053	12953.23
685.4	13028.03
685.748	12949.17
686.095	12738.55
686.443	12779.68
686.79	12814.03
687.138	12809.73
687.485	12798.89
687.832	12707.14
688.18	12701.94
688.527	12620.36
688.874	12656.29
689.221	12535.39
689.568	12520.25
689.915	12541.72
690.262	12486.13
690.609	12395.28
690.956	12298.33
691.303	12376.07
691.65	12306.7
691.997	12294.95
692.344	12225.57
692.69	12226.7
693.037	12318
693.383	12162.75
693.73	12224.66
694.077	12176.53
694.423	12061.96
694.769	12146.25
695.116	12112.35
695.462	12160.71
695.808	11999.36
696.155	11990.55
696.501	11985.8
696.847	11925.69
697.193	11847.05
697.539	11918.46
697.885	11825.58
698.231	11682.53
698.577	11703.77
698.923	11762.53
699.269	11754.17
699.614	11687.96
699.96	11683.66
700.306	11624
700.651	11567.96
700.997	11515.98
701.342	11547.85
701.688	11513.27
702.033	11494.29
702.379	11479.15
702.724	11431.46
703.069	11475.98
703.415	11274.63
703.76	11335.42
704.105	11298.59
704.45	11274.18
704.795	11228.31
705.14	11153.96
705.485	11131.13
705.83	11095.65
706.175	11184.24
706.52	11082.32
706.865	11001.87
707.209	11051.36
707.554	11017.69
707.899	11025.15
708.243	11007.3
708.588	10959.61
708.932	10931.37
709.277	10867.41
709.621	10892.27
709.966	10876.45
710.31	10880.97
710.654	10768.66
710.998	10824.25
711.342	10850.01
711.687	10831.03
712.031	10750.8
712.375	10683.46
712.719	10669.45
713.063	10663.8
713.407	10697.25
713.75	10657.25
714.094	10693.86
714.438	10538.16
714.782	10609.79
715.125	10528.89
715.469	10590.13
715.812	10517.82
716.156	10466.74
716.499	10424.26
716.843	10520.53
717.186	10450.25
717.53	10480.3
717.873	10509.46
718.216	10452.73
718.559	10427.88
718.902	10365.05
719.246	10470.13
719.589	10344.26
719.932	10251.61
720.275	10316.24
720.617	10324.38
720.96	10278.73
721.303	10194.89
721.646	10212.74
721.989	10152.85
722.331	10276.24
722.674	10183.14
723.016	10156.92
723.359	10111.05
723.701	10160.31
724.044	10110.82
724.386	10074.21
724.729	10088.45
725.071	10089.13
725.413	10008.45
725.755	9961
726.097	9974.33
726.439	9901.34
726.782	9890.94
727.124	9960.32
727.465	9958.06
727.807	9894.56
728.149	9869.02
728.491	9797.61
728.833	9881
729.175	9809.36
729.516	9842.58
729.858	9792.19
730.199	9803.26
730.541	9832.86
730.882	9743.15
731.224	9797.38
731.565	9761.9
731.906	9759.87
732.248	9728.91
732.589	9664.28
732.93	9598.52
733.271	9606.88
733.612	9638.97
733.953	9652.98
734.294	9634.9
734.635	9587.9
734.976	9602.13
735.317	9615.47
735.658	9572.08
735.999	9582.02
736.339	9499.31
736.68	9577.5
737.021	9467
737.361	9429.48
737.702	9429.94
738.042	9379.77
738.383	9424.51
738.723	9443.27
739.063	9382.71
739.404	9417.05
739.744	9358.53
740.084	9342.93
740.424	9287.79
740.764	9258.41
741.104	9338.41
741.444	9297.51
741.784	9195.14
742.124	9245.76
742.464	9227
742.804	9221.81
743.143	9217.74
743.483	9208.92
743.823	9158.08
744.162	9102.03
744.502	9164.63
744.841	9187.68
745.181	9238.75
745.52	9160.34
745.86	9151.75
746.199	9154.24
746.538	9118.08
746.877	9083.28
747.216	9068.36
747.556	8909.5
747.895	9036.05
748.234	9019.1
748.573	9050.51
748.911	9032.66
749.25	8944.3
749.589	8950.17
749.928	8932.1
750.267	8947.01
750.605	8933.9
750.944	8890.06
751.283	8894.13
751.621	8872.89
751.96	8831.76
752.298	8813.45
752.636	8789.5
752.975	8758.77
753.313	8753.34
753.651	8781.14
753.989	8699.56
754.327	8719.45
754.666	8630.63
755.004	8644.42
755.342	8683.74
755.679	8611.65
756.017	8523.52
756.355	8569.85
756.693	8471.77
757.031	8485.55
757.368	8536.4
757.706	8551.09
758.044	8420.92
758.381	8438.55
758.719	8396.52
759.056	8406.46
759.394	8374.82
759.731	8300.93
760.068	8439.68
760.405	8233.13
760.743	8318.33
761.08	8223.19
761.417	8312
761.754	8255.96
762.091	8181.83
762.428	8195.39
762.765	8149.29
763.102	8181.38
763.438	8074.04
763.775	8080.14
764.112	8093.93
764.449	8079.69
764.785	8063.42
765.122	8010.31
765.458	7958.56
765.795	7960.14
766.131	7985.23
766.467	7896.64
766.804	7917.43
767.14	7865.68
767.476	7835.85
767.812	7820.49
768.148	7803.31
768.485	7770.54
768.821	7722.86
769.157	7707.72
769.492	7696.2
769.828	7680.6
770.164	7632.69
770.5	7648.97
770.836	7663.65
771.171	7571.23
771.507	7538.46
771.842	7495.98
772.178	7488.07
772.513	7442.87
772.849	7471.8
773.184	7411.46
773.519	7392.48
773.855	7283.33
774.19	7232.48
774.525	7309.31
774.86	7257.34
775.195	7296.21
775.53	7242.65
775.865	7212.14
776.2	7098.02
776.535	7094.63
776.87	7103.22
777.205	7078.36
777.539	7086.27
777.874	7042.65
778.209	7009.21
778.543	6990
778.878	6940.51
779.212	6959.72
779.547	6950.23
779.881	6913.39
780.215	6786.84
780.55	6839.27
780.884	6769.67
781.218	6815.09
781.552	6799.72
781.886	6755.88
782.22	6720.85
782.554	6704.36
782.888	6622.78
783.222	6654.64
783.556	6571.71
783.889	6574.42
784.223	6524.02
784.557	6554.08
784.89	6578.94
785.224	6547.07
785.557	6493.74
785.891	6430.92
786.224	6460.3
786.558	6494.87
786.891	6432.27
787.224	6398.83
787.557	6426.62
787.891	6371.94
788.224	6396.12
788.557	6409
788.89	6343.01
789.223	6346.17
789.556	6261.66
789.888	6265.95
790.221	6238.61
790.554	6207.87
790.887	6267.98
791.219	6204.03
791.552	6134.88
791.884	6072.96
792.217	6024.6
792.549	6077.03
792.882	5979.63
793.214	6033.41
793.546	6054.88
793.879	5949.8
794.211	5964.49
794.543	5989.8
794.875	5953.19
795.207	5916.81
795.539	5940.99
795.871	5936.47
796.203	5870.48
796.535	5840.88
796.867	5811.73
797.198	5828.22
797.53	5793.2
797.862	5763.37
798.193	5761.33
798.525	5740.54
798.856	5795.23
799.188	5717.04
799.519	5645.85
799.85	5620.54
800.182	5677.27
800.513	5626.65
800.844	5633.2
801.175	5616.48
801.506	5613.99
801.837	5619.64
802.168	5626.65
802.499	5554.78
802.83	5529.7
803.161	5569.92
803.491	5458.51
803.822	5535.8
804.153	5494.45
804.483	5417.84
804.814	5421.45
805.145	5405.86
805.475	5425.75
805.805	5396.6
806.136	5428.68
806.466	5440.66
806.796	5395.69
807.126	5330.16
807.457	5329.48
807.787	5341.46
808.117	5283.83
808.447	5315.24
808.777	5304.17
809.107	5275.69
809.436	5259.2
809.766	5268.92
810.096	5225.07
810.426	5198.63
810.755	5202.02
811.085	5231.18
811.414	5177.62
811.744	5165.42
812.073	5127
812.403	5137.85
812.732	5105.53
813.061	5110.28
813.39	5021.46
813.719	5102.14
814.049	5075.47
814.378	5102.14
814.707	5063.27
815.036	5035.7
815.365	5035.47
815.693	5014.23
816.022	4945.08
816.351	5000.45
816.68	4968.36
817.008	5010.39
817.337	4919.09
817.665	4904.63
817.994	4959.77
818.322	4953.67
818.651	4865.08
818.979	4884.29
819.307	4880.9
819.636	4903.73
819.964	4851.98
820.292	4891.52
820.62	4836.16
820.948	4836.16
821.276	4872.54
821.604	4864.18
821.932	4842.26
822.259	4859.89
822.587	4863.73
822.915	4875.48
823.243	4861.02
823.57	4828.93
823.898	4827.12
824.225	4837.06
824.553	4835.93
824.88	4878.42
825.207	4885.65
825.535	4785.09
825.862	4852.43
826.189	4844.07
826.516	4825.08
826.843	4810.85
827.17	4886.78
827.497	4875.48
827.824	4825.31
828.151	4817.4
828.478	4823.73
828.805	4849.49
829.131	4811.3
829.458	4836.38
829.785	4753.22
830.111	4854.24
830.438	4827.12
830.764	4840.9
831.09	4813.33
831.417	4756.84
831.743	4807.68
832.069	4805.42
832.395	4753.9
832.722	4793.22
833.048	4773.79
833.374	4766.33
833.7	4769.72
834.026	4713.9
834.351	4767.46
834.677	4680.23
835.003	4758.65
835.329	4734.47
835.654	4701.02
835.98	4680.23
836.306	4702.83
836.631	4714.35
836.956	4708.03
837.282	4681.36
837.607	4657.63
837.932	4626.67
838.258	4657.18
838.583	4655.82
838.908	4659.89
839.233	4638.65
839.558	4612.44
839.883	4598.2
840.208	4614.92
840.533	4577.18
840.858	4571.98
841.182	4595.71
841.507	4583.06
841.832	4547.13
842.156	4529.5
842.481	4542.15
842.805	4540.8
843.13	4488.6
843.454	4516.84
843.778	4505.77
844.103	4523.4
844.427	4471.42
844.751	4482.27
845.075	4523.62
845.399	4457.86
845.723	4413.34
846.047	4484.53
846.371	4418.77
846.695	4429.62
847.019	4386
847.343	4381.93
847.666	4365.44
847.99	4336.51
848.313	4376.96
848.637	4259.68
848.96	4264.65
849.284	4301.48
849.607	4205.21
849.931	4258.77
850.254	4218.77
850.577	4196.85
850.9	4186.68
851.223	4163.41
851.546	4132
851.869	4094.26
852.192	4153.69
852.515	4109.62
852.838	4065.56
853.161	4064.65
853.483	4063.3
853.806	4022.85
854.129	4039.12
854.451	4010.87
854.774	4015.61
855.096	3981.49
855.419	3974.49
855.741	4004.77
856.063	3958.22
856.385	3946.46
856.708	3953.92
857.03	3932
857.352	3911.21
857.674	3935.39
857.996	3944.88
858.318	3896.52
858.64	3849.52
858.961	3897.88
859.283	3898.33
859.605	3799.8
859.926	3832.79
860.248	3844.77
860.57	3780.82
860.891	3810.2
861.212	3791.21
861.534	3802.29
861.855	3805.9
862.176	3823.3
862.498	3824.66
862.819	3832.57
863.14	3777.65
863.461	3785.56
863.782	3712.12
864.103	3736.75
864.424	3767.94
864.745	3722.29
865.065	3727.03
865.386	3742.85
865.707	3714.61
866.027	3738.11
866.348	3711.44
866.668	3706.02
866.989	3725
867.309	3689.52
867.63	3649.07
867.95	3671.22
868.27	3645.23
868.59	3666.02
868.91	3674.15
869.23	3663.53
869.55	3670.09
869.87	3641.39
870.19	3682.52
870.51	3666.92
870.83	3670.99
871.15	3651.56
871.469	3647.26
871.789	3637.09
872.109	3645.23
872.428	3620.37
872.748	3624.21
873.067	3614.95
873.386	3643.42
873.706	3632.35
874.025	3593.93
874.344	3588.28
874.663	3583.99
874.982	3607.94
875.301	3565.91
875.62	3578.34
875.939	3551.67
876.258	3546.7
876.577	3561.84
876.896	3574.72
877.214	3535.63
877.533	3557.32
877.852	3485.69
878.17	3540.82
878.489	3509.64
878.807	3517.1
879.125	3501.28
879.444	3534.05
879.762	3487.04
880.08	3513.93
880.398	3517.55
880.716	3484.1
881.034	3477.1
881.352	3468.28
881.67	3447.04
881.988	3485.01
882.306	3436.42
882.624	3411.56
882.941	3423.31
883.259	3402.52
883.577	3392.13
883.894	3414.95
884.212	3449.53
884.529	3430.32
884.846	3463.31
885.164	3395.74
885.481	3393.94
885.798	3366.37
886.115	3383.09
886.432	3359.36
886.75	3347.84
887.067	3323.2
887.383	3315.29
887.7	3321.17
888.017	3294.05
888.334	3334.95
888.651	3322.75
888.967	3338.8
889.284	3285.46
889.6	3313.94
889.917	3311.23
890.233	3294.28
890.55	3264
890.866	3265.13
891.182	3244.11
891.498	3275.97
891.815	3220.61
892.131	3255.41
892.447	3233.49
892.763	3225.81
893.079	3235.52
893.395	3181.96
893.71	3187.61
894.026	3183.32
894.342	3192.36
894.657	3152.36
894.973	3134.51
895.289	3140.84
895.604	3112.81
895.92	3097.67
896.235	3048.18
896.55	3116.88
896.865	3076.88
897.181	3100.16
897.496	3074.85
897.811	3054.74
898.126	3066.04
898.441	3010.67
898.756	3017.45
899.071	3013.61
899.386	2987.39
899.7	2991.69
900.015	3028.52
900.33	2971.57
900.644	2981.29
900.959	3018.8
901.273	2993.27
901.588	2955.76
901.902	2950.78
902.216	2922.31
902.531	2931.12
902.845	2908.98
903.159	2916.89
903.473	2890.22
903.787	2897
904.101	2898.36
904.415	2878.02
904.729	2844.57
905.042	2810.9
905.356	2844.57
905.67	2824.46
905.984	2797.57
906.297	2786.04
906.611	2808.87
906.924	2770.45
907.237	2763.22
907.551	2758.7
907.864	2758.47
908.177	2797.12
908.491	2780.62
908.804	2762.99
909.117	2712.6
909.43	2703.33
909.743	2683.45
910.056	2702.2
910.368	2678.93
910.681	2689.32
910.994	2662.43
911.307	2637.12
911.619	2654.29
911.932	2647.74
912.244	2633.05
912.557	2665.37
912.869	2641.41
913.181	2594.41
913.494	2602.54
913.806	2608.65
914.118	2588.53
914.43	2550.79
914.742	2574.07
915.054	2523.22
915.366	2513.51
915.678	2520.96
915.99	2538.59
916.302	2500.17
916.613	2473.51
916.925	2494.75
917.236	2529.55
917.548	2442.77
917.859	2465.37
918.171	2454.3
918.482	2463.79
918.794	2451.59
919.105	2438.71
919.416	2419.5
919.727	2406.62
920.038	2434.41
920.349	2361.87
920.66	2338.6
920.971	2414.3
921.282	2352.16
921.593	2353.51
921.903	2334.53
922.214	2327.75
922.525	2291.59
922.835	2315.32
923.146	2310.57
923.456	2305.38
923.767	2294.98
924.077	2279.16
924.387	2291.82
924.697	2274.64
925.008	2251.82
925.318	2242.78
925.628	2271.71
925.938	2239.62
926.248	2243.46
926.558	2205.72
926.867	2213.85
927.177	2211.14
927.487	2213.85
927.796	2192.61
928.106	2196.23
928.416	2185.61
928.725	2174.08
929.034	2158.94
929.344	2150.35
929.653	2122.11
929.962	2136.34
930.271	2115.33
930.581	2100.64
930.89	2070.13
931.199	2101.99
931.508	2078.49
931.817	2111.26
932.125	2066.06
932.434	2034.42
932.743	2038.27
933.051	2043.46
933.36	2050.92
933.669	2048.66
933.977	2026.29
934.286	2030.58
934.594	1999.85
934.902	1979.96
935.21	2027.19
935.519	2006.18
935.827	1985.16
936.135	1946.52
936.443	1962.34
936.751	1977.7
937.059	1958.04
937.367	1944.48
937.674	1969.79
937.982	1935.44
938.29	1917.59
938.597	1919.85
938.905	1883.47
939.213	1920.08
939.52	1906.52
939.827	1890.92
940.135	1866.29
940.442	1888.67
940.749	1838.5
941.056	1865.61
941.363	1840.3
941.67	1825.62
941.977	1824.26
942.284	1857.93
942.591	1847.31
942.898	1803.47
943.205	1798.72
943.511	1786.75
943.818	1789.91
944.125	1786.75
944.431	1759.63
944.738	1760.76
945.044	1731.61
945.35	1776.35
945.657	1779.29
945.963	1756.92
946.269	1781.78
946.575	1739.74
946.881	1703.36
947.187	1726.64
947.493	1706.52
947.799	1687.77
948.105	1683.02
948.41	1670.59
948.716	1692.74
949.022	1711.95
949.327	1661.78
949.633	1659.97
949.938	1651.84
950.244	1652.29
950.549	1644.6
950.854	1656.58
951.16	1630.59
951.465	1659.29
951.77	1612.06
952.075	1605.73
952.38	1608.45
952.685	1595.34
952.99	1599.41
953.294	1628.56
953.599	1621.78
953.904	1568.22
954.209	1599.63
954.513	1586.98
954.818	1536.81
955.122	1574.77
955.426	1550.14
955.731	1574.1
956.035	1544.49
956.339	1523.25
956.643	1542.46
956.948	1545.62
957.252	1514.44
957.556	1515.57
957.86	1502.69
958.163	1522.8
958.467	1479.86
958.771	1475.12
959.075	1493.87
959.378	1475.57
959.682	1475.57
959.985	1484.83
960.289	1474.89
960.592	1445.74
960.896	1461.56
961.199	1449.81
961.502	1433.31
961.805	1438.06
962.108	1455.46
962.411	1408.9
962.714	1419.52
963.017	1416.14
963.32	1412.75
963.623	1409.81
963.926	1424.27
964.228	1406.64
964.531	1389.7
964.833	1395.34
965.136	1381.56
965.438	1362.13
965.741	1409.58
966.043	1358.74
966.345	1391.5
966.648	1345.85
966.95	1376.81
967.252	1320.54
967.554	1340.66
967.856	1333.43
968.158	1314.89
968.46	1339.98
968.761	1323.93
969.063	1314.22
969.365	1308.34
969.666	1300.21
969.968	1276.48
970.269	1300.43
970.571	1311.51
970.872	1284.16
971.174	1304.05
971.475	1288
971.776	1272.41
972.077	1285.29
972.378	1267.44
972.679	1269.25
972.98	1273.99
973.281	1270.38
973.582	1273.54
973.883	1243.26
974.183	1243.03
974.484	1231.06
974.785	1244.84
975.085	1210.94
975.386	1219.76
975.686	1205.07
975.986	1222.02
976.287	1223.15
976.587	1215.46
976.887	1201.9
977.187	1193.54
977.487	1201.23
977.787	1188.57
978.087	1181.34
978.387	1199.87
978.687	1222.24
978.987	1168.91
979.286	1179.08
979.586	1161.9
979.885	1146.31
980.185	1151.28
980.484	1149.7
980.784	1158.97
981.083	1154.67
981.382	1130.49
981.682	1162.36
981.981	1125.75
982.28	1108.57
982.579	1138.63
982.878	1127.33
983.177	1123.04
983.475	1109.7
983.774	1106.54
984.073	1076.71
984.372	1104.28
984.67	1100.44
984.969	1097.27
985.267	1100.21
985.566	1087.56
985.864	1097.27
986.162	1095.69
986.461	1071.51
986.759	1057.73
987.057	1044.85
987.355	1041.68
987.653	1064.51
987.951	1061.79
988.249	1044.17
988.547	1053.88
988.844	1037.84
989.142	1061.34
989.44	1031.96
989.737	1043.04
990.035	1016.37
990.332	1029.03
990.63	1025.18
990.927	1028.57
991.224	1015.24
991.521	981.8
991.819	1005.07
992.116	1020.67
992.413	996.49
992.71	980.67
993.006	986.77
993.303	1007.56
993.6	1003.49
993.897	1003.26
994.193	999.2
994.49	975.02
994.787	974.56
995.083	956.94
995.379	970.27
995.676	973.43
995.972	963.27
996.268	971.4
996.565	948.8
996.861	959.65
997.157	954.23
997.453	937.28
997.749	943.83
998.044	898.86
998.34	939.99
998.636	954
998.932	945.19
999.227	922.36
999.523	932.31
999.818	927.56
1000.114	904.96
1000.409	881.46
1000.704	909.03
1001	911.97
1001.295	905.87
1001.59	879.65
1001.885	880.56
1002.18	885.53
1002.475	885.75
1002.77	884.62
1003.065	893.21
1003.359	888.01
1003.654	867.22
1003.949	848.01
1004.243	869.93
1004.538	854.79
1004.832	864.06
1005.127	848.01
1005.421	856.6
1005.715	851.4
1006.009	849.14
1006.304	840.11
1006.598	852.08
1006.892	821.35
1007.186	819.77
1007.48	815.02
1007.773	803.04
1008.067	817.96
1008.361	810.05
1008.655	797.62
1008.948	792.87
1009.242	817.96
1009.535	800.78
1009.829	805.76
1010.122	801.01
1010.415	784.97
1010.708	790.84
1011.001	784.74
1011.295	801.01
1011.588	788.35
1011.881	768.24
1012.173	784.06
1012.466	761.69
1012.759	763.95
1013.052	762.14
1013.344	761.24
1013.637	762.82
1013.93	786.77
1014.222	763.95
1014.514	731.63
1014.807	742.93
1015.099	731.18
1015.391	742.71
1015.683	747.23
1015.976	728.47
1016.268	736.83
1016.56	712.42
1016.851	714.01
1017.143	698.19
1017.435	718.07
1017.727	711.52
1018.018	708.81
1018.31	696.61
1018.602	715.14
1018.893	702.26
1019.185	677.62
1019.476	710.62
1019.767	686.44
1020.058	682.14
1020.35	695.7
1020.641	687.34
1020.932	683.27
1021.223	694.57
1021.514	678.08
1021.804	655.03
1022.095	670.84
1022.386	672.88
1022.677	666.55
1022.967	652.99
1023.258	657.51
1023.548	650.05
1023.839	640.56
1024.129	646.44
1024.419	638.75
1024.709	643.27
1025	653.44
1025.29	617.51
1025.58	617.74
1025.87	624.97
1026.16	631.3
1026.449	646.21
1026.739	633.56
1027.029	629.04
1027.319	613.44
1027.608	625.65
1027.898	603.5
1028.187	606.66
1028.477	602.6
1028.766	608.02
1029.055	589.04
1029.344	615.7
1029.634	582.03
1029.923	582.26
1030.212	580.45
1030.501	584.07
1030.79	575.25
1031.078	571.19
1031.367	589.04
1031.656	596.5
1031.945	591.3
1032.233	578.87
1032.522	569.6
1032.81	562.6
1033.099	560.79
1033.387	540.9
1033.675	574.12
1033.963	566.44
1034.251	561.92
1034.54	539.55
1034.828	538.64
1035.116	550.4
1035.403	544.97
1035.691	550.4
1035.979	547.91
1036.267	541.36
1036.554	547.23
1036.842	553.33
1037.129	550.62
1037.417	534.35
1037.704	542.26
1037.992	519.66
1038.279	509.04
1038.566	527.12
1038.853	527.12
1039.14	527.12
