Data from black_plastic_tray_FLMS001491_018.txt Node
Date: Tue Feb 07 10:39:22 GMT 2017
User: dcchb
Spectrometer: FLMS00149
Trigger mode: 0
Integration Time (sec): 2.000000E-2
Scans to average: 10
Electric dark correction enabled: true
Nonlinearity correction enabled: false
Boxcar width: 0
XAxis mode: Wavelengths
Number of Pixels in Spectrum: 2048
>>>>>Begin Spectral Data<<<<<
341.393	-31.37
341.776	-31.37
342.16	-31.37
342.543	-69.79
342.927	-67.3
343.31	-55.55
343.693	-74.98
344.077	-47.19
344.46	-54.65
344.843	-54.19
345.226	-42.67
345.61	-11.93
345.993	-13.29
346.376	-11.03
346.759	5.01
347.142	13.15
347.525	38.46
347.908	62.41
348.291	74.39
348.674	80.27
349.057	91.79
349.44	122.3
349.823	144.67
350.206	154.16
350.588	144.45
350.971	194.84
351.354	220.38
351.737	219.92
352.119	230.32
352.502	232.13
352.884	257.66
353.267	247.27
353.65	266.25
354.032	255.18
354.414	297.66
354.797	292.92
355.179	271
355.562	297.66
355.944	313.48
356.326	301.05
356.709	304.89
357.091	317.55
357.473	292.01
357.855	286.59
358.238	331.11
358.62	330.88
359.002	313.71
359.384	319.58
359.766	318
360.148	308.73
360.53	308.96
360.912	313.25
361.294	313.03
361.676	335.63
362.057	315.29
362.439	322.52
362.821	313.48
363.203	318.23
363.584	315.06
363.966	315.97
364.348	288.62
364.729	292.24
365.111	313.71
365.493	286.14
365.874	283.42
366.256	285.91
366.637	278.91
367.019	284.78
367.4	296.53
367.781	299.47
368.163	277.32
368.544	284.78
368.925	279.58
369.306	296.31
369.688	304.44
370.069	306.47
370.45	281.84
370.831	277.1
371.212	298.79
371.593	281.39
371.974	269.64
372.355	299.47
372.736	283.2
373.117	298.11
373.498	295.18
373.879	306.7
374.26	292.69
374.641	311.67
375.021	295.18
375.402	302.41
375.783	314.84
376.163	287.27
376.544	301.28
376.925	316.42
377.305	327.27
377.686	301.05
378.066	294.5
378.447	308.06
378.827	310.99
379.208	322.07
379.588	314.16
379.968	336.3
380.349	313.48
380.729	303.54
381.109	314.16
381.489	331.79
381.87	312.12
382.25	332.24
382.63	325.46
383.01	335.63
383.39	332.91
383.77	324.33
384.15	332.24
384.53	327.94
384.91	340.15
385.29	318.9
385.67	306.25
386.049	353.25
386.429	334.72
386.809	322.97
387.189	322.75
387.568	323.65
387.948	334.72
388.328	346.7
388.707	325.91
389.087	321.62
389.466	344.89
389.846	364.55
390.225	349.41
390.605	345.34
390.984	346.25
391.363	349.86
391.743	367.26
392.122	368.62
392.501	368.62
392.881	373.82
393.26	378.34
393.639	369.07
394.018	341.73
394.397	390.99
394.776	349.86
395.155	381.5
395.534	382.63
395.913	376.76
396.292	409.52
396.671	383.76
397.05	389.18
397.429	366.59
397.808	389.18
398.186	384.44
398.565	383.08
398.944	367.94
399.323	388.05
399.701	390.54
400.08	396.64
400.458	409.3
400.837	387.6
401.215	392.57
401.594	394.38
401.972	399.58
402.351	395.96
402.729	399.58
403.107	398.45
403.486	416.3
403.864	402.52
404.242	397.09
404.62	417.21
404.999	416.98
405.377	400.71
405.755	421.73
406.133	408.62
406.511	442.29
406.889	431.44
407.267	419.01
407.645	454.72
408.023	423.31
408.401	428.28
408.779	419.01
409.156	442.29
409.534	450.65
409.912	454.72
410.29	466.7
410.667	457.21
411.045	473.48
411.422	449.52
411.8	469.18
412.178	482.52
412.555	479.58
412.933	480.93
413.31	478.67
413.687	472.35
414.065	472.35
414.442	491.55
414.819	492.68
415.197	483.42
415.574	489.07
415.951	471.67
416.328	477.32
416.705	496.98
417.082	511.67
417.46	513.02
417.837	491.55
418.214	516.19
418.591	529.29
418.967	529.07
419.344	533.59
419.721	519.8
420.098	507.37
420.475	531.55
420.852	530.42
421.228	537.88
421.605	525.45
421.982	552.8
422.358	537.88
422.735	565.68
423.111	576.3
423.488	560.71
423.864	563.42
424.241	560.25
424.617	572.91
424.994	591.44
425.37	557.99
425.746	567.26
426.123	583.98
426.499	579.91
426.875	580.82
427.251	592.12
427.627	611.33
428.003	608.39
428.379	621.95
428.756	609.52
429.132	628.95
429.507	600.03
429.883	623.53
430.259	654.71
430.635	649.97
431.011	647.26
431.387	649.06
431.763	657.43
432.138	660.82
432.514	665.11
432.89	671.21
433.265	691.1
433.641	690.19
434.016	700.36
434.392	683.64
434.767	705.79
435.143	698.78
435.518	720.93
435.894	751.89
436.269	728.61
436.644	733.58
437.02	731.77
437.395	752.79
437.77	752.79
438.145	753.92
438.52	757.99
438.895	765.9
439.271	775.84
439.646	759.12
440.021	779.46
440.395	762.06
440.77	798.44
441.145	815.16
441.52	808.16
441.895	788.04
442.27	815.61
442.645	803.41
443.019	837.76
443.394	829.63
443.769	836.86
444.143	808.61
444.518	868.27
444.892	825.33
445.267	863.07
445.641	842.73
446.016	859
446.39	875.5
446.764	854.94
447.139	863.3
447.513	849.06
447.887	869.85
448.262	870.98
448.636	856.74
449.01	887.25
449.384	890.41
449.758	911.66
450.132	923.86
450.506	897.19
450.88	919.11
451.254	899.91
451.628	927.02
452.002	916.63
452.376	985.1
452.75	946.23
453.123	954.82
453.497	967.47
453.871	967.93
454.244	993.69
454.618	978.77
454.992	1010.64
455.365	1017.64
455.739	1030.75
456.112	1032.78
456.486	1028.72
456.859	1065.78
457.232	1070.07
457.606	1062.61
457.979	1086.34
458.352	1093.35
458.725	1098.77
459.099	1116.17
459.472	1109.62
459.845	1120.92
460.218	1153.23
460.591	1157.3
460.964	1168.6
461.337	1186.68
461.71	1174.25
462.083	1216.28
462.456	1210.41
462.829	1230.29
463.201	1238.65
463.574	1237.98
463.947	1248.82
464.32	1262.38
464.692	1278.88
465.065	1338.09
465.438	1310.52
465.81	1314.36
466.183	1341.7
466.555	1339.89
466.928	1382.15
467.3	1362.27
467.672	1365.88
468.045	1429.16
468.417	1417.86
468.789	1432.1
469.161	1440.23
469.534	1462.6
469.906	1503.51
470.278	1505.77
470.65	1498.08
471.022	1537.18
471.394	1578.53
471.766	1569.27
472.138	1582.83
472.51	1591.19
472.882	1628.25
473.253	1642.71
473.625	1692.88
473.997	1708.25
474.369	1729.71
474.74	1724.74
475.112	1754.12
475.484	1796.83
475.855	1842.03
476.227	1817.4
476.598	1853.55
476.97	1852.42
477.341	1904.85
477.713	1937.17
478.084	1968.35
478.455	1999.99
478.827	2021.46
479.198	2063.49
479.569	2061.46
479.94	2129.48
480.311	2143.71
480.682	2177.61
481.053	2188.69
481.424	2240.66
481.795	2301.9
482.166	2316.37
482.537	2328.79
482.908	2378.96
483.279	2353.2
483.65	2402.92
484.021	2486.08
484.391	2504.38
484.762	2512.29
485.133	2531.05
485.503	2557.49
485.874	2609.24
486.244	2670.93
486.615	2670.48
486.985	2721.1
487.356	2737.82
487.726	2759.74
488.097	2833.87
488.467	2831.38
488.837	2901.21
489.207	2939.17
489.578	2947.08
489.948	2988.89
490.318	3027.08
490.688	3044.48
491.058	3115.21
491.428	3131.49
491.798	3119.06
492.168	3170.58
492.538	3190.24
492.908	3244.25
493.278	3273.4
493.648	3318.6
494.017	3310.92
494.387	3376
494.757	3431.82
495.126	3391.37
495.496	3440.4
495.866	3443.79
496.235	3479.5
496.605	3546.16
496.974	3553.4
497.344	3610.79
497.713	3604.47
498.082	3626.61
498.452	3649.89
498.821	3724.01
499.19	3710.91
499.559	3755.88
499.928	3762.2
500.298	3795.42
500.667	3822.77
501.036	3840.85
501.405	3836.55
501.774	3846.27
502.143	3893.5
502.512	3927.17
502.88	3942.76
503.249	3974.63
503.618	3991.58
503.987	4011.01
504.356	4018.47
504.724	4085.36
505.093	4084.68
505.462	4129.88
505.83	4128.3
506.199	4173.49
506.567	4184.57
506.936	4175.98
507.304	4246.94
507.672	4275.41
508.041	4304.34
508.409	4277.44
508.777	4331.68
509.145	4391.79
509.514	4383.66
509.882	4406.25
510.25	4476.99
510.618	4480.6
510.986	4462.98
511.354	4554.27
511.722	4613.03
512.09	4634.04
512.458	4635.4
512.826	4681.73
513.193	4661.16
513.561	4717.88
513.929	4730.31
514.297	4754.49
514.664	4831.1
515.032	4836.3
515.4	4857.09
515.767	4920.59
516.135	4976.63
516.502	4943.42
516.869	4967.37
517.237	4985.9
517.604	5043.53
517.972	5084.2
518.339	5100.7
518.706	5144.09
519.073	5141.38
519.44	5226.12
519.808	5297.08
520.175	5256.18
520.542	5312.22
520.909	5392.89
521.276	5400.58
521.643	5401.26
522.009	5497.98
522.376	5515.15
522.743	5520.58
523.11	5586.56
523.477	5638.76
523.843	5624.3
524.21	5791.75
524.577	5795.6
524.943	5783.62
525.31	5857.29
525.676	5917.4
526.043	5938.64
526.409	5930.28
526.776	6042.6
527.142	6042.14
527.508	6052.99
527.874	6144.74
528.241	6133.21
528.607	6181.35
528.973	6289.14
529.339	6265.41
529.705	6322.14
530.071	6360.78
530.437	6365.75
530.803	6413.43
531.169	6433.77
531.535	6480.1
531.901	6473.32
532.267	6511.96
532.632	6563.94
532.998	6616.14
533.364	6661.11
533.73	6641
534.095	6730.26
534.461	6765.74
534.826	6808.45
535.192	6790.37
535.557	6846.64
535.923	6890.26
536.288	6874.21
536.653	6897.04
537.019	6910.82
537.384	6918.5
537.749	7038.73
538.114	7021.55
538.479	6991.5
538.845	7060.65
539.21	7026.07
539.575	7131.61
539.94	7021.55
540.305	7128.44
540.67	7138.16
541.034	7238.27
541.399	7224.26
541.764	7270.13
542.129	7271.49
542.494	7211.83
542.858	7307.65
543.223	7341.32
543.587	7382
543.952	7382.45
544.316	7419.73
544.681	7451.37
545.045	7488.43
545.41	7550.13
545.774	7493.86
546.138	7532.5
546.503	7556.68
546.867	7622.67
547.231	7640.07
547.595	7640.52
547.959	7674.64
548.324	7657.02
548.688	7661.99
549.052	7710.35
549.416	7684.81
549.779	7746.28
550.143	7748.77
550.507	7889.33
550.871	7831.7
551.235	7850.01
551.599	7904.69
551.962	7936.33
552.326	8010.91
552.689	8062.88
553.053	8024.92
553.417	8111.24
553.78	8135.87
554.143	8140.62
554.507	8140.17
554.87	8212.26
555.234	8305.36
555.597	8205.25
555.96	8225.36
556.323	8261.29
556.686	8232.82
557.05	8359.14
557.413	8345.81
557.776	8407.73
558.139	8481.18
558.502	8451.57
558.865	8552.59
559.228	8582.42
559.59	8632.58
559.953	8645.92
560.316	8777.66
560.679	8702.64
561.041	8777.66
561.404	8850.43
561.767	8852.46
562.129	8820.15
562.492	8939.92
562.854	8920.03
563.217	8917.55
563.579	8968.85
563.941	9009.07
564.304	9051.78
564.666	9182.17
565.028	9111.22
565.39	9162.74
565.753	9173.13
566.115	9374.26
566.477	9336.29
566.839	9316.63
567.201	9414.03
567.563	9439.12
567.925	9501.04
568.287	9557.31
568.648	9508.04
569.01	9532.67
569.372	9626.46
569.734	9565.21
570.095	9633.24
570.457	9715.49
570.819	9701.71
571.18	9732.89
571.542	9753.46
571.903	9760.24
572.265	9824.87
572.626	9868.26
572.987	9861.48
573.349	9951.65
573.71	9938.76
574.071	9947.8
574.432	9991.64
574.794	10068.7
575.155	10012.43
575.516	10002.27
575.877	10030.97
576.238	10074.81
576.599	10136.05
576.96	10117.29
577.32	10046.33
577.681	10133.79
578.042	10166.33
578.403	10213.56
578.763	10197.29
579.124	10287
579.485	10281.35
579.845	10287
580.206	10216.95
580.566	10274.57
580.927	10265.54
581.287	10371.07
581.648	10262.37
582.008	10320.22
582.368	10316.83
582.728	10319.09
583.089	10320.67
583.449	10366.1
583.809	10387.34
584.169	10313.9
584.529	10385.76
584.889	10400.67
585.249	10337.85
585.609	10336.95
585.969	10376.04
586.329	10429.6
586.688	10404.51
587.048	10367.23
587.408	10321.58
587.768	10324.06
588.127	10331.52
588.487	10295.36
588.846	10481.35
589.206	10271.86
589.565	10325.19
589.925	10383.5
590.284	10369.94
590.643	10419.43
591.003	10355.48
591.362	10435.47
591.721	10417.85
592.08	10442.71
592.44	10488.58
592.799	10456.49
593.158	10401.58
593.517	10493.78
593.876	10459.65
594.235	10442.25
594.593	10443.84
594.952	10450.62
595.311	10378.07
595.67	10469.37
596.029	10639.31
596.387	10557.05
596.746	10503.72
597.104	10453.55
597.463	10480.22
597.822	10550.95
598.18	10443.16
598.538	10464.63
598.897	10584.17
599.255	10387.11
599.613	10608.8
599.972	10579.65
600.33	10689.7
600.688	10524.74
601.046	10587.33
601.404	10544.62
601.762	10654.23
602.12	10689.48
602.478	10672.53
602.836	10617.62
603.194	10670.95
603.552	10664.39
603.91	10635.47
604.268	10734.22
604.625	10704.85
604.983	10703.04
605.341	10609.93
605.698	10717.27
606.056	10675.02
606.413	10709.59
606.771	10725.41
607.128	10746.43
607.485	10665.07
607.843	10708.91
608.2	10722.25
608.557	10745.07
608.914	10758.18
609.272	10788.01
609.629	10799.53
609.986	10834.11
610.343	10730.61
610.7	10887.89
611.057	10834.11
611.414	10851.73
611.771	10849.25
612.127	10880.66
612.484	10879.08
612.841	10874.11
613.198	10930.38
613.554	10935.57
613.911	11037.94
614.267	10919.76
614.624	10889.7
614.98	10977.83
615.337	10975.8
615.693	10962.69
616.05	10963.14
616.406	11009.02
616.762	10989.13
617.118	11027.78
617.475	11015.57
617.831	10919.98
618.187	11066.87
618.543	11040.43
618.899	11149.58
619.255	11051.96
619.611	11068.9
619.967	11138.73
620.323	11120.88
620.678	11082.69
621.034	11147.77
621.39	11101.67
621.746	11062.12
622.101	11209.92
622.457	11129.02
622.812	11068.23
623.168	11121.56
623.523	11081.11
623.879	11087.43
624.234	10976.25
624.589	11119.07
624.945	11107.09
625.3	11093.31
625.655	11030.26
626.01	11115.91
626.365	11113.42
626.72	11122.01
627.075	11073.65
627.43	11107.55
627.785	11057.38
628.14	11061.67
628.495	11031.84
628.85	11008.11
629.205	11002.46
629.559	11110.03
629.914	11118.62
630.269	11050.37
630.623	11061.67
630.978	11064.84
631.332	11084.5
631.687	11131.28
632.041	10974.9
632.396	11046.53
632.75	10993.88
633.104	10987.32
633.459	10819.87
633.813	10978.51
634.167	10991.62
634.521	10909.59
634.875	10926.53
635.229	10891.06
635.583	10853.99
635.937	10883.15
636.291	10840.21
636.645	10923.14
636.999	10880.66
637.352	10816.03
637.706	10801.79
638.06	10786.2
638.413	10773.54
638.767	10768.12
639.121	10759.76
639.474	10769.02
639.828	10779.87
640.181	10806.54
640.534	10708.46
640.888	10623.72
641.241	10644.06
641.594	10637.5
641.947	10653.55
642.301	10633.66
642.654	10626.2
643.007	10609.71
643.36	10622.14
643.713	10495.13
644.066	10595.24
644.419	10596.37
644.771	10486.32
645.124	10403.61
645.477	10463.72
645.83	10327.45
646.182	10275.03
646.535	10290.62
646.888	10263.95
647.24	10151.19
647.593	10223.05
647.945	10163.62
648.298	10185.99
648.65	10036.16
649.002	10134.69
649.355	10192.77
649.707	10144.41
650.059	10122.71
650.411	10294.91
650.763	10286.33
651.115	10407.23
651.467	10363.61
651.819	10351.41
652.171	10370.84
652.523	10254.01
652.875	10275.48
653.227	10275.25
653.578	10368.81
653.93	10350.28
654.282	10265.99
654.633	10193.9
654.985	10249.26
655.337	10166.78
655.688	10186.44
656.039	10280.45
656.391	10179.44
656.742	10223.95
657.094	10165.65
657.445	10243.61
657.796	10181.24
658.147	10138.08
658.498	10185.99
658.849	10203.39
659.2	10240.68
659.551	10191.41
659.902	10217.4
660.253	10196.16
660.604	10206.33
660.955	10143.73
661.306	10176.5
661.656	10113.9
662.007	10111.64
662.358	10084.3
662.708	10095.37
663.059	10062.38
663.409	9965.66
663.76	10114.13
664.11	10083.85
664.461	10116.39
664.811	10087.46
665.161	10033.68
665.511	10077.74
665.862	10086.56
666.212	10103.96
666.562	10070.74
666.912	10005.2
667.262	10071.19
667.612	10047.24
667.962	10024.86
668.312	10040
668.662	10073.9
669.011	10017.18
669.361	9989.61
669.711	9989.84
670.06	9920.23
670.41	10009.27
670.76	9931.08
671.109	9964.3
671.459	9986.9
671.808	9943.96
672.157	9952.1
672.507	9881.36
672.856	9903.06
673.205	9879.33
673.554	9875.04
673.904	9879.33
674.253	9961.14
674.602	9848.82
674.951	9754.14
675.3	9693.8
675.649	9863.96
675.998	9819.9
676.346	9864.64
676.695	9857.86
677.044	9830.52
677.393	9863.29
677.741	9779.45
678.09	9747.36
678.438	9783.74
678.787	9748.71
679.135	9803.4
679.484	9672.78
679.832	9767.92
680.181	9712.56
680.529	9724.31
680.877	9714.14
681.225	9683.86
681.573	9695.83
681.922	9614.7
682.27	9660.81
682.618	9598.43
682.966	9567.02
683.314	9581.03
683.661	9626.23
684.009	9566.34
684.357	9574.71
684.705	9553.92
685.053	9578.1
685.4	9519.57
685.748	9440.7
686.095	9448.83
686.443	9425.33
686.79	9389.17
687.138	9451.32
687.485	9380.36
687.832	9427.59
688.18	9370.19
688.527	9305.56
688.874	9363.19
689.221	9298.78
689.568	9316.41
689.915	9311.44
690.262	9253.81
690.609	9241.61
690.956	9178.78
691.303	9196.86
691.65	9119.12
691.997	9134.72
692.344	9079.58
692.69	9039.8
693.037	9053.36
693.383	9027.83
693.73	9123.42
694.077	8993.48
694.423	9011.78
694.769	8959.13
695.116	8934.27
695.462	8951.67
695.808	8867.83
696.155	8932.46
696.501	8814.05
696.847	8814.27
697.193	8766.82
697.539	8778.34
697.885	8697.89
698.231	8657.67
698.577	8712.36
698.923	8689.98
699.269	8592.36
699.614	8650.89
699.96	8633.71
700.306	8513.04
700.651	8503.32
700.997	8525.24
701.342	8441.4
701.688	8479.14
702.033	8392.82
702.379	8370.22
702.724	8447.73
703.069	8468.52
703.415	8360.5
703.76	8326.6
704.105	8342.65
704.45	8314.17
704.795	8317.79
705.14	8303.55
705.485	8228.3
705.83	8264.01
706.175	8266.04
706.52	8176.78
706.865	8209.77
707.209	8182.43
707.554	8119.83
707.899	8155.99
708.243	8098.13
708.588	7997.12
708.932	8025.82
709.277	8101.75
709.621	8035.09
709.966	7992.83
710.31	8003.67
710.654	7923.22
710.998	7954.86
711.342	7955.09
711.687	7947.18
712.031	7896.11
712.375	7903.34
712.719	7892.49
713.063	7928.42
713.407	7858.82
713.75	7793.74
714.094	7776.11
714.438	7762.55
714.782	7794.19
715.125	7774.3
715.469	7809.55
715.812	7706.73
716.156	7717.13
716.499	7721.87
716.843	7664.02
717.186	7668.54
717.53	7706.96
717.873	7685.72
718.216	7665.15
718.559	7593.97
718.902	7551.26
719.246	7562.33
719.589	7596.23
719.932	7581.54
720.275	7573.63
720.617	7520.97
720.96	7514.2
721.303	7545.83
721.646	7451.15
721.989	7479.62
722.331	7512.16
722.674	7509.45
723.016	7410.02
723.359	7436.46
723.701	7464.03
724.044	7412.73
724.386	7359.17
724.729	7417.93
725.071	7328.66
725.413	7359.85
725.755	7285.05
726.097	7275.33
726.439	7301.77
726.782	7297.7
727.124	7329.12
727.465	7271.26
727.807	7205.73
728.149	7228.1
728.491	7243.69
728.833	7227.65
729.175	7125.96
729.516	7162.11
729.858	7111.49
730.199	7145.62
730.541	7157.82
730.882	7151.27
731.224	7216.35
731.565	7106.75
731.906	7094.09
732.248	7022.23
732.589	7094.09
732.93	7034.66
733.271	7038.05
733.612	7050.25
733.953	7007.99
734.294	7075.11
734.635	6988.33
734.976	6983.14
735.317	7011.16
735.658	6937.94
735.999	6969.35
736.339	6952.85
736.68	6917.83
737.021	6922.12
737.361	6937.71
737.702	6947.88
738.042	6886.41
738.383	6888
738.723	6869.24
739.063	6894.78
739.404	6842.12
739.744	6897.71
740.084	6791.73
740.424	6846.64
740.764	6864.49
741.104	6826.98
741.444	6853.2
741.784	6808.45
742.124	6785.85
742.464	6722.13
742.804	6807.77
743.143	6767.55
743.483	6795.12
743.823	6697.27
744.162	6738.62
744.502	6705.63
744.841	6709.7
745.181	6721
745.52	6660.66
745.86	6639.87
746.199	6680.09
746.538	6657.27
746.877	6627.44
747.216	6633.54
747.556	6595.58
747.895	6599.64
748.234	6592.19
748.573	6578.4
748.911	6549.25
749.25	6595.58
749.589	6577.5
749.928	6577.95
750.267	6561.9
750.605	6515.35
750.944	6471.51
751.283	6502.24
751.621	6470.83
751.96	6467.67
752.298	6459.31
752.636	6429.7
752.975	6406.43
753.313	6364.39
753.651	6395.13
753.989	6355.36
754.327	6373.43
754.666	6301.8
755.004	6296.6
755.342	6337.28
755.679	6291.18
756.017	6295.02
756.355	6262.25
756.693	6241.46
757.031	6267
757.368	6268.58
757.706	6239.65
758.044	6198.98
758.381	6243.27
758.719	6161.69
759.056	6170.5
759.394	6187.68
759.731	6126.89
760.068	6150.39
760.405	6078.75
760.743	6089.83
761.08	6077.4
761.417	6078.53
761.754	6004.4
762.091	5999.66
762.428	6022.93
762.765	5932.99
763.102	5996.49
763.438	5948.59
763.775	5961.02
764.112	5902.26
764.449	5866.55
764.785	5840.79
765.122	5888.7
765.458	5848.7
765.795	5838.53
766.131	5784.52
766.467	5828.59
766.804	5806.44
767.14	5735.48
767.476	5742.49
767.812	5766.22
768.148	5699.33
768.485	5703.17
768.821	5695.94
769.157	5637.41
769.492	5662.27
769.828	5640.12
770.164	5594.47
770.5	5617.97
770.836	5572.1
771.171	5551.53
771.507	5584.75
771.842	5479.9
772.178	5496.4
772.513	5475.6
772.849	5427.47
773.184	5453.46
773.519	5411.2
773.855	5398.09
774.19	5412.33
774.525	5364.65
774.86	5381.37
775.195	5368.49
775.53	5332.33
775.865	5317.87
776.2	5253.46
776.535	5203.07
776.87	5214.14
777.205	5248.49
777.539	5170.53
777.874	5206.23
778.209	5124.65
778.543	5181.38
778.878	5045.56
779.212	5117.2
779.547	5064.77
779.881	5082.62
780.215	5041.27
780.55	5099.12
780.884	5035.62
781.218	4999.68
781.552	5015.96
781.886	5020.48
782.22	4944.09
782.554	4951.78
782.888	4932.57
783.222	4886.02
783.556	4854.83
783.889	4873.13
784.223	4881.95
784.557	4872.23
784.89	4851.89
785.224	4845.34
785.557	4797.66
785.891	4783.19
786.224	4783.42
786.558	4793.36
786.891	4711.78
787.224	4691.9
787.557	4725.79
787.891	4703.2
788.224	4692.35
788.557	4711.78
788.89	4648.06
789.223	4624.33
789.556	4659.81
789.888	4590.2
790.221	4596.76
790.554	4555.18
790.887	4540.71
791.219	4544.78
791.552	4549.53
791.884	4500.04
792.217	4478.57
792.549	4454.16
792.882	4472.69
793.214	4401.73
793.546	4457.78
793.879	4399.25
794.211	4415.75
794.543	4462.07
794.875	4421.4
795.207	4414.39
795.539	4363.77
795.871	4373.26
796.203	4320.83
796.535	4354.5
796.867	4328.06
797.198	4305.01
797.53	4314.05
797.862	4249.65
798.193	4222.53
798.525	4249.42
798.856	4227.05
799.188	4204.68
799.519	4133.04
799.85	4175.75
800.182	4172.81
800.513	4141.85
800.844	4125.13
801.175	4123.55
801.506	4086.71
801.837	4080.61
802.168	4111.57
802.499	4097.11
802.83	4091.01
803.161	4048.52
803.491	4091.69
803.822	4068.41
804.153	4013.5
804.483	3982.31
804.814	4016.89
805.145	3981.18
805.475	4007.39
805.805	3942.54
806.136	3935.76
806.466	3949.09
806.796	3958.58
807.126	3959.49
807.457	3923.78
807.787	3920.62
808.117	3919.94
808.447	3882.43
808.777	3892.37
809.107	3917
809.436	3846.04
809.766	3897.34
810.096	3862.54
810.426	3841.52
810.755	3800.17
811.085	3827.29
811.414	3808.08
811.744	3818.25
812.073	3775.31
812.403	3762.88
812.732	3793.16
813.061	3779.15
813.39	3741.64
813.719	3727.85
814.049	3746.16
814.378	3704.58
814.707	3688.08
815.036	3701.19
815.365	3704.58
815.693	3699.61
816.022	3654.41
816.351	3635.43
816.68	3628.2
817.008	3661.87
817.337	3649.44
817.665	3608.54
817.994	3592.72
818.322	3607.63
818.651	3598.14
818.979	3580.51
819.307	3620.29
819.636	3603.56
819.964	3580.29
820.292	3594.3
820.62	3579.16
820.948	3591.59
821.276	3570.12
821.604	3604.92
821.932	3561.53
822.259	3581.19
822.587	3537.12
822.915	3571.7
823.243	3573.06
823.57	3557.46
823.898	3556.11
824.225	3514.3
824.553	3540.74
824.88	3585.26
825.207	3576.9
825.535	3555.43
825.862	3566.05
826.189	3550.23
826.516	3532.6
826.843	3548.42
827.17	3554.07
827.497	3568.99
827.824	3542.1
828.151	3594.52
828.478	3538.25
828.805	3554.3
829.131	3539.16
829.458	3524.24
829.785	3582.77
830.111	3582.1
830.438	3543.45
830.764	3553.4
831.09	3569.44
831.417	3510.91
831.743	3538.03
832.069	3554.07
832.395	3512.04
832.722	3501.19
833.048	3561.3
833.374	3501.87
833.7	3569.44
834.026	3505.03
834.351	3558.14
834.677	3495.77
835.003	3497.8
835.329	3495.77
835.654	3519.05
835.98	3480.18
836.306	3489.89
836.631	3484.7
836.956	3495.54
837.282	3505.94
837.607	3473.17
837.932	3448.09
838.258	3471.14
838.583	3478.82
838.908	3421.87
839.233	3449.44
839.558	3447.86
839.883	3422.1
840.208	3402.44
840.533	3398.15
840.858	3405.6
841.182	3435.66
841.507	3421.2
841.832	3358.15
842.156	3396.11
842.481	3337.36
842.805	3366.96
843.13	3350.01
843.454	3351.37
843.778	3364.02
844.103	3389.33
844.427	3320.86
844.751	3318.15
845.075	3311.59
845.399	3345.04
845.723	3264.36
846.047	3312.5
846.371	3296.68
846.695	3299.62
847.019	3265.27
847.343	3225.72
847.666	3223.46
847.99	3220.52
848.313	3181.2
848.637	3207.19
848.96	3188.21
849.284	3196.12
849.607	3177.59
849.931	3169.45
850.254	3130.36
850.577	3111.82
850.9	3102.56
851.223	3070.24
851.546	3083.13
851.869	3067.31
852.192	3053.07
852.515	3004.03
852.838	3014.2
853.161	3041.32
853.483	3026.86
853.806	2976.69
854.129	3033.86
854.451	2987.99
854.774	3014.88
855.096	2987.08
855.419	3008.55
855.741	2954.09
856.063	2960.64
856.385	2956.8
856.708	2979.17
857.03	2930.36
857.352	2900.98
857.674	2943.92
857.996	2924.26
858.318	2857.82
858.64	2922.68
858.961	2931.94
859.283	2898.95
859.605	2923.36
859.926	2909.12
860.248	2881.32
860.57	2851.72
860.891	2877.71
861.212	2873.87
861.534	2821.21
861.855	2839.97
862.176	2854.43
862.498	2864.83
862.819	2803.81
863.14	2850.81
863.461	2770.37
863.782	2776.24
864.103	2808.1
864.424	2804.26
864.745	2814.88
865.065	2780.31
865.386	2783.92
865.707	2781.89
866.027	2779.63
866.348	2757.94
866.668	2736.02
866.989	2750.03
867.309	2757.48
867.63	2754.55
867.95	2748.67
868.27	2746.41
868.59	2720.2
868.91	2756.35
869.23	2704.15
869.55	2720.65
869.87	2731.27
870.19	2717.26
870.51	2727.2
870.83	2721.78
871.15	2716.13
871.469	2686.53
871.789	2700.76
872.109	2682.23
872.428	2661.22
872.748	2714.55
873.067	2689.46
873.386	2657.83
873.706	2664.15
874.025	2659.63
874.344	2684.72
874.663	2656.24
874.982	2666.64
875.301	2632.97
875.62	2657.15
875.939	2659.86
876.258	2599.97
876.577	2583.48
876.896	2605.4
877.214	2617.37
877.533	2609.47
877.852	2597.04
878.17	2636.58
878.489	2633.19
878.807	2615.34
879.125	2583.93
879.444	2602.01
879.762	2590.03
880.08	2639.97
880.398	2598.17
880.716	2602.23
881.034	2552.74
881.352	2574.66
881.67	2567.43
881.988	2567.88
882.306	2540.77
882.624	2536.47
882.941	2561.33
883.259	2521.56
883.577	2560.88
883.894	2527.66
884.212	2552.97
884.529	2510.94
884.846	2491.5
885.164	2517.26
885.481	2494.67
885.798	2502.8
886.115	2480.2
886.432	2516.13
886.75	2478.62
887.067	2476.81
887.383	2468.9
887.7	2466.42
888.017	2456.47
888.334	2477.27
888.651	2443.82
888.967	2461.67
889.284	2453.76
889.6	2449.02
889.917	2443.14
890.233	2435.91
890.55	2448.34
890.866	2422.8
891.182	2389.36
891.498	2421.45
891.815	2410.83
892.131	2425.29
892.447	2380.54
892.763	2385.97
893.079	2392.3
893.395	2357.27
893.71	2361.79
894.026	2343.71
894.342	2370.83
894.657	2358.4
894.973	2359.75
895.289	2287.21
895.604	2350.26
895.92	2322.92
896.235	2317.72
896.55	2310.72
896.865	2303.71
897.181	2320.66
897.496	2271.85
897.811	2263.94
898.126	2244.5
898.441	2237.95
898.756	2239.76
899.071	2234.79
899.386	2265.97
899.7	2228.68
900.015	2237.27
900.33	2216.26
900.644	2237.5
900.959	2228.91
901.273	2207.89
901.588	2216.26
901.902	2195.01
902.216	2188.46
902.531	2184.84
902.845	2163.83
903.159	2145.3
903.473	2168.35
903.787	2169.7
904.101	2165.64
904.415	2136.94
904.729	2136.94
905.042	2120.89
905.356	2128.35
905.67	2135.81
905.984	2124.96
906.297	2074.56
906.611	2129.03
906.924	2080.21
907.237	2103.49
907.551	2079.76
907.864	2073.43
908.177	2068.91
908.491	2075.92
908.804	2032.53
909.117	2084.06
909.43	2030.95
909.743	2028.46
910.056	2060.33
910.368	2023.72
910.681	2001.35
910.994	2001.35
911.307	2018.29
911.619	1988.92
911.932	1976.49
912.244	1958.41
912.557	1983.95
912.869	1975.13
913.181	1947.56
913.494	1941.23
913.806	1928.58
914.118	1925.42
914.43	1912.31
914.742	1934
915.054	1908.47
915.366	1879.54
915.678	1902.59
915.99	1884.51
916.302	1910.73
916.613	1900.11
916.925	1871.41
917.236	1867.11
917.548	1860.33
917.859	1875.47
918.171	1842.25
918.482	1845.19
918.794	1833.21
919.105	1825.31
919.416	1833.21
919.727	1790.28
920.038	1816.49
920.349	1794.57
920.66	1778.98
920.971	1799.32
921.282	1755.02
921.593	1782.59
921.903	1781.01
922.214	1776.94
922.525	1743.5
922.835	1756.83
923.146	1748.24
923.456	1753.89
923.767	1730.17
924.077	1710.96
924.387	1733.33
924.697	1702.6
925.008	1705.76
925.318	1716.38
925.628	1668.02
925.938	1727.68
926.248	1674.35
926.558	1687.68
926.867	1675.25
927.177	1671.64
927.487	1653.78
927.796	1642.03
928.106	1649.94
928.416	1644.74
928.725	1655.82
929.034	1592.09
929.344	1626.89
929.653	1619.66
929.962	1612.88
930.271	1602.26
930.581	1575.59
930.89	1594.35
931.199	1574.46
931.508	1608.59
931.817	1611.53
932.125	1586.67
932.434	1587.57
932.743	1579.89
933.051	1534.92
933.36	1554.58
933.669	1533.11
933.977	1528.14
934.286	1530.4
934.594	1547.35
934.902	1533.11
935.21	1539.44
935.519	1532.43
935.827	1516.39
936.135	1494.01
936.443	1529.49
936.751	1490.62
937.059	1498.53
937.367	1499.44
937.674	1509.61
937.982	1461.02
938.29	1447.69
938.597	1471.19
938.905	1437.29
939.213	1447.46
939.52	1456.28
939.827	1439.33
940.135	1432.32
940.442	1427.58
940.749	1449.95
941.056	1430.29
941.363	1414.02
941.67	1394.81
941.977	1399.78
942.284	1398.42
942.591	1368.59
942.898	1404.98
943.205	1402.72
943.511	1383.96
943.818	1349.61
944.125	1358.42
944.431	1326.56
944.738	1351.42
945.044	1362.04
945.35	1331.08
945.657	1357.97
945.963	1333.11
946.269	1308.48
946.575	1345.77
946.881	1313.68
947.187	1310.97
947.493	1297.86
947.799	1309.61
948.105	1292.21
948.41	1317.52
948.716	1290.18
949.022	1282.04
949.327	1290.86
949.633	1265.77
949.938	1305.09
950.244	1247.92
950.549	1282.49
950.854	1289.5
951.16	1253.79
951.465	1265.55
951.77	1248.82
952.075	1266.9
952.38	1260.8
952.685	1269.16
952.99	1228.48
953.294	1255.6
953.599	1231.65
953.904	1248.6
954.209	1229.39
954.513	1222.16
954.818	1189.39
955.122	1228.26
955.426	1200.91
955.731	1197.98
956.035	1189.16
956.339	1186.9
956.643	1168.83
956.948	1193.68
957.252	1180.12
957.556	1171.76
957.86	1184.64
958.163	1180.8
958.467	1163.4
958.771	1176.96
959.075	1166.79
959.378	1166.57
959.682	1152.1
959.985	1147.36
960.289	1172.44
960.592	1141.03
960.896	1128.6
961.199	1135.83
961.502	1135.83
961.805	1131.99
962.108	1108.71
962.411	1114.59
962.714	1121.59
963.017	1097.41
963.32	1113.46
963.623	1085.66
963.926	1117.3
964.228	1089.51
964.531	1087.47
964.833	1080.47
965.136	1076.85
965.438	1073.91
965.741	1087.47
966.043	1070.3
966.345	1096.96
966.648	1053.12
966.95	1077.53
967.252	1050.18
967.554	1052.9
967.856	1077.53
968.158	1055.61
968.46	1063.29
968.761	1041.82
969.063	1034.59
969.365	1028.72
969.666	1017.42
969.968	1024.42
970.269	1017.19
970.571	1024.65
970.872	1030.98
971.174	1006.57
971.475	1021.71
971.776	1011.54
972.077	1014.7
972.378	981.49
972.679	1008.6
972.98	981.71
973.281	992.11
973.582	1001.6
973.883	1002.28
974.183	962.5
974.484	965.44
974.785	969.51
975.085	1001.6
975.386	993.01
975.686	968.83
975.986	946.68
976.287	971.77
976.587	935.84
976.887	959.34
977.187	935.16
977.487	948.49
977.787	953.46
978.087	971.99
978.387	947.81
978.687	928.38
978.987	920.7
979.286	933.58
979.586	915.72
979.885	924.99
980.185	932.67
980.484	934.93
980.784	896.97
981.083	936.97
981.382	900.13
981.682	882.05
981.981	918.44
982.28	912.33
982.579	884.31
982.878	902.62
983.177	869.62
983.475	912.11
983.774	894.93
984.073	872.79
984.372	861.49
984.67	891.09
984.969	870.75
985.267	892.45
985.566	893.35
985.864	875.73
986.162	846.57
986.461	871.21
986.759	852
987.057	842.28
987.355	848.38
987.653	849.06
987.951	863.75
988.249	850.64
988.547	835.73
988.844	844.31
989.142	840.7
989.44	836.18
989.737	849.96
990.035	815.16
990.332	835.73
990.63	835.73
990.927	825.33
991.224	854.03
991.521	833.69
991.819	837.76
992.116	792.79
992.413	817.2
992.71	823.75
993.006	806.35
993.303	796.18
993.6	796.18
993.897	807.03
994.193	810.19
994.49	761.38
994.787	768.38
995.083	774.03
995.379	788.72
995.676	779.68
995.972	772.9
996.268	764.09
996.565	763.64
996.861	758.89
997.157	762.73
997.453	755.05
997.749	780.81
998.044	754.6
998.34	761.83
998.636	744.66
998.932	730.64
999.227	735.39
999.523	752.11
999.818	735.62
1000.114	732.23
1000.409	718.89
1000.704	717.76
1001	720.48
1001.295	711.21
1001.59	735.84
1001.885	741.94
1002.18	725.9
1002.475	717.09
1002.77	731.1
1003.065	712.11
1003.359	722.28
1003.654	688.39
1003.949	726.8
1004.243	704.88
1004.538	725.45
1004.832	687.48
1005.127	706.01
1005.421	694.26
1005.715	696.75
1006.009	668.73
1006.304	693.36
1006.598	678.44
1006.892	684.09
1007.186	675.96
1007.48	641.38
1007.773	664.88
1008.067	655.39
1008.361	675.5
1008.655	674.15
1008.948	675.05
1009.242	651.32
1009.535	660.59
1009.829	658.78
1010.122	635.73
1010.415	643.42
1010.708	669.63
1011.001	656.75
1011.295	641.38
1011.588	628.05
1011.881	635.05
1012.173	676.86
1012.466	636.18
1012.759	656.75
1013.052	651.55
1013.344	635.51
1013.637	634.38
1013.93	629.18
1014.222	613.13
1014.514	621.27
1014.807	625.79
1015.099	621.27
1015.391	605.45
1015.683	619.01
1015.976	607.03
1016.268	631.44
1016.56	624.88
1016.851	619.69
1017.143	603.87
1017.435	604.55
1017.727	599.12
1018.018	607.48
1018.31	580.37
1018.602	594.6
1018.893	569.97
1019.185	597.54
1019.476	580.82
1019.767	577.43
1020.058	581.04
1020.35	577.88
1020.641	583.3
1020.932	586.69
1021.223	562.97
1021.514	575.39
1021.804	562.29
1022.095	569.07
1022.386	572.91
1022.677	562.51
1022.967	547.37
1023.258	538.79
1023.548	543.3
1023.839	565
1024.129	536.3
1024.419	515.28
1024.709	539.46
1025	547.37
1025.29	546.47
1025.58	525.68
1025.87	539.46
1026.16	510.54
1026.449	544.43
1026.739	519.58
1027.029	526.13
1027.319	504.66
1027.608	539.69
1027.898	525
1028.187	510.76
1028.477	516.86
1028.766	512.8
1029.055	497.43
1029.344	514.83
1029.634	509.18
1029.923	505.11
1030.212	496.3
1030.501	516.41
1030.79	493.14
1031.078	518.67
1031.367	490.65
1031.656	495.85
1031.945	498.79
1032.233	506.92
1032.522	503.76
1032.81	491.55
1033.099	459.24
1033.387	481.16
1033.675	488.17
1033.963	486.58
1034.251	478.9
1034.54	486.13
1034.828	472.12
1035.116	477.77
1035.403	472.12
1035.691	481.61
1035.979	484.1
1036.267	464.66
1036.554	466.47
1036.842	470.99
1037.129	465.79
1037.417	465.79
1037.704	471.89
1037.992	438.45
1038.279	473.7
1038.566	470.09
1038.853	470.09
1039.14	470.09
