Data from black_metal_pc_casing_FLMS001491_00090.txt Node
Date: Wed Feb 08 14:33:39 GMT 2017
User: dcchb
Spectrometer: FLMS00149
Trigger mode: 0
Integration Time (sec): 2.000000E-2
Scans to average: 10
Electric dark correction enabled: true
Nonlinearity correction enabled: false
Boxcar width: 0
XAxis mode: Wavelengths
Number of Pixels in Spectrum: 2048
>>>>>Begin Spectral Data<<<<<
341.393	-21.95
341.776	-21.95
342.16	-21.95
342.543	-46.13
342.927	-61.72
343.31	-72.34
343.693	-65.79
344.077	-64.66
344.46	-68.05
344.843	-28.95
345.226	-35.28
345.61	-46.81
345.993	-17.88
346.376	-14.49
346.759	-10.2
347.142	43.81
347.525	31.61
347.908	79.29
348.291	74.55
348.674	73.87
349.057	121.32
349.44	121.32
349.823	156.13
350.206	181.44
350.588	163.13
350.971	193.41
351.354	227.31
351.737	225.73
352.119	234.99
352.502	251.26
352.884	268.89
353.267	271.6
353.65	303.92
354.032	285.84
354.414	286.97
354.797	320.19
355.179	308.89
355.562	329.91
355.944	326.52
356.326	336.46
356.709	312.05
357.091	321.77
357.473	324.26
357.855	310.47
358.238	337.36
358.62	348.66
359.002	333.97
359.384	329.91
359.766	338.04
360.148	335.33
360.53	339.62
360.912	325.16
361.294	329.45
361.676	330.58
362.057	342.11
362.439	330.81
362.821	310.7
363.203	317.48
363.584	325.61
363.966	317.48
364.348	351.83
364.729	316.12
365.111	303.24
365.493	328.1
365.874	332.84
366.256	331.71
366.637	302.34
367.019	309.34
367.4	319.74
367.781	321.32
368.163	314.09
368.544	326.06
368.925	310.92
369.306	313.18
369.688	317.48
370.069	338.72
370.45	309.57
370.831	315.22
371.212	313.86
371.593	322.68
371.974	306.86
372.355	321.55
372.736	328.32
373.117	331.49
373.498	336.69
373.879	317.25
374.26	326.52
374.641	322.45
375.021	329.23
375.402	331.94
375.783	329.91
376.163	347.76
376.544	336.69
376.925	340.98
377.305	335.1
377.686	326.52
378.066	331.94
378.447	348.44
378.827	343.69
379.208	335.1
379.588	360.87
379.968	326.97
380.349	362.9
380.729	351.37
381.109	372.84
381.489	336.69
381.87	373.75
382.25	354.31
382.63	362.22
383.01	362.45
383.39	358.38
383.77	367.19
384.15	361.09
384.53	364.03
384.91	368.78
385.29	380.53
385.67	354.99
386.049	373.75
386.429	375.78
386.809	375.1
387.189	354.99
387.568	369.91
387.948	375.1
388.328	392.05
388.707	380.53
389.087	380.3
389.466	391.83
389.846	396.57
390.225	401.32
390.605	372.62
390.984	406.74
391.363	381.2
391.743	393.86
392.122	380.3
392.501	415.1
392.881	431.6
393.26	425.72
393.639	396.12
394.018	415.55
394.397	412.39
394.776	406.74
395.155	427.98
395.534	432.05
395.913	413.29
396.292	426.4
396.671	452.16
397.05	432.95
397.429	425.27
397.808	460.98
398.186	441.99
398.565	450.13
398.944	445.61
399.323	441.09
399.701	463.69
400.08	454.42
400.458	470.02
400.837	463.91
401.215	455.55
401.594	469.56
401.972	456.68
402.351	463.69
402.729	488.55
403.107	478.6
403.486	479.06
403.864	493.97
404.242	467.76
404.62	482.22
404.999	476.8
405.377	488.09
405.755	491.71
406.133	500.75
406.511	489.22
406.889	510.01
407.267	504.14
407.645	504.14
408.023	513.18
408.401	538.71
408.779	514.53
409.156	532.84
409.534	524.25
409.912	540.75
410.29	531.71
410.667	561.54
411.045	557.92
411.422	558.6
411.8	569.22
412.178	548.88
412.555	563.35
412.933	575.55
413.31	592.27
413.687	571.03
414.065	593.18
414.442	595.44
414.819	584.36
415.197	624.14
415.574	616.9
415.951	627.07
416.328	614.87
416.705	632.72
417.082	623.01
417.46	616.9
417.837	627.98
418.214	630.69
418.591	653.97
418.967	652.61
419.344	642.44
419.721	651.71
420.098	676.79
420.475	673.17
420.852	650.8
421.228	666.39
421.605	670.46
421.982	664.14
422.358	698.03
422.735	674.53
423.111	689.22
423.488	694.19
423.864	709.56
424.241	704.13
424.617	699.61
424.994	741.42
425.37	722.44
425.746	733.96
426.123	752.95
426.499	740.97
426.875	773.06
427.251	765.6
427.627	751.36
428.003	756.34
428.379	778.71
428.756	786.17
429.132	791.59
429.507	801.08
429.883	781.19
430.259	842.89
430.635	825.94
431.011	814.64
431.387	863.68
431.763	869.1
432.138	863.68
432.514	877.01
432.89	900.06
433.265	894.41
433.641	888.08
434.016	896.9
434.392	892.15
434.767	908.65
435.143	908.42
435.518	919.04
435.894	921.76
436.269	952.94
436.644	936.22
437.02	971.02
437.395	965.14
437.77	977.12
438.145	1008.53
438.52	986.61
438.895	1004.01
439.271	995.43
439.646	1020.28
440.021	1028.19
440.395	1041.75
440.77	1040.85
441.145	1036.78
441.52	1060.06
441.895	1046.72
442.27	1072.26
442.645	1059.15
443.019	1095.99
443.394	1091.47
443.769	1089.66
444.143	1052.37
444.518	1105.93
444.892	1105.71
445.267	1119.72
445.641	1116.55
446.016	1128.08
446.39	1170.34
446.764	1161.07
447.139	1138.47
447.513	1145.93
447.887	1150.22
448.262	1174.18
448.636	1141.18
449.01	1176.44
449.384	1182.09
449.758	1210.79
450.132	1221.41
450.506	1216.21
450.88	1223.22
451.254	1194.74
451.628	1213.5
452.002	1251.92
452.376	1251.92
452.75	1269.32
453.123	1253.27
453.497	1298.69
453.871	1301.63
454.244	1328.3
454.618	1327.17
454.992	1340.5
455.365	1344.34
455.739	1357
456.112	1376.88
456.486	1390.44
456.859	1414.17
457.232	1428.41
457.606	1425.92
457.979	1459.14
458.352	1456.66
458.725	1448.52
459.099	1483.77
459.472	1559.03
459.845	1521.06
460.218	1534.39
460.591	1555.19
460.964	1532.59
461.337	1599.25
461.71	1617.1
462.083	1638.8
462.456	1635.86
462.829	1652.58
463.201	1669.31
463.574	1651.45
463.947	1703.66
464.32	1735.07
464.692	1754.73
465.065	1740.49
465.438	1742.98
465.81	1805.12
466.183	1829.08
466.555	1836.76
466.928	1865.91
467.3	1877.89
467.672	1910.88
468.045	1932.12
468.417	1922.86
468.789	1953.82
469.161	1970.09
469.534	1984.55
469.906	2053.93
470.278	2043.08
470.65	2089.63
471.022	2078.56
471.394	2136.86
471.766	2116.98
472.138	2167.82
472.51	2244.88
472.882	2229.97
473.253	2279.69
473.625	2286.01
473.997	2352
474.369	2371.21
474.74	2347.93
475.112	2419.8
475.484	2435.84
475.855	2500.92
476.227	2520.58
476.598	2573.01
476.97	2553.8
477.341	2622.5
477.713	2663.86
478.084	2705.44
478.455	2744.31
478.827	2784.08
479.198	2835.15
479.569	2815.26
479.94	2928.26
480.311	2979.33
480.682	2998.99
481.053	3064.52
481.424	3138.42
481.795	3114.24
482.166	3177.52
482.537	3223.84
482.908	3283.28
483.279	3314.46
483.65	3416.15
484.021	3399.66
484.391	3479.43
484.762	3506.77
485.133	3501.12
485.503	3604.4
485.874	3620.89
486.244	3685.3
486.615	3749.48
486.985	3816.59
487.356	3863.6
487.726	3843.26
488.097	3957.61
488.467	3908.8
488.837	4068.57
489.207	4093.42
489.578	4130.71
489.948	4113.99
490.318	4259.97
490.688	4253.65
491.058	4290.25
491.428	4357.6
491.798	4425.62
492.168	4464.49
492.538	4508.1
492.908	4543.58
493.278	4586.97
493.648	4649.79
494.017	4691.37
494.387	4757.81
494.757	4756.68
495.126	4808.21
495.496	4803.01
495.866	4897.47
496.235	4907.64
496.605	4936.11
496.974	4974.3
497.344	5058.37
497.713	5088.88
498.082	5117.58
498.452	5149.21
498.821	5191.93
499.19	5214.52
499.559	5242.09
499.928	5312.83
500.298	5285.26
500.667	5349.66
501.036	5384.01
501.405	5408.42
501.774	5426.27
502.143	5423.33
502.512	5474.86
502.88	5553.72
503.249	5549.66
503.618	5636.66
503.987	5673.95
504.356	5652.93
504.724	5681.18
505.093	5743.78
505.462	5793.72
505.83	5815.19
506.199	5877.11
506.567	5882.08
506.936	5913.71
507.304	6032.36
507.672	6015.63
508.041	6036.88
508.409	6094.73
508.777	6122.07
509.145	6180.6
509.514	6174.27
509.882	6275.06
510.25	6276.64
510.618	6296.53
510.986	6314.16
511.354	6374.04
511.722	6399.13
512.09	6490.42
512.458	6471.67
512.826	6543.53
513.193	6583.75
513.561	6652.9
513.929	6682.73
514.297	6769.29
514.664	6777.19
515.032	6818.1
515.4	6849.96
515.767	6937.19
516.135	6926.8
516.502	6943.29
516.869	7067.36
517.237	7107.36
517.604	7035.04
517.972	7190.29
518.339	7217.41
518.706	7215.15
519.073	7233.23
519.44	7352.55
519.808	7457.63
520.175	7431.41
520.542	7473
520.909	7614.23
521.276	7611.97
521.643	7655.14
522.009	7741.92
522.376	7781.91
522.743	7824.62
523.11	7855.13
523.477	7939.65
523.843	8015.81
524.21	8110.94
524.577	8190.94
524.943	8158.63
525.31	8264.16
525.676	8367.44
526.043	8305.06
526.409	8415.57
526.776	8533.53
527.142	8591.61
527.508	8597.03
527.874	8683.13
528.241	8769.01
528.607	8779.85
528.973	8848.1
529.339	8879.29
529.705	8949.57
530.071	8998.15
530.437	9093.29
530.803	9095.55
531.169	9124.7
531.535	9110.92
531.901	9150.69
532.267	9278.6
532.632	9322.89
532.998	9322.89
533.364	9414.19
533.73	9394.98
534.095	9494.19
534.461	9519.04
534.826	9611.02
535.192	9581.87
535.557	9725.37
535.923	9683.11
536.288	9785.48
536.653	9748.87
537.019	9782.09
537.384	9846.72
537.749	9893.04
538.114	9898.24
538.479	9958.58
538.845	10003.55
539.21	9989.99
539.575	10035.64
539.94	10068.18
540.305	10128.52
540.67	10140.5
541.034	10154.06
541.399	10198.35
541.764	10248.29
542.129	10258.01
542.494	10383.2
542.858	10357.89
543.223	10470.43
543.587	10467.04
543.952	10424.56
544.316	10542.52
544.681	10526.47
545.045	10596.98
545.41	10624.78
545.774	10704.1
546.138	10654.38
546.503	10767.6
546.867	10727.37
547.231	10875.84
547.595	10794.72
547.959	10886.69
548.324	10902.28
548.688	10916.07
549.052	10958.55
549.416	10932.11
549.779	10932.57
550.143	11100.47
550.507	11105.89
550.871	11132.33
551.235	11141.6
551.599	11216.4
551.962	11306.34
552.326	11335.27
552.689	11366.45
553.053	11308.15
553.417	11399.22
553.78	11546.56
554.143	11481.93
554.507	11547.46
554.87	11620.01
555.234	11753.56
555.597	11702.04
555.96	11759.66
556.323	11750.17
556.686	11889.83
557.05	11806.44
557.413	11919.43
557.776	11928.7
558.139	11984.97
558.502	11984.29
558.865	12102.93
559.228	12267.45
559.59	12201.68
559.953	12282.81
560.316	12425.41
560.679	12408.91
561.041	12495.69
561.404	12524.39
561.767	12603.03
562.129	12520.77
562.492	12723.48
562.854	12714.21
563.217	12698.62
563.579	12799.86
563.941	12853.65
564.304	12873.76
564.666	12989.91
565.028	12982.23
565.39	13099.74
565.753	13071.04
566.115	13292.5
566.477	13197.36
566.839	13316.68
567.201	13312.84
567.563	13410.92
567.925	13486.85
568.287	13442.33
568.648	13500.18
569.01	13541.54
569.372	13639.61
569.734	13628.54
570.095	13788.54
570.457	13845.48
570.819	13830.34
571.18	13835.54
571.542	13918.48
571.903	14081.86
572.265	13962.09
572.626	14054.29
572.987	14096.78
573.349	14082.09
573.71	14161.41
574.071	14241.86
574.432	14184.68
574.794	14373.38
575.155	14332.93
575.516	14294.74
575.877	14339.93
576.238	14426.26
576.599	14457.9
576.96	14455.41
577.32	14477.78
577.681	14613.15
578.042	14518.01
578.403	14495.41
578.763	14574.5
579.124	14613.6
579.485	14682.52
579.845	14753.03
580.206	14688.17
580.566	14752.58
580.927	14770.43
581.287	14786.93
581.648	14755.97
582.008	14814.27
582.368	14676.42
582.728	14827.38
583.089	14812.24
583.449	14769.75
583.809	14810.66
584.169	14902.18
584.529	14814.72
584.889	14899.92
585.249	14854.5
585.609	14844.33
585.969	14902.63
586.329	14869.41
586.688	14796.87
587.048	14888.17
587.408	14799.36
587.768	14831.9
588.127	14931.33
588.487	14935.85
588.846	14932.46
589.206	14848.85
589.565	14890.43
589.925	14899.24
590.284	14869.64
590.643	14908.73
591.003	14925.68
591.362	14958.22
591.721	14863.54
592.08	14907.83
592.44	14946.92
592.799	14865.12
593.158	14958.22
593.517	14926.58
593.876	15018.56
594.235	14925.91
594.593	15023.98
594.952	14900.6
595.311	14843.2
595.67	14978.56
596.029	15010.2
596.387	15019.46
596.746	15088.39
597.104	15035.96
597.463	15049.07
597.822	15119.12
598.18	15037.54
598.538	15068.5
598.897	15205.9
599.255	15047.94
599.613	15287.93
599.972	15121.83
600.33	15166.35
600.688	15207.71
601.046	15151.66
601.404	15283.86
601.762	15217.65
602.12	15303.98
602.478	15287.71
602.836	15290.64
603.194	15210.65
603.552	15209.97
603.91	15209.06
604.268	15174.94
604.625	15316.41
604.983	15315.5
605.341	15220.81
605.698	15392.79
606.056	15374.93
606.413	15339.46
606.771	15331.32
607.128	15342.17
607.485	15375.84
607.843	15348.95
608.2	15461.49
608.557	15436.85
608.914	15513.91
609.272	15543.29
609.629	15558.21
609.986	15527.93
610.343	15523.18
610.7	15584.19
611.057	15566.57
611.414	15571.31
611.771	15661.93
612.127	15683.85
612.484	15597.75
612.841	15727.47
613.198	15654.25
613.554	15649.96
613.911	15735.15
614.267	15767.24
614.624	15715.49
614.98	15759.11
615.337	15806.56
615.693	15829.39
616.05	15740.35
616.406	15847.01
616.762	15854.7
617.118	15861.02
617.475	15760.46
617.831	15829.84
618.187	15877.07
618.543	15914.13
618.899	15942.6
619.255	15985.99
619.611	15915.71
619.967	15985.99
620.323	16045.2
620.678	15948.25
621.034	15882.49
621.39	15949.38
621.746	15934.69
622.101	16116.38
622.457	16004.75
622.812	16002.94
623.168	16002.04
623.523	16056.27
623.879	15996.84
624.234	15969.72
624.589	16034.13
624.945	15995.71
625.3	16013.56
625.655	16089.72
626.01	16045.2
626.365	15992.55
626.72	16057.85
627.075	16021.02
627.43	15938.99
627.785	15966.78
628.14	16014.69
628.495	16065.76
628.85	15985.31
629.205	16001.58
629.559	15969.95
629.914	15980.12
630.269	16087.23
630.623	15907.12
630.978	15940.12
631.332	15944.19
631.687	15990.96
632.041	15865.32
632.396	15956.84
632.75	15950.29
633.104	15911.64
633.459	15796.39
633.813	15878.42
634.167	15783.96
634.521	15794.36
634.875	15741.93
635.229	15736.96
635.583	15604.08
635.937	15664.87
636.291	15731.54
636.645	15691.54
636.999	15669.84
637.352	15684.31
637.706	15613.12
638.06	15604.53
638.413	15571.31
638.767	15488.83
639.121	15550.3
639.474	15539.9
639.828	15534.93
640.181	15526.57
640.534	15541.94
640.888	15504.2
641.241	15331.32
641.594	15352.56
641.947	15440.92
642.301	15316.18
642.654	15386.01
643.007	15372.9
643.36	15389.17
643.713	15327.48
644.066	15455.61
644.419	15252
644.771	15153.25
645.124	15015.62
645.477	14999.8
645.83	14888.17
646.182	14830.54
646.535	14775.4
646.888	14853.14
647.24	14679.81
647.593	14738.34
647.945	14709.64
648.298	14675.74
648.65	14694.95
649.002	14663.32
649.355	14717.1
649.707	14706.25
650.059	14750.77
650.411	14821.95
650.763	14846.59
651.115	15030.54
651.467	15012.91
651.819	14940.37
652.171	14936.98
652.523	14910.77
652.875	14901.73
653.227	14880.26
653.578	14999.35
653.93	14955.51
654.282	14917.09
654.633	14815.85
654.985	14983.08
655.337	14833.71
655.688	14827.6
656.039	14894.27
656.391	14770.88
656.742	14804.55
657.094	14766.59
657.445	14841.39
657.796	14785.57
658.147	14676.87
658.498	14748.96
658.849	14740.15
659.2	14725.01
659.551	14750.77
659.902	14698.12
660.253	14678.23
660.604	14791.9
660.955	14616.08
661.306	14718
661.656	14592.81
662.007	14650.43
662.358	14664.67
662.708	14638
663.059	14616.54
663.409	14523.21
663.76	14603.43
664.11	14642.52
664.461	14597.78
664.811	14523.43
665.161	14564.33
665.511	14544.45
665.862	14616.99
666.212	14622.86
666.562	14597.1
666.912	14612.02
667.262	14572.92
667.612	14585.58
667.962	14607.05
668.312	14560.72
668.662	14553.71
669.011	14590.55
669.361	14522.98
669.711	14450.89
670.06	14512.36
670.41	14415.64
670.76	14469.42
671.109	14551.23
671.459	14520.27
671.808	14452.93
672.157	14438.24
672.507	14348.3
672.856	14428.29
673.205	14482.53
673.554	14451.34
673.904	14353.49
674.253	14497.67
674.602	14418.8
674.951	14162.31
675.3	14114.4
675.649	14387.62
675.998	14343.78
676.346	14360.27
676.695	14381.97
677.044	14249.99
677.393	14372.93
677.741	14314.85
678.09	14209.77
678.438	14255.19
678.787	14290.44
679.135	14359.37
679.484	14172.25
679.832	14265.13
680.181	14201.63
680.529	14200.73
680.877	14158.92
681.225	14051.81
681.573	14199.37
681.922	14090.45
682.27	13990.34
682.618	14060.39
682.966	14042.77
683.314	14071.24
683.661	14015.87
684.009	13920.74
684.357	13906.95
684.705	13912.37
685.053	13828.99
685.4	13927.74
685.748	13788.76
686.095	13802.09
686.443	13784.69
686.79	13747.18
687.138	13799.38
687.485	13777.46
687.832	13675.77
688.18	13673.96
688.527	13668.09
688.874	13721.64
689.221	13613.4
689.568	13565.26
689.915	13588.99
690.262	13515.1
690.609	13510.12
690.956	13433.97
691.303	13452.27
691.65	13327.3
691.997	13340.19
692.344	13271.71
692.69	13164.15
693.037	13235.56
693.383	13109.68
693.73	13134.54
694.077	13092.51
694.423	13088.67
694.769	13145.61
695.116	13023.58
695.462	13042.11
695.808	12920.31
696.155	13012.74
696.501	12895
696.847	12931.84
697.193	12800.09
697.539	12798.28
697.885	12718.73
698.231	12739.3
698.577	12641.22
698.923	12677.38
699.269	12609.36
699.614	12549.25
699.96	12471.06
700.306	12556.25
700.651	12449.81
700.997	12446.2
701.342	12417.27
701.688	12461.11
702.033	12303.83
702.379	12391.06
702.724	12296.15
703.069	12254.34
703.415	12220.22
703.76	12213.66
704.105	12136.6
704.45	12177.73
704.795	12066.1
705.14	12073.1
705.485	11952.65
705.83	11992.42
706.175	12052.99
706.52	11938.19
706.865	11905.2
707.209	11930.05
707.554	11827.01
707.899	11873.11
708.243	11904.97
708.588	11790.17
708.932	11705.88
709.277	11755.82
709.621	11726.9
709.966	11647.35
710.31	11711.08
710.654	11611.87
710.998	11667.69
711.342	11604.19
711.687	11568.48
712.031	11569.16
712.375	11509.27
712.719	11531.87
713.063	11416.39
713.407	11544.3
713.75	11429.28
714.094	11482.38
714.438	11435.83
714.782	11429.5
715.125	11338.2
715.469	11339.11
715.812	11303.63
716.156	11204.65
716.499	11246.91
716.843	11317.41
717.186	11210.3
717.53	11229.96
717.873	11289.39
718.216	11249.39
718.559	11119.45
718.902	11147.25
719.246	11106.35
719.589	11133.92
719.932	11020.47
720.275	11102.28
720.617	11053.01
720.96	11046.46
721.303	10958.55
721.646	11019.57
721.989	10930.08
722.331	10948.84
722.674	10924.2
723.016	10921.04
723.359	10922.17
723.701	10948.38
724.044	10860.03
724.386	10852.57
724.729	10876.07
725.071	10780.25
725.413	10813.02
725.755	10826.35
726.097	10689.41
726.439	10711.55
726.782	10670.43
727.124	10722.18
727.465	10609.86
727.807	10599.24
728.149	10653.02
728.491	10620.71
728.833	10570.32
729.175	10593.82
729.516	10599.47
729.858	10486.02
730.199	10526.47
730.541	10544.1
730.882	10510.66
731.224	10444.44
731.565	10492.13
731.906	10436.99
732.248	10464.56
732.589	10390.66
732.93	10382.07
733.271	10293.26
733.612	10398.57
733.953	10365.35
734.294	10352.47
734.635	10296.65
734.976	10284.22
735.317	10239.25
735.658	10281.06
735.999	10253.49
736.339	10277.44
736.68	10325.8
737.021	10225.01
737.361	10213.94
737.702	10265.69
738.042	10188.18
738.383	10206.26
738.723	10211.68
739.063	10124.68
739.404	10130.55
739.744	10130.78
740.084	10063.44
740.424	10134.85
740.764	10063.21
741.104	10058.92
741.444	9997.67
741.784	9985.02
742.124	10013.72
742.464	10027.28
742.804	9888.98
743.143	9916.55
743.483	9886.94
743.823	9905.7
744.162	9870.22
744.502	9872.03
744.841	9875.87
745.181	9886.04
745.52	9921.97
745.86	9900.05
746.199	9761.97
746.538	9816.66
746.877	9806.27
747.216	9774.86
747.556	9740.73
747.895	9732.6
748.234	9756.55
748.573	9608.08
748.911	9697.8
749.25	9632.49
749.589	9533.05
749.928	9647.18
750.267	9634.07
750.605	9641.07
750.944	9571.25
751.283	9515.43
751.621	9599.27
751.96	9505.03
752.298	9504.58
752.636	9544.35
752.975	9473.62
753.313	9469.55
753.651	9431.59
753.989	9364.47
754.327	9354.3
754.666	9382.32
755.004	9353.62
755.342	9356.34
755.679	9316.34
756.017	9229.56
756.355	9399.72
756.693	9295.55
757.031	9283.12
757.368	9280.86
757.706	9164.02
758.044	9146.62
758.381	9146.17
758.719	9117.92
759.056	9088.09
759.394	9095.33
759.731	9017.81
760.068	9004.03
760.405	8965.16
760.743	8962.9
761.08	8918.61
761.417	8910.92
761.754	8877.25
762.091	8831.6
762.428	8840.64
762.765	8827.76
763.102	8780.53
763.438	8792.06
763.775	8714.09
764.112	8773.75
764.449	8790.7
764.785	8669.35
765.122	8639.97
765.458	8606.53
765.795	8564.94
766.131	8514.78
766.467	8543.02
766.804	8562.01
767.14	8447.21
767.476	8450.15
767.812	8450.15
768.148	8410.15
768.485	8407.21
768.821	8375.57
769.157	8308.91
769.492	8316.59
769.828	8338.28
770.164	8226.2
770.5	8272.52
770.836	8244.73
771.171	8110.04
771.507	8112.07
771.842	8100.78
772.178	8085.86
772.513	8085.86
772.849	8046.77
773.184	8027.56
773.519	8032.08
773.855	7915.24
774.19	7910.72
774.525	7898.07
774.86	7889.48
775.195	7858.75
775.53	7808.35
775.865	7787.11
776.2	7702.59
776.535	7684.97
776.87	7685.19
777.205	7658.98
777.539	7599.55
777.874	7669.83
778.209	7629.83
778.543	7532.66
778.878	7450.4
779.212	7455.14
779.547	7492.2
779.881	7487.46
780.215	7430.28
780.55	7397.97
780.884	7374.92
781.218	7373.11
781.552	7400.91
781.886	7279.78
782.22	7286.33
782.554	7210.86
782.888	7200.69
783.222	7210.63
783.556	7125.66
783.889	7133.57
784.223	6972.44
784.557	7083.63
784.89	7091.08
785.224	7070.75
785.557	7014.02
785.891	7035.94
786.224	6998.21
786.558	6925.89
786.891	6901.49
787.224	6897.64
787.557	6893.58
787.891	6863.97
788.224	6836.18
788.557	6826.01
788.89	6826.91
789.223	6778.1
789.556	6767.48
789.888	6689.97
790.221	6720.47
790.554	6708.5
790.887	6656.52
791.219	6629.4
791.552	6595.73
791.884	6554.6
792.217	6584.88
792.549	6541.27
792.882	6514.38
793.214	6519.35
793.546	6541.72
793.879	6439.8
794.211	6423.31
794.543	6393.02
794.875	6397.09
795.207	6440.71
795.539	6341.27
795.871	6299.47
796.203	6321.84
796.535	6288.17
796.867	6282.29
797.198	6304.66
797.53	6236.64
797.862	6228.96
798.193	6262.18
798.525	6218.57
798.856	6182.41
799.188	6143.09
799.519	6117.33
799.85	6141.73
800.182	6109.42
800.513	6113.03
800.844	6083.2
801.175	6045.69
801.506	6015.63
801.837	6006.82
802.168	5960.04
802.499	5992.58
802.83	5933.83
803.161	5968.85
803.491	5948.97
803.822	5932.02
804.153	5903.77
804.483	5794.85
804.814	5844.11
805.145	5810.67
805.475	5803.89
805.805	5785.36
806.136	5732.48
806.466	5804.56
806.796	5812.93
807.126	5734.74
807.457	5733.15
807.787	5722.31
808.117	5729.54
808.447	5685.92
808.777	5694.29
809.107	5641.63
809.436	5646.83
809.766	5624.91
810.096	5626.04
810.426	5602.08
810.755	5604.8
811.085	5593.27
811.414	5569.32
811.744	5483.44
812.073	5468.3
812.403	5529.54
812.732	5525.02
813.061	5477.57
813.39	5490.67
813.719	5504.46
814.049	5458.59
814.378	5443.22
814.707	5447.74
815.036	5432.15
815.365	5458.36
815.693	5330.45
816.022	5332.49
816.351	5400.51
816.68	5340.4
817.008	5363.45
817.337	5315.99
817.665	5297.69
817.994	5289.78
818.322	5285.71
818.651	5304.69
818.979	5279.38
819.307	5258.59
819.636	5276.44
819.964	5187.86
820.292	5283.45
820.62	5222.66
820.948	5183.56
821.276	5228.08
821.604	5221.76
821.932	5215.2
822.259	5228.76
822.587	5143.34
822.915	5171.81
823.243	5223.79
823.57	5180.17
823.898	5244.81
824.225	5198.93
824.553	5160.74
824.88	5201.64
825.207	5190.12
825.535	5139.95
825.862	5170.91
826.189	5124.58
826.516	5197.35
826.843	5147.86
827.17	5172.72
827.497	5150.8
827.824	5142.21
828.151	5158.25
828.478	5211.59
828.805	5187.41
829.131	5129.55
829.458	5152.38
829.785	5126.16
830.111	5163.45
830.438	5148.54
830.764	5150.57
831.09	5138.82
831.417	5109.22
831.743	5175.2
832.069	5183.11
832.395	5174.07
832.722	5129.1
833.048	5139.05
833.374	5149.44
833.7	5079.39
834.026	5115.54
834.351	5133.85
834.677	5093.4
835.003	5119.39
835.329	5145.83
835.654	5109.44
835.98	5139.5
836.306	5089.1
836.631	5083.91
836.956	5074.64
837.282	5111.48
837.607	5087.75
837.932	5073.51
838.258	5015.43
838.583	5034.19
838.908	5066.05
839.233	5057.69
839.558	4993.29
839.883	5003.46
840.208	5001.42
840.533	4978.37
840.858	4960.97
841.182	5002.1
841.507	4990.57
841.832	4962.33
842.156	4946.28
842.481	4943.57
842.805	4921.88
843.13	4908.32
843.454	4922.78
843.778	4895.66
844.103	4849.56
844.427	4905.15
844.751	4880.3
845.075	4867.19
845.399	4840.07
845.723	4871.26
846.047	4780.41
846.371	4787.64
846.695	4797.59
847.019	4744.25
847.343	4707.64
847.666	4730.02
847.99	4679.85
848.313	4702.22
848.637	4593.52
848.96	4627.87
849.284	4587.42
849.607	4607.08
849.931	4590.59
850.254	4590.36
850.577	4522.11
850.9	4502.23
851.223	4512.17
851.546	4538.84
851.869	4457.03
852.192	4454.32
852.515	4424.94
852.838	4449.35
853.161	4413.19
853.483	4409.57
853.806	4379.74
854.129	4353.08
854.451	4377.03
854.774	4341.55
855.096	4380.42
855.419	4315.56
855.741	4297.03
856.063	4306.98
856.385	4310.59
856.708	4327.77
857.03	4267.43
857.352	4264.27
857.674	4238.28
857.996	4222.69
858.318	4226.53
858.64	4207.54
858.961	4208.9
859.283	4197.6
859.605	4154.21
859.926	4156.92
860.248	4146.53
860.57	4120.32
860.891	4151.95
861.212	4173.2
861.534	4099.07
861.855	4143.14
862.176	4155.79
862.498	4108.56
862.819	4104.72
863.14	4075.8
863.461	4062.01
863.782	4048.9
864.103	4089.36
864.424	4068.57
864.745	4053.42
865.065	4069.24
865.386	4039.19
865.707	4062.46
866.027	4079.86
866.348	4015.91
866.668	3976.59
866.989	3984.27
867.309	4021.33
867.63	4011.39
867.95	4022.69
868.27	3995.57
868.59	4003.26
868.91	3961.9
869.23	3970.49
869.55	3974.78
869.87	3966.65
870.19	3985.18
870.51	3958.96
870.83	3981.34
871.15	3906.99
871.469	3978.62
871.789	3925.52
872.109	3896.37
872.428	3921.9
872.748	3902.02
873.067	3917.16
873.386	3939.3
873.706	3883.49
874.025	3855.24
874.344	3815.24
874.663	3832.41
874.982	3877.16
875.301	3833.77
875.62	3825.63
875.939	3815.46
876.258	3814.56
876.577	3816.14
876.896	3816.82
877.214	3812.3
877.533	3811.17
877.852	3774.34
878.17	3824.73
878.489	3829.48
878.807	3813.2
879.125	3799.65
879.444	3763.49
879.762	3788.57
880.08	3761
880.398	3736.82
880.716	3726.65
881.034	3740.66
881.352	3706.09
881.67	3707.67
881.988	3709.7
882.306	3697.73
882.624	3723.94
882.941	3677.16
883.259	3668.12
883.577	3664.28
883.894	3642.14
884.212	3679.2
884.529	3644.4
884.846	3663.38
885.164	3659.08
885.481	3647.79
885.798	3636.71
886.115	3625.19
886.432	3582.48
886.75	3609.82
887.067	3595.36
887.383	3591.06
887.7	3608.69
888.017	3575.7
888.334	3558.52
888.651	3559.88
888.967	3527.11
889.284	3513.55
889.6	3512.87
889.917	3587
890.233	3513.1
890.55	3457.73
890.866	3497.28
891.182	3484.17
891.498	3456.83
891.815	3472.2
892.131	3457.06
892.447	3432.65
892.763	3450.95
893.079	3412.99
893.395	3425.87
893.71	3387.45
894.026	3380.45
894.342	3365.08
894.657	3374.8
894.973	3386.1
895.289	3363.27
895.604	3370.96
895.92	3335.93
896.235	3349.04
896.55	3354.69
896.865	3316.49
897.181	3295.93
897.496	3287.79
897.811	3323.27
898.126	3290.51
898.441	3252.54
898.756	3302.48
899.071	3250.28
899.386	3241.02
899.7	3220.9
900.015	3214.35
900.33	3165.31
900.644	3202.15
900.959	3212.77
901.273	3178.19
901.588	3162.6
901.902	3166.89
902.216	3149.04
902.531	3147.01
902.845	3121.92
903.159	3097.29
903.473	3097.07
903.787	3120.57
904.101	3038.54
904.415	3084.41
904.729	3088.03
905.042	3070.4
905.356	3039.21
905.67	3067.24
905.984	3030.17
906.297	3013.68
906.611	3017.29
906.924	3000.12
907.237	2973.9
907.551	2996.5
907.864	2984.75
908.177	2946.79
908.491	2912.44
908.804	2952.21
909.117	2928.26
909.43	2917.41
909.743	2887.13
910.056	2896.62
910.368	2854.13
910.681	2857.07
910.994	2828.15
911.307	2835.38
911.619	2834.93
911.932	2848.71
912.244	2785.66
912.557	2812.78
912.869	2777.07
913.181	2742.05
913.494	2764.19
913.806	2748.37
914.118	2741.37
914.43	2701.14
914.742	2739.11
915.054	2709.73
915.366	2714.7
915.678	2705.21
915.99	2677.64
916.302	2657.3
916.613	2644.2
916.925	2710.18
917.236	2664.99
917.548	2665.21
917.859	2632.22
918.171	2637.64
918.482	2627.02
918.794	2585.21
919.105	2587.25
919.416	2589.51
919.727	2586.12
920.038	2545.44
920.349	2557.19
920.66	2536.85
920.971	2548.15
921.282	2532.33
921.593	2514.26
921.903	2516.74
922.214	2528.04
922.525	2504.99
922.835	2424.54
923.146	2452.56
923.456	2455.27
923.767	2447.59
924.077	2411.43
924.387	2432.45
924.697	2446.01
925.008	2413.02
925.318	2401.72
925.628	2393.36
925.938	2375.5
926.248	2350.87
926.558	2365.79
926.867	2366.92
927.177	2347.93
927.487	2316.52
927.796	2341.38
928.106	2348.16
928.416	2309.74
928.725	2322.62
929.034	2299.12
929.344	2286.47
929.653	2302.96
929.962	2283.98
930.271	2248.73
930.581	2243.75
930.89	2227.94
931.199	2235.39
931.508	2226.35
931.817	2204.21
932.125	2236.07
932.434	2233.13
932.743	2194.94
933.051	2195.17
933.36	2171.89
933.669	2163.3
933.977	2134.6
934.286	2155.17
934.594	2143.64
934.902	2124.21
935.21	2124.89
935.519	2123.31
935.827	2147.71
936.135	2128.73
936.443	2109.29
936.751	2108.84
937.059	2084.44
937.367	2071.1
937.674	2071.1
937.982	2057.77
938.29	2030.2
938.597	2069.52
938.905	2033.36
939.213	2061.16
939.52	2022.52
939.827	2026.13
940.135	2016.19
940.442	1987.94
940.749	1993.82
941.056	2007.83
941.363	2008.51
941.67	1964.44
941.977	1958.56
942.284	1936.87
942.591	1945.46
942.898	1965.57
943.205	1962.63
943.511	1957.21
943.818	1925.57
944.125	1921.28
944.431	1892.35
944.738	1900.26
945.044	1933.03
945.35	1888.28
945.657	1895.74
945.963	1851.67
946.269	1869.53
946.575	1860.94
946.881	1861.62
947.187	1838.57
947.493	1815.07
947.799	1824.1
948.105	1812.35
948.41	1817.55
948.716	1811.22
949.022	1799.7
949.327	1813.03
949.633	1814.16
949.938	1767.38
950.244	1795.86
950.549	1745.01
950.854	1776.2
951.16	1761.28
951.465	1738.91
951.77	1733.94
952.075	1715.86
952.38	1711.34
952.685	1749.3
952.99	1705.69
953.294	1700.49
953.599	1703.2
953.904	1702.07
954.209	1632.02
954.513	1650.32
954.818	1656.2
955.122	1670.44
955.426	1660.49
955.731	1638.12
956.035	1662.53
956.339	1633.38
956.643	1647.84
956.948	1613.26
957.252	1627.27
957.556	1640.15
957.86	1609.42
958.163	1622.98
958.467	1619.36
958.771	1595.86
959.075	1587.5
959.378	1604.68
959.682	1603.09
959.985	1592.02
960.289	1566.26
960.592	1585.24
960.896	1582.3
961.199	1551.8
961.502	1538.91
961.805	1555.41
962.108	1550.67
962.411	1546.37
962.714	1547.95
963.017	1527.39
963.32	1505.02
963.623	1531.91
963.926	1523.55
964.228	1493.49
964.531	1491.01
964.833	1501.85
965.136	1474.06
965.438	1481.29
965.741	1448.97
966.043	1473.38
966.345	1474.06
966.648	1453.27
966.95	1422.99
967.252	1417.34
967.554	1432.25
967.856	1446.49
968.158	1419.6
968.46	1401.52
968.761	1413.72
969.063	1435.41
969.365	1379.37
969.666	1393.83
969.968	1394.74
970.269	1413.27
970.571	1427.28
970.872	1403.32
971.174	1369.88
971.475	1380.5
971.776	1366.04
972.077	1354.06
972.378	1380.05
972.679	1350.44
972.98	1342.99
973.281	1365.36
973.582	1344.12
973.883	1355.42
974.183	1349.99
974.484	1353.83
974.785	1309.09
975.085	1330.78
975.386	1314.29
975.686	1304.12
975.986	1306.38
976.287	1300.95
976.587	1279.26
976.887	1280.16
977.187	1291.46
977.487	1272.93
977.787	1293.27
978.087	1270.45
978.387	1259.15
978.687	1242.65
978.987	1272.03
979.286	1258.24
979.586	1248.3
979.885	1229.32
980.185	1233.61
980.484	1238.36
980.784	1199.71
981.083	1240.17
981.382	1200.39
981.682	1214.86
981.981	1226.15
982.28	1173.95
982.579	1199.71
982.878	1213.95
983.177	1192.93
983.475	1178.47
983.774	1168.53
984.073	1165.82
984.372	1178.92
984.67	1178.7
984.969	1176.89
985.267	1159.94
985.566	1156.1
985.864	1173.95
986.162	1139.83
986.461	1152.94
986.759	1140.73
987.057	1135.08
987.355	1123.56
987.653	1126.27
987.951	1098.93
988.249	1171.47
988.547	1115.65
988.844	1114.07
989.142	1100.96
989.44	1080.4
989.737	1102.54
990.035	1076.78
990.332	1081.07
990.63	1083.56
990.927	1068.19
991.224	1083.33
991.521	1063.9
991.819	1070
992.116	1058.7
992.413	1059.38
992.71	1058.93
993.006	1060.06
993.303	1051.24
993.6	1035.88
993.897	1051.47
994.193	1060.96
994.49	1038.36
994.787	1017.57
995.083	1024.58
995.379	1030
995.676	1023.45
995.972	1011.24
996.268	1024.13
996.565	994.3
996.861	1010.11
997.157	1009.89
997.453	999.95
997.749	975.99
998.044	986.16
998.34	976.44
998.636	984.8
998.932	986.39
999.227	950.91
999.523	961.08
999.818	976.44
1000.114	946.16
1000.409	939.83
1000.704	959.95
1001	958.14
1001.295	968.76
1001.59	936.44
1001.885	922.89
1002.18	936.67
1002.475	946.39
1002.77	940.74
1003.065	920.63
1003.359	930.12
1003.654	933.73
1003.949	913.39
1004.243	926.95
1004.538	920.63
1004.832	911.36
1005.127	894.41
1005.421	923.34
1005.715	880.85
1006.009	877.69
1006.304	889.67
1006.598	892.15
1006.892	887.86
1007.186	884.02
1007.48	868.65
1007.773	884.24
1008.067	871.59
1008.361	825.94
1008.655	877.46
1008.948	844.92
1009.242	846.5
1009.535	832.04
1009.829	852.6
1010.122	824.36
1010.415	830.01
1010.708	820.52
1011.001	862.55
1011.295	823
1011.588	822.32
1011.881	822.32
1012.173	818.93
1012.466	807.86
1012.759	837.46
1013.052	810.12
1013.344	799.95
1013.637	772.83
1013.93	767.64
1014.222	780.29
1014.514	807.63
1014.807	780.06
1015.099	765.38
1015.391	794.75
1015.683	774.19
1015.976	760.63
1016.268	779.39
1016.56	762.21
1016.851	752.04
1017.143	743.23
1017.435	743.91
1017.727	746.62
1018.018	748.65
1018.31	731.48
1018.602	752.27
1018.893	722.89
1019.185	723.57
1019.476	753.85
1019.767	726.28
1020.058	723.34
1020.35	713.4
1020.641	718.14
1020.932	712.04
1021.223	732.61
1021.514	713.4
1021.804	677.47
1022.095	707.98
1022.386	684.7
1022.677	674.08
1022.967	681.54
1023.258	686.28
1023.548	681.76
1023.839	672.5
1024.129	675.89
1024.419	666.39
1024.709	662.1
1025	664.36
1025.29	654.19
1025.58	651.25
1025.87	623.68
1026.16	633.63
1026.449	628.2
1026.739	650.35
1027.029	672.27
1027.319	634.76
1027.608	633.18
1027.898	628.2
1028.187	642.67
1028.477	637.24
1028.766	632.27
1029.055	640.86
1029.344	613.74
1029.634	621.88
1029.923	617.13
1030.212	598.15
1030.501	625.72
1030.79	608.54
1031.078	616.23
1031.367	594.76
1031.656	607.64
1031.945	593.63
1032.233	591.82
1032.522	585.27
1032.81	598.15
1033.099	590.92
1033.387	592.05
1033.675	570.35
1033.963	586.85
1034.251	569
1034.54	563.57
1034.828	577.36
1035.116	565.61
1035.403	577.36
1035.691	567.87
1035.979	566.51
1036.267	554.53
1036.554	546.4
1036.842	551.82
1037.129	574.65
1037.417	533.07
1037.704	562.22
1037.992	558.38
1038.279	558.38
1038.566	537.81
1038.853	537.81
1039.14	537.81
