Data from black_metal_pc_casing_FLMS001491_00085.txt Node
Date: Wed Feb 08 14:33:38 GMT 2017
User: dcchb
Spectrometer: FLMS00149
Trigger mode: 0
Integration Time (sec): 2.000000E-2
Scans to average: 10
Electric dark correction enabled: true
Nonlinearity correction enabled: false
Boxcar width: 0
XAxis mode: Wavelengths
Number of Pixels in Spectrum: 2048
>>>>>Begin Spectral Data<<<<<
341.393	-6.23
341.776	-6.23
342.16	-6.23
342.543	-53.01
342.927	-67.7
343.31	-69.05
343.693	-58.88
344.077	-44.87
344.46	-69.28
344.843	-48.49
345.226	-42.84
345.61	-36.51
345.993	-16.62
346.376	-13.91
346.759	16.6
347.142	31.51
347.525	43.71
347.908	52.07
348.291	63.6
348.674	87.33
349.057	105.63
349.44	125.07
349.823	137.04
350.206	185.18
350.588	172.98
350.971	218.17
351.354	219.98
351.737	233.54
352.119	229.7
352.502	275.57
352.884	253.88
353.267	283.93
353.65	294.1
354.032	293.65
354.414	312.18
354.797	316.02
355.179	307.21
355.562	309.47
355.944	310.83
356.326	333.88
356.709	326.87
357.091	315.34
357.473	322.58
357.855	326.87
358.238	312.41
358.62	319.19
359.002	312.41
359.384	331.62
359.766	329.58
360.148	348.56
360.53	310.83
360.912	305.18
361.294	322.8
361.676	336.36
362.057	334.55
362.439	341.78
362.821	318.96
363.203	332.07
363.584	335.01
363.966	324.16
364.348	318.06
364.729	299.75
365.111	316.7
365.493	315.57
365.874	304.72
366.256	305.63
366.637	313.54
367.019	319.41
367.4	313.31
367.781	310.83
368.163	330.03
368.544	312.86
368.925	311.5
369.306	320.54
369.688	314.67
370.069	309.47
370.45	304.27
370.831	310.6
371.212	310.83
371.593	333.88
371.974	331.39
372.355	315.34
372.736	329.13
373.117	343.14
373.498	304.95
373.879	318.51
374.26	312.41
374.641	309.92
375.021	324.38
375.402	315.8
375.783	321.9
376.163	346.3
376.544	343.37
376.925	330.49
377.305	321.67
377.686	325.06
378.066	320.99
378.447	324.38
378.827	346.3
379.208	330.03
379.588	322.8
379.968	348.34
380.349	340.88
380.729	356.25
381.109	342.46
381.489	347.66
381.87	337.27
382.25	360.09
382.63	371.16
383.01	338.62
383.39	359.41
383.77	357.83
384.15	361.45
384.53	360.99
384.91	352.63
385.29	373.87
385.67	374.55
386.049	367.32
386.429	374.33
386.809	359.86
387.189	373.42
387.568	384.27
387.948	374.55
388.328	389.02
388.707	389.24
389.087	395.57
389.466	376.59
389.846	402.35
390.225	387.43
390.605	360.77
390.984	411.84
391.363	396.92
391.743	397.15
392.122	395.34
392.501	406.64
392.881	402.12
393.26	430.6
393.639	426.53
394.018	416.81
394.397	424.27
394.776	425.85
395.155	407.09
395.534	440.99
395.913	427.21
396.292	422.46
396.671	412.52
397.05	432.63
397.429	440.54
397.808	441.44
398.186	444.38
398.565	424.95
398.944	439.86
399.323	433.99
399.701	449.35
400.08	443.25
400.458	452.74
400.837	467.66
401.215	458.39
401.594	457.94
401.972	468.79
402.351	470.82
402.729	442.57
403.107	462.69
403.486	465.4
403.864	471.5
404.242	460.65
404.62	485.51
404.999	471.05
405.377	487.32
405.755	500.88
406.133	505.4
406.511	490.93
406.889	527.32
407.267	525.51
407.645	518.05
408.023	517.6
408.401	530.93
408.779	510.59
409.156	512.85
409.534	504.27
409.912	516.47
410.29	533.19
410.667	535.9
411.045	552.4
411.422	539.07
411.8	559.18
412.178	554.66
412.555	556.69
412.933	586.07
413.31	560.99
413.687	574.55
414.065	578.61
414.442	577.26
414.819	599.41
415.197	612.74
415.574	606.41
415.951	601.21
416.328	595.56
416.705	615.68
417.082	622.23
417.46	615.9
417.837	619.29
418.214	626.98
418.591	640.08
418.967	638.27
419.344	642.12
419.721	659.06
420.098	657.03
420.475	673.53
420.852	640.53
421.228	658.84
421.605	664.49
421.982	690.93
422.358	663.36
422.735	683.92
423.111	695.67
423.488	699.97
423.864	716.24
424.241	695.22
424.617	720.98
424.994	685.96
425.37	718.05
425.746	726.86
426.123	740.87
426.499	721.21
426.875	735.22
427.251	739.97
427.627	772.73
428.003	763.47
428.379	789
428.756	783.13
429.132	790.59
429.507	797.82
429.883	808.67
430.259	826.97
430.635	812.28
431.011	810.02
431.387	847.31
431.763	833.98
432.138	828.78
432.514	849.79
432.89	860.87
433.265	865.61
433.641	868.1
434.016	878.27
434.392	932.28
434.767	920.75
435.143	901.54
435.518	943.35
435.894	932.05
436.269	939.51
436.644	972.05
437.02	965.95
437.395	968.66
437.77	970.24
438.145	993.29
438.52	996
438.895	991.26
439.271	1003.01
439.646	1014.76
440.021	1038.72
440.395	1035.78
440.77	1011.82
441.145	1022.22
441.52	1048.43
441.895	1034.87
442.27	1069.68
442.645	1075.55
443.019	1094.99
443.394	1068.32
443.769	1082.33
444.143	1101.54
444.518	1101.54
444.892	1104.93
445.267	1092.5
445.641	1120.3
446.016	1106.51
446.39	1128.88
446.764	1138.37
447.139	1135.66
447.513	1156
447.887	1167.3
448.262	1161.2
448.636	1144.7
449.01	1182.21
449.384	1188.54
449.758	1184.25
450.132	1180.18
450.506	1195.1
450.88	1199.62
451.254	1245.72
451.628	1205.94
452.002	1226.28
452.376	1241.42
452.75	1237.35
453.123	1280.07
453.497	1271.48
453.871	1289.33
454.244	1282.1
454.618	1333.62
454.992	1323.91
455.365	1345.37
455.739	1355.54
456.112	1375.43
456.486	1376.11
456.859	1399.38
457.232	1441.42
457.606	1433.51
457.979	1432.15
458.352	1423.11
458.725	1483.22
459.099	1489.33
459.472	1508.76
459.845	1520.51
460.218	1551.7
460.591	1550.57
460.964	1559.15
461.337	1580.17
461.71	1592.15
462.083	1616.33
462.456	1639.6
462.829	1628.76
463.201	1657.68
463.574	1661.98
463.947	1671.24
464.32	1710.79
464.692	1746.95
465.065	1753.27
465.438	1777.23
465.81	1807.51
466.183	1835.3
466.555	1834.85
466.928	1835.53
467.3	1824.01
467.672	1886.38
468.045	1932.48
468.417	1926.38
468.789	1918.92
469.161	1937.45
469.534	1955.3
469.906	2014.51
470.278	2061.29
470.65	2066.71
471.022	2066.49
471.394	2107.84
471.766	2129.08
472.138	2162.75
472.51	2224.45
472.882	2236.42
473.253	2278.68
473.625	2279.81
473.997	2324.56
474.369	2365.01
474.74	2379.47
475.112	2419.47
475.484	2427.61
475.855	2519.35
476.227	2485.23
476.598	2549.41
476.97	2598.45
477.341	2628.28
477.713	2675.73
478.084	2690.42
478.455	2755.73
478.827	2769.52
479.198	2856.52
479.569	2853.36
479.94	2886.8
480.311	2923.41
480.682	3019.68
481.053	3057.42
481.424	3101.26
481.795	3116.18
482.166	3162.05
482.537	3200.47
482.908	3265.78
483.279	3301.71
483.65	3378.32
484.021	3427.13
484.391	3460.57
484.762	3512.1
485.133	3525.43
485.503	3540.12
485.874	3693.79
486.244	3696.95
486.615	3725.2
486.985	3769.72
487.356	3847.91
487.726	3908.7
488.097	3972.2
488.467	3996.38
488.837	4044.29
489.207	4086.55
489.578	4134.45
489.948	4201.8
490.318	4224.85
490.688	4254.22
491.058	4311.4
491.428	4345.3
491.798	4431.39
492.168	4479.08
492.538	4458.96
492.908	4519.75
493.278	4568.34
493.648	4583.03
494.017	4681.56
494.387	4705.74
494.757	4758.62
495.126	4809.92
495.496	4754.78
495.866	4823.02
496.235	4875
496.605	4958.84
496.974	5008.78
497.344	5055.79
497.713	5048.33
498.082	5131.04
498.452	5169.23
498.821	5187.76
499.19	5205.16
499.559	5226.4
499.928	5260.53
500.298	5308.89
500.667	5348.43
501.036	5350.69
501.405	5366.06
501.774	5427.53
502.143	5416.91
502.512	5505.49
502.88	5570.8
503.249	5589.1
503.618	5631.36
503.987	5634.53
504.356	5688.99
504.724	5695.09
505.093	5743.22
505.462	5813.73
505.83	5797.46
506.199	5855.54
506.567	5900.51
506.936	5945.93
507.304	5960.17
507.672	6035.42
508.041	6032.48
508.409	6056.21
508.777	6200.61
509.145	6206.26
509.514	6195.87
509.882	6216.88
510.25	6241.97
510.618	6302.98
510.986	6306.37
511.354	6432.02
511.722	6399.7
512.09	6502.53
512.458	6517.44
512.826	6584.78
513.193	6597.67
513.561	6622.3
513.929	6691.22
514.297	6705.69
514.664	6878.56
515.032	6827.72
515.4	6865.68
515.767	6881.95
516.135	6986.81
516.502	6869.3
516.869	7073.13
517.237	7088.5
517.604	7108.16
517.972	7163.3
518.339	7186.8
518.706	7252.34
519.073	7316.06
519.44	7398.55
519.808	7418.21
520.175	7466.12
520.542	7561.93
520.909	7618.2
521.276	7605.55
521.643	7633.34
522.009	7733.91
522.376	7775.26
522.743	7815.03
523.11	7874.69
523.477	7979.1
523.843	8007.8
524.21	8072.65
524.577	8203.72
524.943	8211.41
525.31	8244.4
525.676	8336.38
526.043	8363.04
526.409	8390.61
526.776	8573.43
527.142	8595.13
527.508	8564.17
527.874	8686.88
528.241	8730.26
528.607	8762.13
528.973	8829.92
529.339	8767.1
529.705	8936.36
530.071	8910.6
530.437	9021.56
530.803	9041.67
531.169	9135.45
531.535	9142.91
531.901	9180.2
532.267	9272.17
532.632	9316.01
532.998	9280.08
533.364	9357.59
533.73	9412.96
534.095	9495.22
534.461	9502.9
534.826	9571.15
535.192	9579.73
535.557	9643.69
535.923	9647.75
536.288	9764.81
536.653	9722.78
537.019	9760.97
537.384	9807.52
537.749	9908.76
538.114	9893.85
538.479	9932.04
538.845	9953.74
539.21	9952.61
539.575	10044.81
539.94	10075.09
540.305	10111.25
540.67	10086.61
541.034	10122.77
541.399	10203.22
541.764	10227.4
542.129	10321.64
542.494	10309.21
542.858	10337
543.223	10411.12
543.587	10461.07
543.952	10441.63
544.316	10450.67
544.681	10474.85
545.045	10616.09
545.41	10600.27
545.774	10703.77
546.138	10664.23
546.503	10755.3
546.867	10686.6
547.231	10854.5
547.595	10874.16
547.959	10815.41
548.324	10897.89
548.688	10903.54
549.052	10892.24
549.416	10960.49
549.779	11023.76
550.143	11039.81
550.507	11156.64
550.871	11177.43
551.235	11183.53
551.599	11215.17
551.962	11327.03
552.326	11396.64
552.689	11374.94
553.053	11301.5
553.417	11392.79
553.78	11518.21
554.143	11477.99
554.507	11511.21
554.87	11602.96
555.234	11739.9
555.597	11656.29
555.96	11739.9
556.323	11764.76
556.686	11824.42
557.05	11872.33
557.413	11952.55
557.776	11948.26
558.139	12054.7
558.502	12089.72
558.865	12101.93
559.228	12187.35
559.59	12138.31
559.953	12245.65
560.316	12381.92
560.679	12359.77
561.041	12462.82
561.404	12531.97
561.767	12593.67
562.129	12531.97
562.492	12779.42
562.854	12592.54
563.217	12691.52
563.579	12722.93
563.941	12839.54
564.304	12901.45
564.666	12946.2
565.028	12993.66
565.39	13028.23
565.753	13108
566.115	13187.32
566.477	13190.49
566.839	13245.4
567.201	13352.74
567.563	13393.87
567.925	13403.14
568.287	13514.09
568.648	13581.21
569.01	13600.42
569.372	13712.73
569.734	13621.21
570.095	13719.51
570.457	13778.04
570.819	13881.99
571.18	13900.3
571.542	13851.03
571.903	13930.81
572.265	14027.07
572.626	14110.46
572.987	14134.87
573.349	14088.54
573.71	14165.6
574.071	14150.91
574.432	14267.75
574.794	14330.12
575.155	14271.81
575.516	14341.87
575.877	14378.48
576.238	14470.23
576.599	14410.34
576.96	14484.01
577.32	14482.66
577.681	14531.02
578.042	14477.68
578.403	14559.04
578.763	14552.94
579.124	14619.38
579.485	14629.54
579.845	14714.74
580.206	14749.77
580.566	14622.99
580.927	14729.43
581.287	14849.88
581.648	14691.24
582.008	14813.49
582.368	14834.29
582.728	14834.51
583.089	14774.17
583.449	14864.34
583.809	14817.79
584.169	14914.96
584.529	14789.09
584.889	14935.98
585.249	14851.01
585.609	14791.12
585.969	14900.5
586.329	14853.04
586.688	14854.62
587.048	14876.32
587.408	14818.69
587.768	14808.75
588.127	14895.75
588.487	14894.4
588.846	14921.06
589.206	14746.6
589.565	14892.36
589.925	14878.35
590.284	14849.65
590.643	14940.27
591.003	15025.69
591.362	14987.05
591.721	15008.07
592.08	14966.26
592.44	14982.53
592.799	15042.19
593.158	15007.84
593.517	14925.58
593.876	15001.51
594.235	14978.91
594.593	14908.41
594.952	15025.92
595.311	14959.71
595.67	15012.81
596.029	15170.77
596.387	15080.61
596.746	15064.79
597.104	15130.1
597.463	15078.8
597.822	15140.72
598.18	15086.26
598.538	14979.59
598.897	15153.6
599.255	14983.66
599.613	15295.52
599.972	15084.22
600.33	15194.28
600.688	15061.62
601.046	15202.41
601.404	15135.97
601.762	15239.47
602.12	15247.61
602.478	15262.52
602.836	15262.97
603.194	15280.83
603.552	15291
603.91	15206.25
604.268	15253.71
604.625	15262.97
604.983	15384.1
605.341	15239.92
605.698	15324.89
606.056	15475.4
606.413	15375.74
606.771	15415.51
607.128	15461.84
607.485	15283.31
607.843	15399.69
608.2	15442.86
608.557	15523.53
608.914	15447.6
609.272	15481.27
609.629	15538.45
609.986	15585.23
610.343	15499.35
610.7	15535.96
611.057	15594.49
611.414	15626.35
611.771	15644.21
612.127	15599.24
612.484	15611.89
612.841	15761.27
613.198	15658.67
613.554	15617.32
613.911	15687.37
614.267	15756.29
614.624	15674.49
614.98	15760.59
615.337	15844.43
615.693	15853.24
616.05	15766.92
616.406	15856.63
616.762	15796.29
617.118	15833.81
617.475	15832
617.831	15876.97
618.187	15877.65
618.543	15971.43
618.899	15926.69
619.255	16014.59
619.611	15936.63
619.967	15981.83
620.323	16021.82
620.678	15922.84
621.034	15938.89
621.39	15976.63
621.746	15921.71
622.101	16096.4
622.457	15936.18
622.812	16074.25
623.168	16068.38
623.523	16047.81
623.879	16030.86
624.234	15996.51
624.589	15994.25
624.945	15977.98
625.3	16061.37
625.655	16096.62
626.01	16064.76
626.365	16088.04
626.72	16048.94
627.075	16094.59
627.43	15980.7
627.785	15963.97
628.14	16021.82
628.495	16120.13
628.85	15994.71
629.205	15867.25
629.559	16078.09
629.914	15987.25
630.269	15979.11
630.623	15910.87
630.978	15934.14
631.332	15916.97
631.687	16053.46
632.041	15926.46
632.396	15959.68
632.75	15882.17
633.104	15881.04
633.459	15881.04
633.813	15790.42
634.167	15769.63
634.521	15787.03
634.875	15757.42
635.229	15701.61
635.583	15722.17
635.937	15663.87
636.291	15746.8
636.645	15711.78
636.999	15607.82
637.352	15741.15
637.706	15652.79
638.06	15677.65
638.413	15620.03
638.767	15543.42
639.121	15536.19
639.474	15500.03
639.828	15547.26
640.181	15540.71
640.534	15595.17
640.888	15457.55
641.241	15352.01
641.594	15424.78
641.947	15482.86
642.301	15361.5
642.654	15421.16
643.007	15452.12
643.36	15360.37
643.713	15329.87
644.066	15363.76
644.419	15282.86
644.771	15176.65
645.124	15025.92
645.477	15010.1
645.83	14825.25
646.182	14815.53
646.535	14759.03
646.888	14837.67
647.24	14812.14
647.593	14784.12
647.945	14809.2
648.298	14717.68
648.65	14746.6
649.002	14647.17
649.355	14746.38
649.707	14682.2
650.059	14740.95
650.411	14895.53
650.763	14899.14
651.115	15081.96
651.467	15049.19
651.819	15054.84
652.171	15053.04
652.523	14842.19
652.875	14900.27
653.227	14875.87
653.578	15033.6
653.93	14944.56
654.282	14868.63
654.633	14861.85
654.985	14829.77
655.337	14905.7
655.688	14804.23
656.039	14862.08
656.391	14794.29
656.742	14700.96
657.094	14772.37
657.445	14818.92
657.796	14834.29
658.147	14776.66
658.498	14624.8
658.849	14741.18
659.2	14720.62
659.551	14710.9
659.902	14766.72
660.253	14657.79
660.604	14740.05
660.955	14594.07
661.306	14703.22
661.656	14640.17
662.007	14669.54
662.358	14714.29
662.708	14679.94
663.059	14589.55
663.409	14515.2
663.76	14680.16
664.11	14606.04
664.461	14610.56
664.811	14610.11
665.161	14574.4
665.511	14573.73
665.862	14647.17
666.212	14593.84
666.562	14641.52
666.912	14551.58
667.262	14539.15
667.612	14527.4
667.962	14609.88
668.312	14603.33
668.662	14572.82
669.011	14571.24
669.361	14469.77
669.711	14478.81
670.06	14377.35
670.41	14450.34
670.76	14406.05
671.109	14510.68
671.459	14425.71
671.808	14470
672.157	14514.07
672.507	14408.76
672.856	14303
673.205	14435.65
673.554	14437.23
673.904	14277.24
674.253	14474.29
674.602	14437.91
674.951	14219.84
675.3	14129.22
675.649	14356.33
675.998	14288.54
676.346	14404.47
676.695	14366.95
677.044	14277.92
677.393	14331.93
677.741	14396.1
678.09	14350
678.438	14302.1
678.787	14249.67
679.135	14263.9
679.484	14209.22
679.832	14242.21
680.181	14123.8
680.529	14112.95
680.877	14126.06
681.225	14090.58
681.573	14114.08
681.922	14028.43
682.27	14109.78
682.618	14074.76
682.966	14050.12
683.314	14020.3
683.661	14001.54
684.009	13899.39
684.357	13860.75
684.705	13903.69
685.053	13865.27
685.4	13901.88
685.748	13774.43
686.095	13881.77
686.443	13729.46
686.79	13788.44
687.138	13784.82
687.485	13774.88
687.832	13664.82
688.18	13734.43
688.527	13674.32
688.874	13588.67
689.221	13563.81
689.568	13509.8
689.915	13476.58
690.262	13518.84
690.609	13485.39
690.956	13481.33
691.303	13390.03
691.65	13246.08
691.997	13326.3
692.344	13244.27
692.69	13206.76
693.037	13239.52
693.383	13087.66
693.73	13178.74
694.077	13096.03
694.423	13111.17
694.769	13092.86
695.116	12945.07
695.462	13068.91
695.808	12884.51
696.155	12979.87
696.501	12868.69
696.847	12830.72
697.193	12808.35
697.539	12822.36
697.885	12800.44
698.231	12686.77
698.577	12642.25
698.923	12690.84
699.269	12611.07
699.614	12496.49
699.96	12537.85
700.306	12625.76
700.651	12489.71
700.997	12490.39
701.342	12489.26
701.688	12389.6
702.033	12327.46
702.379	12367.23
702.724	12245.65
703.069	12319.1
703.415	12235.71
703.76	12204.98
704.105	12294.01
704.45	12235.71
704.795	12068.26
705.14	12053.34
705.485	12062.61
705.83	11982.16
706.175	12039.33
706.52	11919.56
706.865	11966.11
707.209	11859
707.554	11833.69
707.899	11813.8
708.243	11868.71
708.588	11859.22
708.932	11753.91
709.277	11772.22
709.621	11652.9
709.966	11639.11
710.31	11648.38
710.654	11590.53
710.998	11630.98
711.342	11613.35
711.687	11577.42
712.031	11569.96
712.375	11473.92
712.719	11491.55
713.063	11531.1
713.407	11440.48
713.75	11454.26
714.094	11440.93
714.438	11390.31
714.782	11363.87
715.125	11390.08
715.469	11452
715.812	11269.63
716.156	11244.32
716.499	11245.68
716.843	11253.81
717.186	11229.41
717.53	11220.14
717.873	11179.92
718.216	11177.66
718.559	11117.09
718.902	11081.16
719.246	11161.39
719.589	11193.93
719.932	11060.37
720.275	11038.45
720.617	11015.4
720.96	10940.38
721.303	11043.2
721.646	11012.92
721.989	10866.71
722.331	10918.23
722.674	10928.4
723.016	11007.95
723.359	10925.24
723.701	10894.95
724.044	10832.13
724.386	10849.53
724.729	10878.91
725.071	10787.84
725.413	10777.44
725.755	10754.39
726.097	10696.31
726.439	10662.64
726.782	10722.98
727.124	10709.87
727.465	10685.02
727.807	10662.42
728.149	10613.15
728.491	10605.7
728.833	10618.35
729.175	10607.5
729.516	10500.16
729.858	10538.8
730.199	10508.3
730.541	10553.72
730.882	10504
731.224	10534.96
731.565	10543.1
731.906	10446.6
732.248	10471.01
732.589	10443.67
732.93	10357.11
733.271	10350.34
733.612	10471.91
733.953	10424.68
734.294	10327.74
734.635	10284.12
734.976	10294.74
735.317	10231.69
735.658	10304.46
735.999	10279.38
736.339	10294.29
736.68	10300.17
737.021	10253.16
737.361	10244.8
737.702	10218.81
738.042	10118.93
738.383	10195.99
738.723	10177.91
739.063	10149.66
739.404	10200.06
739.744	10102.21
740.084	10129.55
740.424	10177.46
740.764	10043.22
741.104	10142.88
741.444	9992.83
741.784	10030.57
742.124	9985.15
742.464	9995.99
742.804	9926.39
743.143	9897.24
743.483	9967.75
743.823	9895.66
744.162	9864.92
744.502	9876.9
744.841	9892.49
745.181	9865.6
745.52	9825.83
745.86	9859.27
746.199	9844.13
746.538	9783.8
746.877	9861.99
747.216	9801.2
747.556	9721.65
747.895	9807.3
748.234	9681.88
748.573	9699.96
748.911	9641.2
749.25	9725.94
749.589	9570.92
749.928	9651.37
750.267	9634.42
750.605	9605.04
750.944	9539.06
751.283	9483.69
751.621	9518.27
751.96	9575.89
752.298	9486.86
752.636	9482.56
752.975	9427.65
753.313	9426.07
753.651	9459.96
753.989	9383.35
754.327	9390.59
754.666	9380.64
755.004	9360.08
755.342	9359.85
755.679	9287.09
756.017	9315.11
756.355	9340.19
756.693	9253.87
757.031	9266.52
757.368	9202.34
757.706	9170.25
758.044	9126.41
758.381	9189.24
758.719	9135
759.056	9108.56
759.394	9091.16
759.731	9024.95
760.068	9039.41
760.405	9018.62
760.743	8957.38
761.08	8995.57
761.417	8854.1
761.754	8891.84
762.091	8841.67
762.428	8811.39
762.765	8739.76
763.102	8820.66
763.438	8789.7
763.775	8744.05
764.112	8754.44
764.449	8707.44
764.785	8675.58
765.122	8613.66
765.458	8643.94
765.795	8553.09
766.131	8563.04
766.467	8491.4
766.804	8484.85
767.14	8475.13
767.476	8416.15
767.812	8387.9
768.148	8420.89
768.485	8375.47
768.821	8346.09
769.157	8369.14
769.492	8330.95
769.828	8299.77
770.164	8271.75
770.5	8187.68
770.836	8215.48
771.171	8156.49
771.507	8122.6
771.842	7994.92
772.178	8076.04
772.513	8074.24
772.849	8103.16
773.184	7985.88
773.519	7965.09
773.855	7937.29
774.19	7900.46
774.525	7875.82
774.86	7838.76
775.195	7888.93
775.53	7819.55
775.865	7794.24
776.2	7704.98
776.535	7699.11
776.87	7710.86
777.205	7662.95
777.539	7648.49
777.874	7660.46
778.209	7540.92
778.543	7534.36
778.878	7445.78
779.212	7475.16
779.547	7449.39
779.881	7514.48
780.215	7403.07
780.55	7434.25
780.884	7409.85
781.218	7368.94
781.552	7326.46
781.886	7274.71
782.22	7282.62
782.554	7251.66
782.888	7160.81
783.222	7102.96
783.556	7146.13
783.889	7089.4
784.223	7118.33
784.557	7062.51
784.89	7087.82
785.224	7080.36
785.557	6967.15
785.891	7008.05
786.224	6999.24
786.558	6980.48
786.891	6863.65
787.224	6878.56
787.557	6885.57
787.891	6872.01
788.224	6843.08
788.557	6832.24
788.89	6823.65
789.223	6799.92
789.556	6767.83
789.888	6763.54
790.221	6686.93
790.554	6613.48
790.887	6628.85
791.219	6665.23
791.552	6667.49
791.884	6591.11
792.217	6560.6
792.549	6498.01
792.882	6524.67
793.214	6508.63
793.546	6483.77
793.879	6488.29
794.211	6395.18
794.543	6428.4
794.875	6404.45
795.207	6378.01
795.539	6346.37
795.871	6363.32
796.203	6330.33
796.535	6312.93
796.867	6268.18
797.198	6303.66
797.53	6271.57
797.862	6195.87
798.193	6247.62
798.525	6168.07
798.856	6150.67
799.188	6126.27
799.519	6144.8
799.85	6021.18
800.182	6133.72
800.513	6100.28
800.844	6059.83
801.175	6030.45
801.506	6024.8
801.837	5998.81
802.168	6016.44
802.499	5909.1
802.83	5989.77
803.161	5971.02
803.491	5959.49
803.822	5928.98
804.153	5864.58
804.483	5832.26
804.814	5857.35
805.145	5827.29
805.475	5821.87
805.805	5793.84
806.136	5774.86
806.466	5783.22
806.796	5778.25
807.126	5768.76
807.457	5731.25
807.787	5747.52
808.117	5700.97
808.447	5640.85
808.777	5673.62
809.107	5619.84
809.436	5600.86
809.766	5626.17
810.096	5620.29
810.426	5563.12
810.755	5542.33
811.085	5583.91
811.414	5539.61
811.744	5544.59
812.073	5525.15
812.403	5537.35
812.732	5498.26
813.061	5505.26
813.39	5448.09
813.719	5423.01
814.049	5475.89
814.378	5462.78
814.707	5425.49
815.036	5413.74
815.365	5420.97
815.693	5372.16
816.022	5375.1
816.351	5324.03
816.68	5334.87
817.008	5350.47
817.337	5260.53
817.665	5324.48
817.994	5305.5
818.322	5305.95
818.651	5234.31
818.979	5262.79
819.307	5236.12
819.636	5254.2
819.964	5209.68
820.292	5216.23
820.62	5280.19
820.948	5218.27
821.276	5166.52
821.604	5185.27
821.932	5236.8
822.259	5220.07
822.587	5216.01
822.915	5163.8
823.243	5178.95
823.57	5154.09
823.898	5173.97
824.225	5171.71
824.553	5188.89
824.88	5138.95
825.207	5175.33
825.535	5238.15
825.862	5157.25
826.189	5153.18
826.516	5174.43
826.843	5196.8
827.17	5160.42
827.497	5179.17
827.824	5199.74
828.151	5157.93
828.478	5159.29
828.805	5205.39
829.131	5142.56
829.458	5154.09
829.785	5104.15
830.111	5171.71
830.438	5110.47
830.764	5142.11
831.09	5150.92
831.417	5084.26
831.743	5206.74
832.069	5208.32
832.395	5139.4
832.722	5132.17
833.048	5105.73
833.374	5146.63
833.7	5105.05
834.026	5109.8
834.351	5158.83
834.677	5143.24
835.003	5137.82
835.329	5115.22
835.654	5073.86
835.98	5071.83
836.306	5046.29
836.631	5040.19
836.956	5057.59
837.282	5074.54
837.607	5020.76
837.932	5051.72
838.258	5046.75
838.583	5011.94
838.908	5025.96
839.233	5054.43
839.558	5048.55
839.883	4983.92
840.208	4950.48
840.533	4928.78
840.858	4987.99
841.182	4971.72
841.507	4961.78
841.832	4924.04
842.156	4932.4
842.481	4920.87
842.805	4947.09
843.13	4922.46
843.454	4929.01
843.778	4885.17
844.103	4895.56
844.427	4839.52
844.751	4857.37
845.075	4842.46
845.399	4823.25
845.723	4786.19
846.047	4837.49
846.371	4783.25
846.695	4814.44
847.019	4790.93
847.343	4700.54
847.666	4719.97
847.99	4703.7
848.313	4662.58
848.637	4640.88
848.96	4627.55
849.284	4642.24
849.607	4637.49
849.931	4575.8
850.254	4563.59
850.577	4533.31
850.9	4521.11
851.223	4472.52
851.546	4508.91
851.869	4440.89
852.192	4466.2
852.515	4458.74
852.838	4412.86
853.161	4366.09
853.483	4379.42
853.806	4400.21
854.129	4380.55
854.451	4366.09
854.774	4326.76
855.096	4305.97
855.419	4336.26
855.741	4302.36
856.063	4261
856.385	4281.57
856.708	4287.67
857.03	4290.38
857.352	4258.07
857.674	4265.07
857.996	4235.02
858.318	4232.08
858.64	4254
858.961	4214.45
859.283	4204.73
859.605	4163.15
859.926	4165.87
860.248	4199.99
860.57	4114.11
860.891	4131.06
861.212	4142.36
861.534	4125.87
861.855	4125.41
862.176	4105.3
862.498	4098.52
862.819	4119.31
863.14	4063.49
863.461	4089.03
863.782	4029.15
864.103	4074.12
864.424	4049.71
864.745	4072.31
865.065	4039.54
865.386	4044.06
865.707	4049.94
866.027	4031.86
866.348	4034.57
866.668	4019.43
866.989	4020.56
867.309	3971.75
867.63	4009.71
867.95	3990.05
868.27	3988.92
868.59	3962.48
868.91	3992.54
869.23	3993.67
869.55	3916.15
869.87	3970.84
870.19	3969.94
870.51	3953.44
870.83	3991.18
871.15	3907.57
871.469	3900.56
871.789	3969.94
872.109	3938.3
872.428	3878.64
872.748	3874.57
873.067	3908.24
873.386	3871.18
873.706	3851.07
874.025	3882.93
874.344	3830.96
874.663	3868.25
874.982	3837.06
875.301	3823.73
875.62	3831.18
875.939	3795.48
876.258	3796.38
876.577	3781.47
876.896	3830.51
877.214	3801.81
877.533	3794.58
877.852	3809.72
878.17	3768.59
878.489	3782.6
878.807	3802.48
879.125	3799.77
879.444	3809.94
879.762	3730.62
880.08	3755.25
880.398	3757.97
880.716	3724.29
881.034	3720.68
881.352	3751.41
881.67	3750.06
881.988	3757.97
882.306	3701.24
882.624	3697.18
882.941	3656.5
883.259	3676.16
883.577	3672.32
883.894	3634.58
884.212	3636.61
884.529	3605.88
884.846	3651.98
885.164	3593.45
885.481	3614.24
885.798	3641.13
886.115	3645.2
886.432	3616.5
886.75	3597.74
887.067	3608.37
887.383	3610.85
887.7	3566.11
888.017	3561.81
888.334	3563.62
888.651	3527.24
888.967	3560.46
889.284	3561.59
889.6	3525.88
889.917	3473.23
890.233	3523.85
890.55	3501.02
890.866	3509.84
891.182	3518.42
891.498	3459.44
891.815	3459.67
892.131	3476.39
892.447	3437.07
892.763	3421.03
893.079	3433.45
893.395	3407.47
893.71	3364.08
894.026	3426.22
894.342	3400.01
894.657	3395.72
894.973	3382.61
895.289	3337.64
895.604	3347.36
895.92	3319.33
896.235	3316.4
896.55	3303.51
896.865	3329.73
897.181	3302.84
897.496	3284.08
897.811	3288.6
898.126	3290.41
898.441	3274.59
898.756	3273.23
899.071	3246.12
899.386	3263.97
899.7	3192.56
900.015	3154.82
900.33	3185.33
900.644	3216.74
900.959	3182.84
901.273	3173.12
901.588	3150.75
901.902	3152.78
902.216	3144.42
902.531	3095.16
902.845	3112.33
903.159	3073.01
903.473	3111.43
903.787	3062.62
904.101	3099.68
904.415	3069.85
904.729	3049.51
905.042	3070.98
905.356	3052.67
905.67	3012
905.984	3030.53
906.297	3012.22
906.611	3008.61
906.924	3009.74
907.237	2969.06
907.551	2982.39
907.864	2952.79
908.177	2939.68
908.491	2902.17
908.804	2895.62
909.117	2902.4
909.43	2885.45
909.743	2896.07
910.056	2909.4
910.368	2887.71
910.681	2826.24
910.994	2834.83
911.307	2808.16
911.619	2781.04
911.932	2790.76
912.244	2787.82
912.557	2759.35
912.869	2745.11
913.181	2760.03
913.494	2740.59
913.806	2780.59
914.118	2750.54
914.43	2715.06
914.742	2706.02
915.054	2743.98
915.366	2689.07
915.678	2696.3
915.99	2698.56
916.302	2687.49
916.613	2654.04
916.925	2625.34
917.236	2631.44
917.548	2637.09
917.859	2623.31
918.171	2603.42
918.482	2622.4
918.794	2603.65
919.105	2569.52
919.416	2560.03
919.727	2566.36
920.038	2586.92
920.349	2570.2
920.66	2527.26
920.971	2512.58
921.282	2518.68
921.593	2515.74
921.903	2485.23
922.214	2464.44
922.525	2493.82
922.835	2488.85
923.146	2464.44
923.456	2441.84
923.767	2424.89
924.077	2451.56
924.387	2412.92
924.697	2426.02
925.008	2428.96
925.318	2374.5
925.628	2377.66
925.938	2371.56
926.248	2387.83
926.558	2366.36
926.867	2336.99
927.177	2348.74
927.487	2325.24
927.796	2321.62
928.106	2331.34
928.416	2283.65
928.725	2309.42
929.034	2249.53
929.344	2296.76
929.653	2255.86
929.962	2275.29
930.271	2248.18
930.581	2232.58
930.89	2235.29
931.199	2228.74
931.508	2224.9
931.817	2232.36
932.125	2231.45
932.434	2207.95
932.743	2183.09
933.051	2166.14
933.36	2148.74
933.669	2185.13
933.977	2179.7
934.286	2181.74
934.594	2164.11
934.902	2112.36
935.21	2119.37
935.519	2137.9
935.827	2108.52
936.135	2122.53
936.443	2084.34
936.751	2099.93
937.059	2065.36
937.367	2034.17
937.674	2104.22
937.982	2069.65
938.29	2032.59
938.597	2043.66
938.905	2013.61
939.213	2053.15
939.52	2021.29
939.827	2027.84
940.135	2047.05
940.442	1985.81
940.749	2019.03
941.056	2033.49
941.363	1994.85
941.67	1973.83
941.977	1978.35
942.284	1959.37
942.591	1935.19
942.898	1946.26
943.205	1940.61
943.511	1939.48
943.818	1933.83
944.125	1909.2
944.431	1915.75
944.738	1928.41
945.044	1880.95
945.35	1865.36
945.657	1867.17
945.963	1869.65
946.269	1843.89
946.575	1841.18
946.881	1830.33
947.187	1837.11
947.493	1796.89
947.799	1809.77
948.105	1804.8
948.41	1798.47
948.716	1803.89
949.022	1774.29
949.327	1814.06
949.633	1782.65
949.938	1773.84
950.244	1795.98
950.549	1738.58
950.854	1750.34
951.16	1731.8
951.465	1733.84
951.77	1745.82
952.075	1702.88
952.38	1704.69
952.685	1701.75
952.99	1695.2
953.294	1699.26
953.599	1665.59
953.904	1671.02
954.209	1672.82
954.513	1693.84
954.818	1673.5
955.122	1660.39
955.426	1660.17
955.731	1654.97
956.035	1627.85
956.339	1631.24
956.643	1623.11
956.948	1624.91
957.252	1608.87
957.556	1619.94
957.86	1608.64
958.163	1586.27
958.467	1629.89
958.771	1601.41
959.075	1613.39
959.378	1587.18
959.682	1571.58
959.985	1561.64
960.289	1592.83
960.592	1549.66
960.896	1570.45
961.199	1546.05
961.502	1538.36
961.805	1535.2
962.108	1525.71
962.411	1534.97
962.714	1491.59
963.017	1522.77
963.32	1541.53
963.623	1494.07
963.926	1500.85
964.228	1526.84
964.531	1501.98
964.833	1478.48
965.136	1485.71
965.438	1512.38
965.741	1458.59
966.043	1451.13
966.345	1439.16
966.648	1428.54
966.95	1443.45
967.252	1431.25
967.554	1433.51
967.856	1419.95
968.158	1409.78
968.46	1403.9
968.761	1412.04
969.063	1419.5
969.365	1405.49
969.666	1397.8
969.968	1409.55
970.269	1367.07
970.571	1377.46
970.872	1346.28
971.174	1351.7
971.475	1352.15
971.776	1353.28
972.077	1362.32
972.378	1376.33
972.679	1337.24
972.98	1323.45
973.281	1335.88
973.582	1347.86
973.883	1338.14
974.183	1314.87
974.484	1327.97
974.785	1325.49
975.085	1305.6
975.386	1287.52
975.686	1289.33
975.986	1290.69
976.287	1299.73
976.587	1276.9
976.887	1277.81
977.187	1256.56
977.487	1254.76
977.787	1278.71
978.087	1243.91
978.387	1248.65
978.687	1249.56
978.987	1246.85
979.286	1242.33
979.586	1227.64
979.885	1228.77
980.185	1221.54
980.484	1227.41
980.784	1232.38
981.083	1224.93
981.382	1206.85
981.682	1208.43
981.981	1194.42
982.28	1194.19
982.579	1168.88
982.878	1200.52
983.177	1194.42
983.475	1187.64
983.774	1163.68
984.073	1154.87
984.372	1186.06
984.67	1178.82
984.969	1157.81
985.267	1174.08
985.566	1150.13
985.864	1173.85
986.162	1153.29
986.461	1150.35
986.759	1113.29
987.057	1155.55
987.355	1119.17
987.653	1115.78
987.951	1105.38
988.249	1104.7
988.547	1093.18
988.844	1098.38
989.142	1113.06
989.44	1075.1
989.737	1097.7
990.035	1075.1
990.332	1083.23
990.63	1088.66
990.927	1078.71
991.224	1088.21
991.521	1088.66
991.819	1051.14
992.116	1067.42
992.413	1048.88
992.71	1054.99
993.006	1057.92
993.303	1045.95
993.6	1031.48
993.897	1030.58
994.193	1017.7
994.49	1014.31
994.787	1006.63
995.083	1032.39
995.379	1024.48
995.676	1028.55
995.972	987.19
996.268	1008.21
996.565	1024.25
996.861	979.51
997.157	973.63
997.453	1000.3
997.749	971.37
998.044	975.44
998.34	987.64
998.636	956.91
998.932	960.98
999.227	950.36
999.523	956.01
999.818	946.29
1000.114	955.55
1000.409	939.06
1000.704	945.38
1001	975.89
1001.295	935.67
1001.59	927.31
1001.885	951.26
1002.18	946.29
1002.475	907.65
1002.77	903.13
1003.065	927.76
1003.359	930.24
1003.654	911.04
1003.949	913.97
1004.243	899.51
1004.538	890.02
1004.832	895.89
1005.127	908.1
1005.421	906.29
1005.715	881.21
1006.009	876.46
1006.304	893.41
1006.598	904.26
1006.892	871.71
1007.186	867.42
1007.48	876.91
1007.773	891.15
1008.067	848.89
1008.361	853.64
1008.655	863.58
1008.948	841.88
1009.242	847.76
1009.535	832.17
1009.829	833.52
1010.122	832.39
1010.415	801.21
1010.708	817.7
1011.001	800.76
1011.295	825.39
1011.588	808.21
1011.881	785.16
1012.173	823.35
1012.466	814.09
1012.759	789
1013.052	796.46
1013.344	779.51
1013.637	787.2
1013.93	753.75
1014.222	768.89
1014.514	782
1014.807	760.53
1015.099	772.51
1015.391	776.35
1015.683	777.93
1015.976	742
1016.268	756.46
1016.56	763.47
1016.851	775.45
1017.143	756.24
1017.435	733.19
1017.727	714.43
1018.018	719.18
1018.31	713.53
1018.602	715.79
1018.893	716.46
1019.185	747.42
1019.476	727.99
1019.767	716.24
1020.058	724.6
1020.35	716.24
1020.641	705.84
1020.932	706.29
1021.223	691.15
1021.514	685.73
1021.804	697.26
1022.095	690.93
1022.386	689.12
1022.677	689.8
1022.967	703.81
1023.258	671.27
1023.548	670.14
1023.839	696.58
1024.129	682.11
1024.419	683.47
1024.709	662.45
1025	676.69
1025.29	647.77
1025.58	649.12
1025.87	648.67
1026.16	639.4
1026.449	656.13
1026.739	622.91
1027.029	623.36
1027.319	632.17
1027.608	614.55
1027.898	632.17
1028.187	628.33
1028.477	631.72
1028.766	622.68
1029.055	624.04
1029.344	603.25
1029.634	614.09
1029.923	636.69
1030.212	614.77
1030.501	620.2
1030.79	592.85
1031.078	602.79
1031.367	605.73
1031.656	585.85
1031.945	592.4
1032.233	589.01
1032.522	582.91
1032.81	565.73
1033.099	603.92
1033.387	584.26
1033.675	577.26
1033.963	572.06
1034.251	564.38
1034.54	572.51
1034.828	568.67
1035.116	577.71
1035.403	566.64
1035.691	553.76
1035.979	537.94
1036.267	547.88
1036.554	542.68
1036.842	559.41
1037.129	558.73
1037.417	590.59
1037.704	523.47
1037.992	554.89
1038.279	545.62
1038.566	552.85
1038.853	552.85
1039.14	552.85
