Data from black_plastic_tray_FLMS001491_059.txt Node
Date: Tue Feb 07 10:40:10 GMT 2017
User: dcchb
Spectrometer: FLMS00149
Trigger mode: 0
Integration Time (sec): 2.000000E-2
Scans to average: 10
Electric dark correction enabled: true
Nonlinearity correction enabled: false
Boxcar width: 0
XAxis mode: Wavelengths
Number of Pixels in Spectrum: 2048
>>>>>Begin Spectral Data<<<<<
341.393	3.46
341.776	3.46
342.16	3.46
342.543	-69.98
342.927	-68.85
343.31	-73.37
343.693	-60.72
344.077	-58.68
344.46	-62.07
344.843	-48.97
345.226	-31.12
345.61	-41.96
345.993	-4
346.376	-14.17
346.759	0.07
347.142	7.53
347.525	51.59
347.908	61.31
348.291	76.23
348.674	87.75
349.057	110.58
349.44	141.31
349.823	153.96
350.206	168.88
350.588	193.51
350.971	202.78
351.354	220.63
351.737	250.23
352.119	250.23
352.502	253.85
352.884	265.83
353.267	268.09
353.65	277.13
354.032	298.14
354.414	316.67
354.797	304.47
355.179	299.27
355.562	319.38
355.944	318.93
356.326	323.45
356.709	324.13
357.091	344.92
357.473	337.24
357.855	332.72
358.238	323
358.62	355.77
359.002	326.16
359.384	334.98
359.766	331.59
360.148	333.85
360.53	333.17
360.912	340.63
361.294	327.07
361.676	332.94
362.057	309.44
362.439	347.86
362.821	328.42
363.203	345.6
363.584	313.06
363.966	328.65
364.348	322.32
364.729	327.07
365.111	313.51
365.493	306.73
365.874	306.28
366.256	306.5
366.637	326.62
367.019	325.03
367.4	303.11
367.781	319.38
368.163	304.92
368.544	310.57
368.925	304.7
369.306	351.7
369.688	341.3
370.069	314.86
370.45	299.72
370.831	295.66
371.212	320.51
371.593	303.34
371.974	285.71
372.355	322.1
372.736	328.88
373.117	321.42
373.498	310.34
373.879	315.32
374.26	310.12
374.641	325.71
375.021	345.37
375.402	323.9
375.783	324.81
376.163	337.69
376.544	334.75
376.925	332.49
377.305	330.68
377.686	328.42
378.066	358.93
378.447	331.59
378.827	330.01
379.208	342.21
379.588	355.09
379.968	336.78
380.349	357.58
380.729	363.22
381.109	348.76
381.489	366.61
381.87	357.58
382.25	353.06
382.63	375.2
383.01	363.45
383.39	351.47
383.77	348.31
384.15	367.52
384.53	367.52
384.91	358.03
385.29	363.45
385.67	364.58
386.049	363.45
386.429	370.46
386.809	393.28
387.189	368.2
387.568	379.72
387.948	403.68
388.328	386.95
388.707	373.85
389.087	412.26
389.466	360.51
389.846	387.86
390.225	400.74
390.605	374.07
390.984	401.87
391.363	410
391.743	385.37
392.122	386.73
392.501	405.03
392.881	419.27
393.26	409.78
393.639	390.57
394.018	409.33
394.397	424.01
394.776	408.42
395.155	404.35
395.534	421.53
395.913	419.27
396.292	428.08
396.671	412.94
397.05	415.88
397.429	432.6
397.808	438.7
398.186	443.45
398.565	424.69
398.944	418.14
399.323	444.8
399.701	452.71
400.08	445.71
400.458	467.63
400.837	443.9
401.215	441.64
401.594	442.09
401.972	461.08
402.351	466.95
402.729	464.01
403.107	475.76
403.486	473.73
403.864	490.23
404.242	480.06
404.62	504.24
404.999	490
405.377	484.35
405.755	494.97
406.133	491.36
406.511	496.78
406.889	500.17
407.267	514.18
407.645	518.02
408.023	527.97
408.401	512.15
408.779	516.89
409.156	514.63
409.534	535.65
409.912	551.69
410.29	539.72
410.667	555.99
411.045	573.84
411.422	549.89
411.8	560.06
412.178	560.51
412.555	557.57
412.933	595.08
413.31	574.74
413.687	584.69
414.065	580.17
414.442	583.56
414.819	596.89
415.197	604.12
415.574	609.55
415.951	607.51
416.328	643.9
416.705	612.26
417.082	611.81
417.46	627.17
417.837	638.25
418.214	632.82
418.591	641.18
418.967	644.12
419.344	656.32
419.721	659.71
420.098	652.26
420.475	653.84
420.852	672.14
421.228	672.37
421.605	660.62
421.982	696.1
422.358	702.88
422.735	684.12
423.111	702.43
423.488	703.33
423.864	724.8
424.241	700.39
424.617	722.31
424.994	729.99
425.37	728.41
425.746	735.42
426.123	757.79
426.499	734.29
426.875	738.13
427.251	770.67
427.627	765.7
428.003	792.37
428.379	806.38
428.756	787.17
429.132	807.51
429.507	809.77
429.883	835.75
430.259	837.11
430.635	822.87
431.011	814.06
431.387	852.03
431.763	881.4
432.138	870.1
432.514	854.51
432.89	865.13
433.265	915.53
433.641	894.51
434.016	908.52
434.392	922.76
434.767	955.07
435.143	960.05
435.518	949.88
435.894	954.4
436.269	963.66
436.644	967.73
437.02	982.87
437.395	1017.22
437.77	992.36
438.145	994.17
438.52	1009.08
438.895	1010.67
439.271	1034.62
439.646	1060.38
440.021	1050.21
440.395	1070.32
440.77	1046.14
441.145	1041.85
441.52	1079.14
441.895	1058.8
442.27	1083.43
442.645	1077.1
443.019	1110.1
443.394	1084.79
443.769	1111
444.143	1110.32
444.518	1144
444.892	1108.97
445.267	1148.51
445.641	1127.5
446.016	1149.19
446.39	1149.42
446.764	1170.66
447.139	1120.72
447.513	1193.49
447.887	1175.41
448.262	1160.49
448.636	1206.82
449.01	1192.13
449.384	1217.89
449.758	1223.77
450.132	1226.25
450.506	1220.38
450.88	1242.3
451.254	1255.4
451.628	1281.39
452.002	1293.6
452.376	1287.49
452.75	1291.79
453.123	1301.96
453.497	1335.85
453.871	1339.92
454.244	1362.75
454.618	1357.32
454.992	1380.6
455.365	1349.19
455.739	1403.2
456.112	1431.67
456.486	1421.5
456.859	1449.75
457.232	1493.82
457.606	1479.35
457.979	1475.96
458.352	1520.26
458.725	1504.89
459.099	1563.42
459.472	1579.92
459.845	1555.28
460.218	1590.31
460.591	1568.39
460.964	1589.63
461.337	1654.04
461.71	1657.88
462.083	1676.18
462.456	1688.84
462.829	1688.84
463.201	1730.65
463.574	1757.31
463.947	1770.19
464.32	1812.9
464.692	1809.74
465.065	1845.9
465.438	1814.03
465.81	1844.54
466.183	1874.82
466.555	1912.56
466.928	1927.93
467.3	1924.31
467.672	1962.5
468.045	2020.58
468.417	2023.75
468.789	1995.72
469.161	2029.4
469.534	2062.84
469.906	2165.44
470.278	2118.66
470.65	2118.43
471.022	2167.47
471.394	2218.09
471.766	2239.33
472.138	2258.99
472.51	2315.94
472.882	2338.99
473.253	2396.62
473.625	2421.93
473.997	2451.98
474.369	2464.64
474.74	2479.55
475.112	2512.32
475.484	2574.69
475.855	2604.97
476.227	2665.76
476.598	2698.3
476.97	2692.66
477.341	2794.35
477.713	2825.99
478.084	2828.24
478.455	2894.68
478.827	2900.79
479.198	2986.43
479.569	3013.32
479.94	3127.9
480.311	3075.47
480.682	3155.92
481.053	3203.83
481.424	3259.87
481.795	3290.61
482.166	3346.42
482.537	3430.26
482.908	3456.02
483.279	3484.05
483.65	3531.96
484.021	3593.87
484.391	3604.72
484.762	3670.26
485.133	3689.92
485.503	3799.97
485.874	3851.95
486.244	3836.81
486.615	3888.33
486.985	3983.92
487.356	4079.06
487.726	4107.31
488.097	4197.25
488.467	4175.33
488.837	4262.33
489.207	4298.71
489.578	4356.57
489.948	4399.05
490.318	4473.4
490.688	4472.72
491.058	4565.83
491.428	4543.91
491.798	4624.13
492.168	4710.91
492.538	4745.26
492.908	4795.42
493.278	4852.6
493.648	4849.21
494.017	4908.42
494.387	4955.42
494.757	5037
495.126	5055.3
495.496	5115.87
495.866	5105.25
496.235	5149.31
496.605	5247.84
496.974	5276.32
497.344	5325.81
497.713	5333.26
498.082	5390.89
498.452	5453.71
498.821	5451.23
499.19	5481.96
499.559	5506.82
499.928	5584.56
500.298	5636.08
500.667	5618.23
501.036	5645.12
501.405	5696.42
501.774	5731.9
502.143	5819.58
502.512	5801.27
502.88	5860.93
503.249	5884.21
503.618	5997.65
503.987	5917.2
504.356	6037.43
504.724	6031.1
505.093	6089.18
505.462	6092.79
505.83	6151.77
506.199	6193.58
506.567	6314.03
506.936	6289.62
507.304	6333.24
507.672	6395.16
508.041	6413.01
508.409	6401.26
508.777	6523.97
509.145	6594.7
509.514	6566.45
509.882	6644.64
510.25	6614.13
510.618	6682.83
510.986	6699.78
511.354	6781.81
511.722	6860.23
512.09	6971.41
512.458	6923.73
512.826	7013.67
513.193	7083.5
513.561	7036.5
513.929	7101.35
514.297	7162.37
514.664	7210.95
515.032	7256.83
515.4	7326.43
515.767	7376.83
516.135	7435.81
516.502	7358.3
516.869	7516.71
517.237	7485.98
517.604	7582.47
517.972	7605.75
518.339	7646.42
518.706	7699.53
519.073	7778.85
519.44	7882.35
519.808	7893.87
520.175	7913.53
520.542	8084.83
520.909	8099.07
521.276	8128.22
521.643	8203.47
522.009	8231.27
522.376	8276.24
522.743	8358.72
523.11	8435.56
523.477	8515.1
523.843	8531.37
524.21	8601.43
524.577	8690.24
524.943	8729.56
525.31	8764.13
525.676	8821.08
526.043	9036.22
526.409	8963.45
526.776	9095.88
527.142	9098.14
527.508	9159.15
527.874	9215.65
528.241	9264.46
528.607	9311.92
528.973	9390.56
529.339	9428.07
529.705	9480.27
530.071	9551.23
530.437	9618.57
530.803	9652.47
531.169	9672.13
531.535	9626.71
531.901	9776.54
532.267	9874.16
532.632	9952.13
532.998	9905.12
533.364	9961.84
533.73	10019.02
534.095	10126.58
534.461	10085.68
534.826	10175.17
535.192	10228.5
535.557	10303.53
535.923	10252.46
536.288	10276.86
536.653	10371.78
537.019	10378.1
537.384	10482.05
537.749	10510.3
538.114	10509.4
538.479	10488.61
538.845	10593.24
539.21	10596.63
539.575	10655.61
539.94	10710.98
540.305	10765.89
540.67	10800.24
541.034	10757.53
541.399	10868.94
541.764	10917.3
542.129	10897.86
542.494	10906
542.858	10991.19
543.223	10943.74
543.587	10997.3
543.952	11057.86
544.316	11071.87
544.681	11145.54
545.045	11182.6
545.41	11247.68
545.774	11302.15
546.138	11268.25
546.503	11389.83
546.867	11444.06
547.231	11495.36
547.595	11444.97
547.959	11568.35
548.324	11571.97
548.688	11588.01
549.052	11602.03
549.416	11629.14
549.779	11621.91
550.143	11704.4
550.507	11772.87
550.871	11816.48
551.235	11792.98
551.599	11884.96
551.962	11936.71
552.326	11994.56
552.689	12129.92
553.053	12091.5
553.417	12153.42
553.78	12300.99
554.143	12199.3
554.507	12294.66
554.87	12256.92
555.234	12399.52
555.597	12416.47
555.96	12361.78
556.323	12503.92
556.686	12511.15
557.05	12640.87
557.413	12724.93
557.776	12631.6
558.139	12787.76
558.502	12796.57
558.865	12870.47
559.228	12856.23
559.59	12995.44
559.953	13022.55
560.316	13143.68
560.679	13057.35
561.041	13141.19
561.404	13219.84
561.767	13339.15
562.129	13277.69
562.492	13469.32
562.854	13461.19
563.217	13493.05
563.579	13542.54
563.941	13574.4
564.304	13636.32
564.666	13771.23
565.028	13840.38
565.39	13823.89
565.753	13833.61
566.115	13942.75
566.477	14048.74
566.839	13952.02
567.201	14207.38
567.563	14181.84
567.925	14169.87
568.287	14206.7
568.648	14279.02
569.01	14356.08
569.372	14455.96
569.734	14441.95
570.095	14493.25
570.457	14530.31
570.819	14676.29
571.18	14709.97
571.542	14779.34
571.903	14746.12
572.265	14750.42
572.626	14813.24
572.987	14786.8
573.349	14830.87
573.71	14916.29
574.071	15024.53
574.432	15012.33
574.794	15176.17
575.155	15119.9
575.516	15065.66
575.877	15107.02
576.238	15173.68
576.599	15230.86
576.96	15171.65
577.32	15181.37
577.681	15320.12
578.042	15342.72
578.403	15386.56
578.763	15441.7
579.124	15453.9
579.485	15399.44
579.845	15548.36
580.206	15512.66
580.566	15404.41
580.927	15463.62
581.287	15542.26
581.648	15427.46
582.008	15547.23
582.368	15531.64
582.728	15460.46
583.089	15522.83
583.449	15577.06
583.809	15671.97
584.169	15683.27
584.529	15528.93
584.889	15735.7
585.249	15582.49
585.609	15491.41
585.969	15594.91
586.329	15637.63
586.688	15643.05
587.048	15643.95
587.408	15560.11
587.768	15549.49
588.127	15540.45
588.487	15652.54
588.846	15598.08
589.206	15467.01
589.565	15558.08
589.925	15579.32
590.284	15589.04
590.643	15581.58
591.003	15634.91
591.362	15780.67
591.721	15692.77
592.08	15764.63
592.44	15753.55
592.799	15817.96
593.158	15723.05
593.517	15721.69
593.876	15791.52
594.235	15710.84
594.593	15770.73
594.952	15751.75
595.311	15711.97
595.67	15736.15
596.029	15836.49
596.387	15746.78
596.746	15780.22
597.104	15744.52
597.463	15697.28
597.822	15787.45
598.18	15754.68
598.538	15658.87
598.897	15783.61
599.255	15726.66
599.613	15987.45
599.972	15797.17
600.33	15861.35
600.688	15863.61
601.046	15948.58
601.404	15956.04
601.762	15871.07
602.12	16035.81
602.478	16075.35
602.836	15936.83
603.194	15952.42
603.552	16039.65
603.91	15875.59
604.268	16020.89
604.625	16022.93
604.983	16041.46
605.341	15852.54
605.698	16077.39
606.056	15979.54
606.413	16051.17
606.771	16018.86
607.128	16038.07
607.485	16033.55
607.843	16092.3
608.2	16113.09
608.557	16273.99
608.914	16150.61
609.272	16209.14
609.629	16101.57
609.986	16174.56
610.343	16129.36
610.7	16159.87
611.057	16171.17
611.414	16201.23
611.771	16318.96
612.127	16342.01
612.484	16278.51
612.841	16385.18
613.198	16315.35
613.554	16403.03
613.911	16427.66
614.267	16418.85
614.624	16333.43
614.98	16453.2
615.337	16509.92
615.693	16427.44
616.05	16353.99
616.406	16599.41
616.762	16544.72
617.118	16605.51
617.475	16528.22
617.831	16600.76
618.187	16637.6
618.543	16611.61
618.899	16718.05
619.255	16685.28
619.611	16615.23
619.967	16716.47
620.323	16806.86
620.678	16726.18
621.034	16521.22
621.39	16695.9
621.746	16617.03
622.101	16807.31
622.457	16669.91
622.812	16779.97
623.168	16721.21
623.523	16671.72
623.879	16767.77
624.234	16675.34
624.589	16752.4
624.945	16744.72
625.3	16711.72
625.655	16758.05
626.01	16792.85
626.365	16790.36
626.72	16718.5
627.075	16710.37
627.43	16789.23
627.785	16698.61
628.14	16741.78
628.495	16770.93
628.85	16747.2
629.205	16723.92
629.559	16873.07
629.914	16704.26
630.269	16687.77
630.623	16628.11
630.978	16539.07
631.332	16673.98
631.687	16820.87
632.041	16573.42
632.396	16793.98
632.75	16636.47
633.104	16590.59
633.459	16416.14
633.813	16460.43
634.167	16431.73
634.521	16469.02
634.875	16464.5
635.229	16333.88
635.583	16373.88
635.937	16303.14
636.291	16269.25
636.645	16262.02
636.999	16233.09
637.352	16285.74
637.706	16146.54
638.06	16181.34
638.413	16217.05
638.767	16121.91
639.121	16172.98
639.474	16099.31
639.828	15971.18
640.181	16072.19
640.534	16068.8
640.888	16020.89
641.241	15937.28
641.594	15978.63
641.947	16080.33
642.301	15921.91
642.654	15936.37
643.007	15892.76
643.36	15919.43
643.713	15846.89
644.066	15939.54
644.419	15898.18
644.771	15825.64
645.124	15625.65
645.477	15558.31
645.83	15453.9
646.182	15329.39
646.535	15261.82
646.888	15337.75
647.24	15315.6
647.593	15379.33
647.945	15325.32
648.298	15171.88
648.65	15197.41
649.002	15144.31
649.355	15198.99
649.707	15195.83
650.059	15239.44
650.411	15427.69
650.763	15431.98
651.115	15644.63
651.467	15566.21
651.819	15536.61
652.171	15474.47
652.523	15389.04
652.875	15478.31
653.227	15368.25
653.578	15432.21
653.93	15465.65
654.282	15356.5
654.633	15389.04
654.985	15283.51
655.337	15346.11
655.688	15358.99
656.039	15304.98
656.391	15159.22
656.742	15256.39
657.094	15258.43
657.445	15362.6
657.796	15327.35
658.147	15327.58
658.498	15259.1
658.849	15310.18
659.2	15303.4
659.551	15198.54
659.902	15335.49
660.253	15214.59
660.604	15208.26
660.955	15210.52
661.306	15227.92
661.656	15145.44
662.007	15154.47
662.358	15050.3
662.708	15062.27
663.059	15068.6
663.409	15017.3
663.76	15087.36
664.11	15105.44
664.461	15152.67
664.811	15160.35
665.161	15176.17
665.511	14974.14
665.862	15021.6
666.212	15115.15
666.562	15093.91
666.912	14982.05
667.262	14995.38
667.612	14929.85
667.962	15056.17
668.312	14940.92
668.662	15038.55
669.011	14967.59
669.361	15062.27
669.711	14909.06
670.06	14911.32
670.41	14831.32
670.76	14810.53
671.109	14969.17
671.459	14877.65
671.808	14802.17
672.157	14939.11
672.507	14789.51
672.856	14855.5
673.205	14805.56
673.554	14859.79
673.904	14818.21
674.253	14900.92
674.602	14716.75
674.951	14644.66
675.3	14511.33
675.649	14685.33
675.998	14686.01
676.346	14710.87
676.695	14806.01
677.044	14680.59
677.393	14752.45
677.741	14776.41
678.09	14638.78
678.438	14633.36
678.787	14578.67
679.135	14558.11
679.484	14641.27
679.832	14590.2
680.181	14557.43
680.529	14575.96
680.877	14536.86
681.225	14539.58
681.573	14548.61
681.922	14377.55
682.27	14440.14
682.618	14403.31
682.966	14424.1
683.314	14447.37
683.661	14388.62
684.009	14319.02
684.357	14251.9
684.705	14193.14
685.053	14272.69
685.4	14274.72
685.748	14201.96
686.095	14166.25
686.443	13975.07
686.79	14003.54
687.138	14064.11
687.485	14070.44
687.832	13953.38
688.18	13991.34
688.527	13943.21
688.874	13884.68
689.221	13947.95
689.568	13845.36
689.915	13874.06
690.262	13855.3
690.609	13763.32
690.956	13690.11
691.303	13697.56
691.65	13581.41
691.997	13648.75
692.344	13517.23
692.69	13544.35
693.037	13416.44
693.383	13404.69
693.73	13485.59
694.077	13455.54
694.423	13419.38
694.769	13390.45
695.116	13310
695.462	13281.53
695.808	13249.44
696.155	13251.02
696.501	13210.12
696.847	13212.83
697.193	13099.16
697.539	13171.48
697.885	13041.08
698.231	12947.75
698.577	13014.87
698.923	13003.57
699.269	12928.77
699.614	12928.32
699.96	12862.56
700.306	12808.32
700.651	12762.22
700.997	12790.69
701.342	12627.54
701.688	12689.23
702.033	12606.97
702.379	12665.73
702.724	12571.49
703.069	12682.67
703.415	12485.17
703.76	12541.89
704.105	12518.16
704.45	12498.27
704.795	12425.96
705.14	12446.52
705.485	12383.47
705.83	12308
706.175	12265.28
706.52	12298.5
706.865	12254.66
707.209	12230.48
707.554	12159.3
707.899	12230.94
708.243	12160.88
708.588	12167.43
708.932	12073.88
709.277	12084.95
709.621	12041.56
709.966	11953.88
710.31	12023.94
710.654	11866.2
710.998	11890.15
711.342	11878.85
711.687	11910.72
712.031	11843.38
712.375	11701.68
712.719	11713.43
713.063	11779.2
713.407	11770.61
713.75	11693.77
714.094	11663.94
714.438	11630.05
714.782	11613.32
715.125	11563.16
715.469	11616.71
715.812	11560.9
716.156	11440.22
716.499	11481.58
716.843	11434.8
717.186	11362.71
717.53	11554.8
717.873	11459.66
718.216	11387.34
718.559	11504.4
718.902	11320.45
719.246	11362.26
719.589	11271.86
719.932	11336.27
720.275	11270.51
720.617	11205.2
720.96	11151.64
721.303	11218.53
721.646	11178.53
721.989	11090.85
722.331	11119.33
722.674	11056.05
723.016	11096.05
723.359	11091.76
723.701	11105.32
724.044	11068.71
724.386	11002.27
724.729	11005.66
725.071	10924.08
725.413	11014.47
725.755	10896.73
726.097	10867.36
726.439	10887.92
726.782	10825.32
727.124	10879.56
727.465	10841.82
727.807	10872.55
728.149	10841.59
728.491	10804.08
728.833	10834.59
729.175	10746.91
729.516	10755.72
729.858	10628.27
730.199	10706.68
730.541	10748.49
730.882	10709.39
731.224	10717.98
731.565	10670.75
731.906	10604.99
732.248	10583.07
732.589	10614.48
732.93	10492
733.271	10581.04
733.612	10574.48
733.953	10571.09
734.294	10510.08
734.635	10509.17
734.976	10530.42
735.317	10517.08
735.658	10501.94
735.999	10444.77
736.339	10312.57
736.68	10341.27
737.021	10327.48
737.361	10304.21
737.702	10393.02
738.042	10320.7
738.383	10322.74
738.723	10294.94
739.063	10188.73
739.404	10317.09
739.744	10230.54
740.084	10210.65
740.424	10212.23
740.764	10197.09
741.104	10281.16
741.444	10173.81
741.784	10106.92
742.124	10177.66
742.464	10152.12
742.804	10082.29
743.143	10125.91
743.483	10145.11
743.823	10080.48
744.162	10117.09
744.502	10079.13
744.841	10028.96
745.181	10041.16
745.52	10008.85
745.86	10056.3
746.199	10077.09
746.538	9989.86
746.877	9920.49
747.216	9901.05
747.556	9809.76
747.895	9866.93
748.234	9914.84
748.573	9881.39
748.911	9845.69
749.25	9898.34
749.589	9823.09
749.928	9814.5
750.267	9808.4
750.605	9738.8
750.944	9766.37
751.283	9768.85
751.621	9678.23
751.96	9674.39
752.298	9656.31
752.636	9624.22
752.975	9631.23
753.313	9597.78
753.651	9607.73
753.989	9580.84
754.327	9537.67
754.666	9530.44
755.004	9446.83
755.342	9419.71
755.679	9405.7
756.017	9415.19
756.355	9347.62
756.693	9339.26
757.031	9360.73
757.368	9323.67
757.706	9366.6
758.044	9342.88
758.381	9319.83
758.719	9282.31
759.056	9275.76
759.394	9223.56
759.731	9163.67
760.068	9136.78
760.405	9079.38
760.743	9039.15
761.08	9027.4
761.417	9108.76
761.754	9054.3
762.091	8979.27
762.428	9011.59
762.765	8914.64
763.102	8954.41
763.438	8893.4
763.775	8927.07
764.112	8866.28
764.449	8886.84
764.785	8791.25
765.122	8748.99
765.458	8756.22
765.795	8730.01
766.131	8708.32
766.467	8569.11
766.804	8585.61
767.14	8523.46
767.476	8508.1
767.812	8486.18
768.148	8596.23
768.485	8500.19
768.821	8478.49
769.157	8513.07
769.492	8412.28
769.828	8412.5
770.164	8244.37
770.5	8340.64
770.836	8346.74
771.171	8331.83
771.507	8255.22
771.842	8180.42
772.178	8205.28
772.513	8157.82
772.849	8172.06
773.184	8062.91
773.519	8094.32
773.855	8059.07
774.19	8019.97
774.525	7952.4
774.86	8015.23
775.195	7970.03
775.53	7986.75
775.865	7867.66
776.2	7821.33
776.535	7794.22
776.87	7811.16
777.205	7738.62
777.539	7753.77
777.874	7752.41
778.209	7752.86
778.543	7701.79
778.878	7664.05
779.212	7623.37
779.547	7621.57
779.881	7564.84
780.215	7510.16
780.55	7501.34
780.884	7442.36
781.218	7446.2
781.552	7363.94
781.886	7424.51
782.22	7257.28
782.554	7270.61
782.888	7225.19
783.222	7210.05
783.556	7162.82
783.889	7188.13
784.223	7124.86
784.557	7166.44
784.89	7216.83
785.224	7086.89
785.557	7100.22
785.891	7076.04
786.224	7125.08
786.558	7067.23
786.891	6963.28
787.224	7022.48
787.557	6985.42
787.891	6972.09
788.224	6963.96
788.557	6964.63
788.89	6907.46
789.223	6916.72
789.556	6860.46
789.888	6832.66
790.221	6816.16
790.554	6782.04
790.887	6707.92
791.219	6732.55
791.552	6666.79
791.884	6648.03
792.217	6653.23
792.549	6585.66
792.882	6576.85
793.214	6592.67
793.546	6607.13
793.879	6610.07
794.211	6506.34
794.543	6575.26
794.875	6511.54
795.207	6523.97
795.539	6449.39
795.871	6448.71
796.203	6417.98
796.535	6368.04
796.867	6302.5
797.198	6297.98
797.53	6288.04
797.862	6325.55
798.193	6242.62
798.525	6222.73
798.856	6245.33
799.188	6189.06
799.519	6213.01
799.85	6132.11
800.182	6144.32
800.513	6160.36
800.844	6112.23
801.175	6142.06
801.506	6111.55
801.837	6111.32
802.168	6125.56
802.499	6093.02
802.83	6048.5
803.161	5995.39
803.491	6013.7
803.822	5986.35
804.153	5914.72
804.483	5891.22
804.814	5872.46
805.145	5829.07
805.475	5820.71
805.805	5853.25
806.136	5840.6
806.466	5870.88
806.796	5866.81
807.126	5822.52
807.457	5803.31
807.787	5734.38
808.117	5780.71
808.447	5757.21
808.777	5755.4
809.107	5818.67
809.436	5758.34
809.766	5724.21
810.096	5671.33
810.426	5651
810.755	5639.92
811.085	5632.24
811.414	5650.32
811.744	5632.92
812.073	5566.03
812.403	5573.94
812.732	5550.66
813.061	5502.52
813.39	5527.38
813.719	5475.18
814.049	5495.07
814.378	5518.57
814.707	5459.59
815.036	5428.18
815.365	5465.46
815.693	5403.77
816.022	5378.69
816.351	5429.08
816.68	5373.26
817.008	5389.76
817.337	5415.07
817.665	5346.6
817.994	5277.45
818.322	5340.72
818.651	5289.65
818.979	5273.83
819.307	5324
819.636	5293.04
819.964	5265.02
820.292	5267.05
820.62	5293.49
820.948	5222.98
821.276	5270.21
821.604	5257.56
821.932	5262.08
822.259	5275.86
822.587	5219.59
822.915	5266.6
823.243	5275.64
823.57	5248.97
823.898	5215.98
824.225	5221.4
824.553	5205.81
824.88	5275.86
825.207	5276.54
825.535	5250.33
825.862	5241.51
826.189	5242.42
826.516	5257.33
826.843	5240.84
827.17	5341.17
827.497	5297.56
827.824	5268.63
828.151	5262.76
828.478	5282.19
828.805	5255.75
829.131	5192.93
829.458	5238.12
829.785	5208.52
830.111	5198.58
830.438	5278.8
830.764	5222.98
831.09	5213.04
831.417	5220.27
831.743	5188.86
832.069	5204.68
832.395	5180.05
832.722	5183.44
833.048	5207.17
833.374	5230.44
833.7	5158.13
834.026	5140.95
834.351	5194.28
834.677	5164.23
835.003	5182.53
835.329	5077.23
835.654	5152.48
835.98	5115.64
836.306	5164.91
836.631	5157.68
836.956	5139.14
837.282	5103.44
837.607	5126.26
837.932	5098.24
838.258	5092.82
838.583	5079.94
838.908	5104.34
839.233	5100.28
839.558	5043.1
839.883	5008.75
840.208	5094.85
840.533	5074.51
840.858	5060.28
841.182	5052.37
841.507	4984.35
841.832	5005.81
842.156	5010.11
842.481	5016.89
842.805	4981.18
843.13	4952.71
843.454	4902.09
843.778	4914.97
844.103	4949.54
844.427	4890.34
844.751	4873.39
845.075	4905.48
845.399	4872.94
845.723	4863.9
846.047	4871.58
846.371	4815.99
846.695	4839.94
847.019	4823.67
847.343	4836.1
847.666	4768.53
847.99	4754.75
848.313	4723.56
848.637	4680.4
848.96	4740.51
849.284	4740.96
849.607	4654.41
849.931	4654.64
850.254	4648.08
850.577	4531.02
850.9	4561.08
851.223	4579.84
851.546	4555.43
851.869	4536.45
852.192	4509.1
852.515	4506.84
852.838	4473.63
853.161	4434.76
853.483	4366.06
853.806	4396.79
854.129	4442.44
854.451	4420.97
854.774	4427.07
855.096	4349.11
855.419	4341.65
855.741	4365.15
856.063	4370.35
856.385	4312.5
856.708	4307.53
857.03	4292.84
857.352	4303.91
857.674	4306.85
857.996	4263.46
858.318	4247.19
858.64	4234.08
858.961	4264.59
859.283	4220.3
859.605	4208.55
859.926	4205.16
860.248	4206.74
860.57	4163.35
860.891	4141.88
861.212	4169
861.534	4160.64
861.855	4134.2
862.176	4198.6
862.498	4160.19
862.819	4117.93
863.14	4132.39
863.461	4117.7
863.782	4049
864.103	4099.17
864.424	4045.16
864.745	4120.87
865.065	4071.38
865.386	4059.85
865.707	4102.56
866.027	4051.72
866.348	4071.6
866.668	4083.35
866.989	4048.55
867.309	4014.88
867.63	3981.89
867.95	4005.84
868.27	3990.25
868.59	3980.08
868.91	3979.63
869.23	3987.54
869.55	3963.36
869.87	4001.77
870.19	3985.28
870.51	4012.62
870.83	3954.54
871.15	4004.71
871.469	3997.48
871.789	3994.09
872.109	3972.17
872.428	3960.87
872.748	3946.86
873.067	3917.93
873.386	3883.81
873.706	3933.3
874.025	3909.57
874.344	3869.12
874.663	3853.3
874.982	3825.28
875.301	3902.57
875.62	3851.27
875.939	3870.7
876.258	3885.62
876.577	3863.92
876.896	3823.7
877.214	3832.29
877.533	3843.13
877.852	3859.63
878.17	3836.81
878.489	3833.87
878.807	3779.18
879.125	3817.82
879.444	3800.65
879.762	3758.39
880.08	3778.05
880.398	3786.41
880.716	3759.52
881.034	3762.01
881.352	3767.88
881.67	3765.85
881.988	3771.04
882.306	3742.35
882.624	3714.55
882.941	3668.9
883.259	3714.55
883.577	3731.5
883.894	3731.05
884.212	3755.9
884.529	3707.09
884.846	3719.97
885.164	3691.72
885.481	3660.31
885.798	3693.08
886.115	3634.33
886.432	3652.18
886.75	3618.05
887.067	3625.74
887.383	3581.22
887.7	3585.74
888.017	3554.1
888.334	3568.79
888.651	3577.83
888.967	3571.05
889.284	3593.42
889.6	3568.56
889.917	3539.41
890.233	3525.18
890.55	3486.76
890.866	3509.36
891.182	3512.52
891.498	3501.45
891.815	3526.53
892.131	3537.6
892.447	3491.28
892.763	3486.31
893.079	3490.6
893.395	3435.46
893.71	3449.92
894.026	3419.64
894.342	3441.34
894.657	3399.08
894.973	3406.76
895.289	3394.56
895.604	3404.95
895.92	3349.81
896.235	3366.54
896.55	3314.56
896.865	3370.38
897.181	3320.66
897.496	3351.85
897.811	3315.92
898.126	3286.31
898.441	3267.56
898.756	3284.5
899.071	3235.47
899.386	3250.83
899.7	3232.53
900.015	3252.41
900.33	3209.25
900.644	3213.77
900.959	3188.24
901.273	3204.96
901.588	3194.34
901.902	3192.98
902.216	3194.79
902.531	3162.93
902.845	3158.86
903.159	3142.59
903.473	3151.17
903.787	3132.87
904.101	3084.51
904.415	3122.93
904.729	3089.93
905.042	3105.07
905.356	3059.65
905.67	3075.92
905.984	3043.83
906.297	2986.21
906.611	3066.2
906.924	3021.23
907.237	2982.59
907.551	3001.8
907.864	3000.67
908.177	2968.81
908.491	3019.65
908.804	2945.76
909.117	2929.49
909.43	2919.54
909.743	2924.97
910.056	2894.68
910.368	2861.92
910.681	2861.69
910.994	2850.84
911.307	2849.49
911.619	2868.7
911.932	2881.58
912.244	2855.14
912.557	2856.04
912.869	2849.49
913.181	2797.96
913.494	2830.96
913.806	2772.88
914.118	2763.39
914.43	2763.61
914.742	2787.57
915.054	2763.16
915.366	2727
915.678	2729.26
915.99	2714.58
916.302	2698.53
916.613	2682.03
916.925	2694.69
917.236	2673.67
917.548	2668.48
917.859	2649.94
918.171	2669.15
918.482	2645.65
918.794	2625.99
919.105	2638.42
919.416	2567.69
919.727	2596.61
920.038	2584.18
920.349	2566.1
920.66	2554.81
920.971	2545.77
921.282	2547.8
921.593	2539.44
921.903	2497.41
922.214	2514.81
922.525	2498.99
922.835	2462.15
923.146	2486.78
923.456	2482.04
923.767	2463.73
924.077	2482.72
924.387	2452.44
924.697	2447.01
925.008	2459.21
925.318	2440.46
925.628	2416.73
925.938	2404.53
926.248	2355.49
926.558	2404.98
926.867	2358.43
927.177	2363.62
927.487	2352.78
927.796	2328.6
928.106	2334.25
928.416	2332.66
928.725	2321.37
929.034	2314.59
929.344	2309.84
929.653	2318.65
929.962	2251.31
930.271	2254.25
930.581	2244.31
930.89	2228.71
931.199	2293.12
931.508	2260.8
931.817	2259.9
932.125	2224.42
932.434	2223.74
932.743	2212.44
933.051	2198.43
933.36	2208.37
933.669	2154.14
933.977	2161.82
934.286	2150.75
934.594	2177.19
934.902	2148.26
935.21	2158.88
935.519	2184.42
935.827	2140.81
936.135	2106
936.443	2155.95
936.751	2099
937.059	2138.77
937.367	2096.96
937.674	2126.57
937.982	2052.45
938.29	2030.98
938.597	2063.29
938.905	2049.73
939.213	2042.05
939.52	2029.85
939.827	2053.58
940.135	2028.49
940.442	2025.33
940.749	1984.65
941.056	1994.82
941.363	1993.24
941.67	1937.19
941.977	1953.92
942.284	1935.39
942.591	1977.65
942.898	1940.81
943.205	1934.03
943.511	1941.49
943.818	1898.55
944.125	1954.14
944.431	1931.32
944.738	1901.04
945.044	1895.16
945.35	1912.79
945.657	1886.12
945.963	1871.89
946.269	1851.32
946.575	1876.41
946.881	1857.2
947.187	1844.54
947.493	1868.27
947.799	1831.21
948.105	1845.9
948.41	1847.25
948.716	1805.9
949.022	1805.22
949.327	1812.68
949.633	1791.21
949.938	1787.14
950.244	1774.04
950.549	1766.13
950.854	1805.45
951.16	1759.8
951.465	1772
951.77	1749.86
952.075	1735.62
952.38	1730.19
952.685	1754.83
952.99	1729.29
953.294	1703.3
953.599	1718.22
953.904	1717.09
954.209	1682.74
954.513	1694.26
954.818	1684.55
955.122	1700.14
955.426	1698.11
955.731	1668.28
956.035	1659.91
956.339	1657.2
956.643	1688.16
956.948	1676.18
957.252	1649.52
957.556	1646.36
957.86	1636.41
958.163	1644.77
958.467	1662.85
958.771	1650.87
959.075	1631.89
959.378	1611.33
959.682	1591.44
959.985	1623.3
960.289	1599.58
960.592	1581.05
960.896	1579.01
961.199	1583.76
961.502	1575.62
961.805	1579.92
962.108	1554.61
962.411	1538.11
962.714	1539.01
963.017	1531.1
963.32	1546.7
963.623	1514.61
963.926	1512.8
964.228	1553.7
964.531	1528.17
964.833	1533.36
965.136	1519.8
965.438	1520.03
965.741	1503.99
966.043	1499.24
966.345	1482.74
966.648	1484.33
966.95	1463.99
967.252	1454.5
967.554	1468.51
967.856	1460.82
968.158	1422.86
968.46	1441.39
968.761	1441.16
969.063	1419.69
969.365	1408.17
969.666	1424.67
969.968	1412.91
970.269	1418.79
970.571	1413.59
970.872	1392.8
971.174	1422.86
971.475	1418.56
971.776	1388.96
972.077	1375.85
972.378	1394.84
972.679	1391.9
972.98	1378.34
973.281	1362.07
973.582	1375.85
973.883	1334.05
974.183	1341.5
974.484	1350.54
974.785	1321.62
975.085	1354.16
975.386	1325.46
975.686	1313.03
975.986	1313.26
976.287	1281.62
976.587	1269.19
976.887	1292.47
977.187	1280.71
977.487	1288.4
977.787	1300.38
978.087	1297.21
978.387	1265.35
978.687	1256.53
978.987	1266.25
979.286	1299.25
979.586	1263.09
979.885	1228.29
980.185	1268.06
980.484	1248.85
980.784	1272.13
981.083	1237.55
981.382	1243.2
981.682	1220.38
981.981	1224.67
982.28	1232.13
982.579	1216.08
982.878	1199.59
983.177	1210.43
983.475	1167.5
983.774	1205.91
984.073	1207.5
984.372	1179.93
984.67	1167.72
984.969	1201.39
985.267	1197.78
985.566	1190.32
985.864	1173.37
986.162	1151.45
986.461	1166.14
986.759	1150.77
987.057	1123.43
987.355	1150.77
987.653	1150.1
987.951	1150.1
988.249	1127.05
988.547	1122.08
988.844	1140.61
989.142	1124.79
989.44	1100.83
989.737	1089.31
990.035	1108.52
990.332	1086.6
990.63	1119.36
990.927	1102.64
991.224	1086.82
991.521	1089.08
991.819	1085.92
992.116	1086.14
992.413	1072.58
992.71	1085.01
993.006	1080.04
993.303	1051.79
993.6	1096.54
993.897	1051.34
994.193	1024
994.49	1038.69
994.787	1086.37
995.083	1021.51
995.379	1026.94
995.676	1022.42
995.972	1039.59
996.268	1024.9
996.565	1028.29
996.861	1014.96
997.157	1012.25
997.453	1027.84
997.749	1000.04
998.044	998.46
998.34	994.39
998.636	986.03
998.932	1005.47
999.227	967.73
999.523	973.38
999.818	982.19
1000.114	975.64
1000.409	991.91
1000.704	953.04
1001	966.37
1001.295	968.86
1001.59	935.87
1001.885	964.11
1002.18	950.33
1002.475	937.9
1002.77	922.31
1003.065	930.67
1003.359	917.33
1003.654	930.22
1003.949	923.44
1004.243	933.38
1004.538	927.73
1004.832	922.53
1005.127	899.93
1005.421	897.9
1005.715	886.37
1006.009	870.1
1006.304	864.45
1006.598	871.23
1006.892	848.41
1007.186	864.45
1007.48	866.26
1007.773	856.09
1008.067	856.55
1008.361	872.82
1008.655	862.42
1008.948	850.44
1009.242	832.37
1009.535	851.35
1009.829	838.69
1010.122	824.68
1010.415	857.45
1010.708	819.71
1011.001	836.88
1011.295	827.62
1011.588	831.24
1011.881	838.92
1012.173	817.68
1012.466	809.99
1012.759	833.04
1013.052	800.73
1013.344	795.98
1013.637	806.38
1013.93	817.22
1014.222	804.12
1014.514	768.19
1014.807	787.17
1015.099	781.07
1015.391	781.74
1015.683	783.1
1015.976	773.16
1016.268	771.12
1016.56	765.7
1016.851	739.71
1017.143	777.9
1017.435	739.03
1017.727	752.59
1018.018	761.41
1018.31	762.76
1018.602	767.96
1018.893	746.27
1019.185	753.05
1019.476	748.3
1019.767	749.43
1020.058	701.52
1020.35	717.11
1020.641	717.79
1020.932	719.83
1021.223	713.5
1021.514	732.25
1021.804	680.73
1022.095	700.62
1022.386	723.89
1022.677	703.55
1022.967	692.71
1023.258	698.81
1023.548	669.43
1023.839	687.51
1024.129	656.55
1024.419	683.22
1024.709	660.62
1025	661.3
1025.29	671.92
1025.58	671.47
1025.87	667.4
1026.16	649.55
1026.449	685.7
1026.739	632.37
1027.029	659.49
1027.319	649.77
1027.608	662.65
1027.898	633.27
1028.187	659.26
1028.477	670.11
1028.766	645.7
1029.055	617.68
1029.344	621.3
1029.634	637.12
1029.923	626.72
1030.212	599.6
1030.501	628.98
1030.79	621.3
1031.078	607.74
1031.367	601.41
1031.656	611.13
1031.945	620.62
1032.233	618.59
1032.522	595.99
1032.81	606.83
1033.099	591.92
1033.387	593.5
1033.675	596.89
1033.963	584.01
1034.251	567.74
1034.54	582.2
1034.828	582.88
1035.116	573.84
1035.403	561.86
1035.691	561.86
1035.979	587.63
1036.267	539.72
1036.554	560.96
1036.842	558.7
1037.129	547.85
1037.417	564.58
1037.704	555.99
1037.992	538.14
1038.279	555.31
1038.566	521.19
1038.853	521.19
1039.14	521.19
