Data from black_metal_pc_casing_FLMS001491_00064.txt Node
Date: Wed Feb 08 14:33:18 GMT 2017
User: dcchb
Spectrometer: FLMS00149
Trigger mode: 0
Integration Time (sec): 2.000000E-2
Scans to average: 10
Electric dark correction enabled: true
Nonlinearity correction enabled: false
Boxcar width: 0
XAxis mode: Wavelengths
Number of Pixels in Spectrum: 2048
>>>>>Begin Spectral Data<<<<<
341.393	-21.34
341.776	-21.34
342.16	-21.34
342.543	-74.67
342.927	-55.69
343.31	-73.54
343.693	-71.06
344.077	-64.5
344.46	-76.26
344.843	-57.72
345.226	-54.56
345.61	-14.79
345.993	5.32
346.376	-19.99
346.759	-2.13
347.142	31.54
347.525	44.65
347.908	79.9
348.291	63.85
348.674	92.33
349.057	116.96
349.44	115.15
349.823	146.79
350.206	155.38
350.588	166.22
350.971	207.81
351.354	211.2
351.737	215.71
352.119	241.7
352.502	261.36
352.884	244.87
353.267	264.07
353.65	290.51
354.032	278.76
354.414	279.44
354.797	286.67
355.179	277.86
355.562	290.51
355.944	296.84
356.326	300.68
356.709	322.83
357.091	311.08
357.473	308.59
357.855	334.58
358.238	325.09
358.62	333
359.002	337.97
359.384	320.34
359.766	333.23
360.148	322.83
360.53	319.44
360.912	302.27
361.294	326.45
361.676	306.56
362.057	308.37
362.439	302.27
362.821	309.5
363.203	314.7
363.584	311.31
363.966	283.96
364.348	309.27
364.729	325.54
365.111	323.73
365.493	302.49
365.874	309.27
366.256	307.24
366.637	300.46
367.019	305.43
367.4	315.6
367.781	296.62
368.163	319.67
368.544	298.88
368.925	300.46
369.306	319.67
369.688	305.43
370.069	302.49
370.45	302.94
370.831	312.89
371.212	301.14
371.593	304.53
371.974	315.83
372.355	313.79
372.736	318.99
373.117	289.39
373.498	306.33
373.879	296.84
374.26	318.08
374.641	330.06
375.021	298.42
375.402	312.89
375.783	330.97
376.163	330.06
376.544	307.92
376.925	321.25
377.305	316.95
377.686	322.15
378.066	322.38
378.447	325.54
378.827	323.96
379.208	337.75
379.588	345.65
379.968	351.3
380.349	320.57
380.729	341.14
381.109	334.36
381.489	332.77
381.87	335.49
382.25	343.85
382.63	353.11
383.01	346.78
383.39	332.32
383.77	343.17
384.15	331.19
384.53	365.54
384.91	358.31
385.29	355.82
385.67	337.97
386.049	373.9
386.429	360.8
386.809	356.05
387.189	377.29
387.568	343.85
387.948	358.54
388.328	382.04
388.707	367.35
389.087	362.38
389.466	354.02
389.846	380.46
390.225	348.59
390.605	364.64
390.984	380.46
391.363	378.65
391.743	362.6
392.122	381.36
392.501	376.16
392.881	368.93
393.26	369.83
393.639	404.64
394.018	370.96
394.397	393.79
394.776	389.95
395.155	396.27
395.534	396.05
395.913	364.86
396.292	391.08
396.671	384.3
397.05	396.27
397.429	414.13
397.808	406.67
398.186	419.78
398.565	400.57
398.944	402.83
399.323	405.77
399.701	399.66
400.08	404.18
400.458	414.81
400.837	403.73
401.215	414.35
401.594	408.7
401.972	437.86
402.351	438.99
402.729	451.41
403.107	429.49
403.486	427.91
403.864	455.93
404.242	468.82
404.62	455.71
404.999	463.62
405.377	439.44
405.755	456.39
406.133	431.75
406.511	473.56
406.889	486.22
407.267	438.99
407.645	474.01
408.023	494.35
408.401	474.46
408.779	473.56
409.156	483.5
409.534	480.57
409.912	520.79
410.29	484.63
410.667	489.61
411.045	497.74
411.422	491.87
411.8	504.52
412.178	515.14
412.555	507.01
412.933	508.14
413.31	511.98
413.687	518.31
414.065	515.82
414.442	512.66
414.819	521.24
415.197	529.6
415.574	526.44
415.951	532.77
416.328	540.45
416.705	560.11
417.082	541.81
417.46	538.19
417.837	558.76
418.214	570.51
418.591	550.17
418.967	569.83
419.344	569.83
419.721	589.26
420.098	565.31
420.475	582.71
420.852	612.09
421.228	602.82
421.605	616.83
421.982	601.02
422.358	593.78
422.735	607.57
423.111	623.84
423.488	598.53
423.864	637.4
424.241	622.03
424.617	622.26
424.994	634.23
425.37	630.39
425.746	625.42
426.123	618.64
426.499	650.51
426.875	670.39
427.251	637.85
427.627	666.78
428.003	677.17
428.379	723.95
428.756	680.34
429.132	685.76
429.507	696.83
429.883	686.21
430.259	701.13
430.635	711.75
431.011	711.97
431.387	758.98
431.763	740.45
432.138	746.55
432.514	750.62
432.89	762.14
433.265	768.69
433.641	763.04
434.016	777.28
434.392	799.65
434.767	799.2
435.143	807.34
435.518	811.86
435.894	813.44
436.269	845.98
436.644	812.31
437.02	825.64
437.395	837.39
437.77	813.44
438.145	869.03
438.52	827.9
438.895	872.19
439.271	856.83
439.646	884.4
440.021	879.65
440.395	872.42
440.77	898.18
441.145	902.02
441.52	900.22
441.895	888.24
442.27	943.38
442.645	901.8
443.019	930.95
443.394	939.31
443.769	907
444.143	930.72
444.518	977.73
444.892	921.01
445.267	951.74
445.641	979.31
446.016	953.32
446.39	984.73
446.764	969.37
447.139	985.19
447.513	992.42
447.887	977.95
448.262	990.38
448.636	1007.11
449.01	984.51
449.384	1002.13
449.758	1003.49
450.132	1040.33
450.506	1034.68
450.88	1045.98
451.254	1033.77
451.628	1075.13
452.002	1028.8
452.376	1082.13
452.75	1071.51
453.123	1057.95
453.497	1109.7
453.871	1111.51
454.244	1102.92
454.618	1128.91
454.992	1159.64
455.365	1122.36
455.739	1165.52
456.112	1172.75
456.486	1195.12
456.859	1196.48
457.232	1212.3
457.606	1211.62
457.979	1224.73
458.352	1233.54
458.725	1248.68
459.099	1264.5
459.472	1284.16
459.845	1305.4
460.218	1311.05
460.591	1335.01
460.964	1299.75
461.337	1365.06
461.71	1354.89
462.083	1401.67
462.456	1394.44
462.829	1400.32
463.201	1387.66
463.574	1407.32
463.947	1449.35
464.32	1461.11
464.692	1474.21
465.065	1506.08
465.438	1506.53
465.81	1502.91
466.183	1507.88
466.555	1589.01
466.928	1571.39
467.3	1555.11
467.672	1607.54
468.045	1590.14
468.417	1659.52
468.789	1644.38
469.161	1678.28
469.534	1675.56
469.906	1729.57
470.278	1701.33
470.65	1716.47
471.022	1780.87
471.394	1814.99
471.766	1784.49
472.138	1813.41
472.51	1858.16
472.882	1892.73
473.253	1877.59
473.625	1917.36
473.997	1965.27
474.369	1963.24
474.74	1999.62
475.112	2015.44
475.484	2047.98
475.855	2078.94
476.227	2092.73
476.598	2123.69
476.97	2147.87
477.341	2212.27
477.713	2226.51
478.084	2250.92
478.455	2288.2
478.827	2332.72
479.198	2364.36
479.569	2388.76
479.94	2464.24
480.311	2451.81
480.682	2526.61
481.053	2541.98
481.424	2610.45
481.795	2618.59
482.166	2679.83
482.537	2682.54
482.908	2712.6
483.279	2743.33
483.65	2811.8
484.021	2863.33
484.391	2877.57
484.762	2896.77
485.133	2916.66
485.503	2971.8
485.874	3013.83
486.244	3051.12
486.615	3120.27
486.985	3169.08
487.356	3198.91
487.726	3239.82
488.097	3317.78
488.467	3267.84
488.837	3385.12
489.207	3401.39
489.578	3432.13
489.948	3510.09
490.318	3511.22
490.688	3580.15
491.058	3605.23
491.428	3599.13
491.798	3639.58
492.168	3760.03
492.538	3757.99
492.908	3744.44
493.278	3852
493.648	3826.92
494.017	3903.53
494.387	3958.44
494.757	3985.56
495.126	4033.47
495.496	4006.12
495.866	4053.35
496.235	4101.04
496.605	4103.07
496.974	4108.95
497.344	4155.72
497.713	4175.84
498.082	4248.6
498.452	4271.43
498.821	4308.71
499.19	4291.09
499.559	4386.9
499.928	4384.19
500.298	4429.39
500.667	4437.52
501.036	4401.14
501.405	4497.18
501.774	4517.07
502.143	4585.54
502.512	4583.96
502.88	4642.94
503.249	4557.75
503.618	4654.02
503.987	4666.45
504.356	4668.93
504.724	4712.77
505.093	4751.41
505.462	4762.71
505.83	4825.99
506.199	4863.95
506.567	4905.08
506.936	4926.78
507.304	4966.1
507.672	4985.31
508.041	5031.18
508.409	5075.47
508.777	5102.14
509.145	5070.28
509.514	5108.47
509.882	5162.7
510.25	5153.66
510.618	5186.66
510.986	5297.16
511.354	5267.79
511.722	5335.35
512.09	5383.26
512.458	5412.64
512.826	5443.83
513.193	5447.44
513.561	5510.49
513.929	5493.77
514.297	5586.19
514.664	5644.5
515.032	5635.46
515.4	5699.64
515.767	5672.29
516.135	5816.25
516.502	5785.06
516.869	5871.16
517.237	5854.44
517.604	5875
517.972	5936.02
518.339	6009.91
518.706	6014.66
519.073	6037.48
519.44	6079.52
519.808	6174.65
520.175	6131.49
520.542	6268.89
520.909	6274.99
521.276	6262.34
521.643	6372.39
522.009	6390.47
522.376	6405.16
522.743	6486.74
523.11	6542.33
523.477	6608.99
523.843	6618.26
524.21	6691.7
524.577	6693.51
524.943	6756.33
525.31	6818.48
525.676	6892.38
526.043	6936.89
526.409	6935.31
526.776	7018.02
527.142	7025.03
527.508	7076.78
527.874	7142.31
528.241	7149.09
528.607	7257.56
528.973	7292.36
529.339	7307.05
529.705	7366.04
530.071	7365.81
530.437	7453.72
530.803	7414.85
531.169	7489.42
531.535	7531.45
531.901	7550.44
532.267	7599.48
532.632	7623.66
532.998	7726.03
533.364	7715.18
533.73	7737.55
534.095	7855.74
534.461	7905
534.826	7919.24
535.192	7981.61
535.557	7965.34
535.923	8009.18
536.288	8040.14
536.653	8106.35
537.019	8007.37
537.384	8118.78
537.749	8151.55
538.114	8156.75
538.479	8116.07
538.845	8256.86
539.21	8192.91
539.575	8264.54
539.94	8278.55
540.305	8353.81
540.67	8311.55
541.034	8491.66
541.399	8487.81
541.764	8399.68
542.129	8454.37
542.494	8527.59
542.858	8568.72
543.223	8565.78
543.587	8675.61
543.952	8604.87
544.316	8613.69
544.681	8674.02
545.045	8733.23
545.41	8719.22
545.774	8771.65
546.138	8786.79
546.503	8768.94
546.867	8803.29
547.231	8969.16
547.595	8817.52
547.959	8929.38
548.324	8967.35
548.688	8955.6
549.052	9012.32
549.416	9061.58
549.779	9059.1
550.143	9118.08
550.507	9116.5
550.871	9192.88
551.235	9167.34
551.599	9220.68
551.962	9272.43
552.326	9341.12
552.689	9349.49
553.053	9369.6
553.417	9360.33
553.78	9478.52
554.143	9446.66
554.507	9452.31
554.87	9505.19
555.234	9636.94
555.597	9578.18
555.96	9615.92
556.323	9663.38
556.686	9655.47
557.05	9770.72
557.413	9803.71
557.776	9813.43
558.139	9890.71
558.502	9836.7
558.865	9925.97
559.228	10053.87
559.59	10047.77
559.953	10076.47
560.316	10182.46
560.679	10123.93
561.041	10149.69
561.404	10283.7
561.767	10392.17
562.129	10224.04
562.492	10353.75
562.854	10358.05
563.217	10392.4
563.579	10483.92
563.941	10483.69
564.304	10611.37
564.666	10611.6
565.028	10662.45
565.39	10669.23
565.753	10756.91
566.115	10813.4
566.477	10810.01
566.839	10852.5
567.201	10985.83
567.563	10971.82
567.925	10994.87
568.287	11043.45
568.648	11015.88
569.01	11075.32
569.372	11181.08
569.734	11193.05
570.095	11260.85
570.457	11182.88
570.819	11292.49
571.18	11328.64
571.542	11351.47
571.903	11473.5
572.265	11397.34
572.626	11486.83
572.987	11477.79
573.349	11587.39
573.71	11590.78
574.071	11676.88
574.432	11689.31
574.794	11771.57
575.155	11739.03
575.516	11672.81
575.877	11735.64
576.238	11819.48
576.599	11869.19
576.96	11781.29
577.32	11818.57
577.681	11886.14
578.042	11948.29
578.403	11933.6
578.763	11863.09
579.124	11915.07
579.485	12018.57
579.845	12112.35
580.206	11987.83
580.566	12013.37
580.927	12015.18
581.287	12096.08
581.648	12031.68
582.008	12057.66
582.368	12077.1
582.728	12096.76
583.089	12009.75
583.449	12026.48
583.809	12043.2
584.169	12142.86
584.529	12170.65
584.889	12279.35
585.249	12133.37
585.609	12028.29
585.969	12213.14
586.329	12137.21
586.688	12113.93
587.048	12175.63
587.408	12091.79
587.768	12178.34
588.127	12124.33
588.487	12141.73
588.846	12197.55
589.206	12175.17
589.565	12110.54
589.925	12249.07
590.284	12144.67
590.643	12146.93
591.003	12167.26
591.362	12216.08
591.721	12203.2
592.08	12245.23
592.44	12255.85
592.799	12253.36
593.158	12327.71
593.517	12278.9
593.876	12226.7
594.235	12275.96
594.593	12194.16
594.952	12208.39
595.311	12250.65
595.67	12262.86
596.029	12342.85
596.387	12336.98
596.746	12319.35
597.104	12287.26
597.463	12315.51
597.822	12331.78
598.18	12382.17
598.538	12238.45
598.897	12315.96
599.255	12263.99
599.613	12443.19
599.972	12375.85
600.33	12368.39
600.688	12354.83
601.046	12442.29
601.404	12495.84
601.762	12445.22
602.12	12456.3
602.478	12517.76
602.836	12416.07
603.194	12431.21
603.552	12438.9
603.91	12385.79
604.268	12516.18
604.625	12491.78
604.983	12546.92
605.341	12529.52
605.698	12587.82
606.056	12609.29
606.413	12496.52
606.771	12567.71
607.128	12584.2
607.485	12558.67
607.843	12512.79
608.2	12613.35
608.557	12634.37
608.914	12649.51
609.272	12729.51
609.629	12739.91
609.986	12717.31
610.343	12698.1
610.7	12761.37
611.057	12680.02
611.414	12703.97
611.771	12782.39
612.127	12776.06
612.484	12773.8
612.841	12929.05
613.198	12846.34
613.554	12852.67
613.911	12883.18
614.267	12908.49
614.624	12914.59
614.98	12917.75
615.337	12960.69
615.693	12989.62
616.05	12962.95
616.406	12988.71
616.762	12995.49
617.118	13016.06
617.475	13061.03
617.831	13024.19
618.187	13073.68
618.543	13054.7
618.899	13083.62
619.255	13079.33
619.611	13021.25
619.967	13034.81
620.323	13159.1
620.678	13090.4
621.034	13048.82
621.39	13033
621.746	13075.04
622.101	13141.02
622.457	13068.48
622.812	13159.56
623.168	13102.16
623.523	13133.57
623.879	13052.21
624.234	13143.96
624.589	13187.35
624.945	13190.29
625.3	13136.73
625.655	13155.94
626.01	13136.96
626.365	13101.03
626.72	13076.39
627.075	13152.78
627.43	13220.8
627.785	13018.32
628.14	13038.88
628.495	13105.55
628.85	13114.13
629.205	13040.91
629.559	13068.94
629.914	13035.49
630.269	13074.13
630.623	13008.37
630.978	13015.15
631.332	13101.03
631.687	13089.05
632.041	13001.37
632.396	13002.95
632.75	12934.02
633.104	13007.47
633.459	12885.21
633.813	12901.71
634.167	12907.13
634.521	12866.91
634.875	12857.87
635.229	12895.38
635.583	12856.29
635.937	12739
636.291	12799.11
636.645	12898.55
636.999	12714.37
637.352	12875.95
637.706	12770.19
638.06	12837.76
638.413	12795.04
638.767	12767.02
639.121	12825.55
639.474	12708.49
639.828	12653.35
640.181	12666.69
640.534	12653.13
640.888	12610.42
641.241	12640.7
641.594	12606.35
641.947	12647.25
642.301	12647.93
642.654	12584.43
643.007	12661.26
643.36	12541.72
643.713	12603.86
644.066	12567.25
644.419	12490.19
644.771	12379.46
645.124	12216.53
645.477	12233.7
645.83	12258.56
646.182	12193.03
646.535	12113.03
646.888	12122.52
647.24	12110.09
647.593	12058.57
647.945	12085.69
648.298	12019.25
648.65	11980.15
649.002	12025.12
649.355	12013.82
649.707	12012.92
650.059	12029.87
650.411	12179.24
650.763	12235.96
651.115	12346.24
651.467	12209.3
651.819	12312.8
652.171	12214.27
652.523	12203.2
652.875	12218.34
653.227	12229.86
653.578	12259.69
653.93	12239.58
654.282	12112.13
654.633	12244.55
654.985	12165.68
655.337	12179.69
655.688	12181.05
656.039	12237.32
656.391	12149.86
656.742	12103.09
657.094	12127.49
657.445	12163.42
657.796	12085.69
658.147	12042.52
658.498	12130.43
658.849	12089.53
659.2	12105.12
659.551	12036.19
659.902	12105.35
660.253	12054.05
660.604	12039.81
660.955	11997.55
661.306	12042.52
661.656	12035.29
662.007	12040.94
662.358	11963.65
662.708	11944.67
663.059	11959.59
663.409	11903.99
663.76	11951.9
664.11	11980.15
664.461	12051.34
664.811	11957.55
665.161	11899.7
665.511	11951.9
665.862	11936.76
666.212	11867.16
666.562	11902.64
666.912	11917.55
667.262	11918.01
667.612	11934.95
667.962	11868.06
668.312	11853.15
668.662	11890.89
669.011	11917.1
669.361	11821.06
669.711	11826.93
670.06	11876.88
670.41	11854.73
670.76	11866.71
671.109	11913.26
671.459	11854.5
671.808	11845.69
672.157	11895.63
672.507	11727.28
672.856	11736.54
673.205	11785.81
673.554	11753.72
673.904	11749.65
674.253	11772.7
674.602	11784.68
674.951	11603.44
675.3	11517.56
675.649	11745.81
675.998	11720.04
676.346	11655.87
676.695	11748.52
677.044	11611.8
677.393	11674.4
677.741	11755.07
678.09	11624.23
678.438	11620.39
678.787	11686.6
679.135	11607.96
679.484	11551.46
679.832	11595.08
680.181	11549.2
680.529	11655.41
680.877	11520.05
681.225	11516.66
681.573	11554.85
681.922	11550.78
682.27	11451.13
682.618	11472.82
682.966	11394.18
683.314	11466.27
683.661	11428.3
684.009	11374.97
684.357	11345.14
684.705	11348.53
685.053	11299.49
685.4	11319.6
685.748	11314.18
686.095	11254.52
686.443	11277.57
686.79	11206.39
687.138	11256.78
687.485	11211.58
687.832	11192.83
688.18	11212.71
688.527	11060.85
688.874	11128.2
689.221	11062.89
689.568	11045.49
689.915	11072.6
690.262	11023.57
690.609	10941.31
690.956	10933.62
691.303	10950.35
691.65	10837.81
691.997	10898.15
692.344	10733.4
692.69	10801.43
693.037	10828.32
693.383	10761.2
693.73	10753.29
694.077	10697.02
694.423	10740.18
694.769	10654.54
695.116	10628.77
695.462	10641.43
695.808	10611.83
696.155	10590.13
696.501	10555.1
696.847	10493.86
697.193	10412.73
697.539	10487.76
697.885	10383.36
698.231	10397.14
698.577	10410.25
698.923	10390.14
699.269	10266.75
699.614	10296.81
699.96	10274.43
700.306	10240.31
700.651	10204.6
700.997	10289.12
701.342	10099.75
701.688	10203.7
702.033	10143.14
702.379	10182.01
702.724	10029.92
703.069	10053.65
703.415	10005.29
703.76	9969.13
704.105	10026.76
704.45	9920.54
704.795	9897.27
705.14	9936.81
705.485	9847.1
705.83	9801
706.175	9817.72
706.52	9776.37
706.865	9752.64
707.209	9742.92
707.554	9754.22
707.899	9747.22
708.243	9688.69
708.588	9757.16
708.932	9590.61
709.277	9625.41
709.621	9621.34
709.966	9517.39
710.31	9587.67
710.654	9418.41
710.998	9523.72
711.342	9532.53
711.687	9482.36
712.031	9404.17
712.375	9394.46
712.719	9393.1
713.063	9427.68
713.407	9459.09
713.75	9363.95
714.094	9430.39
714.438	9396.26
714.782	9405.53
715.125	9296.38
715.469	9332.99
715.812	9327.57
716.156	9212.99
716.499	9252.31
716.843	9222.26
717.186	9165.99
717.53	9229.04
717.873	9172.77
718.216	9172.09
718.559	9180.68
718.902	9102.49
719.246	9140.68
719.589	9123.05
719.932	9037.63
720.275	9064.75
720.617	8989.04
720.96	9037.86
721.303	9008.7
721.646	9084.41
721.989	8928.93
722.331	9036.05
722.674	8994.69
723.016	8923.96
723.359	8924.64
723.701	8943.62
724.044	8928.25
724.386	8843.96
724.729	8880.12
725.071	8896.62
725.413	8822.04
725.755	8858.2
726.097	8815.49
726.439	8800.8
726.782	8741.14
727.124	8856.39
727.465	8771.42
727.807	8726.45
728.149	8690.52
728.491	8749.28
728.833	8710.63
729.175	8638.32
729.516	8573.69
729.858	8619.56
730.199	8637.19
730.541	8561.48
730.882	8599.68
731.224	8599.45
731.565	8474.03
731.906	8563.52
732.248	8526
732.589	8514.03
732.93	8472.22
733.271	8523.29
733.612	8528.26
733.953	8508.6
734.294	8461.6
734.635	8465.89
734.976	8446.68
735.317	8458.21
735.658	8455.27
735.999	8417.76
736.339	8361.26
736.68	8409.85
737.021	8368.72
737.361	8356.07
737.702	8406.23
738.042	8387.48
738.383	8337.76
738.723	8377.31
739.063	8234.94
739.404	8316.97
739.744	8306.8
740.084	8228.16
740.424	8297.08
740.764	8255.5
741.104	8290.98
741.444	8202.4
741.784	8205.56
742.124	8202.17
742.464	8197.65
742.804	8172.12
743.143	8179.8
743.483	8160.14
743.823	8057.77
744.162	8105.22
744.502	8168.95
744.841	8080.37
745.181	8093.7
745.52	8033.81
745.86	8072.23
746.199	8022.29
746.538	7947.04
746.877	8030.88
747.216	8000.14
747.556	7993.36
747.895	7997.88
748.234	7976.87
748.573	7961.73
748.911	7901.39
749.25	7975.96
749.589	7822.29
749.928	7882.41
750.267	7876.76
750.605	7843.08
750.944	7855.06
751.283	7872.69
751.621	7865.46
751.96	7753.14
752.298	7822.97
752.636	7781.62
752.975	7802.63
753.313	7791.33
753.651	7788.17
753.989	7707.72
754.327	7686.7
754.666	7699.59
755.004	7599.93
755.342	7719.47
755.679	7676.31
756.017	7600.15
756.355	7652.81
756.693	7566.71
757.031	7593.15
757.368	7547.27
757.706	7519.03
758.044	7502.08
758.381	7497.33
758.719	7519.7
759.056	7458.91
759.394	7420.05
759.731	7371.01
760.068	7355.87
760.405	7376.66
760.743	7368.29
761.08	7372.14
761.417	7339.37
761.754	7265.47
762.091	7286.94
762.428	7191.35
762.765	7230.67
763.102	7245.13
763.438	7226.6
763.775	7185.93
764.112	7207.62
764.449	7172.82
764.785	7117.23
765.122	7073.39
765.458	7099.6
765.795	7059.83
766.131	7041.3
766.467	6969.44
766.804	6978.7
767.14	6944.8
767.476	6955.2
767.812	6896.44
768.148	6959.27
768.485	6905.48
768.821	6853.28
769.157	6829.78
769.492	6819.38
769.828	6751.14
770.164	6771.25
770.5	6729.89
770.836	6739.61
771.171	6703.91
771.507	6659.16
771.842	6643.79
772.178	6683.12
772.513	6577.36
772.849	6576.9
773.184	6564.7
773.519	6571.03
773.855	6494.65
774.19	6492.61
774.525	6495.32
774.86	6468.66
775.195	6481.09
775.53	6496.45
775.865	6445.83
776.2	6373.29
776.535	6341.2
776.87	6296.01
777.205	6313.86
777.539	6244.93
777.874	6273.63
778.209	6218.72
778.543	6208.1
778.878	6174.88
779.212	6203.13
779.547	6175.11
779.881	6202.22
780.215	6114.99
780.55	6130.81
780.884	6098.27
781.218	6032.74
781.552	6047.43
781.886	5964.26
782.22	5993.19
782.554	5956.13
782.888	5922.68
783.222	5820.09
783.556	5907.77
783.889	5916.36
784.223	5877.94
784.557	5851.27
784.89	5833.42
785.224	5815.57
785.557	5776.25
785.891	5708
786.224	5708.45
786.558	5704.38
786.891	5700.09
787.224	5671.84
787.557	5657.61
787.891	5631.84
788.224	5615.12
788.557	5578.96
788.89	5612.63
789.223	5596.36
789.556	5534.44
789.888	5534.22
790.221	5523.37
790.554	5498.06
790.887	5487.67
791.219	5497.16
791.552	5472.75
791.884	5405.86
792.217	5432.75
792.549	5373.77
792.882	5352.08
793.214	5323.83
793.546	5369.7
793.879	5277.5
794.211	5289.48
794.543	5305.07
794.875	5283.6
795.207	5278.86
795.539	5270.95
795.871	5272.98
796.203	5162.48
796.535	5189.6
796.867	5134.46
797.198	5191.86
797.53	5117.73
797.862	5129.94
798.193	5155.02
798.525	5104.4
798.856	5098.07
799.188	5071.41
799.519	5050.84
799.85	5068.24
800.182	5018.53
800.513	5042.03
800.844	4962.03
801.175	4983.72
801.506	4986.89
801.837	4971.52
802.168	4964.97
802.499	4941.92
802.83	4885.87
803.161	4871.41
803.491	4889.49
803.822	4900.56
804.153	4871.41
804.483	4873.45
804.814	4811.07
805.145	4786.67
805.475	4828.02
805.805	4790.96
806.136	4791.41
806.466	4783.05
806.796	4771.53
807.126	4708.48
807.457	4734.69
807.787	4698.76
808.117	4713.45
808.447	4715.71
808.777	4740.57
809.107	4670.51
809.436	4674.35
809.766	4664.86
810.096	4636.84
810.426	4601.81
810.755	4628.93
811.085	4617.41
811.414	4586.45
811.744	4560.01
812.073	4557.07
812.403	4575.37
812.732	4513.91
813.061	4513.45
813.39	4502.16
813.719	4478.2
814.049	4509.16
814.378	4478.65
814.707	4469.39
815.036	4426.45
815.365	4440.91
815.693	4379.9
816.022	4403.18
816.351	4431.87
816.68	4379.22
817.008	4400.92
817.337	4386.45
817.665	4388.71
817.994	4344.42
818.322	4417.86
818.651	4346.45
818.979	4263.97
819.307	4346.23
819.636	4315.49
819.964	4347.81
820.292	4286.57
820.62	4334.7
820.948	4319.79
821.276	4338.09
821.604	4293.57
821.932	4306
822.259	4286.79
822.587	4311.88
822.915	4287.7
823.243	4319.56
823.57	4281.82
823.898	4272.11
824.225	4287.7
824.553	4284.31
824.88	4279.11
825.207	4306.68
825.535	4279.79
825.862	4272.56
826.189	4239.79
826.516	4241.82
826.843	4301.03
827.17	4283.4
827.497	4294.48
827.824	4269.39
828.151	4289.05
828.478	4266.46
828.805	4277.3
829.131	4251.77
829.458	4237.3
829.785	4226.46
830.111	4227.81
830.438	4254.03
830.764	4324.08
831.09	4282.05
831.417	4263.97
831.743	4309.62
832.069	4251.31
832.395	4205.44
832.722	4258.77
833.048	4254.03
833.374	4235.27
833.7	4251.54
834.026	4278.21
834.351	4240.47
834.677	4203.41
835.003	4251.54
835.329	4201.6
835.654	4194.14
835.98	4213.8
836.306	4199.79
836.631	4188.49
836.956	4190.3
837.282	4156.18
837.607	4187.81
837.932	4136.29
838.258	4141.26
838.583	4169.28
838.908	4169.73
839.233	4181.94
839.558	4140.58
839.883	4164.54
840.208	4106.91
840.533	4110.08
840.858	4129.51
841.182	4122.96
841.507	4103.07
841.832	4087.7
842.156	4076.18
842.481	4047.25
842.805	4058.33
843.13	4038.89
843.454	4053.58
843.778	4014.03
844.103	4049.96
844.427	3963.86
844.751	4000.47
845.075	3985.56
845.399	3960.93
845.723	3926.58
846.047	3983.07
846.371	3941.04
846.695	3956.18
847.019	3934.49
847.343	3913.02
847.666	3916.41
847.99	3846.35
848.313	3888.39
848.637	3798.9
848.96	3844.09
849.284	3805.68
849.607	3834.15
849.931	3808.61
850.254	3774.04
850.577	3785.11
850.9	3738.11
851.223	3748.28
851.546	3732.91
851.869	3658.56
852.192	3688.17
852.515	3674.15
852.838	3662.86
853.161	3652.91
853.483	3664.44
853.806	3642.97
854.129	3646.58
854.451	3618.34
854.774	3610.2
855.096	3566.36
855.419	3591.9
855.741	3596.64
856.063	3530.2
856.385	3565.01
856.708	3574.95
857.03	3528.17
857.352	3505.8
857.674	3480.26
857.996	3521.16
858.318	3485.01
858.64	3513.26
858.961	3449.75
859.283	3456.99
859.605	3454.73
859.926	3473.03
860.248	3475.52
860.57	3419.25
860.891	3444.78
861.212	3467.38
861.534	3448.4
861.855	3371.34
862.176	3382.64
862.498	3360.94
862.819	3381.96
863.14	3393.71
863.461	3414.27
863.782	3396.42
864.103	3383.54
864.424	3376.99
864.745	3359.13
865.065	3332.47
865.386	3351.68
865.707	3344.45
866.027	3307.38
866.348	3321.85
866.668	3299.02
866.989	3299.48
867.309	3337.67
867.63	3312.13
867.95	3299.48
868.27	3254.5
868.59	3307.61
868.91	3262.87
869.23	3230.78
869.55	3265.13
869.87	3245.24
870.19	3242.98
870.51	3252.7
870.83	3284.79
871.15	3200.04
871.469	3246.6
871.789	3233.94
872.109	3251.79
872.428	3253.15
872.748	3239.36
873.067	3236.65
873.386	3203.43
873.706	3238.46
874.025	3200.95
874.344	3220.61
874.663	3236.88
874.982	3182.64
875.301	3167.73
875.62	3184.9
875.939	3196.2
876.258	3185.13
876.577	3176.31
876.896	3154.62
877.214	3143.77
877.533	3148.07
877.852	3153.04
878.17	3147.39
878.489	3167.95
878.807	3135.41
879.125	3123.21
879.444	3154.85
879.762	3144.68
880.08	3126.37
880.398	3143.32
880.716	3107.16
881.034	3074.62
881.352	3107.16
881.67	3106.94
881.988	3076.2
882.306	3080.5
882.624	3090.44
882.941	3037.56
883.259	3066.71
883.577	3030.78
883.894	3049.76
884.212	3032.36
884.529	3046.37
884.846	3027.39
885.164	3032.14
885.481	2990.56
885.798	2990.1
886.115	3016.54
886.432	2972.93
886.75	2953.72
887.067	2928.64
887.383	2974.51
887.7	2953.04
888.017	2934.29
888.334	2960.73
888.651	2921.63
888.967	2983.1
889.284	2916.43
889.6	2881.41
889.917	2881.86
890.233	2913.5
890.55	2915.53
890.866	2910.56
891.182	2899.26
891.498	2889.54
891.815	2871.92
892.131	2880.96
892.447	2852.93
892.763	2845.25
893.079	2838.02
893.395	2847.74
893.71	2858.81
894.026	2842.09
894.342	2815.87
894.657	2781.52
894.973	2837.11
895.289	2817.68
895.604	2795.99
895.92	2781.75
896.235	2739.72
896.55	2791.24
896.865	2752.37
897.181	2748.98
897.496	2755.76
897.811	2714.18
898.126	2726.84
898.441	2748.53
898.756	2719.15
899.071	2707.4
899.386	2720.73
899.7	2674.63
900.015	2694.52
900.33	2648.19
900.644	2643.45
900.959	2628.53
901.273	2643.67
901.588	2606.84
901.902	2602.77
902.216	2615.43
902.531	2587.4
902.845	2587.63
903.159	2584.47
903.473	2582.21
903.787	2596.44
904.101	2560.96
904.415	2588.53
904.729	2543.79
905.042	2532.72
905.356	2531.81
905.67	2552.15
905.984	2480.29
906.297	2490.91
906.611	2490.46
906.924	2485.94
907.237	2494.52
907.551	2487.07
907.864	2478.93
908.177	2467.63
908.491	2463.11
908.804	2447.29
909.117	2431.7
909.43	2416.56
909.743	2407.3
910.056	2401.87
910.368	2428.54
910.681	2405.49
910.994	2415.2
911.307	2388.99
911.619	2349.9
911.932	2353.96
912.244	2313.29
912.557	2372.49
912.869	2336.56
913.181	2326.85
913.494	2375.66
913.806	2328.2
914.118	2312.16
914.43	2293.4
914.742	2295.21
915.054	2259.05
915.366	2281.88
915.678	2276.9
915.99	2258.6
916.302	2241.2
916.613	2256.34
916.925	2223.12
917.236	2221.09
917.548	2205.49
917.859	2194.87
918.171	2203.01
918.482	2202.78
918.794	2155.1
919.105	2203.46
919.416	2173.4
919.727	2159.17
920.038	2155.78
920.349	2121.88
920.66	2130.69
920.971	2107.19
921.282	2110.13
921.593	2111.94
921.903	2103.57
922.214	2099.51
922.525	2085.04
922.835	2088.43
923.146	2071.26
923.456	2076.46
923.767	2031.71
924.077	2052.95
924.387	2043.92
924.697	2038.49
925.008	2031.03
925.318	2017.02
925.628	2028.32
925.938	2008.89
926.248	1984.48
926.558	1980.87
926.867	2005.5
927.177	1974.09
927.487	1951.49
927.796	1963.47
928.106	1961.43
928.416	1965.73
928.725	1936.57
929.034	1933.18
929.344	1919.62
929.653	1925.95
929.962	1913.3
930.271	1887.31
930.581	1889.79
930.89	1863.13
931.199	1880.08
931.508	1887.76
931.817	1869.91
932.125	1895.67
932.434	1858.61
932.743	1827.65
933.051	1869.68
933.36	1854.32
933.669	1797.14
933.977	1805.5
934.286	1809.57
934.594	1799.63
934.902	1797.82
935.21	1763.7
935.519	1805.28
935.827	1772.74
936.135	1747.65
936.443	1735.67
936.751	1744.94
937.059	1748.78
937.367	1735
937.674	1756.69
937.982	1724.15
938.29	1698.61
938.597	1731.83
938.905	1703.59
939.213	1699.97
939.52	1682.79
939.827	1691.38
940.135	1694.55
940.442	1696.35
940.749	1687.09
941.056	1703.36
941.363	1683.7
941.67	1700.2
941.977	1665.17
942.284	1653.42
942.591	1623.59
942.898	1646.19
943.205	1646.41
943.511	1632.17
943.818	1615
944.125	1624.04
944.431	1598.5
944.738	1601.89
945.044	1605.06
945.35	1579.52
945.657	1571.61
945.963	1570.48
946.269	1566.64
946.575	1562.35
946.881	1547.88
947.187	1552.4
947.493	1570.71
947.799	1542.23
948.105	1566.41
948.41	1530.71
948.716	1529.13
949.022	1501.78
949.327	1537.71
949.633	1514.89
949.938	1469.92
950.244	1467.43
950.549	1489.13
950.854	1468.11
951.16	1476.7
951.465	1475.12
951.77	1491.39
952.075	1466.98
952.38	1461.11
952.685	1458.62
952.99	1458.62
953.294	1439.64
953.599	1436.7
953.904	1438.73
954.209	1440.54
954.513	1415.68
954.818	1428.56
955.122	1439.19
955.426	1384.27
955.731	1417.72
956.035	1412.97
956.339	1388.57
956.643	1386.76
956.948	1389.92
957.252	1393.76
957.556	1380.2
957.86	1364.16
958.163	1370.26
958.467	1377.27
958.771	1387.21
959.075	1372.07
959.378	1363.71
959.682	1338.4
959.985	1319.87
960.289	1320.32
960.592	1297.04
960.896	1333.2
961.199	1332.07
961.502	1338.85
961.805	1308.79
962.108	1328.45
962.411	1304.73
962.714	1305.18
963.017	1311.73
963.32	1279.64
963.623	1289.81
963.926	1282.81
964.228	1256.59
964.531	1247.33
964.833	1267.66
965.136	1256.59
965.438	1244.61
965.741	1253.65
966.043	1248.68
966.345	1246.42
966.648	1241.68
966.95	1245.97
967.252	1252.98
967.554	1234.9
967.856	1227.89
968.158	1208.68
968.46	1219.76
968.761	1179.53
969.063	1204.16
969.365	1182.69
969.666	1203.94
969.968	1178.4
970.269	1170.49
970.571	1203.03
970.872	1194.45
971.174	1192.19
971.475	1182.92
971.776	1168.23
972.077	1147.89
972.378	1151.06
972.679	1130.49
972.98	1170.04
973.281	1155.35
973.582	1156.48
973.883	1140.89
974.183	1156.93
974.484	1106.31
974.785	1138.85
975.085	1116.03
975.386	1115.35
975.686	1112.19
975.986	1102.25
976.287	1118.06
976.587	1097.27
976.887	1096.37
977.187	1101.34
977.487	1077.16
977.787	1119.42
978.087	1078.97
978.387	1100.89
978.687	1100.89
978.987	1073.55
979.286	1053.21
979.586	1043.94
979.885	1096.6
980.185	1068.57
980.484	1051.4
980.784	1046.88
981.083	1053.88
981.382	1035.13
981.682	1058.63
981.981	1055.24
982.28	1048.46
982.579	1027.9
982.878	1010.95
983.177	1024.51
983.475	1024.96
983.774	1019.99
984.073	1013.89
984.372	1033.55
984.67	995.36
984.969	1013.89
985.267	1012.76
985.566	1019.08
985.864	999.87
986.162	986.99
986.461	996.03
986.759	993.77
987.057	976.37
987.355	970.72
987.653	947.9
987.951	989.25
988.249	975.69
988.547	991.06
988.844	982.25
989.142	950.38
989.44	943.15
989.737	925.53
990.035	941.57
990.332	943.61
990.63	952.42
990.927	944.06
991.224	926.2
991.521	954.45
991.819	946.77
992.116	908.58
992.413	948.12
992.71	904.28
993.006	915.13
993.303	914.91
993.6	913.55
993.897	909.26
994.193	921.68
994.49	913.1
994.787	891.18
995.083	923.04
995.379	900.44
995.676	890.27
995.972	897.5
996.268	854.79
996.565	871.06
996.861	861.8
997.157	876.04
997.453	843.04
997.749	867
998.044	853.89
998.34	850.95
998.636	869.93
998.932	859.99
999.227	841.91
999.523	845.3
999.818	848.47
1000.114	874.68
1000.409	830.61
1000.704	812.99
1001	833.78
1001.295	850.5
1001.59	833.33
1001.885	807.11
1002.18	823.83
1002.475	829.48
1002.77	815.25
1003.065	807.34
1003.359	801.69
1003.654	795.36
1003.949	807.11
1004.243	811.41
1004.538	800.33
1004.832	791.07
1005.127	790.16
1005.421	789.26
1005.715	791.74
1006.009	782.03
1006.304	783.38
1006.598	786.55
1006.892	774.34
1007.186	754.01
1007.48	771.63
1007.773	731.18
1008.067	754.68
1008.361	766.43
1008.655	762.82
1008.948	746.32
1009.242	737.96
1009.535	754.91
1009.829	724.18
1010.122	739.32
1010.415	714.68
1010.708	743.16
1011.001	738.86
1011.295	730.05
1011.588	737.06
1011.881	707.45
1012.173	728.7
1012.466	706.32
1012.759	677.4
1013.052	686.66
1013.344	714.01
1013.637	717.62
1013.93	704.52
1014.222	693.44
1014.514	703.84
1014.807	696.61
1015.099	679.21
1015.391	679.43
1015.683	677.4
1015.976	664.52
1016.268	674.69
1016.56	662.93
1016.851	682.37
1017.143	674.23
1017.435	657.06
1017.727	677.4
1018.018	665.87
1018.31	648.25
1018.602	649.83
1018.893	634.46
1019.185	658.19
1019.476	666.1
1019.767	662.93
1020.058	642.6
1020.35	655.93
1020.641	635.59
1020.932	631.07
1021.223	643.27
1021.514	627.46
1021.804	636.72
1022.095	643.73
1022.386	606.66
1022.677	628.81
1022.967	603.73
1023.258	613.44
1023.548	605.99
1023.839	618.64
1024.129	592.88
1024.419	586.78
1024.709	597.63
1025	610.96
1025.29	598.53
1025.58	599.21
1025.87	606.44
1026.16	592.88
1026.449	590.39
1026.739	580.45
1027.029	572.77
1027.319	597.63
1027.608	563.05
1027.898	562.6
1028.187	582.26
1028.477	577.06
1028.766	577.97
1029.055	576.84
1029.344	567.8
1029.634	565.76
1029.923	551.98
1030.212	571.64
1030.501	545.2
1030.79	544.75
1031.078	544.75
1031.367	570.73
1031.656	559.43
1031.945	551.07
1032.233	538.64
1032.522	538.87
1032.81	544.29
1033.099	534.35
1033.387	535.25
1033.675	534.58
1033.963	538.42
1034.251	509.04
1034.54	523.73
1034.828	524.63
1035.116	524.63
1035.403	517.4
1035.691	496.84
1035.979	517.85
1036.267	511.98
1036.554	501.36
1036.842	502.26
1037.129	507.91
1037.417	495.03
1037.704	519.44
1037.992	497.74
1038.279	507.46
1038.566	518.76
1038.853	518.76
1039.14	518.76
