Data from black_plastic_tray_FLMS001491_011.txt Node
Date: Tue Feb 07 10:39:21 GMT 2017
User: dcchb
Spectrometer: FLMS00149
Trigger mode: 0
Integration Time (sec): 2.000000E-2
Scans to average: 10
Electric dark correction enabled: true
Nonlinearity correction enabled: false
Boxcar width: 0
XAxis mode: Wavelengths
Number of Pixels in Spectrum: 2048
>>>>>Begin Spectral Data<<<<<
341.393	-0.89
341.776	-0.89
342.16	-0.89
342.543	-61.68
342.927	-62.36
343.31	-61.91
343.693	-65.97
344.077	-72.98
344.46	-36.14
344.843	-49.93
345.226	-44.96
345.61	-24.39
345.993	-27.78
346.376	-20.32
346.759	-0.89
347.142	16.06
347.525	62.84
347.908	53.35
348.291	61.93
348.674	100.8
349.057	110.29
349.44	126.56
349.823	134.25
350.206	161.82
350.588	174.47
350.971	186.45
351.354	208.6
351.737	202.04
352.119	232.55
352.502	250.18
352.884	254.02
353.267	268.26
353.65	277.97
354.032	283.4
354.414	289.72
354.797	300.8
355.179	277.07
355.562	302.83
355.944	303.73
356.326	314.58
356.709	302.15
357.091	316.39
357.473	308.71
357.855	322.72
358.238	317.75
358.62	301.93
359.002	340.34
359.384	339.21
359.766	333.79
360.148	317.29
360.53	338.08
360.912	315.49
361.294	304.19
361.676	306.9
362.057	313.45
362.439	290.18
362.821	298.54
363.203	308.03
363.584	318.65
363.966	306.45
364.348	311.19
364.729	304.19
365.111	304.41
365.493	294.24
365.874	299.67
366.256	295.37
366.637	300.57
367.019	291.53
367.4	299.67
367.781	260.57
368.163	310.74
368.544	296.5
368.925	292.21
369.306	292.21
369.688	301.02
370.069	301.48
370.45	312.55
370.831	293.79
371.212	295.37
371.593	295.6
371.974	288.82
372.355	301.7
372.736	296.96
373.117	291.08
373.498	321.59
373.879	302.15
374.26	313.23
374.641	304.64
375.021	319.55
375.402	307.35
375.783	323.85
376.163	317.52
376.544	298.99
376.925	317.75
377.305	307.35
377.686	313.23
378.066	291.08
378.447	327.46
378.827	320.91
379.208	311.42
379.588	338.76
379.968	310.74
380.349	320.46
380.729	315.94
381.109	306.45
381.489	327.69
381.87	320.91
382.25	314.36
382.63	326.33
383.01	330.63
383.39	318.42
383.77	322.27
384.15	328.82
384.53	332.89
384.91	318.88
385.29	340.12
385.67	332.89
386.049	346.45
386.429	365.2
386.809	346.9
387.189	320.46
387.568	328.59
387.948	355.26
388.328	338.76
388.707	349.84
389.087	365.43
389.466	370.85
389.846	362.04
390.225	359.78
390.605	329.27
390.984	340.34
391.363	364.07
391.743	360.23
392.122	351.19
392.501	365.2
392.881	375.15
393.26	361.36
393.639	394.13
394.018	374.69
394.397	359.33
394.776	387.57
395.155	376.05
395.534	369.95
395.913	368.37
396.292	385.31
396.671	382.6
397.05	382.38
397.429	375.37
397.808	394.58
398.186	397.29
398.565	378.99
398.944	376.5
399.323	380.57
399.701	404.75
400.08	363.17
400.458	404.98
400.837	391.64
401.215	413.56
401.594	391.19
401.972	406.78
402.351	392.32
402.729	398.87
403.107	410.62
403.486	394.58
403.864	425.99
404.242	412.43
404.62	442.71
404.999	431.64
405.377	417.63
405.755	419.89
406.133	440.45
406.511	426.67
406.889	433.9
407.267	429.38
407.645	437.52
408.023	434.8
408.401	431.87
408.779	435.71
409.156	445.65
409.534	472.54
409.912	459.44
410.29	463.05
410.667	464.18
411.045	459.66
411.422	467.12
411.8	472.77
412.178	489.49
412.555	483.62
412.933	472.09
413.31	500.57
413.687	487.46
414.065	488.81
414.442	483.84
414.819	498.98
415.197	503.96
415.574	498.76
415.951	489.49
416.328	523.84
416.705	487.91
417.082	489.49
417.46	516.16
417.837	505.31
418.214	516.84
418.591	513.22
418.967	522.71
419.344	518.64
419.721	505.31
420.098	538.31
420.475	534.24
420.852	532.66
421.228	533.11
421.605	546.21
421.982	562.94
422.358	560
422.735	569.04
423.111	571.07
423.488	583.73
423.864	576.27
424.241	560
424.617	558.19
424.994	577.17
425.37	582.6
425.746	583.05
426.123	584.63
426.499	588.7
426.875	583.28
427.251	595.03
427.627	598.42
428.003	598.64
428.379	612.2
428.756	619.88
429.132	618.98
429.507	618.08
429.883	655.14
430.259	649.49
430.635	628.47
431.011	642.48
431.387	649.49
431.763	654.69
432.138	686.55
432.514	670.05
432.89	671.41
433.265	711.41
433.641	682.93
434.016	699.2
434.392	713.89
434.767	715.7
435.143	721.13
435.518	718.19
435.894	742.37
436.269	724.97
436.644	740.79
437.02	750.95
437.395	729.49
437.77	731.75
438.145	752.08
438.52	778.98
438.895	779.2
439.271	763.84
439.646	779.2
440.021	776.04
440.395	784.85
440.77	782.59
441.145	815.36
441.52	785.53
441.895	814.68
442.27	807.45
442.645	821.01
443.019	828.69
443.394	805.64
443.769	839.09
444.143	814.91
444.518	845.42
444.892	858.75
445.267	863.27
445.641	857.84
446.016	829.82
446.39	857.17
446.764	864.4
447.139	882.25
447.513	893.55
447.887	896.04
448.262	897.17
448.636	880.22
449.01	902.36
449.384	920.22
449.758	907.79
450.132	920.22
450.506	909.59
450.88	899.2
451.254	929.26
451.628	916.6
452.002	936.94
452.376	963.38
452.75	949.59
453.123	947.11
453.497	974.45
453.871	964.73
454.244	974.45
454.618	1032.98
454.992	1016.26
455.365	1027.33
455.739	1031.63
456.112	1041.79
456.486	1054.9
456.859	1044.28
457.232	1083.38
457.606	1093.32
457.979	1105.52
458.352	1091.28
458.725	1109.82
459.099	1111.4
459.472	1144.84
459.845	1128.35
460.218	1162.7
460.591	1135.13
460.964	1167.44
461.337	1194.33
461.71	1216.03
462.083	1215.12
462.456	1207.89
462.829	1181.23
463.201	1218.97
463.574	1237.95
463.947	1247.44
464.32	1286.08
464.692	1297.16
465.065	1298.06
465.438	1289.47
465.81	1319.3
466.183	1324.05
466.555	1334.44
466.928	1361.11
467.3	1352.29
467.672	1403.14
468.045	1439.07
468.417	1418.06
468.789	1440.2
469.161	1438.39
469.534	1466.64
469.906	1488.79
470.278	1497.15
470.65	1506.42
471.022	1551.61
471.394	1565.85
471.766	1578.96
472.138	1599.29
472.51	1622.34
472.882	1637.94
473.253	1674.55
473.625	1665.73
473.997	1705.28
474.369	1719.06
474.74	1730.36
475.112	1780.53
475.484	1791.38
475.855	1798.38
476.227	1799.97
476.598	1881.32
476.97	1879.29
477.341	1904.37
477.713	1947.31
478.084	1973.97
478.455	2013.07
478.827	1997.7
479.198	2075.44
479.569	2069.56
479.94	2127.64
480.311	2133.52
480.682	2180.3
481.053	2224.81
481.424	2268.2
481.795	2275.66
482.166	2304.59
482.537	2344.59
482.908	2359.27
483.279	2381.65
483.65	2432.49
484.021	2463.45
484.391	2555.43
484.762	2528.31
485.133	2532.38
485.503	2581.64
485.874	2631.36
486.244	2643.33
486.615	2701.19
486.985	2698.47
487.356	2782.54
487.726	2774.18
488.097	2813.27
488.467	2857.11
488.837	2882.65
489.207	2943.67
489.578	2976.21
489.948	2974.85
490.318	3032.02
490.688	3030.44
491.058	3076.54
491.428	3101.18
491.798	3135.98
492.168	3203.77
492.538	3230.44
492.908	3262.3
493.278	3313.6
493.648	3304.33
494.017	3336.88
494.387	3363.77
494.757	3377.78
495.126	3455.97
495.496	3454.84
495.866	3447.38
496.235	3523.09
496.605	3556.98
496.974	3580.03
497.344	3616.87
497.713	3623.2
498.082	3628.85
498.452	3641.73
498.821	3691.22
499.19	3706.13
499.559	3739.12
499.928	3747.49
500.298	3799.01
500.667	3844.88
501.036	3855.96
501.405	3901.38
501.774	3871.32
502.143	3895.5
502.512	3924.88
502.88	3943.19
503.249	3978.44
503.618	4015.05
503.987	3997.2
504.356	4010.08
504.724	4062.28
505.093	4065.22
505.462	4092.79
505.83	4147.48
506.199	4167.59
506.567	4195.16
506.936	4213.01
507.304	4248.94
507.672	4281.26
508.041	4284.42
508.409	4311.99
508.777	4340.69
509.145	4364.19
509.514	4410.52
509.882	4458.43
510.25	4484.64
510.618	4474.02
510.986	4497.97
511.354	4518.54
511.722	4604.41
512.09	4631.08
512.458	4596.5
512.826	4702.04
513.193	4685.31
513.561	4747.46
513.929	4763.96
514.297	4791.53
514.664	4756.73
515.032	4850.06
515.4	4913.78
515.767	4919.88
516.135	4932.31
516.502	4883.28
516.869	5026.55
517.237	5040.11
517.604	5047.11
517.972	5075.36
518.339	5133.21
518.706	5134.57
519.073	5152.65
519.44	5247.33
519.808	5264.28
520.175	5299.99
520.542	5329.37
520.909	5419.08
521.276	5361.68
521.643	5419.98
522.009	5489.59
522.376	5505.86
522.743	5534.11
523.11	5589.25
523.477	5572.07
523.843	5670.37
524.21	5727.77
524.577	5755.12
524.943	5796.92
525.31	5835.11
525.676	5877.15
526.043	5899.97
526.409	5946.52
526.776	6042.12
527.142	6050.93
527.508	6072.85
527.874	6140.87
528.241	6125.95
528.607	6164.15
528.973	6226.52
529.339	6298.38
529.705	6286.63
530.071	6384.03
530.437	6378.15
530.803	6437.58
531.169	6506.74
531.535	6404.14
531.901	6541.54
532.267	6560.97
532.632	6562.1
532.998	6570.24
533.364	6582.21
533.73	6676.9
534.095	6721.65
534.461	6688.43
534.826	6833.28
535.192	6860.4
535.557	6844.81
535.923	6898.59
536.288	6878.48
536.653	6915.09
537.019	6895.88
537.384	6984.01
537.749	6952.15
538.114	7016.55
538.479	6999.38
538.845	7033.5
539.21	7054.07
539.575	7139.49
539.94	7144.69
540.305	7162.31
540.67	7176.1
541.034	7265.13
541.399	7299.71
541.764	7236.43
542.129	7259.48
542.494	7309.65
542.858	7319.6
543.223	7387.84
543.587	7435.75
543.952	7379.93
544.316	7381.97
544.681	7391.23
545.045	7493.15
545.41	7513.71
545.774	7582.19
546.138	7537.44
546.503	7494.51
546.867	7584.9
547.231	7658.12
547.595	7681.62
547.959	7714.16
548.324	7679.59
548.688	7720.49
549.052	7760.49
549.416	7748.51
549.779	7755.97
550.143	7805.23
550.507	7857.89
550.871	7856.98
551.235	7882.29
551.599	7890.88
551.962	7961.16
552.326	7937.88
552.689	8024.89
553.053	8025.34
553.417	8063.3
553.78	8105.34
554.143	8091.1
554.507	8150.08
554.87	8142.17
555.234	8200.93
555.597	8258.78
555.96	8272.79
556.323	8331.77
556.686	8338.33
557.05	8348.04
557.413	8367.48
557.776	8440.7
558.139	8444.09
558.502	8501.03
558.865	8550.07
559.228	8575.83
559.59	8617.19
559.953	8679.79
560.316	8722.5
560.679	8618.77
561.041	8808.82
561.404	8734.93
561.767	8853.11
562.129	8790.97
562.492	8974.69
562.854	8904.86
563.217	8962.04
563.579	9046.33
563.941	8986.9
564.304	9061.7
564.666	9096.27
565.028	9151.19
565.39	9203.39
565.753	9268.7
566.115	9255.59
566.477	9303.5
566.839	9367.45
567.201	9435.47
567.563	9362.48
567.925	9426.66
568.287	9437.73
568.648	9471.63
569.01	9601.34
569.372	9595.02
569.734	9675.47
570.095	9679.53
570.457	9689.93
570.819	9773.99
571.18	9666.43
571.542	9789.36
571.903	9835.46
572.265	9817.38
572.626	9897.83
572.987	9919.08
573.349	9912.3
573.71	9934.44
574.071	9956.36
574.432	9966.98
574.794	10050.15
575.155	10054.44
575.516	10040.2
575.877	10029.58
576.238	10082.91
576.599	10102.12
576.96	10102.57
577.32	10125.4
577.681	10231.16
578.042	10189.58
578.403	10233.42
578.763	10246.52
579.124	10245.17
579.485	10357.71
579.845	10286.3
580.206	10275
580.566	10364.04
580.927	10291.27
581.287	10399.74
581.648	10299.4
582.008	10344.83
582.368	10314.77
582.728	10365.84
583.089	10370.36
583.449	10379.4
583.809	10385.05
584.169	10465.28
584.529	10347.76
584.889	10458.72
585.249	10373.98
585.609	10284.26
585.969	10379.63
586.329	10310.7
586.688	10371.27
587.048	10397.03
587.408	10363.13
587.768	10334.66
588.127	10364.04
588.487	10345.5
588.846	10469.8
589.206	10354.54
589.565	10368.1
589.925	10355.67
590.284	10373.98
590.643	10425.05
591.003	10420.76
591.362	10416.46
591.721	10416.69
592.08	10434.99
592.44	10396.58
592.799	10458.5
593.158	10391.61
593.517	10410.36
593.876	10475.67
594.235	10504.14
594.593	10475.9
594.952	10522
595.311	10458.5
595.67	10509.57
596.029	10506.86
596.387	10502.34
596.746	10478.38
597.104	10429.57
597.463	10494.2
597.822	10511.15
598.18	10448.55
598.538	10472.96
598.897	10566.06
599.255	10468.44
599.613	10547.31
599.972	10568.1
600.33	10575.1
600.688	10561.77
601.046	10549.79
601.404	10597.02
601.762	10609.45
602.12	10696.23
602.478	10669.56
602.836	10639.51
603.194	10637.93
603.552	10644.03
603.91	10672.95
604.268	10680.41
604.625	10641.54
604.983	10741.88
605.341	10598.61
605.698	10700.52
606.056	10663.69
606.413	10707.08
606.771	10766.06
607.128	10757.7
607.485	10635.89
607.843	10679.73
608.2	10724.7
608.557	10762.22
608.914	10771.93
609.272	10806.28
609.629	10832.5
609.986	10745.49
610.343	10807.64
610.7	10891.25
611.057	10857.13
611.414	10903
611.771	10847.64
612.127	10896.45
612.484	10878.6
612.841	10973.96
613.198	10943
613.554	10917.92
613.911	11004.47
614.267	10923.57
614.624	10963.79
614.98	10848.99
615.337	10992.04
615.693	10961.08
616.05	10972.38
616.406	11046.73
616.762	10969.67
617.118	11008.31
617.475	10968.54
617.831	11016
618.187	11110.23
618.543	11084.02
618.899	11090.8
619.255	11117.01
619.611	11104.58
619.967	11153.17
620.323	11142.77
620.678	11162.43
621.034	11119.27
621.39	11154.07
621.746	11136.22
622.101	11195.65
622.457	11051.7
622.812	11074.98
623.168	11123.11
623.523	11112.04
623.879	11178.93
624.234	11031.14
624.589	11128.76
624.945	11070.23
625.3	11143.22
625.655	11136.67
626.01	11052.6
626.365	11102.77
626.72	11150.23
627.075	11130.57
627.43	11030.91
627.785	11067.29
628.14	11116.11
628.495	11083.56
628.85	11024.36
629.205	11075.43
629.559	11118.82
629.914	11032.94
630.269	11080.17
630.623	11049.44
630.978	11055.32
631.332	11109.55
631.687	11104.35
632.041	10979.84
632.396	11118.82
632.75	10954.08
633.104	11054.19
633.459	10977.58
633.813	10897.35
634.167	10937.35
634.521	10946.62
634.875	10989.78
635.229	10905.04
635.583	10804.93
635.937	10886.96
636.291	10794.08
636.645	10820.07
636.999	10800.18
637.352	10802.44
637.706	10803.8
638.06	10793.63
638.413	10788.66
638.767	10763.35
639.121	10751.82
639.474	10670.24
639.828	10717.92
640.181	10713.63
640.534	10697.36
640.888	10730.35
641.241	10593.86
641.594	10653.97
641.947	10719.05
642.301	10583.92
642.654	10653.52
643.007	10589.79
643.36	10601.54
643.713	10631.82
644.066	10578.95
644.419	10550.92
644.771	10561.54
645.124	10431.15
645.477	10425.5
645.83	10309.57
646.182	10228.22
646.535	10174.89
646.888	10256.69
647.24	10174.21
647.593	10225.51
647.945	10182.57
648.298	10094.21
648.65	10187.09
649.002	10049.47
649.355	10105.51
649.707	10062.12
650.059	10153.87
650.411	10309.8
650.763	10323.81
651.115	10358.16
651.467	10480.19
651.819	10332.85
652.171	10406.07
652.523	10357.48
652.875	10313.42
653.227	10278.84
653.578	10339.86
653.93	10331.95
654.282	10234.1
654.633	10203.59
654.985	10240.87
655.337	10271.83
655.688	10273.19
656.039	10285.39
656.391	10152.97
656.742	10151.39
657.094	10207.2
657.445	10179.86
657.796	10227.54
658.147	10262.8
658.498	10157.94
658.849	10272.29
659.2	10143.48
659.551	10152.06
659.902	10140.76
660.253	10090.82
660.604	10146.64
660.955	10129.24
661.306	10202.68
661.656	10165.17
662.007	10149.8
662.358	10094.89
662.708	10082.69
663.059	10066.87
663.409	10023.25
663.76	10089.47
664.11	10089.24
664.461	10089.92
664.811	10126.75
665.161	10004.95
665.511	10095.79
665.862	10060.77
666.212	10047.43
666.562	10117.26
666.912	10107.77
667.262	10096.02
667.612	10039.07
667.962	10091.27
668.312	10020.99
668.662	10088.11
669.011	10014.89
669.361	10052.18
669.711	10017.6
670.06	9986.42
670.41	9941.67
670.76	9901.9
671.109	10008.11
671.459	9991.16
671.808	10008.11
672.157	9914.56
672.507	9816.93
672.856	9850.38
673.205	9908
673.554	9931.05
673.904	9903.48
674.253	9910.94
674.602	9875.01
674.951	9773.54
675.3	9709.14
675.649	9834.56
675.998	9818.51
676.346	9822.35
676.695	9902.13
677.044	9845.63
677.393	9773.77
677.741	9876.82
678.09	9844.05
678.438	9809.47
678.787	9856.48
679.135	9823.26
679.484	9697.39
679.832	9792.3
680.181	9694.45
680.529	9758.85
680.877	9708.46
681.225	9753.2
681.573	9708.91
681.922	9670.95
682.27	9643.6
682.618	9704.39
682.966	9637.05
683.314	9629.37
683.661	9612.64
684.009	9571.06
684.357	9592.3
684.705	9540.1
685.053	9603.6
685.4	9550.05
685.748	9439.09
686.095	9412.65
686.443	9445.64
686.79	9420.78
687.138	9473.21
687.485	9377.39
687.832	9376.04
688.18	9414
688.527	9388.02
688.874	9301.01
689.221	9300.79
689.568	9235.93
689.915	9281.35
690.262	9236.83
690.609	9223.73
690.956	9152.99
691.303	9168.59
691.65	9151.41
691.997	9111.19
692.344	9057.18
692.69	9045.65
693.037	9127.23
693.383	8996.16
693.73	9074.35
694.077	9017.18
694.423	9024.18
694.769	8993.68
695.116	8994.13
695.462	8884.3
695.808	8890.18
696.155	8907.12
696.501	8768.15
696.847	8846.56
697.193	8723.17
697.539	8824.41
697.885	8767.02
698.231	8663.29
698.577	8676.4
698.923	8663.74
699.269	8672.33
699.614	8579
699.96	8532.9
700.306	8584.2
700.651	8524.31
700.997	8506.01
701.342	8484.99
701.688	8470.53
702.033	8511.43
702.379	8435.72
702.724	8421.49
703.069	8472.79
703.415	8293.58
703.76	8343.07
704.105	8350.08
704.45	8355.73
704.795	8347.37
705.14	8273.02
705.485	8317.08
705.83	8259.91
706.175	8214.71
706.52	8285.67
706.865	8188.27
707.209	8197.54
707.554	8132
707.899	8117.77
708.243	8101.5
708.588	8098.11
708.932	8044.77
709.277	8077.99
709.621	8080.25
709.966	8033.7
710.31	7955.29
710.654	7944.89
710.998	7974.72
711.342	7932.23
711.687	7916.87
712.031	7881.61
712.375	7925.46
712.719	7876.19
713.063	7861.73
713.407	7878
713.75	7843.42
714.094	7788.96
714.438	7749.64
714.782	7772.47
715.125	7796.87
715.469	7726.36
715.812	7707.61
716.156	7645.46
716.499	7680.49
716.843	7645.01
717.186	7643.88
717.53	7675.97
717.873	7620.83
718.216	7615.86
718.559	7683.65
718.902	7562.75
719.246	7609.76
719.589	7534.73
719.932	7576.31
720.275	7545.58
720.617	7538.8
720.96	7534.73
721.303	7490.21
721.646	7501.29
721.989	7433.04
722.331	7547.84
722.674	7419.71
723.016	7492.02
723.359	7400.72
723.701	7405.92
724.044	7395.75
724.386	7384
724.729	7373.61
725.071	7407.28
725.413	7318.01
725.755	7373.38
726.097	7345.81
726.439	7262.87
726.782	7197.79
727.124	7318.01
727.465	7259.94
727.807	7234.17
728.149	7187.17
728.491	7187.17
728.833	7233.04
729.175	7185.81
729.516	7185.36
729.858	7202.76
730.199	7264.23
730.541	7142.65
730.882	7148.98
731.224	7163.44
731.565	7147.4
731.906	7108.53
732.248	7139.04
732.589	7079.38
732.93	7070.11
733.271	6985.37
733.612	7050.68
733.953	7108.98
734.294	7040.51
734.635	7048.19
734.976	7037.34
735.317	6971.81
735.658	6985.82
735.999	6976.55
736.339	6926.61
736.68	6938.59
737.021	6915.99
737.361	6957.57
737.702	6925.71
738.042	6931.58
738.383	6840.96
738.723	6916.89
739.063	6884.13
739.404	6863.79
739.744	6859.04
740.084	6871.47
740.424	6865.82
740.764	6834.18
741.104	6839.38
741.444	6791.25
741.784	6817.46
742.124	6764.36
742.464	6807.29
742.804	6766.39
743.143	6759.16
743.483	6773.85
743.823	6661.08
744.162	6736.79
744.502	6699.95
744.841	6684.81
745.181	6741.76
745.52	6741.31
745.86	6721.65
746.199	6723.68
746.538	6701.31
746.877	6720.06
747.216	6677.35
747.556	6600.07
747.895	6591.71
748.234	6553.06
748.573	6565.72
748.911	6576.56
749.25	6601.42
749.589	6513.29
749.928	6577.24
750.267	6562.55
750.605	6546.96
750.944	6488.88
751.283	6479.84
751.621	6495.89
751.96	6473.74
752.298	6473.74
752.636	6462.67
752.975	6414.08
753.313	6403.69
753.651	6398.94
753.989	6384.71
754.327	6344.03
754.666	6364.37
755.004	6349.23
755.342	6352.84
755.679	6333.86
756.017	6266.52
756.355	6274.43
756.693	6243.01
757.031	6319.4
757.368	6243.24
757.706	6257.02
758.044	6174.99
758.381	6207.08
758.719	6188.78
759.056	6179.29
759.394	6152.39
759.731	6111.72
760.068	6150.13
760.405	6126.41
760.743	6087.54
761.08	6103.81
761.417	6043.7
761.754	6019.29
762.091	6014.09
762.428	5942.23
762.765	5950.82
763.102	6021.78
763.438	5945.17
763.775	5924.15
764.112	5953.3
764.449	5927.09
764.785	5870.14
765.122	5884.61
765.458	5850.48
765.795	5900.42
766.131	5804.16
766.467	5787.21
766.804	5802.35
767.14	5743.37
767.476	5726.19
767.812	5753.76
768.148	5770.94
768.485	5653.42
768.821	5683.03
769.157	5705.63
769.492	5582.92
769.828	5640.77
770.164	5635.35
770.5	5628.34
770.836	5609.13
771.171	5561.9
771.507	5535.01
771.842	5479.64
772.178	5495.69
772.513	5444.39
772.849	5486.65
773.184	5470.6
773.519	5417.72
773.855	5426.76
774.19	5368.46
774.525	5336.15
774.86	5349.93
775.195	5340.66
775.53	5335.02
775.865	5266.77
776.2	5229.03
776.535	5210.5
776.87	5256.83
777.205	5214.57
777.539	5164.4
777.874	5223.61
778.209	5168.24
778.543	5174.34
778.878	5134.57
779.212	5094.34
779.547	5141.8
779.881	5101.57
780.215	5057.28
780.55	5072.2
780.884	5040.33
781.218	5077.62
781.552	5040.33
781.886	4989.49
782.22	4992.43
782.554	4938.87
782.888	4908.59
783.222	4916.04
783.556	4890.73
783.889	4875.14
784.223	4831.53
784.557	4837.4
784.89	4907.91
785.224	4835.82
785.557	4769.38
785.891	4782.26
786.224	4782.26
786.558	4786.1
786.891	4738.87
787.224	4696.39
787.557	4739.32
787.891	4709.49
788.224	4665.43
788.557	4660.23
788.89	4670.4
789.223	4718.31
789.556	4589.05
789.888	4625.66
790.221	4596.96
790.554	4545.43
790.887	4562.38
791.219	4540.46
791.552	4522.38
791.884	4486.68
792.217	4518.99
792.549	4472.44
792.882	4453.91
793.214	4417.07
793.546	4440.35
793.879	4452.33
794.211	4384.08
794.543	4435.15
794.875	4383.4
795.207	4381.37
795.539	4350.41
795.871	4357.87
796.203	4321.48
796.535	4317.19
796.867	4288.04
797.198	4320.8
797.53	4288.49
797.862	4252.33
798.193	4286.91
798.525	4200.13
798.856	4253.91
799.188	4186.34
799.519	4174.14
799.85	4142.96
800.182	4187.7
800.513	4167.81
800.844	4152.22
801.175	4148.38
801.506	4193.8
801.837	4110.41
802.168	4167.81
802.499	4082.62
802.83	4121.71
803.161	4088.72
803.491	4085.56
803.822	4035.84
804.153	4050.76
804.483	4017.31
804.814	3977.08
805.145	3992.23
805.475	4014.82
805.805	4015.05
806.136	3965.33
806.466	3996.07
806.796	4015.5
807.126	3961.27
807.457	3902.28
807.787	3907.71
808.117	3887.14
808.447	3922.62
808.777	3928.72
809.107	3901.61
809.436	3891.89
809.766	3908.61
810.096	3899.57
810.426	3870.19
810.755	3846.92
811.085	3827.71
811.414	3853.02
811.744	3804.21
812.073	3775.28
812.403	3775.96
812.732	3743.87
813.061	3734.15
813.39	3732.57
813.719	3709.97
814.049	3737.77
814.378	3728.73
814.707	3727.6
815.036	3718.11
815.365	3687.15
815.693	3685.79
816.022	3699.13
816.351	3649.64
816.68	3650.09
817.008	3668.39
817.337	3635.4
817.665	3616.19
817.994	3607.38
818.322	3643.76
818.651	3616.19
818.979	3591.56
819.307	3631.56
819.636	3632.69
819.964	3554.04
820.292	3579.58
820.62	3583.65
820.948	3556.53
821.276	3595.4
821.604	3578.9
821.932	3596.76
822.259	3606.02
822.587	3577.77
822.915	3571.67
823.243	3603.54
823.57	3557.89
823.898	3591.33
824.225	3561.5
824.553	3545.01
824.88	3601.28
825.207	3594.5
825.535	3594.72
825.862	3562.86
826.189	3540.71
826.516	3535.29
826.843	3561.28
827.17	3563.31
827.497	3559.24
827.824	3540.94
828.151	3567.6
828.478	3568.28
828.805	3534.16
829.131	3555.17
829.458	3526.02
829.785	3577.55
830.111	3522.41
830.438	3577.1
830.764	3555.63
831.09	3547.27
831.417	3583.65
831.743	3505.23
832.069	3566.02
832.395	3503.2
832.722	3495.52
833.048	3506.36
833.374	3516.31
833.7	3531.45
834.026	3490.77
834.351	3537.55
834.677	3567.38
835.003	3525.35
835.329	3511.56
835.654	3476.08
835.98	3473.37
836.306	3481.73
836.631	3480.83
836.956	3540.71
837.282	3463.65
837.607	3455.29
837.932	3433.82
838.258	3451.67
838.583	3502.52
838.908	3473.14
839.233	3443.77
839.558	3494.16
839.883	3447.38
840.208	3435.4
840.533	3410.55
840.858	3444.67
841.182	3393.15
841.507	3395.63
841.832	3392.24
842.156	3362.86
842.481	3349.76
842.805	3375.74
843.13	3371.68
843.454	3379.81
843.778	3327.61
844.103	3343.66
844.427	3329.64
844.751	3353.37
845.075	3346.14
845.399	3347.5
845.723	3313.6
846.047	3338.68
846.371	3284.67
846.695	3294.62
847.019	3274.96
847.343	3269.76
847.666	3208.97
847.99	3222.53
848.313	3225.01
848.637	3225.24
848.96	3217.1
849.284	3206.26
849.607	3171.23
849.931	3168.07
850.254	3180.27
850.577	3148.63
850.9	3122.42
851.223	3083.77
851.546	3071.57
851.869	3065.24
852.192	3083.1
852.515	3045.13
852.838	3055.75
853.161	3027.96
853.483	3063.89
853.806	2990.22
854.129	3002.87
854.451	3038.13
854.774	2958.35
855.096	2993.38
855.419	2976.21
855.741	2989.77
856.063	2907.96
856.385	2971.46
856.708	2921.75
857.03	2935.3
857.352	2947.96
857.674	2937.34
857.996	2938.24
858.318	2871.58
858.64	2904.57
858.961	2892.82
859.283	2903.21
859.605	2857.57
859.926	2905.7
860.248	2860.96
860.57	2855.31
860.891	2863.67
861.212	2842.2
861.534	2831.58
861.855	2835.87
862.176	2843.78
862.498	2856.44
862.819	2857.57
863.14	2821.63
863.461	2830.9
863.782	2826.83
864.103	2790.68
864.424	2786.38
864.745	2804.69
865.065	2793.39
865.386	2764.69
865.707	2770.79
866.027	2797.45
866.348	2772.37
866.668	2793.61
866.989	2759.04
867.309	2738.7
867.63	2721.3
867.95	2752.03
868.27	2757.68
868.59	2721.52
868.91	2746.83
869.23	2733.28
869.55	2748.42
869.87	2716.33
870.19	2746.61
870.51	2721.98
870.83	2706.84
871.15	2700.73
871.469	2718.36
871.789	2681.53
872.109	2703.67
872.428	2672.49
872.748	2679.72
873.067	2688.31
873.386	2686.95
873.706	2684.46
874.025	2650.79
874.344	2658.7
874.663	2664.35
874.982	2664.58
875.301	2658.48
875.62	2656.89
875.939	2623
876.258	2636.78
876.577	2637.46
876.896	2616.22
877.214	2611.24
877.533	2623.9
877.852	2626.84
878.17	2623
878.489	2612.37
878.807	2625.03
879.125	2607.63
879.444	2600.4
879.762	2600.62
880.08	2597.46
880.398	2565.82
880.716	2617.12
881.034	2590.68
881.352	2580.51
881.67	2595.88
881.988	2579.61
882.306	2554.75
882.624	2554.75
882.941	2549.1
883.259	2521.53
883.577	2552.26
883.894	2558.14
884.212	2531.25
884.529	2546.84
884.846	2551.13
885.164	2558.14
885.481	2524.92
885.798	2533.73
886.115	2489.44
886.432	2502.32
886.75	2497.58
887.067	2505.48
887.383	2506.39
887.7	2467.07
888.017	2472.72
888.334	2464.36
888.651	2455.09
888.967	2459.38
889.284	2435.2
889.6	2451.48
889.917	2444.47
890.233	2446.28
890.55	2456.22
890.866	2413.51
891.182	2409.67
891.498	2419.84
891.815	2392.49
892.131	2398.82
892.447	2411.93
892.763	2381.19
893.079	2375.09
893.395	2344.36
893.71	2381.87
894.026	2350.01
894.342	2356.11
894.657	2360.4
894.973	2318.82
895.289	2325.38
895.604	2337.81
895.92	2358.14
896.235	2327.41
896.55	2325.38
896.865	2360.18
897.181	2293.97
897.496	2340.52
897.811	2293.06
898.126	2288.77
898.441	2262.33
898.756	2293.97
899.071	2229.56
899.386	2273.63
899.7	2241.76
900.015	2270.91
900.33	2234.31
900.644	2221.2
900.959	2241.54
901.273	2210.58
901.588	2229.79
901.902	2178.04
902.216	2187.98
902.531	2198.37
902.845	2182.1
903.159	2179.62
903.473	2156.12
903.787	2161.54
904.101	2123.8
904.415	2137.13
904.729	2143.46
905.042	2153.86
905.356	2148.66
905.67	2139.17
905.984	2131.48
906.297	2096.68
906.611	2074.31
906.924	2130.81
907.237	2114.76
907.551	2087.87
907.864	2064.59
908.177	2092.39
908.491	2111.6
908.804	2065.27
909.117	2064.14
909.43	2024.59
909.743	2023.92
910.056	2014.65
910.368	2036.8
910.681	2038.15
910.994	1999.74
911.307	1991.37
911.619	1982.79
911.932	2002.9
912.244	1971.26
912.557	2000.19
912.869	1970.36
913.181	1952.05
913.494	1929.23
913.806	1943.24
914.118	1957.93
914.43	1917.7
914.742	1900.76
915.054	1896.24
915.366	1913.86
915.678	1899.4
915.99	1877.25
916.302	1872.73
916.613	1882.68
916.925	1893.52
917.236	1864.37
917.548	1838.84
917.859	1818.72
918.171	1859.17
918.482	1849.23
918.794	1825.05
919.105	1789.12
919.416	1833.86
919.727	1808.33
920.038	1798.16
920.349	1800.19
920.66	1795.22
920.971	1786.63
921.282	1790.93
921.593	1793.41
921.903	1787.31
922.214	1788.22
922.525	1781.66
922.835	1773.98
923.146	1746.86
923.456	1759.06
923.767	1754.09
924.077	1723.13
924.387	1725.62
924.697	1737.14
925.008	1724.94
925.318	1696.69
925.628	1708.9
925.938	1689.01
926.248	1667.31
926.558	1691.27
926.867	1673.19
927.177	1671.16
927.487	1671.83
927.796	1668.44
928.106	1657.6
928.416	1689.46
928.725	1631.38
929.034	1606.3
929.344	1671.38
929.653	1626.86
929.962	1606.53
930.271	1592.29
930.581	1603.59
930.89	1596.58
931.199	1586.87
931.508	1598.84
931.817	1604.04
932.125	1597.26
932.434	1547.77
932.743	1563.14
933.051	1576.92
933.36	1566.98
933.669	1539.41
933.977	1512.06
934.286	1537.15
934.594	1527.43
934.902	1526.75
935.21	1509.13
935.519	1499.64
935.827	1512.97
936.135	1496.92
936.443	1519.97
936.751	1501.22
937.059	1477.49
937.367	1486.3
937.674	1479.75
937.982	1472.97
938.29	1481.78
938.597	1451.95
938.905	1453.54
939.213	1433.65
939.52	1456.47
939.827	1463.03
940.135	1476.81
940.442	1434.33
940.749	1426.64
941.056	1418.28
941.363	1415.8
941.67	1425.29
941.977	1403.82
942.284	1397.72
942.591	1387.77
942.898	1394.78
943.205	1410.15
943.511	1404.27
943.818	1365.85
944.125	1393.2
944.431	1366.98
944.738	1361.33
945.044	1345.06
945.35	1357.04
945.657	1341.45
945.963	1330.37
946.269	1360.43
946.575	1324.27
946.881	1361.11
947.187	1315.23
947.493	1309.13
947.799	1325.85
948.105	1306.65
948.41	1300.77
948.716	1305.74
949.022	1289.02
949.327	1295.8
949.633	1310.26
949.938	1281.56
950.244	1298.29
950.549	1284.5
950.854	1253.09
951.16	1301
951.465	1246.99
951.77	1276.59
952.075	1262.81
952.38	1246.99
952.685	1276.59
952.99	1257.61
953.294	1253.31
953.599	1240.21
953.904	1219.42
954.209	1216.03
954.513	1210.38
954.818	1202.24
955.122	1232.75
955.426	1210.6
955.731	1214.9
956.035	1209.02
956.339	1188.68
956.643	1205.63
956.948	1194.33
957.252	1177.38
957.556	1198.17
957.86	1195.01
958.163	1183.26
958.467	1184.16
958.771	1183.94
959.075	1180.1
959.378	1163.83
959.682	1174.45
959.985	1162.92
960.289	1130.15
960.592	1155.92
960.896	1162.7
961.199	1146.2
961.502	1129.02
961.805	1125.86
962.108	1119.76
962.411	1122.7
962.714	1102.58
963.017	1115.24
963.32	1109.82
963.623	1105.3
963.926	1105.52
964.228	1111.62
964.531	1078.18
964.833	1070.72
965.136	1064.39
965.438	1105.3
965.741	1083.83
966.043	1071.17
966.345	1074.34
966.648	1087.9
966.95	1050.61
967.252	1029.14
967.554	1045.18
967.856	1044.28
968.158	1020.78
968.46	1048.35
968.761	1039.31
969.063	1051.74
969.365	1064.17
969.666	1015.13
969.968	1027.11
970.269	1049.03
970.571	1014.9
970.872	1015.13
971.174	1027.33
971.475	1015.58
971.776	1007.22
972.077	1007.45
972.378	1023.26
972.679	1016.48
972.98	1000.89
973.281	997.5
973.582	1016.71
973.883	965.86
974.183	1010.84
974.484	965.86
974.785	1004.51
975.085	981.23
975.386	967.67
975.686	969.71
975.986	953.21
976.287	963.38
976.587	979.65
976.887	953.89
977.187	953.89
977.487	951.18
977.787	972.64
978.087	963.83
978.387	943.49
978.687	937.39
978.987	950.95
979.286	946.2
979.586	952.98
979.885	908.92
980.185	909.59
980.484	936.71
980.784	941.68
981.083	923.61
981.382	888.35
981.682	910.05
981.981	932.42
982.28	908.01
982.579	917.5
982.878	887
983.177	900.33
983.475	910.5
983.774	905.3
984.073	870.05
984.372	910.95
984.67	878.64
984.969	877.73
985.267	893.1
985.566	897.84
985.864	868.24
986.162	843.61
986.461	870.5
986.759	865.53
987.057	859.2
987.355	841.8
987.653	893.1
987.951	846.55
988.249	844.74
988.547	850.84
988.844	855.36
989.142	845.87
989.44	850.84
989.737	809.94
990.035	816.94
990.332	812.87
990.63	817.17
990.927	809.03
991.224	819.88
991.521	837.51
991.819	816.04
992.116	812.87
992.413	816.26
992.71	797.96
993.006	802.48
993.303	787.34
993.6	811.07
993.897	801.57
994.193	779.2
994.49	800.45
994.787	818.3
995.083	792.54
995.379	791.18
995.676	788.02
995.972	782.37
996.268	774.46
996.565	763.84
996.861	769.26
997.157	787.34
997.453	774.01
997.749	780.78
998.044	765.64
998.34	760.45
998.636	772.2
998.932	759.77
999.227	754.8
999.523	760.22
999.818	746.66
1000.114	734.91
1000.409	742.14
1000.704	714.12
1001	753.21
1001.295	733.55
1001.59	713.89
1001.885	740.11
1002.18	724.06
1002.475	747.79
1002.77	729.03
1003.065	698.07
1003.359	729.49
1003.654	739.66
1003.949	713.44
1004.243	725.64
1004.538	697.4
1004.832	721.35
1005.127	698.3
1005.421	711.41
1005.715	695.36
1006.009	676.83
1006.304	685.19
1006.598	687.91
1006.892	701.01
1007.186	668.02
1007.48	679.09
1007.773	676.15
1008.067	661.47
1008.361	656.72
1008.655	680.67
1008.948	665.31
1009.242	675.93
1009.535	651.07
1009.829	668.25
1010.122	666.44
1010.415	647.23
1010.708	675.48
1011.001	648.81
1011.295	665.08
1011.588	649.71
1011.881	682.03
1012.173	659.66
1012.466	642.48
1012.759	650.39
1013.052	642.48
1013.344	639.32
1013.637	653.56
1013.93	617.63
1014.222	635.03
1014.514	630.28
1014.807	614.46
1015.099	620.56
1015.391	620.34
1015.683	592.31
1015.976	625.31
1016.268	628.02
1016.56	649.04
1016.851	588.25
1017.143	598.42
1017.435	603.39
1017.727	629.38
1018.018	596.61
1018.31	590.51
1018.602	565.87
1018.893	593.44
1019.185	599.32
1019.476	583.5
1019.767	582.6
1020.058	579.89
1020.35	590.73
1020.641	587.34
1020.932	597.74
1021.223	574.91
1021.514	564.97
1021.804	563.16
1022.095	555.93
1022.386	572.43
1022.677	568.13
1022.967	531.75
1023.258	567.23
1023.548	562.94
1023.839	562.71
1024.129	564.97
1024.419	561.81
1024.709	532.66
1025	535.82
1025.29	539.21
1025.58	566.1
1025.87	532.43
1026.16	545.99
1026.449	537.4
1026.739	535.59
1027.029	556.16
1027.319	544.86
1027.608	512.99
1027.898	510.96
1028.187	529.49
1028.477	522.49
1028.766	509.61
1029.055	517.06
1029.344	526.78
1029.634	510.96
1029.923	497.85
1030.212	525.42
1030.501	506.22
1030.79	503.28
1031.078	523.62
1031.367	504.18
1031.656	520.68
1031.945	501.24
1032.233	505.54
1032.522	517.51
1032.81	508.25
1033.099	499.44
1033.387	513.22
1033.675	477.97
1033.963	488.59
1034.251	503.5
1034.54	506.67
1034.828	472.32
1035.116	490.4
1035.403	471.64
1035.691	484.3
1035.979	482.71
1036.267	476.61
1036.554	481.81
1036.842	464.41
1037.129	455.14
1037.417	478.19
1037.704	467.12
1037.992	459.89
1038.279	476.61
1038.566	465.09
1038.853	465.09
1039.14	465.09
