Data from black_plastic_tray_FLMS001491_084.txt Node
Date: Tue Feb 07 10:40:51 GMT 2017
User: dcchb
Spectrometer: FLMS00149
Trigger mode: 0
Integration Time (sec): 2.000000E-2
Scans to average: 10
Electric dark correction enabled: true
Nonlinearity correction enabled: false
Boxcar width: 0
XAxis mode: Wavelengths
Number of Pixels in Spectrum: 2048
>>>>>Begin Spectral Data<<<<<
341.393	-5.21
341.776	-5.21
342.16	-5.21
342.543	-62.39
342.927	-75.04
343.31	-55.83
343.693	-67.13
344.077	-72.1
344.46	-64.42
344.843	-57.87
345.226	-36.85
345.61	-26
345.993	-25.1
346.376	0.66
346.759	-4.31
347.142	23.49
347.525	44.28
347.908	52.64
348.291	68.68
348.674	106.2
349.057	113.66
349.44	123.6
349.823	144.61
350.206	168.34
350.588	183.26
350.971	202.92
351.354	231.17
351.737	213.99
352.119	238.62
352.502	256.7
352.884	256.02
353.267	263.48
353.65	297.15
354.032	269.58
354.414	278.4
354.797	284.5
355.179	323.37
355.562	307.77
355.944	324.95
356.326	311.16
356.709	329.24
357.091	305.29
357.473	322.46
357.855	326.3
358.238	314.78
358.62	314.78
359.002	338.28
359.384	332.86
359.766	322.92
360.148	329.24
360.53	326.53
360.912	321.33
361.294	314.78
361.676	331.95
362.057	324.95
362.439	317.04
362.821	307.55
363.203	307.1
363.584	325.63
363.966	317.49
364.348	317.27
364.729	320.2
365.111	311.84
365.493	319.98
365.874	301.67
366.256	314.1
366.637	322.01
367.019	310.71
367.4	318.62
367.781	336.47
368.163	313.88
368.544	317.49
368.925	292.63
369.306	311.84
369.688	294.89
370.069	298.96
370.45	322.92
370.831	306.64
371.212	316.14
371.593	314.1
371.974	311.62
372.355	311.62
372.736	311.84
373.117	316.14
373.498	327.66
373.879	302.58
374.26	312.07
374.641	307.55
375.021	318.17
375.402	317.49
375.783	315.23
376.163	324.72
376.544	305.29
376.925	319.53
377.305	316.14
377.686	325.85
378.066	331.05
378.447	318.4
378.827	329.92
379.208	335.57
379.588	344.61
379.968	346.19
380.349	315.68
380.729	345.51
381.109	345.97
381.489	356.36
381.87	342.58
382.25	346.64
382.63	351.39
383.01	362.01
383.39	332.63
383.77	347.32
384.15	359.07
384.53	364.27
384.91	343.71
385.29	349.36
385.67	359.98
386.049	352.52
386.429	347.1
386.809	354.55
387.189	353.2
387.568	368.11
387.948	382.57
388.328	364.5
388.707	386.64
389.087	379.86
389.466	375.12
389.846	373.99
390.225	376.02
390.605	392.74
390.984	387.55
391.363	391.16
391.743	386.64
392.122	373.99
392.501	375.57
392.881	378.51
393.26	387.09
393.639	403.59
394.018	413.08
394.397	389.58
394.776	387.09
395.155	397.49
395.534	425.74
395.913	427.55
396.292	407.88
396.671	424.61
397.05	432.29
397.429	424.61
397.808	402.69
398.186	430.03
398.565	428.9
398.944	417.83
399.323	424.61
399.701	436.13
400.08	425.74
400.458	434.1
400.837	429.81
401.215	436.81
401.594	441.33
401.972	446.75
402.351	452.4
402.729	429.35
403.107	441.56
403.486	454.66
403.864	463.93
404.242	460.99
404.62	458.5
404.999	460.99
405.377	466.87
405.755	459.86
406.133	461.44
406.511	479.75
406.889	489.92
407.267	493.53
407.645	469.35
408.023	476.13
408.401	498.5
408.779	500.54
409.156	476.58
409.534	511.61
409.912	498.28
410.29	514.32
410.667	525.62
411.045	516.13
411.422	512.51
411.8	527.66
412.178	531.5
412.555	532.18
412.933	520.65
413.31	536.47
413.687	547.54
414.065	561.1
414.442	533.98
414.819	571.72
415.197	557.71
415.574	567.43
415.951	570.59
416.328	591.61
416.705	580.99
417.082	568.78
417.46	593.64
417.837	603.13
418.214	570.14
418.591	595.68
418.967	623.92
419.344	599.74
419.721	639.29
420.098	618.73
420.475	637.94
420.852	607.43
421.228	609.69
421.605	632.06
421.982	632.96
422.358	644.04
422.735	638.16
423.111	649.91
423.488	683.36
423.864	639.29
424.241	659.4
424.617	690.36
424.994	684.94
425.37	681.78
425.746	676.58
426.123	691.72
426.499	691.72
426.875	700.98
427.251	710.7
427.627	706.86
428.003	705.96
428.379	735.79
428.756	724.03
429.132	755.67
429.507	748.21
429.883	764.94
430.259	765.62
430.635	760.87
431.011	802.68
431.387	800.87
431.763	816.46
432.138	785.05
432.514	785.28
432.89	820.76
433.265	822.79
433.641	820.3
434.016	827.53
434.392	837.25
434.767	850.36
435.143	860.3
435.518	876.12
435.894	849.23
436.269	877.48
436.644	919.28
437.02	901.43
437.395	916.8
437.77	889.91
438.145	901.21
438.52	931.71
438.895	928.55
439.271	925.16
439.646	920.87
440.021	983.24
440.395	950.7
440.77	963.12
441.145	975.78
441.52	969
441.895	973.07
442.27	973.75
442.645	997.25
443.019	992.05
443.394	999.73
443.769	997.7
444.143	1027.3
444.518	1040.18
444.892	1031.82
445.267	1019.62
445.641	1035.66
446.016	1047.87
446.39	1036.34
446.764	1049.22
447.139	1073.86
447.513	1089
447.887	1062.33
448.262	1072.27
448.636	1075.66
449.01	1100.97
449.384	1108.21
449.758	1104.14
450.132	1116.11
450.506	1126.28
450.88	1160.63
451.254	1154.53
451.628	1176.9
452.002	1192.95
452.376	1190.24
452.75	1153.85
453.123	1164.7
453.497	1213.29
453.871	1219.61
454.244	1223.91
454.618	1241.31
454.992	1276.11
455.365	1264.13
455.739	1331.48
456.112	1287.86
456.486	1308.88
456.859	1340.97
457.232	1330.12
457.606	1326.05
457.979	1361.53
458.352	1388.42
458.725	1389.1
459.099	1385.94
459.472	1405.37
459.845	1439.27
460.218	1466.16
460.591	1451.93
460.964	1469.1
461.337	1500.51
461.71	1490.34
462.083	1538.48
462.456	1530.12
462.829	1531.47
463.201	1589.32
463.574	1570.79
463.947	1605.37
464.32	1593.39
464.692	1606.95
465.065	1652.15
465.438	1676.78
465.81	1684.69
466.183	1707.96
466.555	1749.77
466.928	1721.97
467.3	1738.92
467.672	1749.54
468.045	1802.65
468.417	1790.67
468.789	1821.18
469.161	1822.99
469.534	1865.93
469.906	1927.84
470.278	1929.88
470.65	1916.77
471.022	1986.6
471.394	1985.92
471.766	2030.44
472.138	2064.11
472.51	2083.77
472.882	2104.11
473.253	2128.74
473.625	2133.72
473.997	2213.04
474.369	2212.81
474.74	2230.44
475.112	2287.84
475.484	2289.64
475.855	2350.21
476.227	2384.1
476.598	2425.23
476.97	2424.78
477.341	2483.76
477.713	2511.56
478.084	2552.46
478.455	2554.95
478.827	2586.13
479.198	2689.86
479.569	2697.09
479.94	2770.08
480.311	2792.23
480.682	2849.63
481.053	2878.78
481.424	2904.99
481.795	2968.95
482.166	2973.69
482.537	3032.9
482.908	3089.85
483.279	3177.76
483.65	3152.67
484.021	3233.57
484.391	3257.53
484.762	3291.88
485.133	3353.8
485.503	3354.47
485.874	3406.22
486.244	3448.48
486.615	3546.11
486.985	3566.67
487.356	3591.53
487.726	3667.69
488.097	3734.35
488.467	3736.84
488.837	3823.16
489.207	3832.65
489.578	3884.63
489.948	3945.42
490.318	3962.59
490.688	4022.7
491.058	4099.31
491.428	4110.16
491.798	4142.48
492.168	4200.33
492.538	4224.51
492.908	4332.3
493.278	4374.33
493.648	4371.85
494.017	4405.97
494.387	4473.54
494.757	4455.69
495.126	4560.09
495.496	4548.11
495.866	4572.75
496.235	4626.08
496.605	4670.15
496.974	4707.88
497.344	4756.92
497.713	4753.08
498.082	4737.04
498.452	4851.84
498.821	4911.04
499.19	4884.83
499.559	4934.09
499.928	4988.1
500.298	5036.69
500.667	5036.01
501.036	5044.15
501.405	5092.51
501.774	5107.87
502.143	5154.88
502.512	5174.09
502.88	5213.41
503.249	5247.53
503.618	5305.38
503.987	5308.09
504.356	5363.23
504.724	5359.17
505.093	5390.35
505.462	5480.97
505.83	5462.44
506.199	5507.64
506.567	5585.6
506.936	5593.06
507.304	5644.36
507.672	5708.08
508.041	5745.37
508.409	5723
508.777	5739.5
509.145	5820.62
509.514	5899.94
509.882	5870.34
510.25	5887.97
510.618	5968.19
510.986	5974.52
511.354	5995.53
511.722	6113.27
512.09	6170.67
512.458	6176.32
512.826	6197.56
513.193	6230.1
513.561	6296.32
513.929	6325.24
514.297	6416.09
514.664	6378.12
515.032	6515.75
515.4	6496.54
515.767	6558.68
516.135	6577.67
516.502	6544.22
516.869	6699.47
517.237	6644.33
517.604	6735.18
517.972	6818.34
518.339	6854.27
518.706	6871.44
519.073	6896.53
519.44	6945.57
519.808	6980.37
520.175	7047.26
520.542	7144.43
520.909	7192.11
521.276	7205.22
521.643	7240.93
522.009	7339
522.376	7424.88
522.743	7360.47
523.11	7516.17
523.477	7615.83
523.843	7608.83
524.21	7690.41
524.577	7743.96
524.943	7737.18
525.31	7807.69
525.676	7893.56
526.043	7989.15
526.409	8005.2
526.776	8093.33
527.142	8122.48
527.508	8173.1
527.874	8208.36
528.241	8256.49
528.607	8338.52
528.973	8401.12
529.339	8409.71
529.705	8480.67
530.071	8554.11
530.437	8574
530.803	8691.28
531.169	8684.73
531.535	8714.33
531.901	8730.15
532.267	8728.8
532.632	8903.25
532.998	8879.53
533.364	8934.44
533.73	8961.33
534.095	9062.35
534.461	9073.87
534.826	9137.15
535.192	9129.46
535.557	9210.59
535.923	9165.39
536.288	9258.05
536.653	9289.91
537.019	9342.57
537.384	9279.06
537.749	9382.79
538.114	9386.41
538.479	9449.68
538.845	9493.75
539.21	9520.41
539.575	9503.92
539.94	9535.78
540.305	9677.02
540.67	9649.22
541.034	9721.76
541.399	9791.14
541.764	9782.78
542.129	9798.15
542.494	9809.9
542.858	9854.87
543.223	9820.29
543.587	9980.29
543.952	9882.21
544.316	9985.71
544.681	9951.81
545.045	10008.08
545.41	10023.68
545.774	10012.38
546.138	10113.84
546.503	10140.74
546.867	10097.35
547.231	10273.61
547.595	10220.06
547.959	10302.77
548.324	10301.64
548.688	10357.23
549.052	10382.99
549.416	10347.74
549.779	10414.18
550.143	10459.6
550.507	10468.86
550.871	10552.48
551.235	10571.23
551.599	10634.06
551.962	10667.73
552.326	10670.21
552.689	10717.67
553.053	10705.69
553.417	10760.15
553.78	10956.31
554.143	10928.29
554.507	10931
554.87	11059.36
555.234	11085.34
555.597	11037.44
555.96	11153.59
556.323	11151.11
556.686	11186.13
557.05	11303.64
557.413	11289.86
557.776	11367.14
558.139	11429.74
558.502	11429.52
558.865	11450.76
559.228	11536.63
559.59	11643.52
559.953	11576.86
560.316	11772.11
560.679	11692.11
561.041	11718.32
561.404	11879.67
561.767	11928.49
562.129	11926
562.492	12048.71
562.854	12072.21
563.217	12081.93
563.579	12135.26
563.941	12233.79
564.304	12228.36
564.666	12355.59
565.028	12338.42
565.39	12378.64
565.753	12503.16
566.115	12516.49
566.477	12503.39
566.839	12590.62
567.201	12615.25
567.563	12677.17
567.925	12725.3
568.287	12792.19
568.648	12746.32
569.01	12906.99
569.372	12915.58
569.734	12935.92
570.095	13045.52
570.457	13113.09
570.819	13103.14
571.18	13056.14
571.542	13201.45
571.903	13305.85
572.265	13348.56
572.626	13339.75
572.987	13299.52
573.349	13405.74
573.71	13438.28
574.071	13406.86
574.432	13478.28
574.794	13672.39
575.155	13536.35
575.516	13451.38
575.877	13611.61
576.238	13657.03
576.599	13697.03
576.96	13691.15
577.32	13626.52
577.681	13802.11
578.042	13779.06
578.403	13786.97
578.763	13845.72
579.124	13873.52
579.485	13856.34
579.845	13967.53
580.206	13877.81
580.566	13861.54
580.927	13898.15
581.287	13949.45
581.648	13892.73
582.008	13972.95
582.368	13973.4
582.728	13999.84
583.089	13992.39
583.449	13958.04
583.809	14038.03
584.169	13955.1
584.529	14019.5
584.889	14114.19
585.249	13989.22
585.609	13986.06
585.969	14080.07
586.329	13974.53
586.688	14095.89
587.048	14067.19
587.408	14029.45
587.768	14003.69
588.127	13929.11
588.487	13986.96
588.846	14063.8
589.206	13963.46
589.565	13932.5
589.925	14019.05
590.284	13954.65
590.643	14081.65
591.003	14009.34
591.362	14098.37
591.721	14118.48
592.08	14037.58
592.44	14157.13
592.799	14150.57
593.158	14053.85
593.517	14143.57
593.876	14184.92
594.235	14074.64
594.593	14113.29
594.952	14249.55
595.311	14124.81
595.67	14160.74
596.029	14251.36
596.387	14254.3
596.746	14239.39
597.104	14231.7
597.463	14260.85
597.822	14247.97
598.18	14154.19
598.538	14179.73
598.897	14236
599.255	14155.32
599.613	14330.46
599.972	14281.19
600.33	14304.02
600.688	14271.93
601.046	14282.77
601.404	14360.51
601.762	14293.62
602.12	14395.31
602.478	14490.23
602.836	14399.38
603.194	14407.52
603.552	14426.95
603.91	14344.69
604.268	14394.64
604.625	14400.74
604.983	14441.64
605.341	14368.87
605.698	14423.34
606.056	14378.82
606.413	14457.46
606.771	14508.53
607.128	14579.49
607.485	14422.66
607.843	14492.03
608.2	14615.42
608.557	14628.75
608.914	14599.83
609.272	14632.6
609.629	14564.35
609.986	14708.07
610.343	14582.43
610.7	14783.1
611.057	14714.4
611.414	14771.8
611.771	14749.65
612.127	14705.59
612.484	14742.42
612.841	14811.8
613.198	14746.04
613.554	14782.65
613.911	14910.55
614.267	14831.91
614.624	14833.04
614.98	14805.25
615.337	14878.92
615.693	14903.55
616.05	14791.01
616.406	14939.48
616.762	14985.35
617.118	14852.7
617.475	14889.54
617.831	14904
618.187	15036.65
618.543	14962.98
618.899	15081.85
619.255	15053.38
619.611	15126.14
619.967	15069.42
620.323	15104
620.678	15049.53
621.034	15043.66
621.39	14943.1
621.746	15007.05
622.101	15136.54
622.457	15023.77
622.812	15011.79
623.168	15155.07
623.523	15012.25
623.879	15062.64
624.234	15017.67
624.589	15028.52
624.945	15044.56
625.3	15121.85
625.655	15190.32
626.01	15060.15
626.365	15126.82
626.72	15103.32
627.075	15098.57
627.43	14927.73
627.785	15009.76
628.14	14997.33
628.495	15022.42
628.85	15029.42
629.205	14917.33
629.559	15052.92
629.914	14892.7
630.269	14937.45
630.623	14957.33
630.978	14934.51
631.332	14986.71
631.687	14980.83
632.041	14912.36
632.396	14951.68
632.75	14848.18
633.104	14898.58
633.459	14838.24
633.813	14803.66
634.167	14791.24
634.521	14692.93
634.875	14751.01
635.229	14799.14
635.583	14719.37
635.937	14741.97
636.291	14548.3
636.645	14672.14
636.999	14619.04
637.352	14644.12
637.706	14570
638.06	14595.31
638.413	14567.74
638.767	14550.56
639.121	14589.21
639.474	14482.99
639.828	14465.37
640.181	14515.76
640.534	14471.47
640.888	14438.93
641.241	14290.01
641.594	14388.76
641.947	14407.29
642.301	14470.57
642.654	14391.92
643.007	14355.31
643.36	14353.51
643.713	14271.48
644.066	14408.42
644.419	14283
644.771	14243.91
645.124	14090.69
645.477	13972.73
645.83	13959.84
646.182	13899.06
646.535	13886.4
646.888	13946.29
647.24	13669.68
647.593	13806.63
647.945	13838.27
648.298	13748.78
648.65	13629.91
649.002	13614.54
649.355	13667.2
649.707	13690.7
650.059	13738.83
650.411	13918.94
650.763	13904.03
651.115	14140.41
651.467	13981.54
651.819	13999.62
652.171	13986.74
652.523	13976.79
652.875	13946.96
653.227	13967.53
653.578	14008.21
653.93	13915.33
654.282	13880.07
654.633	13939.28
654.985	13808.89
655.337	13834.2
655.688	13939.28
656.039	13902.22
656.391	13752.62
656.742	13837.14
657.094	13779.96
657.445	13926.85
657.796	13855.21
658.147	13786.52
658.498	13841.66
658.849	13847.31
659.2	13838.27
659.551	13732.05
659.902	13861.99
660.253	13799.85
660.604	13786.74
660.955	13582.91
661.306	13741.09
661.656	13721.88
662.007	13713.52
662.358	13706.29
662.708	13642.57
663.059	13680.98
663.409	13623.81
663.76	13632.17
664.11	13677.37
664.461	13726.4
664.811	13709
665.161	13692.28
665.511	13594.88
665.862	13654.32
666.212	13671.49
666.562	13649.34
666.912	13610.02
667.262	13662.45
667.612	13588.33
667.962	13664.49
668.312	13589.91
668.662	13641.66
669.011	13607.54
669.361	13536.81
669.711	13626.07
670.06	13560.53
670.41	13525.05
670.76	13549.23
671.109	13552.62
671.459	13569.12
671.808	13537.03
672.157	13533.42
672.507	13499.52
672.856	13456.58
673.205	13457.49
673.554	13470.59
673.904	13488.22
674.253	13574.77
674.602	13444.83
674.951	13263.14
675.3	13222.01
675.649	13395.79
675.998	13435.11
676.346	13457.49
676.695	13475.56
677.044	13334.78
677.393	13368.67
677.741	13387.43
678.09	13272.63
678.438	13227.43
678.787	13351.5
679.135	13298.17
679.484	13210.26
679.832	13320.77
680.181	13162.8
680.529	13244.16
680.877	13234.21
681.225	13198.06
681.573	13303.36
681.922	13144.05
682.27	13148.79
682.618	13165.06
682.966	13106.08
683.314	13135.46
683.661	13116.48
684.009	13055.24
684.357	13008.01
684.705	12927.33
685.053	12975.01
685.4	12940.89
685.748	12932.53
686.095	12790.16
686.443	12756.71
686.79	12753.1
687.138	12734.34
687.485	12722.14
687.832	12721.91
688.18	12677.39
688.527	12688.47
688.874	12529.15
689.221	12611.86
689.568	12536.15
689.915	12412.54
690.262	12530.05
690.609	12493.89
690.956	12377.06
691.303	12341.81
691.65	12365.31
691.997	12241.25
692.344	12265.88
692.69	12241.92
693.037	12237.4
693.383	12220.68
693.73	12228.59
694.077	12162.38
694.423	12125.09
694.769	12153.34
695.116	12090.52
695.462	12049.61
695.808	12020.23
696.155	12014.13
696.501	11999.22
696.847	11922.16
697.193	11895.49
697.539	11897.3
697.885	11815.95
698.231	11781.82
698.577	11722.16
698.923	11706.8
699.269	11769.62
699.614	11737.08
699.96	11609.85
700.306	11680.81
700.651	11582.05
700.997	11490.98
701.342	11480.36
701.688	11498.67
702.033	11526.01
702.379	11411.21
702.724	11504.54
703.069	11494.6
703.415	11299.58
703.76	11325.56
704.105	11258.9
704.45	11292.57
704.795	11174.38
705.14	11117.89
705.485	11185
705.83	11227.26
706.175	11091.22
706.52	11091.67
706.865	11015.06
707.209	11063.42
707.554	10945.23
707.899	11069.53
708.243	10957.21
708.588	11015.52
708.932	10897.78
709.277	10919.02
709.621	10966.93
709.966	10837.89
710.31	10870.43
710.654	10754.96
710.998	10807.16
711.342	10831.57
711.687	10754.05
712.031	10644.68
712.375	10724.22
712.719	10648.07
713.063	10710.89
713.407	10740.27
713.75	10588.86
714.094	10658.69
714.438	10563.78
714.782	10617.56
715.125	10546.38
715.469	10646.03
715.812	10489.43
716.156	10468.41
716.499	10554.06
716.843	10453.95
717.186	10415.98
717.53	10483.33
717.873	10480.61
718.216	10453.27
718.559	10412.14
718.902	10352.93
719.246	10346.61
719.589	10311.58
719.932	10346.83
720.275	10362.65
720.617	10277.68
720.96	10233.84
721.303	10250.79
721.646	10259.15
721.989	10180.51
722.331	10241.07
722.674	10186.84
723.016	10214.63
723.359	10171.92
723.701	10184.12
724.044	10063.45
724.386	10118.14
724.729	10124.24
725.071	10014.19
725.413	10059.61
725.755	10007.41
726.097	9937.8
726.439	9936
726.782	9873.85
727.124	9969.89
727.465	9934.19
727.807	9902.55
728.149	9905.04
728.491	9887.41
728.833	9893.51
729.175	9792.95
729.516	9798.37
729.858	9872.27
730.199	9797.92
730.541	9761.99
730.882	9765.83
731.224	9797.02
731.565	9759.28
731.906	9744.14
732.248	9710.47
732.589	9657.81
732.93	9577.14
733.271	9615.1
733.612	9676.34
733.953	9622.78
734.294	9603.35
734.635	9559.28
734.976	9592.28
735.317	9542.79
735.658	9545.95
735.999	9579.4
736.339	9498.27
736.68	9529.45
737.021	9447.2
737.361	9384.37
737.702	9470.7
738.042	9418.5
738.383	9406.74
738.723	9448.55
739.063	9406.97
739.404	9317.48
739.744	9285.17
740.084	9351.15
740.424	9388.67
740.764	9371.72
741.104	9312.51
741.444	9224.38
741.784	9260.53
742.124	9273.19
742.464	9268.44
742.804	9218.5
743.143	9191.16
743.483	9252.17
743.823	9169.91
744.162	9232.29
744.502	9147.32
744.841	9096.02
745.181	9203.59
745.52	9112.06
745.86	9175.79
746.199	9096.02
746.538	9120.2
746.877	9116.58
747.216	9013.08
747.556	9032.97
747.895	9044.27
748.234	9012.63
748.573	8966.08
748.911	9040.65
749.25	8970.37
749.589	8951.84
749.928	8965.63
750.267	8952.29
750.605	8942.12
750.944	8849.7
751.283	8875.23
751.621	8884.5
751.96	8821.67
752.298	8788
752.636	8884.72
752.975	8731.28
753.313	8777.61
753.651	8815.8
753.989	8742.13
754.327	8668.01
754.666	8700.77
755.004	8658.52
755.342	8673.43
755.679	8599.31
756.017	8558.63
756.355	8583.04
756.693	8548.01
757.031	8478.41
757.368	8531.06
757.706	8505.3
758.044	8505.98
758.381	8513.21
758.719	8403.83
759.056	8412.87
759.394	8342.59
759.731	8347.11
760.068	8397.05
760.405	8344.85
760.743	8311.86
761.08	8267.79
761.417	8291.52
761.754	8258.75
762.091	8250.62
762.428	8196.61
762.765	8157.74
763.102	8170.17
763.438	8134.69
763.775	8087.68
764.112	8080.23
764.449	8157.51
764.785	8064.63
765.122	7955.03
765.458	8012.2
765.795	7946.44
766.131	7993.9
766.467	7924.07
766.804	7923.85
767.14	7867.8
767.476	7786.22
767.812	7770.85
768.148	7784.41
768.485	7793
768.821	7694.47
769.157	7773.34
769.492	7725.66
769.828	7741.03
770.164	7656.28
770.5	7630.29
770.836	7562.05
771.171	7564.76
771.507	7549.39
771.842	7465.55
772.178	7444.54
772.513	7465.33
772.849	7428.94
773.184	7409.06
773.519	7334.26
773.855	7293.13
774.19	7262.85
774.525	7220.36
774.86	7294.94
775.195	7216.97
775.53	7242.73
775.865	7234.37
776.2	7123.19
776.535	7065.11
776.87	7088.84
777.205	7024.66
777.539	7041.38
777.874	7067.14
778.209	6979.92
778.543	7026.24
778.878	6901.73
779.212	6952.57
779.547	6940.14
779.881	6937.43
780.215	6841.61
780.55	6869.86
780.884	6805
781.218	6774.95
781.552	6786.7
781.886	6728.17
782.22	6740.37
782.554	6684.56
782.888	6571.56
783.222	6602.98
783.556	6586.48
783.889	6640.04
784.223	6570.43
784.557	6553.26
784.89	6548.97
785.224	6529.76
785.557	6516.65
785.891	6522.75
786.224	6489.53
786.558	6487.5
786.891	6416.54
787.224	6435.3
787.557	6396.65
787.891	6412.47
788.224	6406.82
788.557	6386.71
788.89	6383.32
789.223	6330.44
789.556	6277.33
789.888	6258.58
790.221	6259.71
790.554	6210.22
790.887	6215.19
791.219	6175.64
791.552	6120.28
791.884	6088.87
792.217	6090.67
792.549	6069.2
792.882	6068.3
793.214	6055.19
793.546	6066.94
793.879	5948.3
794.211	5967.96
794.543	5996.44
794.875	5924.12
795.207	5981.07
795.539	5915.54
795.871	5924.12
796.203	5822.66
796.535	5856.78
796.867	5817.01
797.198	5757.35
797.53	5774.3
797.862	5780.17
798.193	5739.72
798.525	5775.43
798.856	5764.13
799.188	5694.75
799.519	5694.07
799.85	5654.3
800.182	5656.33
800.513	5669.44
800.844	5604.58
801.175	5621.08
801.506	5649.33
801.837	5593.29
802.168	5601.19
802.499	5618.14
802.83	5553.96
803.161	5565.72
803.491	5532.95
803.822	5510.58
804.153	5499.28
804.483	5456.11
804.814	5410.47
805.145	5423.57
805.475	5402.56
805.805	5446.17
806.136	5399.62
806.466	5381.54
806.796	5395.32
807.126	5350.13
807.457	5310.81
807.787	5363.01
808.117	5289.56
808.447	5301.32
808.777	5311.48
809.107	5316.23
809.436	5261.54
809.766	5262.9
810.096	5240.75
810.426	5184.48
810.755	5261.32
811.085	5220.87
811.414	5145.39
811.744	5207.76
812.073	5132.51
812.403	5083.69
812.732	5139.29
813.061	5144.03
813.39	5088.44
813.719	5115.33
814.049	5141.55
814.378	5108.1
814.707	5054.32
815.036	5057.93
815.365	5005.28
815.693	4983.58
816.022	4973.19
816.351	4960.99
816.68	4949.23
817.008	4968.89
817.337	4929.8
817.665	4905.62
817.994	4920.08
818.322	4900.87
818.651	4916.92
818.979	4897.94
819.307	4874.43
819.636	4865.39
819.964	4864.49
820.292	4848.67
820.62	4878.95
820.948	4809.12
821.276	4808
821.604	4869.91
821.932	4884.6
822.259	4847.54
822.587	4874.43
822.915	4864.94
823.243	4844.15
823.57	4866.52
823.898	4852.06
824.225	4800.31
824.553	4802.8
824.88	4808.45
825.207	4832.18
825.535	4799.63
825.862	4883.25
826.189	4800.09
826.516	4824.27
826.843	4803.7
827.17	4826.75
827.497	4845.73
827.824	4833.98
828.151	4870.82
828.478	4867.43
828.805	4836.24
829.131	4831.72
829.458	4770.03
829.785	4802.8
830.111	4799.41
830.438	4777.26
830.764	4812.06
831.09	4811.16
831.417	4793.76
831.743	4783.36
832.069	4795.34
832.395	4779.97
832.722	4775.68
833.048	4751.05
833.374	4753.53
833.7	4719.86
834.026	4720.99
834.351	4745.85
834.677	4702.24
835.003	4717.83
835.329	4749.24
835.654	4718.73
835.98	4758.5
836.306	4696.36
836.631	4675.57
836.956	4711.05
837.282	4727.55
837.607	4699.3
837.932	4619.53
838.258	4636.93
838.583	4681.9
838.908	4642.12
839.233	4601.67
839.558	4619.53
839.883	4603.03
840.208	4611.16
840.533	4585.18
840.858	4560.77
841.182	4586.53
841.507	4571.84
841.832	4553.76
842.156	4506.76
842.481	4568
842.805	4506.08
843.13	4551.5
843.454	4518.51
843.778	4520.09
844.103	4522.13
844.427	4495.91
844.751	4516.48
845.075	4461.34
845.399	4455.46
845.723	4424.28
846.047	4462.02
846.371	4433.99
846.695	4419.53
847.019	4360.1
847.343	4410.49
847.666	4337.72
847.99	4357.39
848.313	4358.74
848.637	4262.92
848.96	4308.12
849.284	4300.44
849.607	4269.25
849.931	4239.87
850.254	4227.45
850.577	4182.02
850.9	4153.77
851.223	4153.32
851.546	4154.23
851.869	4105.41
852.192	4099.77
852.515	4116.94
852.838	4085.08
853.161	4076.26
853.483	4051.86
853.806	4054.12
854.129	4017.51
854.451	4056.6
854.774	4052.08
855.096	4019.09
855.419	3997.17
855.741	4011.63
856.063	3978.86
856.385	3981.58
856.708	3974.8
857.03	3954.01
857.352	3935.7
857.674	3927.34
857.996	3929.37
858.318	3893.89
858.64	3884.18
858.961	3891.18
859.283	3867
859.605	3863.84
859.926	3829.72
860.248	3833.33
860.57	3845.08
860.891	3826.33
861.212	3787.23
861.534	3806.89
861.855	3823.16
862.176	3780.68
862.498	3816.38
862.819	3796.04
863.14	3794.91
863.461	3766.21
863.782	3711.53
864.103	3771.41
864.424	3735.48
864.745	3730.74
865.065	3754.46
865.386	3737.29
865.707	3758.53
866.027	3736.84
866.348	3741.81
866.668	3723.05
866.989	3726.67
867.309	3654.13
867.63	3691.19
867.95	3679.44
868.27	3645.31
868.59	3702.49
868.91	3653.45
869.23	3650.96
869.55	3686.89
869.87	3661.13
870.19	3654.13
870.51	3644.41
870.83	3673.34
871.15	3608.7
871.469	3627.69
871.789	3644.18
872.109	3677.18
872.428	3592.89
872.748	3650.96
873.067	3596.95
873.386	3636.27
873.706	3625.65
874.025	3598.54
874.344	3618.65
874.663	3583.62
874.982	3580.46
875.301	3579.55
875.62	3565.32
875.939	3556.05
876.258	3550.63
876.577	3541.59
876.896	3535.94
877.214	3514.24
877.533	3535.94
877.852	3553.11
878.17	3546.11
878.489	3527.8
878.807	3526.67
879.125	3529.84
879.444	3525.54
879.762	3551.3
880.08	3517.63
880.398	3460.91
880.716	3496.62
881.034	3473.79
881.352	3496.62
881.67	3455.04
881.988	3474.47
882.306	3444.42
882.624	3425.43
882.941	3461.36
883.259	3419.78
883.577	3446.67
883.894	3428.14
884.212	3445.77
884.529	3461.14
884.846	3410.74
885.164	3426.79
885.481	3415.26
885.798	3382.04
886.115	3342.04
886.432	3318.09
886.75	3356.28
887.067	3302.72
887.383	3330.75
887.7	3304.98
888.017	3312.67
888.334	3320.8
888.651	3316.28
888.967	3289.84
889.284	3283.52
889.6	3312.44
889.917	3293.23
890.233	3266.79
890.55	3244.42
890.866	3257.3
891.182	3242.39
891.498	3236.28
891.815	3204.87
892.131	3235.38
892.447	3204.87
892.763	3221.6
893.079	3210.3
893.395	3196.06
893.71	3211.88
894.026	3163.52
894.342	3198.32
894.657	3138.43
894.973	3131.43
895.289	3139.11
895.604	3122.84
895.92	3131.2
896.235	3116.74
896.55	3143.41
896.865	3118.1
897.181	3092.11
897.496	3069.28
897.811	3072.45
898.126	3040.58
898.441	3032
898.756	2991.32
899.071	3007.36
899.386	2982.96
899.7	2975.95
900.015	2998.33
900.33	3003.3
900.644	2953.58
900.959	3005.56
901.273	2965.56
901.588	2914.26
901.902	2914.49
902.216	2911.77
902.531	2935.05
902.845	2915.16
903.159	2922.85
903.473	2919.68
903.787	2874.71
904.101	2881.72
904.415	2861.15
904.729	2886.46
905.042	2841.72
905.356	2847.37
905.67	2850.53
905.984	2796.75
906.297	2798.1
906.611	2816.86
906.924	2790.19
907.237	2783.42
907.551	2816.18
907.864	2789.29
908.177	2773.7
908.491	2773.92
908.804	2753.81
909.117	2726.02
909.43	2721.04
909.743	2707.71
910.056	2728.95
910.368	2680.37
910.681	2673.81
910.994	2688.95
911.307	2656.64
911.619	2650.09
911.932	2675.62
912.244	2651.67
912.557	2634.04
912.869	2633.14
913.181	2632.01
913.494	2588.39
913.806	2572.12
914.118	2581.16
914.43	2553.59
914.742	2562.86
915.054	2532.35
915.366	2497.1
915.678	2513.82
915.99	2517.43
916.302	2499.13
916.613	2501.84
916.925	2489.41
917.236	2470.66
917.548	2465.23
917.859	2478.11
918.171	2481.28
918.482	2462.29
918.794	2441.05
919.105	2432.24
919.416	2402.63
919.727	2435.85
920.038	2418
920.349	2359.92
920.66	2357.21
920.971	2381.84
921.282	2348.62
921.593	2319.02
921.903	2321.51
922.214	2326.93
922.525	2315.41
922.835	2369.42
923.146	2309.98
923.456	2292.35
923.767	2272.24
924.077	2302.52
924.387	2302.98
924.697	2279.02
925.008	2243.99
925.318	2283.77
925.628	2259.59
925.938	2277.44
926.248	2232.47
926.558	2201.96
926.867	2182.98
927.177	2246.71
927.487	2175.07
927.796	2169.65
928.106	2189.53
928.416	2160.83
928.725	2162.19
929.034	2170.1
929.344	2153.38
929.653	2129.42
929.962	2088.52
930.271	2126.71
930.581	2099.14
930.89	2107.5
931.199	2099.82
931.508	2091
931.817	2093.49
932.125	2068.63
932.434	2054.4
932.743	2032.7
933.051	2020.27
933.36	2043.32
933.669	2018.69
933.977	2005.36
934.286	1992.7
934.594	1996.32
934.902	1983.66
935.21	1981.85
935.519	2003.1
935.827	1970.33
936.135	1987.73
936.443	1977.34
936.751	1960.16
937.059	1974.4
937.367	1939.14
937.674	1952.25
937.982	1903.21
938.29	1929.65
938.597	1898.47
938.905	1901.63
939.213	1914.29
939.52	1904.57
939.827	1897.56
940.135	1886.94
940.442	1888.07
940.749	1868.64
941.056	1874.51
941.363	1833.16
941.67	1831.12
941.977	1837.9
942.284	1813.95
942.591	1834.97
942.898	1822.08
943.205	1799.94
943.511	1797.45
943.818	1799.71
944.125	1776.66
944.431	1778.92
944.738	1747.74
945.044	1750.22
945.35	1762.43
945.657	1752.26
945.963	1755.65
946.269	1764.01
946.575	1738.92
946.881	1707.51
947.187	1735.99
947.493	1696.89
947.799	1700.28
948.105	1677.68
948.41	1663.44
948.716	1704.12
949.022	1687.63
949.327	1661.41
949.633	1635.42
949.938	1666.61
950.244	1659.83
950.549	1658.7
950.854	1656.89
951.16	1649.89
951.465	1657.12
951.77	1646.04
952.075	1614.86
952.38	1605.59
952.685	1618.25
952.99	1601.75
953.294	1610.34
953.599	1610.79
953.904	1605.14
954.209	1562.2
954.513	1578.93
954.818	1555.43
955.122	1540.96
955.426	1562.88
955.731	1556.78
956.035	1533.96
956.339	1550
956.643	1532.6
956.948	1544.35
957.252	1517.69
957.556	1497.35
957.86	1509.32
958.163	1511.36
958.467	1531.47
958.771	1479.27
959.075	1498.03
959.378	1495.54
959.682	1498.03
959.985	1484.24
960.289	1479.72
960.592	1494.18
960.896	1481.53
961.199	1452.15
961.502	1431.13
961.805	1427.52
962.108	1426.39
962.411	1457.8
962.714	1420.97
963.017	1425.94
963.32	1438.59
963.623	1390.01
963.926	1411.02
964.228	1423
964.531	1415.54
964.833	1404.47
965.136	1368.09
965.438	1386.62
965.741	1379.84
966.043	1356.79
966.345	1347.3
966.648	1346.39
966.95	1352.04
967.252	1343.68
967.554	1350.68
967.856	1360.63
968.158	1323.34
968.46	1335.09
968.761	1316.79
969.063	1330.8
969.365	1318.37
969.666	1309.1
969.968	1293.96
970.269	1305.26
970.571	1296.9
970.872	1310.69
971.174	1279.5
971.475	1302.55
971.776	1262.78
972.077	1272.04
972.378	1265.04
972.679	1258.03
972.98	1275.21
973.281	1270.23
973.582	1262.33
973.883	1230.46
974.183	1231.59
974.484	1220.97
974.785	1232.27
975.085	1238.82
975.386	1234.98
975.686	1225.72
975.986	1215.1
976.287	1214.19
976.587	1218.03
976.887	1196.56
977.187	1224.13
977.487	1215.55
977.787	1190.24
978.087	1179.16
978.387	1174.42
978.687	1183.68
978.987	1188.43
979.286	1156.57
979.586	1189.33
979.885	1190.01
980.185	1171.93
980.484	1129.22
980.784	1162.89
981.083	1148.43
981.382	1147.75
981.682	1142.78
981.981	1141.42
982.28	1126.28
982.579	1129
982.878	1101.65
983.177	1087.19
983.475	1116.11
983.774	1119.28
984.073	1120.41
984.372	1108.88
984.67	1108.66
984.969	1090.35
985.267	1099.62
985.566	1101.43
985.864	1092.39
986.162	1122.22
986.461	1053.07
986.759	1075.44
987.057	1065.04
987.355	1078.6
987.653	1057.81
987.951	1054.65
988.249	1062.56
988.547	1027.76
988.844	1067.08
989.142	1032.73
989.44	1057.36
989.737	1052.61
990.035	1028.21
990.332	1023.46
990.63	1004.71
990.927	998.6
991.224	997.47
991.521	1002.45
991.819	1020.07
992.116	993.63
992.413	1001.99
992.71	1006.74
993.006	990.47
993.303	990.69
993.6	982.11
993.897	985.27
994.193	999.51
994.49	983.69
994.787	978.04
995.083	977.14
995.379	967.19
995.676	961.54
995.972	952.28
996.268	947.98
996.565	967.42
996.861	954.31
997.157	948.44
997.453	931.94
997.749	949.57
998.044	972.84
998.34	936.91
998.636	912.96
998.932	947.08
999.227	928.78
999.523	903.24
999.818	885.61
1000.114	923.35
1000.409	924.26
1000.704	891.71
1001	893.52
1001.295	914.09
1001.59	874.99
1001.885	891.71
1002.18	888.55
1002.475	907.76
1002.77	903.01
1003.065	880.19
1003.359	856.91
1003.654	888.32
1003.949	860.98
1004.243	850.13
1004.538	875.22
1004.832	863.47
1005.127	867.53
1005.421	858.04
1005.715	846.74
1006.009	827.99
1006.304	830.02
1006.598	826.86
1006.892	837.93
1007.186	832.96
1007.48	811.94
1007.773	823.02
1008.067	801.09
1008.361	803.81
1008.655	792.28
1008.948	792.73
1009.242	801.09
1009.535	811.72
1009.829	812.62
1010.122	811.26
1010.415	803.58
1010.708	780.3
1011.001	788.89
1011.295	799.96
1011.588	767.42
1011.881	815.11
1012.173	769.91
1012.466	785.05
1012.759	761.32
1013.052	769.01
1013.344	759.97
1013.637	768.33
1013.93	754.99
1014.222	764.03
1014.514	742.57
1014.807	736.92
1015.099	737.37
1015.391	738.95
1015.683	725.16
1015.976	750.02
1016.268	738.72
1016.56	717.71
1016.851	703.92
1017.143	720.87
1017.435	710.02
1017.727	710.25
1018.018	729.46
1018.31	724.26
1018.602	718.61
1018.893	683.58
1019.185	677.26
1019.476	686.3
1019.767	689.23
1020.058	700.98
1020.35	670.02
1020.641	681.78
1020.932	671.83
1021.223	662.79
1021.514	684.04
1021.804	662.79
1022.095	662.79
1022.386	643.81
1022.677	682
1022.967	646.3
1023.258	638.84
1023.548	661.66
1023.839	672.28
1024.129	660.53
1024.419	638.39
1024.709	628.22
1025	649.91
1025.29	651.72
1025.58	636.58
1025.87	628.67
1026.16	630.48
1026.449	613.3
1026.739	615.79
1027.029	646.75
1027.319	638.61
1027.608	617.14
1027.898	597.26
1028.187	627.54
1028.477	605.39
1028.766	622.12
1029.055	620.08
1029.344	604.72
1029.634	597.71
1029.923	589.57
1030.212	589.35
1030.501	591.83
1030.79	559.97
1031.078	587.09
1031.367	592.96
1031.656	564.04
1031.945	574.43
1032.233	562.46
1032.522	557.94
1032.81	555.45
1033.099	574.89
1033.387	591.38
1033.675	577.82
1033.963	566.07
1034.251	562.68
1034.54	561.78
1034.828	560.2
1035.116	561.55
1035.403	557.71
1035.691	552.29
1035.979	545.73
1036.267	547.77
1036.554	538.05
1036.842	524.49
1037.129	533.76
1037.417	535.34
1037.704	536.02
1037.992	547.99
1038.279	514.1
1038.566	523.81
1038.853	523.81
1039.14	523.81
