Data from black_metal_pc_casing_FLMS001491_00076.txt Node
Date: Wed Feb 08 14:33:29 GMT 2017
User: dcchb
Spectrometer: FLMS00149
Trigger mode: 0
Integration Time (sec): 2.000000E-2
Scans to average: 10
Electric dark correction enabled: true
Nonlinearity correction enabled: false
Boxcar width: 0
XAxis mode: Wavelengths
Number of Pixels in Spectrum: 2048
>>>>>Begin Spectral Data<<<<<
341.393	-22.02
341.776	-22.02
342.16	-22.02
342.543	-48.23
342.927	-68.12
343.31	-79.64
343.693	-65.18
344.077	-59.31
344.46	-40.32
344.843	-36.03
345.226	-22.7
345.61	-25.41
345.993	-27.22
346.376	-10.27
346.759	6.68
347.142	24.76
347.525	30.18
347.908	58.88
348.291	68.37
348.674	92.1
349.057	85.1
349.44	114.93
349.823	133.68
350.206	159.67
350.588	178.43
350.971	209.39
351.354	216.17
351.737	238.54
352.119	222.27
352.502	261.59
352.884	274.02
353.267	276.96
353.65	278.54
354.032	273.11
354.414	307.24
354.797	304.98
355.179	313.34
355.562	290.74
355.944	323.51
356.326	330.74
356.709	335.26
357.091	337.75
357.473	340.46
357.855	345.43
358.238	330.51
358.62	336.84
359.002	328.48
359.384	358.76
359.766	348.59
360.148	333.68
360.53	335.26
360.912	318.08
361.294	327.58
361.676	336.39
362.057	333.9
362.439	283.51
362.821	325.99
363.203	308.14
363.584	339.55
363.966	308.59
364.348	317.41
364.729	313.11
365.111	306.33
365.493	326.22
365.874	300.46
366.256	319.89
366.637	316.5
367.019	313.34
367.4	308.14
367.781	297.75
368.163	323.73
368.544	314.47
368.925	331.87
369.306	358.76
369.688	329.84
370.069	318.08
370.45	311.98
370.831	314.47
371.212	312.44
371.593	331.87
371.974	316.05
372.355	304.98
372.736	333.45
373.117	300.01
373.498	321.93
373.879	316.28
374.26	313.79
374.641	333.23
375.021	316.28
375.402	311.76
375.783	319.67
376.163	366.9
376.544	327.35
376.925	325.99
377.305	328.48
377.686	322.15
378.066	337.29
378.447	342.49
378.827	356.5
379.208	332.32
379.588	341.14
379.968	350.4
380.349	344.3
380.729	328.48
381.109	336.62
381.489	342.94
381.87	352.43
382.25	356.28
382.63	343.39
383.01	338.65
383.39	350.4
383.77	353.79
384.15	349.95
384.53	352.21
384.91	359.67
385.29	360.8
385.67	370.29
386.049	365.99
386.429	342.72
386.809	382.94
387.189	381.59
387.568	366.22
387.948	366.22
388.328	370.51
388.707	381.81
389.087	378.87
389.466	359.67
389.846	396.5
390.225	393.34
390.605	411.64
390.984	391.98
391.363	380.46
391.743	385.2
392.122	399.21
392.501	391.53
392.881	418.65
393.26	429.04
393.639	414.58
394.018	421.36
394.397	389.72
394.776	391.98
395.155	413.22
395.534	405.31
395.913	402.83
396.292	421.36
396.671	416.61
397.05	408.93
397.429	432.66
397.808	431.3
398.186	435.14
398.565	449.38
398.944	396.95
399.323	434.01
399.701	428.82
400.08	423.39
400.458	444.41
400.837	442.38
401.215	431.75
401.594	458.87
401.972	446.22
402.351	454.35
402.729	462.49
403.107	479.21
403.486	467.01
403.864	472.66
404.242	470.62
404.62	466.1
404.999	475.14
405.377	488.93
405.755	481.92
406.133	504.75
406.511	505.88
406.889	509.49
407.267	503.16
407.645	474.92
408.023	512.88
408.401	505.65
408.779	495.48
409.156	514.92
409.534	529.6
409.912	511.75
410.29	536.38
410.667	539.32
411.045	536.61
411.422	531.19
411.8	538.87
412.178	568.47
412.555	548.36
412.933	547.46
413.31	553.56
413.687	580.68
414.065	593.11
414.442	562.6
414.819	574.8
415.197	607.57
415.574	600.11
415.951	600.11
416.328	582.48
416.705	611.41
417.082	605.99
417.46	600.11
417.837	627.46
418.214	628.81
418.591	619.55
418.967	612.77
419.344	650.51
419.721	648.47
420.098	637.4
420.475	629.94
420.852	639.66
421.228	627.46
421.605	656.83
421.982	676.04
422.358	668.58
422.735	664.97
423.111	663.61
423.488	670.84
423.864	691.18
424.241	706.55
424.617	685.53
424.994	699.77
425.37	701.58
425.746	692.09
426.123	712.2
426.499	714.46
426.875	732.31
427.251	736.6
427.627	727.79
428.003	746.32
428.379	745.19
428.756	761.46
429.132	770.95
429.507	766.21
429.883	776.83
430.259	771.41
430.635	784.29
431.011	785.19
431.387	796.26
431.763	811.41
432.138	833.1
432.514	820.44
432.89	836.49
433.265	847.56
433.641	847.11
434.016	868.13
434.392	901.12
434.767	878.52
435.143	883.72
435.518	895.47
435.894	918.3
436.269	895.47
436.644	922.59
437.02	913.32
437.395	944.06
437.77	932.31
438.145	968.24
438.52	969.14
438.895	974.11
439.271	977.5
439.646	986.32
440.021	980.89
440.395	1000.33
440.77	1001.46
441.145	1011.85
441.52	1013.43
441.895	1018.41
442.27	1020.67
442.645	1038.07
443.019	1063.38
443.394	1038.52
443.769	1025.41
444.143	1056.37
444.518	1054.56
444.892	1074.9
445.267	1055.47
445.641	1094.56
446.016	1076.03
446.39	1100.89
446.764	1100.89
447.139	1091.4
447.513	1138.4
447.887	1102.47
448.262	1108.35
448.636	1113.09
449.01	1114.45
449.384	1151.96
449.758	1142.7
450.132	1149.7
450.506	1162.36
450.88	1173.2
451.254	1184.95
451.628	1169.14
452.002	1191.96
452.376	1197.16
452.75	1230.6
453.123	1231.06
453.497	1230.83
453.871	1244.61
454.244	1250.49
454.618	1255.46
454.992	1275.57
455.365	1270.6
455.739	1311.28
456.112	1331.39
456.486	1350.37
456.859	1328.91
457.232	1363.48
457.606	1387.89
457.979	1397.83
458.352	1389.02
458.725	1444.16
459.099	1428.11
459.472	1458.62
459.845	1463.14
460.218	1484.16
460.591	1506.08
460.964	1508.79
461.337	1532.06
461.71	1554.21
462.083	1564.38
462.456	1566.64
462.829	1578.62
463.201	1581.33
463.574	1600.76
463.947	1637.82
464.32	1648.67
464.692	1689.8
465.065	1709.01
465.438	1705.84
465.81	1723.02
466.183	1730.48
466.555	1765.28
466.928	1778.39
467.3	1803.92
467.672	1795.33
468.045	1859.97
468.417	1879.85
468.789	1863.13
469.161	1884.37
469.534	1911.94
469.906	1956.46
470.278	1954.43
470.65	1984.93
471.022	1981.54
471.394	2064.93
471.766	2063.58
472.138	2064.71
472.51	2118.94
472.882	2155.55
473.253	2186.51
473.625	2220.41
473.997	2232.61
474.369	2234.87
474.74	2251.14
475.112	2296.34
475.484	2340.18
475.855	2388.09
476.227	2409.33
476.598	2466.05
476.97	2489.1
477.341	2536.56
477.713	2535.65
478.084	2585.6
478.455	2622.88
478.827	2644.8
479.198	2729.32
479.569	2731.58
479.94	2796.44
480.311	2811.8
480.682	2902.42
481.053	2991.91
481.424	2950.33
481.795	3014.51
482.166	3030.33
482.537	3078.01
482.908	3167.05
483.279	3179.25
483.65	3210.89
484.021	3282.3
484.391	3303.54
484.762	3343.54
485.133	3406.82
485.503	3405.91
485.874	3473.48
486.244	3510.32
486.615	3578.79
486.985	3649.07
487.356	3666.92
487.726	3725.45
488.097	3771.1
488.467	3822.63
488.837	3873.92
489.207	3923.87
489.578	3922.06
489.948	4023.52
490.318	4051.55
490.688	4026.46
491.058	4155.27
491.428	4140.36
491.798	4240.92
492.168	4324.99
492.538	4334.02
492.908	4342.39
493.278	4392.1
493.648	4451.31
494.017	4481.14
494.387	4556.84
494.757	4592.32
495.126	4607.69
495.496	4624.41
495.866	4665.99
496.235	4694.24
496.605	4763.17
496.974	4765.43
497.344	4851.98
497.713	4849.72
498.082	4877.74
498.452	4920.9
498.821	4958.19
499.19	4950.73
499.559	4998.19
499.928	5033.89
500.298	5088.13
500.667	5114.79
501.036	5129.26
501.405	5205.19
501.774	5200.67
502.143	5181.01
502.512	5255.36
502.88	5302.59
503.249	5316.6
503.618	5363.83
503.987	5399.76
504.356	5374.68
504.724	5429.14
505.093	5432.75
505.462	5526.31
505.83	5547.78
506.199	5572.18
506.567	5685.63
506.936	5644.27
507.304	5715.46
507.672	5746.87
508.041	5830.71
508.409	5831.84
508.777	5875.23
509.145	5861.22
509.514	5900.54
509.882	5967.88
510.25	5959.07
510.618	6047.43
510.986	6041.78
511.354	6098.05
511.722	6173.52
512.09	6221.88
512.458	6199.06
512.826	6295.78
513.193	6338.94
513.561	6364.03
513.929	6407.42
514.297	6487.87
514.664	6523.57
515.032	6516.34
515.4	6569.9
515.767	6634.75
516.135	6659.61
516.502	6630.24
516.869	6750.23
517.237	6811.93
517.604	6757.92
517.972	6808.99
518.339	6882.43
518.706	6946.84
519.073	6986.84
519.44	7034.29
519.808	7138.47
520.175	7090.79
520.542	7196.1
520.909	7218.24
521.276	7136.66
521.643	7311.57
522.009	7396.54
522.376	7413.04
522.743	7428.18
523.11	7566.93
523.477	7637.67
523.843	7605.35
524.21	7712.01
524.577	7823.88
524.943	7843.31
525.31	7860.26
525.676	7898.45
526.043	8012.57
526.409	8058.22
526.776	8173.47
527.142	8217.54
527.508	8201.95
527.874	8271.55
528.241	8365.1
528.607	8341.15
528.973	8447.59
529.339	8444.42
529.705	8546.57
530.071	8584.08
530.437	8657.3
530.803	8657.07
531.169	8737.52
531.535	8721.25
531.901	8722.16
532.267	8811.65
532.632	8838.76
532.998	8845.32
533.364	8955.37
533.73	8952.66
534.095	9027.46
534.461	9073.79
534.826	9116.5
535.192	9234.46
535.557	9228.81
535.923	9296.15
536.288	9358.3
536.653	9406.89
537.019	9274.23
537.384	9368.69
537.749	9414.34
538.114	9431.29
538.479	9513.55
538.845	9473.55
539.21	9498.41
539.575	9654.34
539.94	9626.54
540.305	9681.23
540.67	9668.12
541.034	9782.69
541.399	9774.33
541.764	9796.93
542.129	9805.97
542.494	9843.48
542.858	9880.77
543.223	9892.3
543.587	9890.94
543.952	9989.69
544.316	10024.27
544.681	10026.53
545.045	10115.79
545.41	10204.6
545.774	10069.69
546.138	10181.33
546.503	10177.71
546.867	10271.04
547.231	10254.55
547.595	10394.2
547.959	10354.43
548.324	10382
548.688	10434.43
549.052	10480.98
549.416	10457.25
549.779	10485.73
550.143	10546.06
550.507	10661.09
550.871	10592.16
551.235	10676.46
551.599	10796.23
551.962	10767.3
552.326	10847.75
552.689	10831.48
553.053	10854.53
553.417	10869.9
553.78	11019.72
554.143	10991.02
554.507	11040.97
554.87	11097.91
555.234	11149.66
555.597	11159.61
555.96	11210.91
556.323	11235.54
556.686	11236.89
557.05	11334.97
557.413	11430.11
557.776	11445.02
558.139	11508.98
558.502	11506.72
558.865	11529.99
559.228	11684.11
559.59	11583.1
559.953	11724.34
560.316	11856.54
560.679	11813.15
561.041	11851.57
561.404	11873.26
561.767	11981.51
562.129	12067.15
562.492	12064.22
562.854	12110.09
563.217	12125.01
563.579	12243.65
563.941	12274.15
564.304	12332.01
564.666	12410.65
565.028	12376.52
565.39	12477.31
565.753	12504.88
566.115	12608.16
566.477	12703.3
566.839	12716.18
567.201	12722.28
567.563	12754.59
567.925	12844.99
568.287	12790.53
568.648	12916.85
569.01	12969.5
569.372	13018.54
569.734	12969.5
570.095	13082.27
570.457	13177.41
570.819	13137.18
571.18	13236.84
571.542	13272.09
571.903	13256.28
572.265	13309.61
572.626	13343.28
572.987	13444.52
573.349	13461.69
573.71	13548.02
574.071	13483.39
574.432	13482.71
574.794	13649.71
575.155	13602.71
575.516	13596.38
575.877	13707.34
576.238	13709.6
576.599	13822.59
576.96	13734.68
577.32	13785.75
577.681	13888.35
578.042	13873.43
578.403	13891.51
578.763	13870.04
579.124	13904.39
579.485	13947.56
579.845	14019.87
580.206	13978.06
580.566	13973.77
580.927	14030.72
581.287	14068.68
581.648	13992.98
582.008	14015.58
582.368	14134.67
582.728	14120.43
583.089	14137.61
583.449	14116.14
583.809	14102.13
584.169	14108.46
584.529	14063.71
584.889	14150.94
585.249	14044.73
585.609	14085.41
585.969	14153.88
586.329	14115.01
586.688	14145.07
587.048	14165.86
587.408	14261
587.768	14158.17
588.127	14178.29
588.487	14121.79
588.846	14305.74
589.206	14167.66
589.565	14154.56
589.925	14239.98
590.284	14097.84
590.643	14250.15
591.003	14261.45
591.362	14269.58
591.721	14229.13
592.08	14170.38
592.44	14271.84
592.799	14235.69
593.158	14187.78
593.517	14171.05
593.876	14249.47
594.235	14319.52
594.593	14294.89
594.952	14244.05
595.311	14235.69
595.67	14396.58
596.029	14363.37
596.387	14323.37
596.746	14419.41
597.104	14312.29
597.463	14311.84
597.822	14464.15
598.18	14352.97
598.538	14310.03
598.897	14451.05
599.255	14393.87
599.613	14604.71
599.972	14431.16
600.33	14468.45
600.688	14493.53
601.046	14488.11
601.404	14480.2
601.762	14503.02
602.12	14600.65
602.478	14565.62
602.836	14542.12
603.194	14457.37
603.552	14480.2
603.91	14495.57
604.268	14627.54
604.625	14586.64
604.983	14574.66
605.341	14531.95
605.698	14672.28
606.056	14711.6
606.413	14675.45
606.771	14718.84
607.128	14736.69
607.485	14599.07
607.843	14722
608.2	14713.86
608.557	14774.43
608.914	14705.73
609.272	14790.25
609.629	14837.25
609.986	14869.34
610.343	14828.21
610.7	14761.55
611.057	14898.72
611.414	14868.44
611.771	14850.81
612.127	14926.06
612.484	15010.58
612.841	14989.56
613.198	14947.76
613.554	14946.4
613.911	14982.33
614.267	15034.99
614.624	14934.88
614.98	15068.43
615.337	15149.56
615.693	15195.21
616.05	15025.49
616.406	15269.33
616.762	15126.51
617.118	15125.61
617.475	15046.96
617.831	15153.18
618.187	15145.49
618.543	15159.73
618.899	15242.21
619.255	15284.7
619.611	15170.12
619.967	15309.78
620.323	15312.94
620.678	15224.59
621.034	15220.07
621.39	15208.77
621.746	15269.33
622.101	15362.89
622.457	15168.77
622.812	15196.34
623.168	15262.78
623.523	15327.18
623.879	15387.29
624.234	15216.45
624.589	15301.42
624.945	15289.44
625.3	15335.77
625.655	15226.85
626.01	15304.13
626.365	15337.35
626.72	15284.7
627.075	15305.04
627.43	15181.65
627.785	15204.02
628.14	15274.98
628.495	15270.46
628.85	15272.27
629.205	15129.45
629.559	15232.27
629.914	15271.59
630.269	15208.09
630.623	15169.22
630.978	15076.11
631.332	15141.2
631.687	15293.51
632.041	15114.08
632.396	15193.85
632.75	15087.87
633.104	15126.96
633.459	15035.21
633.813	15085.61
634.167	15028.21
634.521	15013.97
634.875	15079.96
635.229	14961.32
635.583	14890.81
635.937	14985.72
636.291	14926.97
636.645	14931.71
636.999	14914.09
637.352	14957.25
637.706	14850.13
638.06	14903.69
638.413	14871.37
638.767	14846.06
639.121	14937.14
639.474	14787.08
639.828	14790.25
640.181	14822.11
640.534	14832.28
640.888	14751.6
641.241	14698.05
641.594	14742.79
641.947	14758.38
642.301	14636.58
642.654	14760.19
643.007	14729.23
643.36	14688.78
643.713	14575.79
644.066	14645.17
644.419	14574.89
644.771	14498.05
645.124	14267.77
645.477	14345.74
645.83	14115.91
646.182	14088.34
646.535	14090.6
646.888	14000.66
647.24	14046.09
647.593	14094.9
647.945	14100.32
648.298	13970.83
648.65	14042.02
649.002	13905.07
649.355	14016.03
649.707	13989.82
650.059	13988.46
650.411	14225.52
650.763	14192.52
651.115	14324.5
651.467	14303.03
651.819	14259.19
652.171	14238.85
652.523	14321.11
652.875	14184.16
653.227	14156.14
653.578	14291.05
653.93	14269.13
654.282	14129.25
654.633	14072.53
654.985	14122.47
655.337	14111.17
655.688	14161.79
656.039	14159.98
656.391	14042.24
656.742	14106.42
657.094	14023.71
657.445	14059.64
657.796	14145.07
658.147	14020.78
658.498	14035.24
658.849	14061
659.2	13934.45
659.551	13948.01
659.902	14035.69
660.253	13904.85
660.604	13940.55
660.955	13927.9
661.306	14052.86
661.656	13932.87
662.007	13987.78
662.358	14046.09
662.708	13983.71
663.059	13848.35
663.409	13892.87
663.76	14030.94
664.11	13944.85
664.461	13941.68
664.811	13902.36
665.161	13971.06
665.511	13868.01
665.862	13851.74
666.212	13874.11
666.562	13959.08
666.912	13894
667.262	13831.63
667.612	13856.94
667.962	13854.9
668.312	13831.85
668.662	13913.66
669.011	13975.13
669.361	13842.93
669.711	13943.94
670.06	13812.65
670.41	13879.31
670.76	13733.78
671.109	13848.35
671.459	13789.37
671.808	13780.33
672.157	13807.67
672.507	13728.35
672.856	13766.54
673.205	13793.66
673.554	13793.21
673.904	13776.71
674.253	13778.07
674.602	13757.28
674.951	13536.95
675.3	13449.27
675.649	13724.74
675.998	13672.31
676.346	13687.68
676.695	13689.26
677.044	13563.39
677.393	13567.68
677.741	13613.55
678.09	13608.13
678.438	13569.94
678.787	13623.27
679.135	13556.38
679.484	13511.18
679.832	13540.11
680.181	13487.68
680.529	13433.67
680.877	13452.43
681.225	13382.15
681.573	13515.03
681.922	13504.63
682.27	13444.07
682.618	13397.06
682.966	13344.18
683.314	13352.09
683.661	13364.07
684.009	13224.86
684.357	13298.99
684.705	13179.89
685.053	13303.96
685.4	13198.2
685.748	13173.11
686.095	13100.35
686.443	13049.05
686.79	13056.73
687.138	13122.04
687.485	13106.22
687.832	13065.09
688.18	13013.34
688.527	12969.28
688.874	12984.87
689.221	12920.47
689.568	12882.73
689.915	12867.13
690.262	12777.64
690.609	12778.1
690.956	12781.03
691.303	12706.69
691.65	12693.13
691.997	12602.06
692.344	12563.64
692.69	12511.44
693.037	12621.26
693.383	12462.62
693.73	12561.38
694.077	12506.46
694.423	12424.43
694.769	12431.89
695.116	12391.44
695.462	12403.64
695.808	12331.33
696.155	12357.32
696.501	12277.09
696.847	12254.04
697.193	12220.6
697.539	12227.38
697.885	11977.67
698.231	12080.94
698.577	12127.04
698.923	11936.99
699.269	11949.19
699.614	11857.89
699.96	11947.16
700.306	11960.94
700.651	11863.54
700.997	11817.44
701.342	11808.4
701.688	11812.25
702.033	11759.14
702.379	11718.01
702.724	11653.38
703.069	11645.47
703.415	11596.88
703.76	11590.56
704.105	11593.04
704.45	11585.81
704.795	11520.95
705.14	11494.51
705.485	11486.6
705.83	11390.11
706.175	11330.9
706.52	11372.94
706.865	11350.56
707.209	11293.16
707.554	11274.18
707.899	11335.42
708.243	11272.37
708.588	11295.2
708.932	11219.49
709.277	11164.35
709.621	11229.66
709.966	11125.71
710.31	11104.24
710.654	10972.27
710.998	11074.64
711.342	11083.68
711.687	10981.99
712.031	11012.04
712.375	10921.42
712.719	10966.62
713.063	10872.84
713.407	10893.17
713.75	10906.06
714.094	10930.24
714.438	10776.57
714.782	10837.13
715.125	10848.43
715.469	10799.17
715.812	10720.3
716.156	10727.3
716.499	10720.07
716.843	10701.77
717.186	10591.49
717.53	10664.93
717.873	10653.86
718.216	10677.59
718.559	10589.23
718.902	10498.61
719.246	10582.22
719.589	10485.5
719.932	10478.5
720.275	10522.34
720.617	10453.64
720.96	10432.62
721.303	10436.91
721.646	10457.71
721.989	10386.75
722.331	10377.48
722.674	10412.51
723.016	10339.29
723.359	10312.85
723.701	10300.87
724.044	10245.73
724.386	10226.75
724.729	10331.38
725.071	10219.52
725.413	10300.87
725.755	10270.37
726.097	10167.32
726.439	10113.99
726.782	10155.34
727.124	10150.14
727.465	10186.3
727.807	10171.84
728.149	10167.77
728.491	10144.72
728.833	10136.81
729.175	10081.67
729.516	10029.92
729.858	10005.06
730.199	10004.38
730.541	9980.88
730.882	10038.73
731.224	10002.12
731.565	9955.12
731.906	9937.27
732.248	9954.89
732.589	9937.04
732.93	9935.69
733.271	9816.82
733.612	9842.81
733.953	9858.17
734.294	9800.32
734.635	9868.34
734.976	9846.2
735.317	9784.05
735.658	9781.56
735.999	9751.74
736.339	9722.58
736.68	9816.14
737.021	9724.17
737.361	9729.36
737.702	9838.51
738.042	9691.4
738.383	9727.55
738.723	9676.71
739.063	9661.34
739.404	9583.38
739.744	9662.02
740.084	9546.54
740.424	9540.44
740.764	9575.24
741.104	9542.25
741.444	9520.1
741.784	9515.13
742.124	9559.88
742.464	9516.94
742.804	9522.59
743.143	9522.59
743.483	9555.13
743.823	9429.48
744.162	9383.61
744.502	9484.62
744.841	9387
745.181	9444.62
745.52	9403.04
745.86	9349.49
746.199	9344.06
746.538	9327.57
746.877	9471.97
747.216	9358.3
747.556	9320.11
747.895	9385.64
748.234	9323.27
748.573	9283.72
748.911	9283.05
749.25	9190.85
749.589	9241.47
749.928	9251.41
750.267	9165.76
750.605	9180.68
750.944	9112.43
751.283	9133.45
751.621	9113.79
751.96	9034.92
752.298	8982.04
752.636	9003.73
752.975	9013.9
753.313	8954.47
753.651	8963.73
753.989	8975.26
754.327	9001.47
754.666	8898.2
755.004	8944.75
755.342	8916.95
755.679	8939.33
756.017	8889.16
756.355	8826.11
756.693	8825.66
757.031	8830.86
757.368	8780.01
757.706	8755.83
758.044	8711.54
758.381	8664.53
758.719	8695.72
759.056	8684.19
759.394	8631.09
759.731	8568.94
760.068	8540.69
760.405	8594.48
760.743	8569.39
761.08	8505.44
761.417	8509.51
761.754	8445.55
762.091	8487.14
762.428	8426.8
762.765	8365.1
763.102	8420.7
763.438	8380.92
763.775	8295.95
764.112	8329.63
764.449	8323.98
764.785	8263.86
765.122	8176.86
765.458	8181.15
765.795	8198.1
766.131	8132.79
766.467	8229.29
766.804	8100.71
767.14	8047.15
767.476	8069.29
767.812	8094.83
768.148	8066.36
768.485	7986.36
768.821	7902.74
769.157	8046.02
769.492	7957.21
769.828	7898.22
770.164	7843.54
770.5	7815.97
770.836	7816.19
771.171	7834.5
771.507	7747.04
771.842	7646.93
772.178	7651.9
772.513	7641.06
772.849	7735.52
773.184	7662.07
773.519	7648.51
773.855	7509.31
774.19	7507.5
774.525	7577.55
774.86	7512.7
775.195	7525.8
775.53	7477.22
775.865	7381.85
776.2	7386.6
776.535	7332.36
776.87	7346.15
777.205	7302.99
777.539	7251.91
777.874	7195.64
778.209	7179.37
778.543	7207.17
778.878	7169.88
779.212	7121.52
779.547	7093.27
779.881	7105.7
780.215	7020.51
780.55	7072.26
780.884	7064.12
781.218	7018.47
781.552	6981.64
781.886	6945.48
782.22	6943.45
782.554	6942.09
782.888	6862.32
783.222	6846.27
783.556	6784.58
783.889	6818.7
784.223	6796.78
784.557	6729.89
784.89	6784.13
785.224	6662.55
785.557	6682.21
785.891	6620.97
786.224	6663
786.558	6611.03
786.891	6572.61
787.224	6556.79
787.557	6583.23
787.891	6540.75
788.224	6545.94
788.557	6510.01
788.89	6485.61
789.223	6473.4
789.556	6461.43
789.888	6385.27
790.221	6449.68
790.554	6360.64
790.887	6332.39
791.219	6329.68
791.552	6299.4
791.884	6273.41
792.217	6267.31
792.549	6227.76
792.882	6214.88
793.214	6147.31
793.546	6173.07
793.879	6164.26
794.211	6130.14
794.543	6121.1
794.875	6092.85
795.207	6126.29
795.539	6041.1
795.871	6045.62
796.203	6014.43
796.535	6050.82
796.867	5968.56
797.198	6000.87
797.53	5983.92
797.862	5938.5
798.193	5955.22
798.525	5917.03
798.856	5884.04
799.188	5849.69
799.519	5835.45
799.85	5815.34
800.182	5821.22
800.513	5805.4
800.844	5747.32
801.175	5727.43
801.506	5780.77
801.837	5717.49
802.168	5751.39
802.499	5641.33
802.83	5722.91
803.161	5676.14
803.491	5635.46
803.822	5657.61
804.153	5596.59
804.483	5534.44
804.814	5547.55
805.145	5532.41
805.475	5576.93
805.805	5538.96
806.136	5522.47
806.466	5511.62
806.796	5479.98
807.126	5496.48
807.457	5506.42
807.787	5442.92
808.117	5421.23
808.447	5457.84
808.777	5452.87
809.107	5401.12
809.436	5358.63
809.766	5349.36
810.096	5344.62
810.426	5350.72
810.755	5333.77
811.085	5305.07
811.414	5305.3
811.744	5232.76
812.073	5243.61
812.403	5247.45
812.732	5234.34
813.061	5240.67
813.39	5205.87
813.719	5195.24
814.049	5217.84
814.378	5228.69
814.707	5131.52
815.036	5152.53
815.365	5089.48
815.693	5116.6
816.022	5070.73
816.351	5046.55
816.68	5035.7
817.008	5107.34
817.337	5075.7
817.665	4996.83
817.994	5020.33
818.322	5048.81
818.651	5063.72
818.979	5016.72
819.307	4987.57
819.636	4994.8
819.964	4971.97
820.292	4977.85
820.62	4976.72
820.948	4971.52
821.276	5006.32
821.604	4956.61
821.932	4991.18
822.259	4956.61
822.587	4925.65
822.915	4937.4
823.243	4970.84
823.57	4907.12
823.898	4961.8
824.225	4940.56
824.553	4934.01
824.88	4946.89
825.207	4977.4
825.535	4926.33
825.862	4995.7
826.189	4893.11
826.516	4949.83
826.843	4943.95
827.17	4968.13
827.497	4985.08
827.824	4924.29
828.151	4972.2
828.478	4953.22
828.805	4924.07
829.131	4911.86
829.458	4950.51
829.785	4878.87
830.111	4931.52
830.438	4929.94
830.764	4893.11
831.09	4889.94
831.417	4889.04
831.743	4916.83
832.069	4903.95
832.395	4896.5
832.722	4913.44
833.048	4869.6
833.374	4883.84
833.7	4875.48
834.026	4890.62
834.351	4859.66
834.677	4873.67
835.003	4887.91
835.329	4833.9
835.654	4858.98
835.98	4808.36
836.306	4817.85
836.631	4808.14
836.956	4829.38
837.282	4834.12
837.607	4768.14
837.932	4784.86
838.258	4796.39
838.583	4796.16
838.908	4757.74
839.233	4773.33
839.558	4786.22
839.883	4783.96
840.208	4730.4
840.533	4760.68
840.858	4714.58
841.182	4774.01
841.507	4727.46
841.832	4716.84
842.156	4701.02
842.481	4671.64
842.805	4703.96
843.13	4627.8
843.454	4660.57
843.778	4652.89
844.103	4632.55
844.427	4616.95
844.751	4647.01
845.075	4595.49
845.399	4602.27
845.723	4586.67
846.047	4602.49
846.371	4551.87
846.695	4533.79
847.019	4518.43
847.343	4498.09
847.666	4488.82
847.99	4440.91
848.313	4424.64
848.637	4411.54
848.96	4437.98
849.284	4412.89
849.607	4398.88
849.931	4366.34
850.254	4361.14
850.577	4308.94
850.9	4278.43
851.223	4316.62
851.546	4265.55
851.869	4234.14
852.192	4235.5
852.515	4245.21
852.838	4181.49
853.161	4245.21
853.483	4181.94
853.806	4168.61
854.129	4154.59
854.451	4155.95
854.774	4133.13
855.096	4136.74
855.419	4146.68
855.741	4093.58
856.063	4089.29
856.385	4070.08
856.708	4032.11
857.03	4030.08
857.352	4091.09
857.674	4043.86
857.996	4049.51
858.318	3999.34
858.64	3974.71
858.961	4017.65
859.283	3997.99
859.605	3956.18
859.926	3998.89
860.248	3950.98
860.57	3962.51
860.891	3948.72
861.212	3976.75
861.534	3927.03
861.855	3931.1
862.176	3898.1
862.498	3930.65
862.819	3911.66
863.14	3882.51
863.461	3895.84
863.782	3906.01
864.103	3873.47
864.424	3915.73
864.745	3838.22
865.065	3856.75
865.386	3837.31
865.707	3835.51
866.027	3843.42
866.348	3818.78
866.668	3844.55
866.989	3845.68
867.309	3812
867.63	3818.33
867.95	3799.8
868.27	3796.64
868.59	3714.61
868.91	3779.46
869.23	3748.73
869.55	3708.5
869.87	3758.22
870.19	3749.86
870.51	3738.33
870.83	3754.83
871.15	3728.84
871.469	3788.95
871.789	3712.12
872.109	3701.27
872.428	3699.24
872.748	3724.77
873.067	3695.62
873.386	3678.67
873.706	3682.29
874.025	3699.46
874.344	3694.04
874.663	3652.91
874.982	3694.72
875.301	3691.33
875.62	3691.1
875.939	3639.35
876.258	3648.39
876.577	3691.56
876.896	3656.08
877.214	3619.69
877.533	3645.23
877.852	3623.31
878.17	3607.49
878.489	3598.68
878.807	3616.08
879.125	3601.39
879.444	3587.6
879.762	3615.85
880.08	3615.63
880.398	3579.47
880.716	3605.91
881.034	3595.29
881.352	3567.94
881.67	3556.19
881.988	3596.19
882.306	3540.82
882.624	3511.22
882.941	3494.5
883.259	3506.93
883.577	3475.29
883.894	3513.71
884.212	3497.66
884.529	3449.3
884.846	3490.88
885.164	3496.53
885.481	3479.81
885.798	3506.48
886.115	3454.27
886.432	3463.76
886.75	3433.48
887.067	3437.55
887.383	3398.46
887.7	3406.59
888.017	3440.04
888.334	3400.49
888.651	3383.99
888.967	3365.91
889.284	3392.58
889.6	3364.78
889.917	3364.56
890.233	3395.29
890.55	3358.46
890.866	3373.82
891.182	3358.46
891.498	3325.01
891.815	3331.34
892.131	3327.72
892.447	3313.26
892.763	3284.79
893.079	3280.72
893.395	3307.84
893.71	3251.34
894.026	3253.83
894.342	3240.04
894.657	3235.07
894.973	3228.74
895.289	3215.64
895.604	3204.11
895.92	3207.27
896.235	3157.78
896.55	3203.88
896.865	3162.98
897.181	3163.89
897.496	3160.72
897.811	3111.68
898.126	3110.33
898.441	3101.51
898.756	3123.21
899.071	3050.44
899.386	3087.5
899.7	3089.76
900.015	3059.48
900.33	3063.55
900.644	3006.6
900.959	3032.59
901.273	2993.95
901.588	3012.93
901.902	3020.84
902.216	2989.88
902.531	2997.34
902.845	2969.31
903.159	2969.54
903.473	2968.41
903.787	2915.76
904.101	2938.13
904.415	2920.05
904.729	2947.62
905.042	2898.81
905.356	2898.13
905.67	2873.05
905.984	2852.26
906.297	2882.76
906.611	2863.78
906.924	2830.34
907.237	2869.66
907.551	2858.36
907.864	2818.81
908.177	2827.17
908.491	2808.64
908.804	2770.22
909.117	2796.89
909.43	2734.74
909.743	2758.92
910.056	2737.23
910.368	2743.56
910.681	2767.29
910.994	2750.56
911.307	2701.07
911.619	2698.14
911.932	2689.32
912.244	2700.4
912.557	2656.33
912.869	2703.78
913.181	2640.96
913.494	2634.86
913.806	2636.22
914.118	2597.12
914.43	2606.61
914.742	2625.37
915.054	2594.86
915.366	2588.99
915.678	2581.08
915.99	2561.87
916.302	2530
916.613	2536.56
916.925	2536.11
917.236	2512.38
917.548	2537.24
917.859	2514.64
918.171	2492.26
918.482	2483.23
918.794	2468.99
919.105	2480.74
919.416	2425.6
919.727	2448.88
920.038	2443.68
920.349	2391.7
920.66	2421.98
920.971	2434.87
921.282	2422.44
921.593	2381.53
921.903	2406.84
922.214	2382.44
922.525	2396
922.835	2380.63
923.146	2352.83
923.456	2363.23
923.767	2339.05
924.077	2347.18
924.387	2318.48
924.697	2305.83
925.008	2318.48
925.318	2251.59
925.628	2240.97
925.938	2276.45
926.248	2285.94
926.558	2271.03
926.867	2254.08
927.177	2205.27
927.487	2222.22
927.796	2192.84
928.106	2217.47
928.416	2213.18
928.725	2225.61
929.034	2207.75
929.344	2198.49
929.653	2182.67
929.962	2187.41
930.271	2147.19
930.581	2144.25
930.89	2142.67
931.199	2123.46
931.508	2132.73
931.817	2150.35
932.125	2160.52
932.434	2132.73
932.743	2093.63
933.051	2098.15
933.36	2063.12
933.669	2094.76
933.977	2050.92
934.286	2040.3
934.594	2046.4
934.902	2039.85
935.21	2036.23
935.519	2021.09
935.827	2003.01
936.135	2010.24
936.443	2011.37
936.751	2014.09
937.059	2011.15
937.367	1976.57
937.674	1996.01
937.982	1972.28
938.29	1957.36
938.597	1961.21
938.905	1958.95
939.213	1942.22
939.52	1926.63
939.827	1952.62
940.135	1919.17
940.442	1900.87
940.749	1890.02
941.056	1922.11
941.363	1859.06
941.67	1856.12
941.977	1878.5
942.284	1862.23
942.591	1853.41
942.898	1844.37
943.205	1838.04
943.511	1857.93
943.818	1856.8
944.125	1819.74
944.431	1816.58
944.738	1804.37
945.044	1799.63
945.35	1806.18
945.657	1784.71
945.963	1786.97
946.269	1792.85
946.575	1770.02
946.881	1752.4
947.187	1774.54
947.493	1736.8
947.799	1759.85
948.105	1718.27
948.41	1724.83
948.716	1746.3
949.022	1740.19
949.327	1706.3
949.633	1706.97
949.938	1691.61
950.244	1679.63
950.549	1677.6
950.854	1659.97
951.16	1657.26
951.465	1649.35
951.77	1653.64
952.075	1677.82
952.38	1647.32
952.685	1624.49
952.99	1626.53
953.294	1643.25
953.599	1605.28
953.904	1600.76
954.209	1607.54
954.513	1639.18
954.818	1577.26
955.122	1574.55
955.426	1596.92
955.731	1558.28
956.035	1571.16
956.339	1554.89
956.643	1576.81
956.948	1578.39
957.252	1578.84
957.556	1563.02
957.86	1564.15
958.163	1569.13
958.467	1550.37
958.771	1521.22
959.075	1518.51
959.378	1505.85
959.682	1515.34
959.985	1506.98
960.289	1495.91
960.592	1507.88
960.896	1476.25
961.199	1506.08
961.502	1477.15
961.805	1473.53
962.108	1466.53
962.411	1442.35
962.714	1426.3
963.017	1425.17
963.32	1445.06
963.623	1475.79
963.926	1470.82
964.228	1432.63
964.531	1424.95
964.833	1459.75
965.136	1414.78
965.438	1392.63
965.741	1398.06
966.043	1394.21
966.345	1383.14
966.648	1407.32
966.95	1382.69
967.252	1349.47
967.554	1365.06
967.856	1372.97
968.158	1371.39
968.46	1336.59
968.761	1365.29
969.063	1353.31
969.365	1363.03
969.666	1344.5
969.968	1361
970.269	1309.25
970.571	1328
970.872	1349.02
971.174	1339.53
971.475	1317.83
971.776	1289.36
972.077	1330.49
972.378	1297.95
972.679	1302.47
972.98	1299.98
973.281	1295.23
973.582	1273.54
973.883	1257.72
974.183	1241.9
974.484	1265.4
974.785	1290.71
975.085	1271.05
975.386	1246.2
975.686	1258.85
975.986	1248.23
976.287	1248
976.587	1219.98
976.887	1249.81
977.187	1222.02
977.487	1219.76
977.787	1190.15
978.087	1220.21
978.387	1226.31
978.687	1191.96
978.987	1205.07
979.286	1203.71
979.586	1200.77
979.885	1183.37
980.185	1160.77
980.484	1173.2
980.784	1177.05
981.083	1196.93
981.382	1156.25
981.682	1168.68
981.981	1153.77
982.28	1168.23
982.579	1137.05
982.878	1177.5
983.177	1152.19
983.475	1143.37
983.774	1121.68
984.073	1118.06
984.372	1112.41
984.67	1138.18
984.969	1135.24
985.267	1128.23
985.566	1100.89
985.864	1084.84
986.162	1096.37
986.461	1102.92
986.759	1113.77
987.057	1088.01
987.355	1085.3
987.653	1097.95
987.951	1086.88
988.249	1080.1
988.547	1059.31
988.844	1095.47
989.142	1069.93
989.44	1056.6
989.737	1049.82
990.035	1038.29
990.332	1024.51
990.63	1029.48
990.927	1030.83
991.224	1026.77
991.521	1054.56
991.819	1026.09
992.116	1027.67
992.413	1029.03
992.71	1005.52
993.006	1009.59
993.303	994
993.6	1002.36
993.897	998.07
994.193	983.15
994.49	977.5
994.787	986.54
995.083	978.41
995.379	978.18
995.676	980.21
995.972	975.47
996.268	977.73
996.565	952.87
996.861	957.39
997.157	964.62
997.453	968.92
997.749	990.38
998.044	961.68
998.34	959.88
998.636	942.02
998.932	966.2
999.227	935.47
999.523	932.53
999.818	958.52
1000.114	944.28
1000.409	909.26
1000.704	921.23
1001	904.51
1001.295	930.95
1001.59	910.61
1001.885	936.37
1002.18	904.51
1002.475	897.5
1002.77	909.48
1003.065	905.64
1003.359	893.21
1003.654	892.76
1003.949	882.59
1004.243	892.76
1004.538	881.69
1004.832	870.61
1005.127	873.78
1005.421	859.31
1005.715	848.92
1006.009	866.09
1006.304	837.17
1006.598	832.87
1006.892	857.28
1007.186	828.81
1007.48	833.55
1007.773	827.22
1008.067	822.03
1008.361	827
1008.655	825.64
1008.948	796.04
1009.242	825.64
1009.535	804.4
1009.829	804.85
1010.122	797.39
1010.415	813.67
1010.708	792.42
1011.001	787.23
1011.295	811.18
1011.588	782.03
1011.881	791.29
1012.173	776.6
1012.466	773.44
1012.759	761.69
1013.052	773.67
1013.344	766.43
1013.637	778.64
1013.93	769.6
1014.222	781.8
1014.514	752.2
1014.807	764.63
1015.099	742.48
1015.391	751.07
1015.683	703.39
1015.976	759.43
1016.268	739.32
1016.56	760.11
1016.851	724.85
1017.143	749.71
1017.435	731.18
1017.727	728.92
1018.018	729.15
1018.31	725.98
1018.602	727.11
1018.893	713.33
1019.185	701.8
1019.476	721.69
1019.767	686.44
1020.058	679.21
1020.35	694.35
1020.641	663.16
1020.932	698.64
1021.223	687.57
1021.514	677.17
1021.804	693.22
1022.095	670.17
1022.386	681.47
1022.677	699.32
1022.967	673.78
1023.258	644.86
1023.548	649.6
1023.839	677.62
1024.129	636.04
1024.419	657.06
1024.709	626.33
1025	645.99
1025.29	640.56
1025.58	637.17
1025.87	622.48
1026.16	648.47
1026.449	612.09
1026.739	622.71
1027.029	634.01
1027.319	598.98
1027.608	634.69
1027.898	598.08
1028.187	615.7
1028.477	615.93
1028.766	586.55
1029.055	616.38
1029.344	617.96
1029.634	592.2
1029.923	608.02
1030.212	601.47
1030.501	619.09
1030.79	612.77
1031.078	605.53
1031.367	590.39
1031.656	590.17
1031.945	585.87
1032.233	591.3
1032.522	589.26
1032.81	600.11
1033.099	581.13
1033.387	584.97
1033.675	569.6
1033.963	573.45
1034.251	574.35
1034.54	567.8
1034.828	575.25
1035.116	544.07
1035.403	554.46
1035.691	549.94
1035.979	557.17
1036.267	546.33
1036.554	554.01
1036.842	567.12
1037.129	551.75
1037.417	561.47
1037.704	547.23
1037.992	539.77
1038.279	545.42
1038.566	553.78
1038.853	553.78
1039.14	553.78
