Data from black_plastic_tray_FLMS001491_098.txt Node
Date: Tue Feb 07 10:41:03 GMT 2017
User: dcchb
Spectrometer: FLMS00149
Trigger mode: 0
Integration Time (sec): 2.000000E-2
Scans to average: 10
Electric dark correction enabled: true
Nonlinearity correction enabled: false
Boxcar width: 0
XAxis mode: Wavelengths
Number of Pixels in Spectrum: 2048
>>>>>Begin Spectral Data<<<<<
341.393	-16.72
341.776	-16.72
342.16	-16.72
342.543	-57.17
342.927	-74.35
343.31	-68.47
343.693	-76.61
344.077	-71.64
344.46	-75.25
344.843	-56.5
345.226	-47.23
345.61	-20.56
345.993	-8.59
346.376	6.55
346.759	6.55
347.142	34.8
347.525	41.58
347.908	59.89
348.291	73.22
348.674	94.69
349.057	107.57
349.44	131.3
349.823	144.85
350.206	163.39
350.588	183.72
350.971	187.79
351.354	209.26
351.737	226.66
352.119	239.09
352.502	254
352.884	252.65
353.267	285.42
353.65	269.82
354.032	288.81
354.414	289.71
354.797	309.6
355.179	305.98
355.562	294.23
355.944	294.46
356.326	311.4
356.709	302.36
357.091	324.74
357.473	318.86
357.855	313.44
358.238	318.64
358.62	302.14
359.002	337.17
359.384	319.09
359.766	308.47
360.148	313.21
360.53	314.79
360.912	303.27
361.294	292.65
361.676	316.15
362.057	319.54
362.439	298.75
362.821	293.1
363.203	315.47
363.584	318.18
363.966	306.43
364.348	298.98
364.729	305.53
365.111	289.71
365.493	301.46
365.874	288.58
366.256	284.51
366.637	308.47
367.019	309.14
367.4	300.78
367.781	304.17
368.163	290.61
368.544	283.38
368.925	304.4
369.306	305.75
369.688	286.77
370.069	270.28
370.45	305.53
370.831	278.18
371.212	290.61
371.593	284.29
371.974	286.55
372.355	304.4
372.736	300.33
373.117	283.38
373.498	294.68
373.879	282.25
374.26	303.49
374.641	282.25
375.021	299.43
375.402	316.15
375.783	309.6
376.163	308.47
376.544	298.3
376.925	298.07
377.305	289.94
377.686	291.29
378.066	303.49
378.447	295.36
378.827	305.75
379.208	317.73
379.588	345.3
379.968	308.24
380.349	316.6
380.729	314.79
381.109	300.78
381.489	306.88
381.87	306.66
382.25	316.38
382.63	328.8
383.01	310.73
383.39	330.84
383.77	338.52
384.15	325.64
384.53	340.33
384.91	328.35
385.29	327
385.67	320.9
386.049	364.96
386.429	335.81
386.809	343.49
387.189	334.91
387.568	317.51
387.948	318.41
388.328	315.7
388.707	323.38
389.087	353.66
389.466	354.11
389.846	342.36
390.225	329.03
390.605	344.62
390.984	349.14
391.363	331.29
391.743	338.97
392.122	351.86
392.501	361.57
392.881	358.86
393.26	342.36
393.639	363.83
394.018	349.82
394.397	361.57
394.776	365.87
395.155	368.8
395.534	359.99
395.913	374.45
396.292	376.71
396.671	381.68
397.05	366.54
397.429	377.84
397.808	375.13
398.186	370.16
398.565	378.52
398.944	391.4
399.323	391.4
399.701	389.59
400.08	373.1
400.458	380.1
400.837	384.62
401.215	396.37
401.594	390.05
401.972	393.66
402.351	387.33
402.729	368.58
403.107	408.35
403.486	397.73
403.864	389.82
404.242	386.43
404.62	421.01
404.999	417.16
405.377	427.79
405.755	408.35
406.133	391.63
406.511	412.19
406.889	402.93
407.267	399.54
407.645	412.64
408.023	427.79
408.401	412.42
408.779	407.67
409.156	429.37
409.534	433.21
409.912	457.84
410.29	430.27
410.667	432.53
411.045	426.88
411.422	432.31
411.8	443.38
412.178	450.16
412.555	447.22
412.933	463.04
413.31	446.32
413.687	458.97
414.065	460.1
414.442	462.59
414.819	478.41
415.197	469.59
415.574	472.98
415.951	483.15
416.328	481.34
416.705	457.62
417.082	503.94
417.46	486.09
417.837	503.04
418.214	482.25
418.591	507.56
418.967	494.68
419.344	492.87
419.721	526.77
420.098	507.56
420.475	487.44
420.852	520.66
421.228	533.09
421.605	518.63
421.982	541
422.358	545.3
422.735	542.36
423.111	539.65
423.488	526.99
423.864	527.9
424.241	542.58
424.617	534.68
424.994	550.95
425.37	546.88
425.746	572.41
426.123	554.79
426.499	535.13
426.875	559.76
427.251	565.18
427.627	571.96
428.003	587.33
428.379	594.56
428.756	590.27
429.132	601.79
429.507	608.57
429.883	595.69
430.259	607.44
430.635	610.61
431.011	617.61
431.387	638.18
431.763	623.03
432.138	654.9
432.514	632.07
432.89	647.67
433.265	650.38
433.641	651.51
434.016	660.1
434.392	693.09
434.767	686.08
435.143	694.22
435.518	666.2
435.894	696.25
436.269	678.4
436.644	699.64
437.02	718.85
437.395	748.45
437.77	719.98
438.145	722.24
438.52	733.77
438.895	724.27
439.271	716.14
439.646	734.44
440.021	754.1
440.395	739.64
440.77	751.84
441.145	732.86
441.52	746.65
441.895	771.05
442.27	757.27
442.645	787.1
443.019	776.7
443.394	778.06
443.769	759.53
444.143	779.41
444.518	789.13
444.892	784.16
445.267	794.56
445.641	777.38
446.016	795.01
446.39	807.89
446.764	812.86
447.139	805.63
447.513	821
447.887	814.67
448.262	839.3
448.636	837.94
449.01	842.69
449.384	843.37
449.758	845.4
450.132	864.84
450.506	876.81
450.88	864.84
451.254	867.55
451.628	851.96
452.002	891.28
452.376	919.3
452.75	885.63
453.123	905.51
453.497	908.68
453.871	912.07
454.244	941.44
454.618	933.53
454.992	914.1
455.365	921.78
455.739	950.48
456.112	971.73
456.486	994.55
456.859	994.55
457.232	971.73
457.606	1007.43
457.979	1012.63
458.352	1043.14
458.725	1014.66
459.099	1020.54
459.472	1035.45
459.845	1074.77
460.218	1072.74
460.591	1058.28
460.964	1083.59
461.337	1111.16
461.71	1091.27
462.083	1161.33
462.456	1136.47
462.829	1128.56
463.201	1139.18
463.574	1142.79
463.947	1172.17
464.32	1207.43
464.692	1195.9
465.065	1183.02
465.438	1202.68
465.81	1229.57
466.183	1243.36
466.555	1243.36
466.928	1277.25
467.3	1276.58
467.672	1281.77
468.045	1336.01
468.417	1313.19
468.789	1347.08
469.161	1345.73
469.534	1361.77
469.906	1378.95
470.278	1388.44
470.65	1407.87
471.022	1397.7
471.394	1456.23
471.766	1481.09
472.138	1478.61
472.51	1472.96
472.882	1498.04
473.253	1526.29
473.625	1540.07
473.997	1537.36
474.369	1591.6
474.74	1593.18
475.112	1622.33
475.484	1686.51
475.855	1661.88
476.227	1681.31
476.598	1727.86
476.97	1754.3
477.341	1744.36
477.713	1777.35
478.084	1766.06
478.455	1832.49
478.827	1860.74
479.198	1888.54
479.569	1930.8
479.94	1933.51
480.311	1966.05
480.682	2010.79
481.053	2051.7
481.424	2049.44
481.795	2114.52
482.166	2122.88
482.537	2136.22
482.908	2175.08
483.279	2202.43
483.65	2213.73
484.021	2265.7
484.391	2298.02
484.762	2300.28
485.133	2349.99
485.503	2362.2
485.874	2399.71
486.244	2400.84
486.615	2488.97
486.985	2483.32
487.356	2507.96
487.726	2535.3
488.097	2553.61
488.467	2608.07
488.837	2654.85
489.207	2682.19
489.578	2715.63
489.948	2706.14
490.318	2776.2
490.688	2786.37
491.058	2805.35
491.428	2872.24
491.798	2881.05
492.168	2918.12
492.538	2930.77
492.908	2944.33
493.278	3023.42
493.648	3015.97
494.017	3057.09
494.387	3053.71
494.757	3098.45
495.126	3153.36
495.496	3161.05
495.866	3138.67
496.235	3180.71
496.605	3244.89
496.974	3235.4
497.344	3246.69
497.713	3274.94
498.082	3310.87
498.452	3340.03
498.821	3373.24
499.19	3370.08
499.559	3420.25
499.928	3417.09
500.298	3439.68
500.667	3485.78
501.036	3472.45
501.405	3546.12
501.774	3484.88
502.143	3589.28
502.512	3551.09
502.88	3596.97
503.249	3599.45
503.618	3642.16
503.987	3679.45
504.356	3685.1
504.724	3681.49
505.093	3676.29
505.462	3725.55
505.83	3766
506.199	3804.65
506.567	3835.61
506.936	3834.7
507.304	3877.86
507.672	3875.83
508.041	3917.64
508.409	3974.58
508.777	3968.26
509.145	4002.38
509.514	4005.09
509.882	4074.02
510.25	4054.36
510.618	4078.08
510.986	4081.7
511.354	4117.63
511.722	4166.9
512.09	4196.27
512.458	4201.25
512.826	4251.64
513.193	4265.2
513.561	4279.89
513.929	4321.24
514.297	4354.69
514.664	4324.18
515.032	4446.89
515.4	4429.26
515.767	4515.59
516.135	4489.15
516.502	4468.58
516.869	4573.67
517.237	4566.43
517.604	4600.33
517.972	4598.75
518.339	4699.99
518.706	4641.91
519.073	4693.66
519.44	4689.59
519.808	4765.3
520.175	4769.37
520.542	4890.27
520.909	4899.53
521.276	4912.64
521.643	4967.1
522.009	5004.16
522.376	4967.55
522.743	5031.28
523.11	5102.69
523.477	5113.99
523.843	5121.9
524.21	5230.82
524.577	5215.68
524.943	5284.61
525.31	5298.39
525.676	5386.75
526.043	5361.89
526.409	5398.95
526.776	5463.81
527.142	5493.64
527.508	5509.01
527.874	5561.44
528.241	5560.31
528.607	5644.6
528.973	5663.13
529.339	5640.08
529.705	5705.16
530.071	5765.95
530.437	5744.26
530.803	5815.44
531.169	5844.37
531.535	5852.5
531.901	5856.34
532.267	5894.31
532.632	5983.57
532.998	6036
533.364	6023.12
533.73	6036.68
534.095	6060.86
534.461	6118.48
534.826	6125.71
535.192	6175.43
535.557	6126.62
535.923	6218.59
536.288	6247.75
536.653	6247.52
537.019	6227.18
537.384	6294.3
537.749	6372.26
538.114	6326.39
538.479	6327.29
538.845	6366.84
539.21	6366.61
539.575	6442.54
539.94	6426.27
540.305	6458.36
540.67	6461.75
541.034	6485.48
541.399	6531.35
541.764	6546.49
542.129	6569.32
542.494	6605.02
542.858	6635.31
543.223	6671.69
543.587	6655.64
543.952	6684.8
544.316	6738.35
544.681	6700.61
545.045	6801.18
545.41	6755.08
545.774	6778.58
546.138	6793.72
546.503	6840.5
546.867	6810.67
547.231	6925.02
547.595	6890.21
547.959	6935.64
548.324	6897.9
548.688	7004.34
549.052	6967.95
549.416	7003.43
549.779	7008.86
550.143	7043.66
550.507	7107.16
550.871	7102.41
551.235	7119.13
551.599	7184.44
551.962	7216.76
552.326	7161.62
552.689	7254.27
553.053	7256.98
553.417	7276.64
553.78	7314.84
554.143	7339.24
554.507	7332.69
554.87	7461.5
555.234	7486.58
555.597	7423.99
555.96	7462.63
556.323	7543.76
556.686	7507.37
557.05	7610.87
557.413	7580.59
557.776	7625.11
558.139	7713.47
558.502	7671.89
558.865	7730.87
559.228	7746.69
559.59	7786.01
559.953	7864.65
560.316	7881.83
560.679	7920.92
561.041	7955.5
561.404	7927.25
561.767	8044.99
562.129	8064.42
562.492	8078.88
562.854	8089.96
563.217	8106.91
563.579	8137.19
563.941	8206.56
564.304	8210.63
564.666	8295.15
565.028	8286.79
565.39	8404.52
565.753	8406.33
566.115	8385.77
566.477	8443.62
566.839	8426.9
567.201	8513
567.563	8523.84
567.925	8564.75
568.287	8556.61
568.648	8565.42
569.01	8595.03
569.372	8652.2
569.734	8694.69
570.095	8791.63
570.457	8799.99
570.819	8754.35
571.18	8812.42
571.542	8886.55
571.903	8849.48
572.265	8922.48
572.626	8909.82
572.987	8915.25
573.349	9024.85
573.71	8979.65
574.071	9079.99
574.432	9060.78
574.794	9052.19
575.155	9115.47
575.516	9087.9
575.877	9099.87
576.238	9142.13
576.599	9171.28
576.96	9184.84
577.32	9199.08
577.681	9243.15
578.042	9225.97
578.403	9258.06
578.763	9221.45
579.124	9297.38
579.485	9380.32
579.845	9293.99
580.206	9312.07
580.566	9326.53
580.927	9326.53
581.287	9378.51
581.648	9284.95
582.008	9377.15
582.368	9415.12
582.728	9378.06
583.089	9369.02
583.449	9373.76
583.809	9394.33
584.169	9411.73
584.529	9379.87
584.889	9531.05
585.249	9375.12
585.609	9376.02
585.969	9437.94
586.329	9380.77
586.688	9442.92
587.048	9434.78
587.408	9392.07
587.768	9449.02
588.127	9473.88
588.487	9465.51
588.846	9492.18
589.206	9336.25
589.565	9385.52
589.925	9460.54
590.284	9418.51
590.643	9480.88
591.003	9523.37
591.362	9508.22
591.721	9485.4
592.08	9442.69
592.44	9490.6
592.799	9477.49
593.158	9470.94
593.517	9454.89
593.876	9535.12
594.235	9455.8
594.593	9513.87
594.952	9558.17
595.311	9559.52
595.67	9547.55
596.029	9498.73
596.387	9528.11
596.746	9519.07
597.104	9554.78
597.463	9542.35
597.822	9539.18
598.18	9552.74
598.538	9477.26
598.897	9628.22
599.255	9486.98
599.613	9664.83
599.972	9578.73
600.33	9625.51
600.688	9599.52
601.046	9646.07
601.404	9626.87
601.762	9672.29
602.12	9679.97
602.478	9664.15
602.836	9725.39
603.194	9628.45
603.552	9667.32
603.91	9711.61
604.268	9745.51
604.625	9664.83
604.983	9704.6
605.341	9613.98
605.698	9703.02
606.056	9740.99
606.413	9727.65
606.771	9751.61
607.128	9775.79
607.485	9771.95
607.843	9721.1
608.2	9825.05
608.557	9830.02
608.914	9790.93
609.272	9876.35
609.629	9847.88
609.986	9921.1
610.343	9766.75
610.7	9901.43
611.057	9970.36
611.414	9878.16
611.771	9914.99
612.127	9986.63
612.484	9981.43
612.841	9991.38
613.198	9982.56
613.554	9971.04
613.911	9934.43
614.267	10071.83
614.624	9999.06
614.98	9987.08
615.337	10040.41
615.693	10006.29
616.05	10063.01
616.406	10058.72
616.762	10058.27
617.118	10045.16
617.475	10100.75
617.831	10008.32
618.187	10070.92
618.543	10056.01
618.899	10133.52
619.255	10073.18
619.611	10154.76
619.967	10188.66
620.323	10144.59
620.678	10105.05
621.034	10013.3
621.39	10137.13
621.746	10067.98
622.101	10173.07
622.457	10136.23
622.812	10108.43
623.168	10079.51
623.523	10173.29
623.879	10119.51
624.234	10090.81
624.589	10117.25
624.945	10159.51
625.3	10143.46
625.655	10172.16
626.01	10204.48
626.365	10183.24
626.72	10160.64
627.075	10198.6
627.43	10201.54
627.785	10125.38
628.14	10152.05
628.495	10173.74
628.85	10134.87
629.205	10183.91
629.559	10180.07
629.914	10077.25
630.269	10105.5
630.623	10107.98
630.978	10100.07
631.332	10152.95
631.687	10158.15
632.041	10154.31
632.396	10132.16
632.75	10083.58
633.104	10067.76
633.459	9985.05
633.813	10028.89
634.167	10031.37
634.521	10017.59
634.875	9999.74
635.229	9969.23
635.583	9929.23
635.937	9932.39
636.291	9931.26
636.645	9917.48
636.999	9822.79
637.352	9864.6
637.706	9842.23
638.06	9875.22
638.413	9808.33
638.767	9863.47
639.121	9848.33
639.474	9803.58
639.828	9838.84
640.181	9719.52
640.534	9776.01
640.888	9770.36
641.241	9690.37
641.594	9808.1
641.947	9722.46
642.301	9683.81
642.654	9708.9
643.007	9690.37
643.36	9682.68
643.713	9744.83
644.066	9745.73
644.419	9646.3
644.771	9624.83
645.124	9516.36
645.477	9573.76
645.83	9484.5
646.182	9405.63
646.535	9316.37
646.888	9369.02
647.24	9261.9
647.593	9412.86
647.945	9291.51
648.298	9300.55
648.65	9255.12
649.002	9265.07
649.355	9264.39
649.707	9362.92
650.059	9358.62
650.411	9370.83
650.763	9466.87
651.115	9524.04
651.467	9507.32
651.819	9519.52
652.171	9458.96
652.523	9407.89
652.875	9461.22
653.227	9475.68
653.578	9501.9
653.93	9452.41
654.282	9413.31
654.633	9394.33
654.985	9361.56
655.337	9419.64
655.688	9363.6
656.039	9392.07
656.391	9245.41
656.742	9378.51
657.094	9334.44
657.445	9349.58
657.796	9346.65
658.147	9391.17
658.498	9269.36
658.849	9291.06
659.2	9301
659.551	9279.53
659.902	9330.38
660.253	9306.42
660.604	9289.7
660.955	9295.57
661.306	9309.13
661.656	9259.19
662.007	9265.75
662.358	9251.28
662.708	9254.45
663.059	9252.64
663.409	9205.18
663.76	9261.45
664.11	9248.34
664.461	9318.17
664.811	9341
665.161	9270.49
665.511	9194.11
665.862	9204.96
666.212	9285.86
666.562	9224.62
666.912	9247.44
667.262	9275.91
667.612	9178.52
667.962	9240.44
668.312	9168.35
668.662	9158.18
669.011	9149.14
669.361	9165.63
669.711	9081.8
670.06	9105.75
670.41	9098.74
670.76	9143.71
671.109	9134.68
671.459	9089.7
671.808	9066.65
672.157	9092.64
672.507	9056.03
672.856	9113.88
673.205	9091.51
673.554	9101.68
673.904	9046.54
674.253	9115.01
674.602	9042.93
674.951	8981.46
675.3	8892.87
675.649	9049.03
675.998	8993.66
676.346	9097.16
676.695	9098.97
677.044	8967.45
677.393	9009.03
677.741	8996.83
678.09	9010.84
678.438	8992.31
678.787	8985.07
679.135	9048.8
679.484	8893.1
679.832	8993.21
680.181	8908.47
680.529	8965.87
680.877	8992.53
681.225	8930.84
681.573	8969.71
681.922	8910.05
682.27	8842.25
682.618	8901.46
682.966	8859.65
683.314	8884.51
683.661	8860.33
684.009	8792.54
684.357	8792.31
684.705	8812.42
685.053	8830.05
685.4	8723.39
685.748	8755.48
686.095	8757.28
686.443	8726.55
686.79	8658.3
687.138	8723.61
687.485	8668.7
687.832	8617.85
688.18	8640.22
688.527	8637.29
688.874	8602.03
689.221	8565.42
689.568	8523.39
689.915	8557.97
690.262	8537.63
690.609	8464.18
690.956	8420.34
691.303	8389.38
691.65	8377.86
691.997	8322.94
692.344	8356.84
692.69	8391.64
693.037	8411.76
693.383	8281.36
693.73	8343.74
694.077	8309.84
694.423	8302.61
694.769	8299.22
695.116	8273.68
695.462	8193.46
695.808	8211.54
696.155	8258.09
696.501	8144.42
696.847	8139.22
697.193	8073.46
697.539	8144.64
697.885	8100.8
698.231	8039.56
698.577	8093.57
698.923	8054.48
699.269	7966.8
699.614	7952.56
699.96	7931.54
700.306	7876.18
700.651	7947.14
700.997	7889.96
701.342	7863.75
701.688	7848.61
702.033	7828.04
702.379	7854.93
702.724	7832.11
703.069	7886.12
703.415	7714.6
703.76	7782.17
704.105	7803.41
704.45	7720.02
704.795	7723.41
705.14	7661.95
705.485	7659.91
705.83	7624.21
706.175	7669.85
706.52	7635.73
706.865	7488.62
707.209	7565
707.554	7541.5
707.899	7602.74
708.243	7457.43
708.588	7504.44
708.932	7468.05
709.277	7448.84
709.621	7440.71
709.966	7435.96
710.31	7460.37
710.654	7306.7
710.998	7339.24
711.342	7378.56
711.687	7344.44
712.031	7387.83
712.375	7353.03
712.719	7308.73
713.063	7275.29
713.407	7389.41
713.75	7276.42
714.094	7245.23
714.438	7244.1
714.782	7221.51
715.125	7165.69
715.469	7199.58
715.812	7126.59
716.156	7127.04
716.499	7112.13
716.843	7094.95
717.186	7122.07
717.53	7165.46
717.873	7145.8
718.216	7157.55
718.559	7100.83
718.902	7075.52
719.246	7037.78
719.589	7033.71
719.932	6979.03
720.275	6984.22
720.617	6987.84
720.96	6989.42
721.303	7001.62
721.646	6939.7
721.989	6938.35
722.331	6938.8
722.674	6901.51
723.016	6904.9
723.359	6878.46
723.701	6957.78
724.044	6853.38
724.386	6842.31
724.729	6878.01
725.071	6845.47
725.413	6830.33
725.755	6808.63
726.097	6792.14
726.439	6763.89
726.782	6744.68
727.124	6752.14
727.465	6769.77
727.807	6743.1
728.149	6766.15
728.491	6718.92
728.833	6742.65
729.175	6729.54
729.516	6670.56
729.858	6657.45
730.199	6712.37
730.541	6737.45
730.882	6642.76
731.224	6641.86
731.565	6670.56
731.906	6649.32
732.248	6573.16
732.589	6624.23
732.93	6572.71
733.271	6607.06
733.612	6578.81
733.953	6625.36
734.294	6578.13
734.635	6565.03
734.976	6580.17
735.317	6534.74
735.658	6489.77
735.999	6476.89
736.339	6485.25
736.68	6481.19
737.021	6488.42
737.361	6481.86
737.702	6497.91
738.042	6489.32
738.383	6514.4
738.723	6490.68
739.063	6419.72
739.404	6396.44
739.744	6437.34
740.084	6371.13
740.424	6386.5
740.764	6426.5
741.104	6483.22
741.444	6363.9
741.784	6383.56
742.124	6383.79
742.464	6349.66
742.804	6279.61
743.143	6341.3
743.483	6324.13
743.823	6275.32
744.162	6327.07
744.502	6307.4
744.841	6221.98
745.181	6267.41
745.52	6299.5
745.86	6290
746.199	6243.45
746.538	6240.29
746.877	6214.98
747.216	6207.75
747.556	6184.92
747.895	6190.12
748.234	6163.45
748.573	6206.84
748.911	6132.27
749.25	6137.69
749.589	6143.12
749.928	6090.01
750.267	6176.56
750.605	6195.54
750.944	6094.53
751.283	6123.91
751.621	6166.84
751.96	6058.15
752.298	6053.63
752.636	6051.37
752.975	6003.68
753.313	6014.08
753.651	6017.92
753.989	5981.31
754.327	5937.92
754.666	5966.85
755.004	5957.13
755.342	5947.41
755.679	5903.12
756.017	5905.16
756.355	5871.03
756.693	5835.33
757.031	5912.61
757.368	5840.98
757.706	5855.67
758.044	5835.33
758.381	5843.46
758.719	5817.02
759.056	5790.81
759.394	5804.37
759.731	5730.24
760.068	5718.04
760.405	5695.9
760.743	5627.2
761.08	5713.3
761.417	5698.61
761.754	5609.12
762.091	5624.71
762.428	5617.71
762.765	5599.4
763.102	5627.87
763.438	5538.39
763.775	5573.64
764.112	5588.1
764.449	5558.5
764.785	5552.62
765.122	5499.52
765.458	5525.28
765.795	5482.12
766.131	5436.47
766.467	5447.31
766.804	5422.46
767.14	5383.81
767.476	5400.08
767.812	5382.91
768.148	5376.58
768.485	5334.77
768.821	5355.79
769.157	5329.58
769.492	5314.66
769.828	5254.1
770.164	5280.54
770.5	5318.28
770.836	5262.91
771.171	5237.83
771.507	5226.53
771.842	5152.18
772.178	5194.67
772.513	5150.6
772.849	5118.28
773.184	5126.64
773.519	5118.74
773.855	5099.75
774.19	5044.39
774.525	5059.08
774.86	5026.08
775.195	5023.37
775.53	5021.34
775.865	4959.19
776.2	4916.03
776.535	4916.93
776.87	4937.05
777.205	4908.35
777.539	4912.64
777.874	4865.41
778.209	4868.35
778.543	4845.75
778.878	4815.24
779.212	4822.02
779.547	4728.24
779.881	4814.34
780.215	4784.05
780.55	4738.63
780.884	4718.29
781.218	4664.28
781.552	4706.77
781.886	4746.54
782.22	4631.74
782.554	4636.04
782.888	4593.1
783.222	4576.15
783.556	4574.57
783.889	4554.91
784.223	4516.94
784.557	4505.64
784.89	4516.27
785.224	4512.2
785.557	4497.28
785.891	4498.41
786.224	4508.36
786.558	4507.23
786.891	4436.49
787.224	4447.34
787.557	4416.16
787.891	4432.88
788.224	4388.36
788.557	4416.61
788.89	4403.27
789.223	4345.42
789.556	4357.4
789.888	4325.08
790.221	4320.11
790.554	4272.88
790.887	4295.03
791.219	4276.27
791.552	4283.28
791.884	4232.43
792.217	4224.75
792.549	4231.08
792.882	4198.08
793.214	4193.56
793.546	4164.64
793.879	4168.48
794.211	4118.31
794.543	4182.49
794.875	4128.48
795.207	4177.52
795.539	4121.25
795.871	4075.83
796.203	4109.04
796.535	4024.75
796.867	4060.91
797.198	4064.07
797.53	4047.8
797.862	4010.74
798.193	4009.16
798.525	3989.95
798.856	3973.68
799.188	3958.09
799.519	3947.47
799.85	3954.47
800.182	3914.93
800.513	3940.24
800.844	3916.73
801.175	3897.98
801.506	3918.32
801.837	3885.32
802.168	3826.57
802.499	3836.28
802.83	3848.71
803.161	3808.04
803.491	3869.5
803.822	3872.67
804.153	3854.81
804.483	3780.47
804.814	3764.42
805.145	3764.87
805.475	3765.55
805.805	3761.26
806.136	3749.96
806.466	3769.39
806.796	3754.48
807.126	3726.23
807.457	3731.65
807.787	3738.21
808.117	3728.49
808.447	3695.5
808.777	3708.15
809.107	3663.86
809.436	3627.93
809.766	3660.69
810.096	3617.98
810.426	3616.63
810.755	3611.43
811.085	3600.81
811.414	3616.4
811.744	3585.89
812.073	3616.85
812.403	3561.94
812.732	3575.95
813.061	3554.26
813.39	3562.39
813.719	3523.75
814.049	3549.29
814.378	3534.6
814.707	3501.6
815.036	3548.83
815.365	3531.66
815.693	3534.82
816.022	3452.34
816.351	3492.34
816.68	3460.02
817.008	3488.27
817.337	3432
817.665	3451.21
817.994	3436.29
818.322	3467.48
818.651	3430.19
818.979	3389.06
819.307	3419.35
819.636	3405.79
819.964	3380.25
820.292	3400.81
820.62	3373.02
820.948	3361.49
821.276	3401.49
821.604	3417.54
821.932	3423.64
822.259	3362.62
822.587	3416.63
822.915	3391.32
823.243	3405.79
823.57	3374.37
823.898	3402.62
824.225	3362.85
824.553	3387.26
824.88	3389.06
825.207	3370.31
825.535	3370.98
825.862	3392.68
826.189	3400.36
826.516	3345.67
826.843	3426.35
827.17	3412.11
827.497	3381.61
827.824	3363.75
828.151	3391.32
828.478	3393.13
828.805	3403.07
829.131	3398.55
829.458	3367.6
829.785	3341.83
830.111	3335.73
830.438	3414.37
830.764	3380.48
831.09	3393.36
831.417	3327.37
831.743	3383.64
832.069	3330.53
832.395	3340.7
832.722	3345
833.048	3341.83
833.374	3342.96
833.7	3334.15
834.026	3347.93
834.351	3345
834.677	3333.47
835.003	3372.34
835.329	3340.93
835.654	3332.12
835.98	3351.32
836.306	3366.69
836.631	3327.6
836.956	3326.69
837.282	3316.52
837.607	3306.81
837.932	3297.77
838.258	3316.3
838.583	3347.48
838.908	3264.09
839.233	3291.66
839.558	3252.12
839.883	3248.95
840.208	3256.86
840.533	3332.34
840.858	3255.06
841.182	3277.88
841.507	3268.84
841.832	3220.93
842.156	3190.88
842.481	3195.4
842.805	3221.16
843.13	3190.65
843.454	3254.15
843.778	3161.5
844.103	3177.54
844.427	3191.33
844.751	3176.41
845.075	3160.14
845.399	3183.87
845.723	3142.97
846.047	3137.77
846.371	3112.01
846.695	3141.16
847.019	3101.16
847.343	3117.66
847.666	3108.39
847.99	3118.34
848.313	3074.95
848.637	3059.58
848.96	3059.13
849.284	3046.93
849.607	2975.97
849.931	3048.73
850.254	2995.85
850.577	3013.71
850.9	2918.34
851.223	2962.63
851.546	2953.14
851.869	2916.08
852.192	2971.45
852.515	2964.22
852.838	2880.38
853.161	2914.05
853.483	2918.34
853.806	2882.18
854.129	2907.04
854.451	2876.99
854.774	2831.79
855.096	2838.8
855.419	2837.21
855.741	2868.63
856.063	2795.41
856.385	2799.02
856.708	2791.34
857.03	2773.26
857.352	2783.66
857.674	2792.02
857.996	2785.24
858.318	2777.55
858.64	2755.63
858.961	2798.12
859.283	2800.6
859.605	2754.5
859.926	2751.11
860.248	2755.18
860.57	2699.82
860.891	2735.75
861.212	2709.76
861.534	2720.15
861.855	2687.61
862.176	2731.68
862.498	2745.69
862.819	2688.97
863.14	2699.59
863.461	2695.3
863.782	2669.76
864.103	2687.84
864.424	2653.94
864.745	2683.09
865.065	2679.03
865.386	2676.31
865.707	2639.25
866.027	2669.08
866.348	2651.68
866.668	2640.61
866.989	2630.89
867.309	2606.71
867.63	2642.19
867.95	2637.22
868.27	2603.1
868.59	2641.29
868.91	2610.33
869.23	2674.96
869.55	2608.97
869.87	2657.11
870.19	2602.42
870.51	2612.59
870.83	2590.44
871.15	2609.2
871.469	2580.95
871.789	2576.88
872.109	2575.07
872.428	2579.14
872.748	2578.92
873.067	2599.25
873.386	2569.2
873.706	2573.94
874.025	2562.87
874.344	2559.71
874.663	2580.95
874.982	2548.18
875.301	2549.54
875.62	2555.87
875.939	2562.87
876.258	2531.46
876.577	2512.25
876.896	2529.88
877.214	2508.18
877.533	2516.09
877.852	2527.17
878.17	2551.35
878.489	2525.58
878.807	2567.62
879.125	2474.74
879.444	2493.95
879.762	2488.3
880.08	2503.21
880.398	2494.85
880.716	2527.84
881.034	2486.94
881.352	2486.71
881.67	2462.53
881.988	2453.04
882.306	2425.02
882.624	2465.25
882.941	2426.83
883.259	2433.83
883.577	2454.85
883.894	2415.3
884.212	2447.17
884.529	2429.99
884.846	2436.09
885.164	2407.39
885.481	2412.59
885.798	2416.43
886.115	2402.87
886.432	2409.43
886.75	2421.86
887.067	2399.94
887.383	2399.94
887.7	2390.67
888.017	2373.27
888.334	2383.21
888.651	2401.97
888.967	2347.96
889.284	2357.68
889.6	2363.78
889.917	2311.8
890.233	2340.96
890.55	2331.69
890.866	2312.93
891.182	2348.19
891.498	2277
891.815	2326.72
892.131	2320.39
892.447	2317.91
892.763	2341.41
893.079	2310.9
893.395	2322.65
893.71	2276.55
894.026	2264.12
894.342	2262.09
894.657	2264.8
894.973	2233.61
895.289	2258.47
895.604	2249.88
895.92	2216.44
896.235	2221.18
896.55	2223.44
896.865	2219.6
897.181	2240.39
897.496	2225.48
897.811	2194.52
898.126	2166.72
898.441	2169.89
898.756	2168.76
899.071	2148.87
899.386	2203.56
899.7	2160.17
900.015	2174.41
900.33	2148.87
900.644	2136.22
900.959	2120.85
901.273	2106.16
901.588	2123.33
901.902	2098.25
902.216	2104.8
902.531	2104.8
902.845	2121.53
903.159	2063.45
903.473	2080.62
903.787	2073.17
904.101	2045.82
904.415	2047.63
904.729	2037.23
905.042	2033.39
905.356	2059.61
905.67	2029.33
905.984	2039.95
906.297	2011.47
906.611	2027.52
906.924	2022.77
907.237	2003.11
907.551	1997.24
907.864	1996.11
908.177	1973.96
908.491	1987.97
908.804	1964.24
909.117	1932.15
909.43	1961.08
909.743	1946.84
910.056	1935.09
910.368	1928.76
910.681	1927.63
910.994	1918.59
911.307	1905.49
911.619	1908.42
911.932	1881.31
912.244	1916.11
912.557	1911.14
912.869	1884.92
913.181	1879.5
913.494	1877.92
913.806	1861.19
914.118	1862.32
914.43	1844.92
914.742	1825.49
915.054	1848.76
915.366	1832.04
915.678	1817.13
915.99	1830.23
916.302	1804.92
916.613	1790.01
916.925	1813.96
917.236	1831.59
917.548	1795.43
917.859	1773.74
918.171	1741.65
918.482	1780.07
918.794	1776.9
919.105	1760.18
919.416	1765.83
919.727	1764.02
920.038	1745.04
920.349	1747.07
920.66	1718.15
920.971	1737.81
921.282	1734.19
921.593	1730.58
921.903	1679.96
922.214	1689.67
922.525	1668.88
922.835	1653.74
923.146	1667.75
923.456	1638.38
923.767	1699.39
924.077	1667.75
924.387	1639.73
924.697	1650.58
925.008	1660.07
925.318	1647.41
925.628	1656
925.938	1619.39
926.248	1606.06
926.558	1586.17
926.867	1592.05
927.177	1614.65
927.487	1606.96
927.796	1599.51
928.106	1582.56
928.416	1582.56
928.725	1557.93
929.034	1565.38
929.344	1550.92
929.653	1585.04
929.962	1539.62
930.271	1503.46
930.581	1542.11
930.89	1553.86
931.199	1527.19
931.508	1548.89
931.817	1506.85
932.125	1535.33
932.434	1502.33
932.743	1492.84
933.051	1487.64
933.36	1498.94
933.669	1481.77
933.977	1485.16
934.286	1470.7
934.594	1475.44
934.902	1470.24
935.21	1430.47
935.519	1475.67
935.827	1454.88
936.135	1487.42
936.443	1467.08
936.751	1464.37
937.059	1421.88
937.367	1444.48
937.674	1425.73
937.982	1435.67
938.29	1418.27
938.597	1426.4
938.905	1403.35
939.213	1427.31
939.52	1415.1
939.827	1410.81
940.135	1414.43
940.442	1390.02
940.749	1368.78
941.056	1373.3
941.363	1390.7
941.67	1378.49
941.977	1367.2
942.284	1356.57
942.591	1359.96
942.898	1345.95
943.205	1342.79
943.511	1348.67
943.818	1337.82
944.125	1341.43
944.431	1320.87
944.738	1330.36
945.044	1307.99
945.35	1340.3
945.657	1330.36
945.963	1298.5
946.269	1309.34
946.575	1287.88
946.881	1263.47
947.187	1283.36
947.493	1293.53
947.799	1272.73
948.105	1261.66
948.41	1252.17
948.716	1277.48
949.022	1253.53
949.327	1257.37
949.633	1254.66
949.938	1240.87
950.244	1237.93
950.549	1245.17
950.854	1232.96
951.16	1216.92
951.465	1226.86
951.77	1201.78
952.075	1219.4
952.38	1210.36
952.685	1202.68
952.99	1176.24
953.294	1199.52
953.599	1202.45
953.904	1183.92
954.209	1212.85
954.513	1172.17
954.818	1169.23
955.122	1182.57
955.426	1172.17
955.731	1169.23
956.035	1180.31
956.339	1172.17
956.643	1141.66
956.948	1138.95
957.252	1149.8
957.556	1183.02
957.86	1134.21
958.163	1131.04
958.467	1111.84
958.771	1103.47
959.075	1115.68
959.378	1103.7
959.682	1106.64
959.985	1119.97
960.289	1122
960.592	1123.13
960.896	1107.99
961.199	1085.62
961.502	1099.41
961.805	1077.49
962.108	1081.1
962.411	1070.71
962.714	1069.35
963.017	1071.16
963.32	1078.39
963.623	1069.58
963.926	1073.19
964.228	1056.02
964.531	1046.07
964.833	1076.36
965.136	1048.33
965.438	1050.37
965.741	1051.72
966.043	1015.57
966.345	1046.3
966.648	1060.09
966.95	1043.81
967.252	1003.14
967.554	998.17
967.856	1021.22
968.158	1013.98
968.46	1039.75
968.761	1022.8
969.063	1009.92
969.365	1007.88
969.666	950.94
969.968	1004.27
970.269	991.84
970.571	984.15
970.872	995.45
971.174	983.03
971.475	973.08
971.776	964.95
972.077	957.94
972.378	967.43
972.679	983.7
972.98	975.79
973.281	937.6
973.582	945.74
973.883	967.88
974.183	937.38
974.484	986.19
974.785	926.53
975.085	954.55
975.386	943.48
975.686	936.92
975.986	939.41
976.287	923.37
976.587	935.79
976.887	926.3
977.187	929.92
977.487	935.79
977.787	912.29
978.087	920.43
978.387	902.35
978.687	899.64
978.987	917.72
979.286	906.42
979.586	899.19
979.885	891.73
980.185	883.59
980.484	894.67
980.784	899.64
981.083	886.08
981.382	869.81
981.682	875.46
981.981	878.39
982.28	892.63
982.579	903.71
982.878	860.32
983.177	896.47
983.475	865.97
983.774	834.1
984.073	841.56
984.372	851.05
984.67	834.33
984.969	817.61
985.267	843.37
985.566	863.25
985.864	834.33
986.162	854.67
986.461	829.13
986.759	847.66
987.057	812.63
987.355	822.35
987.653	815.57
987.951	818.96
988.249	837.72
988.547	809.47
988.844	808.34
989.142	825.52
989.44	811.73
989.737	802.92
990.035	800.66
990.332	801.79
990.63	794.33
990.927	794.56
991.224	800.66
991.521	801.79
991.819	811.73
992.116	785.97
992.413	770.6
992.71	782.35
993.006	775.35
993.303	765.4
993.6	806.76
993.897	782.8
994.193	775.12
994.49	787.78
994.787	765.18
995.083	756.82
995.379	745.07
995.676	762.47
995.972	765.18
996.268	755.69
996.565	748.45
996.861	730.83
997.157	753.43
997.453	740.09
997.749	736.93
998.044	731.05
998.34	732.64
998.636	745.52
998.932	717.27
999.227	728.57
999.523	737.83
999.818	726.08
1000.114	735.35
1000.409	745.97
1000.704	709.81
1001	690.15
1001.295	701.45
1001.59	689.47
1001.885	723.37
1002.18	723.14
1002.475	695.8
1002.77	681.79
1003.065	708.68
1003.359	695.57
1003.654	669.36
1003.949	714.78
1004.243	682.24
1004.538	686.76
1004.832	699.87
1005.127	689.25
1005.421	678.17
1005.715	671.17
1006.009	691.06
1006.304	675.91
1006.598	686.99
1006.892	679.3
1007.186	671.17
1007.48	669.81
1007.773	661
1008.067	674.78
1008.361	646.54
1008.655	655.35
1008.948	656.25
1009.242	657.61
1009.535	629.59
1009.829	623.94
1010.122	623.03
1010.415	633.43
1010.708	627.55
1011.001	626.2
1011.295	634.56
1011.588	628.46
1011.881	611.51
1012.173	620.77
1012.466	612.41
1012.759	636.82
1013.052	616.03
1013.344	625.52
1013.637	624.39
1013.93	607.44
1014.222	605.86
1014.514	611.51
1014.807	603.15
1015.099	599.98
1015.391	597.05
1015.683	614.45
1015.976	601.57
1016.268	582.81
1016.56	593.66
1016.851	581.91
1017.143	584.39
1017.435	589.36
1017.727	576.03
1018.018	585.75
1018.31	574.67
1018.602	579.65
1018.893	581.45
1019.185	574.45
1019.476	578.29
1019.767	581.23
1020.058	588.69
1020.35	583.04
1020.641	566.09
1020.932	558.86
1021.223	542.13
1021.514	555.01
1021.804	548.69
1022.095	545.97
1022.386	552.53
1022.677	548.01
1022.967	540.55
1023.258	547.56
1023.548	562.02
1023.839	544.84
1024.129	541.45
1024.419	534.22
1024.709	565.63
1025	525.64
1025.29	519.53
1025.58	536.26
1025.87	520.21
1026.16	550.27
1026.449	530.38
1026.739	514.56
1027.029	510.95
1027.319	531.96
1027.608	517.27
1027.898	505.52
1028.187	521.34
1028.477	523.6
1028.766	514.11
1029.055	500.1
1029.344	525.18
1029.634	489.03
1029.923	489.48
1030.212	486.54
1030.501	510.04
1030.79	492.87
1031.078	487.22
1031.367	508.01
1031.656	501.46
1031.945	473.66
1032.233	479.99
1032.522	498.97
1032.81	483.6
1033.099	490.16
1033.387	467.78
1033.675	491.06
1033.963	471.4
1034.251	480.89
1034.54	477.95
1034.828	460.1
1035.116	473.66
1035.403	485.41
1035.691	470.27
1035.979	450.84
1036.267	468.46
1036.554	491.06
1036.842	444.51
1037.129	482.93
1037.417	478.86
1037.704	468.01
1037.992	454.23
1038.279	451.97
1038.566	455.13
1038.853	455.13
1039.14	455.13
