Data from black_metal_pc_casing_FLMS001491_00044.txt Node
Date: Wed Feb 08 14:32:45 GMT 2017
User: dcchb
Spectrometer: FLMS00149
Trigger mode: 0
Integration Time (sec): 2.000000E-2
Scans to average: 10
Electric dark correction enabled: true
Nonlinearity correction enabled: false
Boxcar width: 0
XAxis mode: Wavelengths
Number of Pixels in Spectrum: 2048
>>>>>Begin Spectral Data<<<<<
341.393	-12.87
341.776	-12.87
342.16	-12.87
342.543	-43.15
342.927	-50.83
343.31	-68.68
343.693	-74.79
344.077	-49.48
344.46	-60.1
344.843	-66.65
345.226	-55.13
345.61	-18.97
345.993	-13.32
346.376	6.57
346.759	15.15
347.142	33.23
347.525	52.44
347.908	61.03
348.291	67.36
348.674	75.04
349.057	96.28
349.44	139.67
349.823	141.71
350.206	139.45
350.588	170.86
350.971	201.14
351.354	198.88
351.737	218.54
352.119	226.45
352.502	259.44
352.884	262.61
353.267	264.41
353.65	283.17
354.032	277.97
354.414	298.76
354.797	292.66
355.179	302.61
355.562	313.68
355.944	304.86
356.326	308.03
356.709	325.66
357.091	328.14
357.473	354.36
357.855	324.98
358.238	310.74
358.62	313.45
359.002	335.82
359.384	336.05
359.766	322.04
360.148	307.58
360.53	327.24
360.912	326.79
361.294	337.86
361.676	308.71
362.057	305.77
362.439	296.96
362.821	309.61
363.203	312.32
363.584	313
363.966	300.12
364.348	294.7
364.729	309.16
365.111	300.8
365.493	290.85
365.874	295.37
366.256	298.99
366.637	315.26
367.019	294.02
367.4	303.73
367.781	300.57
368.163	287.92
368.544	306.22
368.925	289.95
369.306	309.84
369.688	285.2
370.069	284.75
370.45	303.06
370.831	294.47
371.212	288.82
371.593	284.98
371.974	317.97
372.355	280.68
372.736	303.73
373.117	295.83
373.498	305.32
373.879	285.43
374.26	289.5
374.641	291.53
375.021	293.79
375.402	302.38
375.783	305.77
376.163	331.08
376.544	334.24
376.925	300.35
377.305	316.62
377.686	300.8
378.066	308.93
378.447	310.74
378.827	308.25
379.208	307.58
379.588	321.36
379.968	337.18
380.349	332.21
380.729	310.97
381.109	326.11
381.489	329.95
381.87	309.38
382.25	296.73
382.63	319.55
383.01	341.93
383.39	340.57
383.77	322.04
384.15	312.55
384.53	337.86
384.91	340.57
385.29	334.02
385.67	325.43
386.049	334.02
386.429	336.73
386.809	361.13
387.189	336.05
387.568	348.03
387.948	341.47
388.328	338.99
388.707	330.63
389.087	341.25
389.466	352.32
389.846	337.18
390.225	351.87
390.605	367.91
390.984	365.65
391.363	350.29
391.743	348.93
392.122	341.93
392.501	339.89
392.881	348.93
393.26	360.23
393.639	361.36
394.018	332.43
394.397	360
394.776	343.96
395.155	337.18
395.534	374.02
395.913	357.52
396.292	380.8
396.671	388.48
397.05	373.56
397.429	379.89
397.808	375.82
398.186	367.24
398.565	381.7
398.944	397.07
399.323	381.47
399.701	383.51
400.08	388.25
400.458	372.21
400.837	396.84
401.215	404.07
401.594	372.21
401.972	401.59
402.351	402.49
402.729	385.77
403.107	412.88
403.486	402.04
403.864	383.28
404.242	406.78
404.62	421.02
404.999	415.37
405.377	397.52
405.755	399.55
406.133	407.24
406.511	419.89
406.889	442.94
407.267	423.05
407.645	426.44
408.023	424.41
408.401	425.99
408.779	423.28
409.156	427.35
409.534	424.41
409.912	436.61
410.29	442.71
410.667	439.1
411.045	437.06
411.422	455.14
411.8	451.98
412.178	481.58
412.555	467.12
412.933	447.01
413.31	474.13
413.687	473
414.065	468.48
414.442	471.87
414.819	478.87
415.197	470.96
415.574	480
415.951	468.02
416.328	491.3
416.705	504.63
417.082	477.29
417.46	494.69
417.837	506.44
418.214	523.62
418.591	510.74
418.967	534.92
419.344	522.49
419.721	525.88
420.098	513.22
420.475	517.29
420.852	519.55
421.228	500.34
421.605	534.01
421.982	536.05
422.358	515.03
422.735	528.36
423.111	540.11
423.488	536.27
423.864	543.73
424.241	529.27
424.617	550.96
424.994	542.15
425.37	564.75
425.746	563.84
426.123	590.28
426.499	576.5
426.875	560.23
427.251	565.42
427.627	581.02
428.003	576.95
428.379	583.5
428.756	600.9
429.132	591.64
429.507	626.66
429.883	593.9
430.259	600
430.635	633.9
431.011	610.39
431.387	638.19
431.763	639.09
432.138	655.82
432.514	619.66
432.89	652.43
433.265	656.49
433.641	647.91
434.016	668.7
434.392	666.44
434.767	676.15
435.143	681.13
435.518	690.62
435.894	687.91
436.269	704.18
436.644	697.4
437.02	694.23
437.395	702.59
437.77	731.97
438.145	721.58
438.52	728.36
438.895	701.92
439.271	724.74
439.646	750.95
440.021	739.66
440.395	728.81
440.77	727.23
441.145	757.73
441.52	756.38
441.895	762.71
442.27	746.66
442.645	767.9
443.019	773.55
443.394	777.17
443.769	766.32
444.143	775.13
444.518	790.05
444.892	780.11
445.267	771.07
445.641	816.94
446.016	793.44
446.39	797.96
446.764	803.61
447.139	826.89
447.513	822.14
447.887	814
448.262	825.98
448.636	814.46
449.01	849.03
449.384	835.25
449.758	825.3
450.132	837.28
450.506	874.79
450.88	853.1
451.254	857.84
451.628	880.67
452.002	883.38
452.376	894.23
452.75	898.3
453.123	902.82
453.497	891.29
453.871	917.73
454.244	908.24
454.618	924.96
454.992	923.15
455.365	954.57
455.739	914.57
456.112	976.71
456.486	959.54
456.859	986.2
457.232	978.29
457.606	971.97
457.979	992.98
458.352	1004.73
458.725	1025.75
459.099	1038.4
459.472	1067.33
459.845	1054.9
460.218	1053.09
460.591	1066.88
460.964	1057.16
461.337	1069.36
461.71	1111.62
462.083	1134.9
462.456	1100.1
462.829	1117.5
463.201	1119.08
463.574	1123.37
463.947	1186.88
464.32	1198.85
464.692	1166.99
465.065	1192.07
465.438	1235.01
465.81	1225.07
466.183	1248.34
466.555	1222.81
466.928	1258.74
467.3	1253.99
467.672	1282.01
468.045	1298.29
468.417	1309.58
468.789	1317.49
469.161	1332.86
469.534	1364.05
469.906	1374.89
470.278	1360.43
470.65	1362.69
471.022	1402.92
471.394	1433.65
471.766	1410.37
472.138	1458.28
472.51	1475.91
472.882	1501.67
473.253	1515.68
473.625	1510.93
473.997	1544.61
474.369	1563.59
474.74	1575.11
475.112	1621.44
475.484	1623.7
475.855	1652.4
476.227	1677.03
476.598	1690.37
476.97	1699.63
477.341	1751.15
477.713	1767.43
478.084	1766.3
478.455	1814.2
478.827	1832.28
479.198	1896.46
479.569	1860.76
479.94	1978.95
480.311	1935.1
480.682	1994.76
481.053	1988.21
481.424	2037.02
481.795	2017.81
482.166	2059.62
482.537	2106.17
482.908	2136
483.279	2154.53
483.65	2169
484.021	2243.57
484.391	2243.12
484.762	2245.15
485.133	2292.16
485.503	2320.86
485.874	2337.35
486.244	2376.67
486.615	2427.75
486.985	2453.51
487.356	2461.42
487.726	2506.61
488.097	2551.13
488.467	2561.08
488.837	2623
489.207	2631.13
489.578	2672.71
489.948	2698.7
490.318	2719.49
490.688	2752.48
491.058	2761.3
491.428	2794.52
491.798	2827.51
492.168	2892.59
492.538	2906.6
492.908	2878.36
493.278	2966.04
493.648	2987.51
494.017	2995.19
494.387	3036.32
494.757	3048.75
495.126	3090.1
495.496	3093.49
495.866	3102.98
496.235	3132.14
496.605	3199.25
496.974	3211.91
497.344	3224.79
497.713	3233.38
498.082	3289.19
498.452	3306.82
498.821	3306.37
499.19	3296.42
499.559	3381.17
499.928	3386.14
500.298	3387.27
500.667	3415.52
501.036	3420.26
501.405	3494.84
501.774	3461.62
502.143	3504.33
502.512	3523.76
502.88	3548.17
503.249	3542.97
503.618	3553.14
503.987	3609.86
504.356	3613.48
504.724	3602.63
505.093	3623.87
505.462	3625.23
505.83	3706.36
506.199	3726.92
506.567	3795.39
506.936	3782.29
507.304	3808.28
507.672	3799.91
508.041	3875.39
508.409	3867.48
508.777	3892.79
509.145	3956.29
509.514	3939.8
509.882	3979.12
510.25	3989.51
510.618	4023.41
510.986	4028.16
511.354	4050.3
511.722	4083.07
512.09	4147.48
512.458	4088.95
512.826	4110.87
513.193	4185.21
513.561	4184.76
513.929	4202.62
514.297	4243.97
514.664	4357.64
515.032	4290.97
515.4	4334.36
515.767	4347.92
516.135	4403.06
516.502	4389.05
516.869	4431.31
517.237	4455.49
517.604	4485.77
517.972	4569.84
518.339	4530.74
518.706	4537.75
519.073	4579.55
519.44	4617.97
519.808	4713.56
520.175	4659.33
520.542	4792.88
520.909	4747.69
521.276	4781.13
521.643	4802.6
522.009	4888.47
522.376	4915.59
522.743	4970.05
523.11	4960.56
523.477	5020.45
523.843	5030.16
524.21	5081.01
524.577	5156.49
524.943	5152.65
525.31	5125.76
525.676	5157.39
526.043	5196.49
526.409	5270.16
526.776	5359.42
527.142	5336.15
527.508	5360.78
527.874	5413.66
528.241	5487.1
528.607	5480.55
528.973	5537.27
529.339	5499.3
529.705	5523.71
530.071	5620.88
530.437	5658.85
530.803	5695.46
531.169	5711.28
531.535	5716.47
531.901	5789.24
532.267	5768.68
532.632	5813.19
532.998	5744.5
533.364	5863.36
533.73	5920.31
534.095	5891.38
534.461	5970.25
534.826	5917.15
535.192	5992.17
535.557	6022.68
535.923	5986.75
536.288	6080.31
536.653	6078.95
537.019	6073.75
537.384	6137.71
537.749	6148.78
538.114	6158.95
538.479	6176.12
538.845	6220.87
539.21	6210.47
539.575	6253.18
539.94	6272.17
540.305	6274.65
540.67	6319.85
541.034	6277.36
541.399	6326.85
541.764	6393.07
542.129	6407.98
542.494	6395.55
542.858	6445.49
543.223	6441.43
543.587	6463.57
543.952	6453.63
544.316	6480.3
544.681	6506.28
545.045	6586.73
545.41	6601.87
545.774	6611.59
546.138	6676.22
546.503	6609.11
546.867	6601.65
547.231	6705.83
547.595	6757.12
547.959	6730.91
548.324	6738.82
548.688	6751.7
549.052	6755.77
549.416	6730.91
549.779	6807.97
550.143	6870.79
550.507	6874.41
550.871	6904.24
551.235	6941.3
551.599	7000.73
551.962	7010.9
552.326	6973.84
552.689	7039.15
553.053	6967.29
553.417	7090.45
553.78	7163.22
554.143	7170.45
554.507	7129.32
554.87	7137
555.234	7232.59
555.597	7183.33
555.96	7280.27
556.323	7342.65
556.686	7333.15
557.05	7385.58
557.413	7360.5
557.776	7417.45
558.139	7442.76
558.502	7465.35
558.865	7539.25
559.228	7498.57
559.59	7595.07
559.953	7565.92
560.316	7669.87
560.679	7606.14
561.041	7734.73
561.404	7679.81
561.767	7803.88
562.129	7809.3
562.492	7842.52
562.854	7847.94
563.217	7854.95
563.579	7956.19
563.941	7948.28
564.304	7965.23
564.666	8003.65
565.028	8002.97
565.39	8106.69
565.753	8113.02
566.115	8173.58
566.477	8232.11
566.839	8232.79
567.201	8163.19
567.563	8226.24
567.925	8247.93
568.287	8297.2
568.648	8329.96
569.01	8362.05
569.372	8468.04
569.734	8385.56
570.095	8470.3
570.457	8520.92
570.819	8540.58
571.18	8509.62
571.542	8546.91
571.903	8566.12
572.265	8604.99
572.626	8595.49
572.987	8678.2
573.349	8664.65
573.71	8780.35
574.071	8715.49
574.432	8724.98
574.794	8767.24
575.155	8776.73
575.516	8775.83
575.877	8834.81
576.238	8864.64
576.599	8806.34
576.96	8925.66
577.32	8835.94
577.681	8929.5
578.042	8956.39
578.403	8942.15
578.763	8990.51
579.124	8972.43
579.485	9029.16
579.845	9032.77
580.206	8929.5
580.566	8940.12
580.927	9005.88
581.287	9081.36
581.648	9010.4
582.008	9055.82
582.368	9028.25
582.728	9032.09
583.089	9034.58
583.449	9093.33
583.809	9022.38
584.169	9061.7
584.529	9081.58
584.889	9175.37
585.249	9123.16
585.609	9026.44
585.969	9115.25
586.329	9090.4
586.688	9122.49
587.048	9044.97
587.408	9122.71
587.768	9093.79
588.127	9162.26
588.487	9071.41
588.846	9210.39
589.206	9115.71
589.565	9082.49
589.925	9201.81
590.284	9159.77
590.643	9136.05
591.003	9147.8
591.362	9233.67
591.721	9174.24
592.08	9209.26
592.44	9191.18
592.799	9176.5
593.158	9184.86
593.517	9221.92
593.876	9241.81
594.235	9207.68
594.593	9133.11
594.952	9273.22
595.311	9214.01
595.67	9228.02
596.029	9251.07
596.387	9293.56
596.746	9322.71
597.104	9231.86
597.463	9252.88
597.822	9259.88
598.18	9221.24
598.538	9202.26
598.897	9265.08
599.255	9247.91
599.613	9296.27
599.972	9280.67
600.33	9311.41
600.688	9290.17
601.046	9325.42
601.404	9366.1
601.762	9350.5
602.12	9327
602.478	9374.46
602.836	9367.23
603.194	9393.67
603.552	9397.28
603.91	9377.85
604.268	9384.63
604.625	9355.02
604.983	9372.2
605.341	9311.86
605.698	9408.58
606.056	9422.37
606.413	9410.84
606.771	9450.39
607.128	9412.2
607.485	9399.54
607.843	9452.65
608.2	9458.52
608.557	9518.18
608.914	9455.13
609.272	9544.62
609.629	9493.78
609.986	9559.76
610.343	9502.36
610.7	9560.44
611.057	9603.15
611.414	9508.24
611.771	9613.09
612.127	9623.72
612.484	9571.51
612.841	9615.35
613.198	9569.48
613.554	9568.8
613.911	9696.03
614.267	9710.95
614.624	9642.47
614.98	9649.25
615.337	9711.4
615.693	9663.49
616.05	9722.02
616.406	9750.04
616.762	9664.62
617.118	9729.25
617.475	9708.23
617.831	9739.19
618.187	9792.53
618.543	9757.27
618.899	9819.87
619.255	9768.8
619.611	9751.85
619.967	9778.06
620.323	9790.49
620.678	9764.28
621.034	9775.58
621.39	9781.9
621.746	9819.19
622.101	9890.38
622.457	9782.81
622.812	9795.24
623.168	9805.41
623.523	9790.27
623.879	9830.72
624.234	9769.02
624.589	9768.12
624.945	9850.15
625.3	9803.37
625.655	9785.07
626.01	9797.72
626.365	9800.21
626.72	9781.68
627.075	9806.54
627.43	9819.87
627.785	9821.9
628.14	9839.3
628.495	9866.2
628.85	9766.76
629.205	9737.16
629.559	9873.88
629.914	9743.03
630.269	9757.05
630.623	9722.7
630.978	9706.43
631.332	9764.96
631.687	9748.23
632.041	9727.44
632.396	9823.94
632.75	9681.12
633.104	9768.8
633.459	9702.58
633.813	9699.65
634.167	9662.58
634.521	9624.85
634.875	9689.02
635.229	9658.74
635.583	9648.12
635.937	9656.48
636.291	9603.15
636.645	9620.1
636.999	9579.42
637.352	9577.62
637.706	9510.5
638.06	9545.98
638.413	9496.04
638.767	9474.12
639.121	9516.37
639.474	9514.57
639.828	9494.68
640.181	9477.05
640.534	9510.95
640.888	9416.94
641.241	9435.02
641.594	9392.31
641.947	9438.86
642.301	9363.38
642.654	9447.22
643.007	9408.81
643.36	9401.57
643.713	9337.62
644.066	9398.64
644.419	9373.33
644.771	9273.22
645.124	9137.63
645.477	9176.04
645.83	9112.99
646.182	9151.64
646.535	9051.75
646.888	9056.73
647.24	9009.04
647.593	9077.97
647.945	9014.92
648.298	9031.64
648.65	8953
649.002	9011.75
649.355	9035.48
649.707	8934.24
650.059	9082.94
650.411	9183.28
650.763	9163.39
651.115	9184.18
651.467	9132.66
651.819	9213.11
652.171	9140.79
652.523	9172.43
652.875	9112.32
653.227	9119.55
653.578	9185.08
653.93	9158.64
654.282	9101.7
654.633	9096.5
654.985	9063.05
655.337	9099.44
655.688	9126.78
656.039	9107.12
656.391	9033.67
656.742	9098.08
657.094	9034.13
657.445	9040.91
657.796	9074.35
658.147	9004.07
658.498	8980.12
658.849	9046.56
659.2	8988.7
659.551	9011.3
659.902	9055.6
660.253	9029.83
660.604	8963.85
660.955	9028.48
661.306	8959.78
661.656	8935.6
662.007	8978.54
662.358	8988.7
662.708	8987.57
663.059	9014.01
663.409	8948.48
663.76	8991.64
664.11	8950.51
664.461	8964.07
664.811	8997.07
665.161	9022.15
665.511	8903.51
665.862	8907.58
666.212	8955.48
666.562	9002.04
666.912	8925.43
667.262	8945.32
667.612	8901.47
667.962	8945.77
668.312	8924.98
668.662	8898.76
669.011	8945.77
669.361	8884.98
669.711	8902.6
670.06	8863.06
670.41	8844.98
670.76	8869.61
671.109	8912.32
671.459	8843.17
671.808	8851.98
672.157	8857.41
672.507	8807.92
672.856	8787.35
673.205	8797.52
673.554	8849.95
673.904	8779.67
674.253	8862.61
674.602	8792.33
674.951	8677.53
675.3	8622.84
675.649	8768.6
675.998	8811.08
676.346	8758.2
676.695	8737.41
677.044	8719.11
677.393	8733.57
677.741	8797.52
678.09	8691.09
678.438	8705.77
678.787	8764.98
679.135	8649.28
679.484	8667.36
679.832	8698.77
680.181	8662.39
680.529	8675.49
680.877	8647.24
681.225	8650.18
681.573	8730.63
681.922	8641.14
682.27	8618.77
682.618	8590.07
682.966	8570.86
683.314	8571.77
683.661	8558.21
684.009	8527.93
684.357	8450.41
684.705	8549.17
685.053	8507.14
685.4	8506.01
685.748	8456.29
686.095	8422.62
686.443	8407.48
686.79	8351.66
687.138	8355.05
687.485	8389.17
687.832	8340.13
688.18	8387.59
688.527	8342.85
688.874	8303.07
689.221	8273.24
689.568	8327.7
689.915	8232.79
690.262	8258.33
690.609	8216.07
690.956	8205.9
691.303	8203.87
691.65	8188.27
691.997	8134.26
692.344	8127.26
692.69	8065.79
693.037	8146.69
693.383	8061.5
693.73	8063.08
694.077	8071.21
694.423	7978.34
694.769	8003.65
695.116	7942.63
695.462	7980.14
695.808	7953.7
696.155	7954.38
696.501	7893.59
696.847	7884.55
697.193	7830.54
697.539	7901.05
697.885	7791.45
698.231	7801.39
698.577	7823.31
698.923	7746.93
699.269	7706.7
699.614	7681.85
699.96	7711.68
700.306	7659.47
700.651	7623.54
700.997	7671.45
701.342	7654.5
701.688	7574.5
702.033	7580.83
702.379	7634.84
702.724	7561.17
703.069	7581.28
703.415	7481.17
703.76	7438.91
704.105	7540.38
704.45	7501.29
704.795	7482.3
705.14	7500.16
705.485	7380.16
705.83	7411.12
706.175	7362.08
706.52	7327.96
706.865	7328.41
707.209	7320.95
707.554	7282.08
707.899	7321.63
708.243	7243.67
708.588	7297
708.932	7232.37
709.277	7243.44
709.621	7252.03
709.966	7150.33
710.31	7211.35
710.654	7124.8
710.998	7162.76
711.342	7131.35
711.687	7111.47
712.031	7134.97
712.375	7076.89
712.719	7121.18
713.063	7079.6
713.407	7139.94
713.75	7060.85
714.094	7066.27
714.438	6960.74
714.782	6961.64
715.125	6994.86
715.469	7028.98
715.812	6941.75
716.156	6923.22
716.499	6922.54
716.843	6959.61
717.186	6895.43
717.53	6920.28
717.873	6854.98
718.216	6848.87
718.559	6819.95
718.902	6888.87
719.246	6891.36
719.589	6790.57
719.932	6807.29
720.275	6785.6
720.617	6751.7
720.96	6784.69
721.303	6783.79
721.646	6776.11
721.989	6702.89
722.331	6740.4
722.674	6761.87
723.016	6740.18
723.359	6727.97
723.701	6680.74
724.044	6649.1
724.386	6630.12
724.729	6661.31
725.071	6648.88
725.413	6641.87
725.755	6632.16
726.097	6588.77
726.439	6552.61
726.782	6562.55
727.124	6582.89
727.465	6537.92
727.807	6525.94
728.149	6474.42
728.491	6494.31
728.833	6552.61
729.175	6547.64
729.516	6496.57
729.858	6462.67
730.199	6470.13
730.541	6475.1
730.882	6444.82
731.224	6455.21
731.565	6494.53
731.906	6448.88
732.248	6412.95
732.589	6411.82
732.93	6427.87
733.271	6372.05
733.612	6391.71
733.953	6405.95
734.294	6370.92
734.635	6388.55
734.976	6376.57
735.317	6336.12
735.658	6270.58
735.999	6364.82
736.339	6318.94
736.68	6288.66
737.021	6312.16
737.361	6319.4
737.702	6327.31
738.042	6278.95
738.383	6338.15
738.723	6286.85
739.063	6276.91
739.404	6254.31
739.744	6261.77
740.084	6234.43
740.424	6189.91
740.764	6221.09
741.104	6212.51
741.444	6179.51
741.784	6151.94
742.124	6154.43
742.464	6156.24
742.804	6139.97
743.143	6108.78
743.483	6156.24
743.823	6096.58
744.162	6124.15
744.502	6195.78
744.841	6096.13
745.181	6106.75
745.52	6072.4
745.86	6049.8
746.199	6104.03
746.538	6070.14
746.877	6057.93
747.216	6050.7
747.556	6024.71
747.895	6019.52
748.234	5968.67
748.573	5944.94
748.911	5987.65
749.25	5958.73
749.589	5936.81
749.928	5944.04
750.267	5985.17
750.605	5895.45
750.944	5910.82
751.283	5913.08
751.621	5919.41
751.96	5841.89
752.298	5840.76
752.636	5854.1
752.975	5837.15
753.313	5839.18
753.651	5830.37
753.989	5776.13
754.327	5852.06
754.666	5832.18
755.004	5789.01
755.342	5784.27
755.679	5748.79
756.017	5718.96
756.355	5735.68
756.693	5725.51
757.031	5717.38
757.368	5706.3
757.706	5726.64
758.044	5719.86
758.381	5698.17
758.719	5679.19
759.056	5659.98
759.394	5582.92
759.731	5551.05
760.068	5550.83
760.405	5563.94
760.743	5539.53
761.08	5549.47
761.417	5550.15
761.754	5500.66
762.091	5505.86
762.428	5452.3
762.765	5464.73
763.102	5479.87
763.438	5436.71
763.775	5402.13
764.112	5440.1
764.449	5407.1
764.785	5358.97
765.122	5389.93
765.458	5352.42
765.795	5368.46
766.131	5318.29
766.467	5296.82
766.804	5310.16
767.14	5252.53
767.476	5266.99
767.812	5217.5
768.148	5261.12
768.485	5212.08
768.821	5190.16
769.157	5193.1
769.492	5150.84
769.828	5168.47
770.164	5133.66
770.5	5134.57
770.836	5097.96
771.171	5053.67
771.507	5054.34
771.842	4975.02
772.178	5036.94
772.513	5025.87
772.849	4989.71
773.184	4963.95
773.519	4963.73
773.855	4938.64
774.19	4936.83
774.525	4910.85
774.86	4849.6
775.195	4929.15
775.53	4860.9
775.865	4834.92
776.2	4834.46
776.535	4785.2
776.87	4833.56
777.205	4781.81
777.539	4755.37
777.874	4764.18
778.209	4690.06
778.543	4722.15
778.878	4675.82
779.212	4749.72
779.547	4690.96
779.881	4653.45
780.215	4603.06
780.55	4659.55
780.884	4612.1
781.218	4653.45
781.552	4557.18
781.886	4579.33
782.22	4604.64
782.554	4566.67
782.888	4489.61
783.222	4475.6
783.556	4467.92
783.889	4506.79
784.223	4415.72
784.557	4392.44
784.89	4471.76
785.224	4384.76
785.557	4363.74
785.891	4388.37
786.224	4397.41
786.558	4392.22
786.891	4344.76
787.224	4331.88
787.557	4326
787.891	4317.87
788.224	4304.31
788.557	4252.33
788.89	4260.92
789.223	4274.48
789.556	4212.33
789.888	4282.84
790.221	4199.45
790.554	4225.67
790.887	4184.99
791.219	4170.3
791.552	4175.95
791.884	4153.13
792.217	4104.54
792.549	4075.61
792.882	4048.95
793.214	4059.34
793.546	4104.31
793.879	4026.12
794.211	4034.48
794.543	4054.6
794.875	3989.29
795.207	4029.96
795.539	3982.28
795.871	4038.33
796.203	4013.02
796.535	3939.35
796.867	3976.18
797.198	3918.78
797.53	3961.94
797.862	3922.4
798.193	3920.14
798.525	3896.18
798.856	3908.61
799.188	3875.84
799.519	3835.17
799.85	3831.33
800.182	3893.92
800.513	3843.98
800.844	3785.45
801.175	3789.97
801.506	3796.07
801.837	3703.42
802.168	3766.02
802.499	3789.74
802.83	3747.26
803.161	3737.09
803.491	3738.45
803.822	3729.63
804.153	3705.91
804.483	3701.84
804.814	3656.87
805.145	3624.78
805.475	3691.67
805.805	3658
806.136	3693.25
806.466	3646.02
806.796	3648.73
807.126	3627.49
807.457	3619.81
807.787	3593.82
808.117	3627.26
808.447	3573.71
808.777	3622.52
809.107	3572.12
809.436	3576.87
809.766	3553.82
810.096	3575.97
810.426	3518.11
810.755	3530.54
811.085	3567.38
811.414	3517.21
811.744	3486.93
812.073	3538.45
812.403	3504.33
812.732	3482.63
813.061	3523.31
813.39	3448.74
813.719	3441.28
814.049	3497.55
814.378	3445.57
814.707	3416.42
815.036	3437.89
815.365	3420.26
815.693	3373.03
816.022	3395.41
816.351	3400.15
816.68	3378.91
817.008	3430.88
817.337	3359.7
817.665	3323.77
817.994	3338.01
818.322	3368.06
818.651	3331.45
818.979	3290.1
819.307	3340.94
819.636	3314.5
819.964	3342.53
820.292	3302.75
820.62	3311.57
820.948	3328.51
821.276	3324.67
821.604	3295.29
821.932	3328.74
822.259	3315.18
822.587	3273.6
822.915	3267.27
823.243	3321.06
823.57	3267.05
823.898	3307.95
824.225	3250.78
824.553	3230.89
824.88	3291.68
825.207	3277.44
825.535	3246.71
825.862	3277.22
826.189	3281.28
826.516	3258.23
826.843	3303.66
827.17	3306.59
827.497	3282.87
827.824	3294.62
828.151	3288.52
828.478	3316.31
828.805	3296.65
829.131	3259.36
829.458	3291.68
829.785	3246.48
830.111	3271.79
830.438	3293.03
830.764	3266.59
831.09	3264.11
831.417	3266.14
831.743	3262.3
832.069	3258.23
832.395	3266.37
832.722	3272.24
833.048	3257.78
833.374	3231.79
833.7	3242.64
834.026	3247.16
834.351	3233.83
834.677	3268.85
835.003	3272.7
835.329	3273.6
835.654	3227.5
835.98	3226.82
836.306	3232.7
836.631	3208.29
836.956	3224.79
837.282	3238.12
837.607	3208.97
837.932	3216.88
838.258	3176.43
838.583	3220.49
838.908	3228.63
839.233	3180.95
839.558	3180.27
839.883	3157.45
840.208	3174.62
840.533	3142.3
840.858	3143.66
841.182	3141.4
841.507	3130.1
841.832	3142.98
842.156	3155.86
842.481	3115.86
842.805	3123.77
843.13	3131.01
843.454	3100.27
843.778	3094.4
844.103	3067.73
844.427	3093.72
844.751	3115.64
845.075	3049.65
845.399	3088.52
845.723	3024.79
846.047	3096.88
846.371	3046.26
846.695	3034.51
847.019	3013.49
847.343	3009.2
847.666	2986.15
847.99	2950.67
848.313	2956.09
848.637	2954.96
848.96	2935.3
849.284	2958.13
849.607	2912.25
849.931	2903.21
850.254	2890.33
850.577	2935.76
850.9	2856.89
851.223	2865.93
851.546	2858.92
851.869	2819.38
852.192	2890.79
852.515	2837.68
852.838	2848.75
853.161	2830
853.483	2837.68
853.806	2809.21
854.129	2807.4
854.451	2770.56
854.774	2756.1
855.096	2780.05
855.419	2764.46
855.741	2739.38
856.063	2736.21
856.385	2759.94
856.708	2716.55
857.03	2734.86
857.352	2749.32
857.674	2689.21
857.996	2698.47
858.318	2715.42
858.64	2711.36
858.961	2696.44
859.283	2668.87
859.605	2643.11
859.926	2667.06
860.248	2654.63
860.57	2649.44
860.891	2678.59
861.212	2652.15
861.534	2665.48
861.855	2628.42
862.176	2615.31
862.498	2669.55
862.819	2662.54
863.14	2611.02
863.461	2578.93
863.782	2608.53
864.103	2579.38
864.424	2595.88
864.745	2604.47
865.065	2601.75
865.386	2556.78
865.707	2588.42
866.027	2610.79
866.348	2556.33
866.668	2601.98
866.989	2568.99
867.309	2569.21
867.63	2558.14
867.95	2565.6
868.27	2568.76
868.59	2571.47
868.91	2546.39
869.23	2526.73
869.55	2550.46
869.87	2541.64
870.19	2578.25
870.51	2537.12
870.83	2523.11
871.15	2483.11
871.469	2511.81
871.789	2488.99
872.109	2524.92
872.428	2516.33
872.748	2495.09
873.067	2499.84
873.386	2534.18
873.706	2464.58
874.025	2508.2
874.344	2444.92
874.663	2459.61
874.982	2446.28
875.301	2469.55
875.62	2488.76
875.939	2467.07
876.258	2504.36
876.577	2474.3
876.896	2449.89
877.214	2461.87
877.533	2420.52
877.852	2433.4
878.17	2444.02
878.489	2433.85
878.807	2480.63
879.125	2437.24
879.444	2434.75
879.762	2418.71
880.08	2438.14
880.398	2408.76
880.716	2448.09
881.034	2424.13
881.352	2415.54
881.67	2428.42
881.988	2406.28
882.306	2401.98
882.624	2358.14
882.941	2408.09
883.259	2368.31
883.577	2365.6
883.894	2372.38
884.212	2397.24
884.529	2395.88
884.846	2354.98
885.164	2361.31
885.481	2362.21
885.798	2364.92
886.115	2297.81
886.432	2349.33
886.75	2313.17
887.067	2355.66
887.383	2321.08
887.7	2330.8
888.017	2301.87
888.334	2329.44
888.651	2358.14
888.967	2300.74
889.284	2291.48
889.6	2298.48
889.917	2285.6
890.233	2278.15
890.55	2268.66
890.866	2281.54
891.182	2253.06
891.498	2261.65
891.815	2258.26
892.131	2251.93
892.447	2232.5
892.763	2272.5
893.079	2258.71
893.395	2214.42
893.71	2199.05
894.026	2240.86
894.342	2218.49
894.657	2196.57
894.973	2202.89
895.289	2190.01
895.604	2153.4
895.92	2204.02
896.235	2159.51
896.55	2162.22
896.865	2150.69
897.181	2137.13
897.496	2159.51
897.811	2137.36
898.126	2136.23
898.441	2148.43
898.756	2108.21
899.071	2111.37
899.386	2110.92
899.7	2136.68
900.015	2078.6
900.33	2070.02
900.644	2087.42
900.959	2075.67
901.273	2034.76
901.588	2058.49
901.902	2058.72
902.216	2050.13
902.531	2050.36
902.845	2041.32
903.159	2023.24
903.473	2026.85
903.787	2013.07
904.101	2023.24
904.415	2014.88
904.729	1990.24
905.042	1980.08
905.356	1993.41
905.67	1983.46
905.984	2027.53
906.297	1950.25
906.611	1946.63
906.924	1942.34
907.237	1934.65
907.551	1911.83
907.864	1935.56
908.177	1931.71
908.491	1936.23
908.804	1937.36
909.117	1928.55
909.43	1901.89
909.743	1893.98
910.056	1895.33
910.368	1911.38
910.681	1872.73
910.994	1892.39
911.307	1870.93
911.619	1849.23
911.932	1868.67
912.244	1846.97
912.557	1831.83
912.869	1816.92
913.181	1814.43
913.494	1846.52
913.806	1840.19
914.118	1801.77
914.43	1809.68
914.742	1809.68
915.054	1759.29
915.366	1778.05
915.678	1784.83
915.99	1780.76
916.302	1780.31
916.613	1758.16
916.925	1747.09
917.236	1763.13
917.548	1753.19
917.859	1760.65
918.171	1740.76
918.482	1737.37
918.794	1737.6
919.105	1731.95
919.416	1697.37
919.727	1715.45
920.038	1682.23
920.349	1686.07
920.66	1710.48
920.971	1686.75
921.282	1668.44
921.593	1688.78
921.903	1675.45
922.214	1658.73
922.525	1648.78
922.835	1672.06
923.146	1654.21
923.456	1632.51
923.767	1610.59
924.077	1606.3
924.387	1623.47
924.697	1628.45
925.008	1600.2
925.318	1604.94
925.628	1616.69
925.938	1617.82
926.248	1579.41
926.558	1567.88
926.867	1574.66
927.177	1577.83
927.487	1547.54
927.796	1541.67
928.106	1563.81
928.416	1535.34
928.725	1542.57
929.034	1534.21
929.344	1526.53
929.653	1546.41
929.962	1529.01
930.271	1489.69
930.581	1530.37
930.89	1523.59
931.199	1485.17
931.508	1498.05
931.817	1488.56
932.125	1469.35
932.434	1496.92
932.743	1455.34
933.051	1473.65
933.36	1461.22
933.669	1446.53
933.977	1448.34
934.286	1458.05
934.594	1448.11
934.902	1430.48
935.21	1447.66
935.519	1423.25
935.827	1420.32
936.135	1399.53
936.443	1395.46
936.751	1398.62
937.059	1416.25
937.367	1426.19
937.674	1379.86
937.982	1396.59
938.29	1418.51
938.597	1390.03
938.905	1386.64
939.213	1370.15
939.52	1356.59
939.827	1383.71
940.135	1367.66
940.442	1337.15
940.749	1356.36
941.056	1359.53
941.363	1331.73
941.67	1338.51
941.977	1315.69
942.284	1299.87
942.591	1320.43
942.898	1332.18
943.205	1315.46
943.511	1296.25
943.818	1327.44
944.125	1303.03
944.431	1310.49
944.738	1319.53
945.044	1306.19
945.35	1290.6
945.657	1298.06
945.963	1264.16
946.269	1284.05
946.575	1272.07
946.881	1274.33
947.187	1272.75
947.493	1247.66
947.799	1257.83
948.105	1220.77
948.41	1217.38
948.716	1247.44
949.022	1230.49
949.327	1235.24
949.633	1197.95
949.938	1203.82
950.244	1243.6
950.549	1214.22
950.854	1213.77
951.16	1230.04
951.465	1226.87
951.77	1190.49
952.075	1188.68
952.38	1192.98
952.685	1217.61
952.99	1172.64
953.294	1165.86
953.599	1167.22
953.904	1186.42
954.209	1177.38
954.513	1150.94
954.818	1129.48
955.122	1152.53
955.426	1139.42
955.731	1159.08
956.035	1153.66
956.339	1141.45
956.643	1093.32
956.948	1133.77
957.252	1142.13
957.556	1100.55
957.86	1130.38
958.163	1124.05
958.467	1108.01
958.771	1108.46
959.075	1098.74
959.378	1099.65
959.682	1109.82
959.985	1121.79
960.289	1117.5
960.592	1079.08
960.896	1082.7
961.199	1080.21
961.502	1085.18
961.805	1075.69
962.108	1066.43
962.411	1060.55
962.714	1052.42
963.017	1059.65
963.32	1064.62
963.623	1037.27
963.926	1061
964.228	1060.78
964.531	1038.86
964.833	1022.36
965.136	1021.68
965.438	1042.92
965.741	1043.6
966.043	1000.44
966.345	1038.63
966.648	1021.91
966.95	1039.31
967.252	1026.88
967.554	1007.22
967.856	998.63
968.158	996.37
968.46	999.54
968.761	976.94
969.063	995.92
969.365	1011.74
969.666	978.97
969.968	966.77
970.269	958.86
970.571	979.88
970.872	961.12
971.174	957.5
971.475	973.32
971.776	943.49
972.077	955.47
972.378	941.01
972.679	939.65
972.98	945.3
973.281	941.91
973.582	951.85
973.883	945.98
974.183	939.42
974.484	953.21
974.785	957.5
975.085	922.93
975.386	922.48
975.686	912.98
975.986	927.45
976.287	923.15
976.587	904.62
976.887	915.24
977.187	909.82
977.487	910.95
977.787	906.2
978.087	933.1
978.387	912.98
978.687	892.42
978.987	918.63
979.286	887
979.586	858.52
979.885	885.41
980.185	898.07
980.484	885.64
980.784	887
981.083	902.59
981.382	883.38
981.682	858.52
981.981	884.51
982.28	876.15
982.579	844.74
982.878	860.78
983.177	863.04
983.475	870.95
983.774	852.65
984.073	835.25
984.372	854.23
984.67	839.09
984.969	851.74
985.267	837.28
985.566	850.61
985.864	830.05
986.162	843.83
986.461	819.65
986.759	824.17
987.057	817.17
987.355	805.19
987.653	829.82
987.951	822.59
988.249	812.2
988.547	803.61
988.844	817.17
989.142	793.44
989.44	784.4
989.737	798.19
990.035	814.91
990.332	809.94
990.63	780.78
990.927	814
991.224	801.8
991.521	781.69
991.819	773.1
992.116	775.81
992.413	779.2
992.71	788.47
993.006	769.49
993.303	770.16
993.6	768.81
993.897	783.72
994.193	761.35
994.49	784.17
994.787	769.49
995.083	760.67
995.379	764.74
995.676	744.18
995.972	754.12
996.268	749.82
996.565	755.93
996.861	744.18
997.157	714.8
997.453	700.11
997.749	725.42
998.044	726.77
998.34	734.23
998.636	731.97
998.932	732.88
999.227	704.63
999.523	708.24
999.818	740.79
1000.114	710.73
1000.409	715.25
1000.704	723.38
1001	699.66
1001.295	680.45
1001.59	728.36
1001.885	693.33
1002.18	718.19
1002.475	706.21
1002.77	704.18
1003.065	713.67
1003.359	689.71
1003.654	692.65
1003.949	683.16
1004.243	680
1004.538	673.67
1004.832	670.5
1005.127	677.28
1005.421	651.52
1005.715	673.22
1006.009	656.04
1006.304	642.48
1006.598	675.93
1006.892	671.86
1007.186	641.13
1007.48	652.88
1007.773	656.27
1008.067	645.87
1008.361	645.42
1008.655	652.88
1008.948	663.05
1009.242	633.22
1009.535	645.42
1009.829	633.44
1010.122	636.61
1010.415	642.94
1010.708	621.69
1011.001	629.15
1011.295	624.18
1011.588	611.98
1011.881	618.3
1012.173	637.29
1012.466	625.08
1012.759	642.26
1013.052	620.11
1013.344	578.08
1013.637	624.63
1013.93	617.4
1014.222	606.78
1014.514	589.15
1014.807	598.64
1015.099	613.56
1015.391	602.03
1015.683	613.33
1015.976	616.72
1016.268	597.29
1016.56	595.93
1016.851	580.56
1017.143	602.94
1017.435	588.7
1017.727	567.91
1018.018	565.2
1018.31	572.65
1018.602	571.3
1018.893	582.15
1019.185	579.43
1019.476	559.1
1019.767	574.01
1020.058	561.36
1020.35	582.15
1020.641	535.82
1020.932	583.73
1021.223	543.95
1021.514	556.38
1021.804	557.51
1022.095	541.24
1022.386	543.73
1022.677	543.5
1022.967	538.98
1023.258	555.48
1023.548	548.93
1023.839	559.55
1024.129	545.54
1024.419	524.97
1024.709	532.66
1025	527.23
1025.29	518.19
1025.58	524.29
1025.87	508.48
1026.16	521.58
1026.449	530.17
1026.739	520.23
1027.029	526.33
1027.319	529.94
1027.608	498.76
1027.898	498.76
1028.187	525.2
1028.477	526.55
1028.766	521.58
1029.055	504.41
1029.344	501.24
1029.634	516.16
1029.923	504.86
1030.212	510.51
1030.501	508.93
1030.79	492.2
1031.078	496.95
1031.367	511.87
1031.656	461.47
1031.945	487.01
1032.233	507.8
1032.522	483.84
1032.81	468.7
1033.099	501.24
1033.387	487.46
1033.675	466.22
1033.963	472.09
1034.251	456.5
1034.54	483.84
1034.828	457.18
1035.116	470.74
1035.403	471.41
1035.691	476.84
1035.979	469.61
1036.267	470.96
1036.554	467.57
1036.842	449.72
1037.129	470.96
1037.417	462.37
1037.704	463.5
1037.992	456.5
1038.279	452.43
1038.566	461.47
1038.853	461.47
1039.14	461.47
