Data from black_metal_pc_casing_FLMS001491_00031.txt Node
Date: Wed Feb 08 14:32:34 GMT 2017
User: dcchb
Spectrometer: FLMS00149
Trigger mode: 0
Integration Time (sec): 2.000000E-2
Scans to average: 10
Electric dark correction enabled: true
Nonlinearity correction enabled: false
Boxcar width: 0
XAxis mode: Wavelengths
Number of Pixels in Spectrum: 2048
>>>>>Begin Spectral Data<<<<<
341.393	-11.2
341.776	-11.2
342.16	-11.2
342.543	-46.23
342.927	-77.19
343.31	-72.89
343.693	-56.17
344.077	-79.45
344.46	-60.24
344.843	-57.07
345.226	-39.22
345.61	-29.05
345.993	-14.36
346.376	-5.32
346.759	10.95
347.142	26.09
347.525	50.27
347.908	53.2
348.291	65.18
348.674	97.05
349.057	111.06
349.44	120.1
349.823	126.65
350.206	167.33
350.588	163.03
350.971	190.38
351.354	189.02
351.737	209.13
352.119	227.21
352.502	230.38
352.884	259.75
353.267	269.24
353.65	257.04
354.032	284.16
354.414	282.13
354.797	289.58
355.179	290.26
355.562	296.59
355.944	303.14
356.326	309.24
356.709	300.2
357.091	317.38
357.473	336.59
357.855	328.68
358.238	311.5
358.62	314.21
359.002	328.45
359.384	322.58
359.766	295.01
360.148	328
360.53	305.18
360.912	306.08
361.294	338.85
361.676	337.49
362.057	327.55
362.439	346.08
362.821	303.37
363.203	303.59
363.584	304.72
363.966	327.1
364.348	291.84
364.729	307.21
365.111	302.24
365.493	318.73
365.874	307.89
366.256	315.34
366.637	303.59
367.019	304.72
367.4	303.37
367.781	302.46
368.163	303.82
368.544	287.32
368.925	300.66
369.306	331.84
369.688	300.88
370.069	300.2
370.45	313.31
370.831	295.01
371.212	302.92
371.593	320.77
371.974	293.88
372.355	322.35
372.736	302.69
373.117	311.5
373.498	295.46
373.879	313.76
374.26	321.9
374.641	298.62
375.021	312.86
375.402	298.17
375.783	295.23
376.163	319.19
376.544	316.25
376.925	308.34
377.305	311.28
377.686	328.45
378.066	315.34
378.447	324.38
378.827	323.48
379.208	322.58
379.588	314.44
379.968	325.51
380.349	336.81
380.729	340.2
381.109	350.6
381.489	333.88
381.87	350.82
382.25	337.27
382.63	348.34
383.01	346.53
383.39	341.11
383.77	345.4
384.15	342.69
384.53	337.94
384.91	338.4
385.29	362.35
385.67	358.51
386.049	349.69
386.429	363.93
386.809	353.76
387.189	352.41
387.568	341.56
387.948	350.6
388.328	362.12
388.707	364.38
389.087	360.54
389.466	358.51
389.846	380.65
390.225	378.39
390.605	368.9
390.984	355.57
391.363	363.03
391.743	355.34
392.122	377.49
392.501	389.24
392.881	374.1
393.26	370.26
393.639	383.37
394.018	392.4
394.397	346.53
394.776	403.7
395.155	378.85
395.534	391.73
395.913	388.79
396.292	384.5
396.671	394.66
397.05	386.53
397.429	379.07
397.808	393.08
398.186	412.97
398.565	368.45
398.944	404.83
399.323	400.99
399.701	390.37
400.08	403.48
400.458	427.21
400.837	405.74
401.215	436.25
401.594	411.16
401.972	416.13
402.351	427.66
402.729	401.9
403.107	415.23
403.486	419.3
403.864	441.44
404.242	437.38
404.62	423.59
404.999	429.47
405.377	443.25
405.755	442.8
406.133	466.98
406.511	460.65
406.889	462.46
407.267	449.58
407.645	455.68
408.023	455.23
408.401	469.01
408.779	483.93
409.156	468.56
409.534	470.59
409.912	481.89
410.29	478.05
410.667	501.55
411.045	493.65
411.422	479.86
411.8	484.15
412.178	506.75
412.555	502.46
412.933	496.81
413.31	499.07
413.687	544.04
414.065	510.37
414.442	513.31
414.819	532.97
415.197	502.23
415.574	512.63
415.951	530.93
416.328	550.82
416.705	531.84
417.082	545.17
417.46	540.65
417.837	539.75
418.214	558.73
418.591	540.88
418.967	539.75
419.344	544.49
419.721	547.2
420.098	569.12
420.475	572.51
420.852	573.87
421.228	591.95
421.605	596.92
421.982	589.69
422.358	573.42
422.735	582.68
423.111	602.57
423.488	597.37
423.864	619.74
424.241	613.87
424.617	592.63
424.994	601.21
425.37	619.74
425.746	619.29
426.123	631.49
426.499	629.46
426.875	626.98
427.251	632.62
427.627	650.03
428.003	657.03
428.379	643.47
428.756	653.42
429.132	662.91
429.507	676.69
429.883	677.82
430.259	676.92
430.635	669.69
431.011	687.99
431.387	716.46
431.763	728.44
432.138	696.35
432.514	706.29
432.89	739.97
433.265	744.26
433.641	735.67
434.016	756.01
434.392	750.59
434.767	767.99
435.143	762.34
435.518	795.56
435.894	792.85
436.269	789.23
436.644	793.98
437.02	793.3
437.395	814.77
437.77	824.94
438.145	812.51
438.52	845.5
438.895	845.27
439.271	826.29
439.646	868.32
440.021	837.82
440.395	863.35
440.77	837.59
441.145	887.31
441.52	880.75
441.895	869.91
442.27	866.52
442.645	868.1
443.019	876.91
443.394	900.19
443.769	909.45
444.143	887.08
444.518	900.87
444.892	907.65
445.267	893.86
445.641	908.55
446.016	931.15
446.39	944.25
446.764	949.45
447.139	965.27
447.513	956.91
447.887	951.03
448.262	927.53
448.636	955.33
449.01	959.85
449.384	988.1
449.758	975.89
450.132	984.48
450.506	993.75
450.88	989.68
451.254	1012.95
451.628	995.33
452.002	1034.2
452.376	1020.19
452.75	1039.62
453.123	1055.66
453.497	1036.23
453.871	1054.76
454.244	1082.33
454.618	1073.52
454.992	1108.32
455.365	1079.39
455.739	1111.71
456.112	1125.94
456.486	1130.01
456.859	1134.98
457.232	1134.08
457.606	1182.21
457.979	1184.25
458.352	1202.33
458.725	1198.26
459.099	1195.55
459.472	1220.18
459.845	1225.38
460.218	1260.18
460.591	1220.63
460.964	1273.06
461.337	1275.55
461.71	1304.02
462.083	1325.26
462.456	1307.41
462.829	1311.7
463.201	1353.28
463.574	1348.31
463.947	1359.16
464.32	1376.11
464.692	1414.07
465.065	1438.25
465.438	1436.22
465.81	1454.07
466.183	1426.73
466.555	1478.25
466.928	1473.05
467.3	1462.89
467.672	1496.1
468.045	1543.34
468.417	1529.32
468.789	1574.07
469.161	1575.65
469.534	1596.67
469.906	1620.85
470.278	1616.33
470.65	1647.97
471.022	1659.49
471.394	1680.28
471.766	1730.67
472.138	1715.53
472.51	1749.66
472.882	1765.48
473.253	1809.54
473.625	1810.45
473.997	1835.98
474.369	1854.97
474.74	1871.46
475.112	1922.53
475.484	1951.46
475.855	1965.24
476.227	1946.71
476.598	2023.32
476.97	2028.52
477.341	2081.85
477.713	2090.21
478.084	2079.59
478.455	2149.42
478.827	2187.16
479.198	2199.36
479.569	2257.21
479.94	2292.24
480.311	2326.14
480.682	2360.71
481.053	2426.02
481.424	2484.78
481.795	2449.3
482.166	2461.28
482.537	2520.71
482.908	2547.15
483.279	2583.99
483.65	2612.91
484.021	2722.29
484.391	2693.36
484.762	2711.67
485.133	2749.18
485.503	2779.01
485.874	2877.54
486.244	2851.32
486.615	2915.73
486.985	2944.65
487.356	3008.16
487.726	3040.02
488.097	3039.57
488.467	3110.07
488.837	3119.34
489.207	3182.16
489.578	3248.15
489.948	3231.88
490.318	3270.3
490.688	3304.42
491.058	3293.57
491.428	3425.09
491.798	3429.84
492.168	3499.67
492.538	3505.77
492.908	3522.27
493.278	3573.34
493.648	3525.88
494.017	3602.49
494.387	3654.47
494.757	3671.87
495.126	3687.23
495.496	3725.88
495.866	3776.04
496.235	3792.32
496.605	3881.58
496.974	3885.65
497.344	3929.94
497.713	3901.92
498.082	3936.49
498.452	3988.47
498.821	4023.5
499.19	4010.39
499.559	4071.4
499.928	4058.3
500.298	4072.53
500.667	4136.49
501.036	4122.93
501.405	4160.67
501.774	4178.07
502.143	4257.61
502.512	4235.02
502.88	4298.06
503.249	4287.44
503.618	4289.93
503.987	4330.38
504.356	4353.88
504.724	4420.32
505.093	4409.47
505.462	4450.6
505.83	4440.89
506.199	4502.13
506.567	4537.38
506.936	4553.88
507.304	4599.75
507.672	4587.55
508.041	4666.87
508.409	4722.69
508.777	4721.56
509.145	4778.5
509.514	4793.42
509.882	4827.32
510.25	4838.62
510.618	4837.03
510.986	4852.85
511.354	4952.51
511.722	4954.09
512.09	5028.67
512.458	5019.4
512.826	5065.28
513.193	5080.87
513.561	5101.21
513.929	5194.99
514.297	5206.97
514.664	5227.76
515.032	5241.32
515.4	5312.73
515.767	5316.8
516.135	5348.88
516.502	5337.59
516.869	5435.44
517.237	5498.03
517.604	5430.92
517.972	5517.92
518.339	5534.19
518.706	5603.12
519.073	5601.76
519.44	5606.96
519.808	5669.78
520.175	5673.4
520.542	5808.08
520.909	5841.53
521.276	5805.14
521.643	5906.16
522.009	5975.31
522.376	5953.61
522.743	5945.03
523.11	6114.74
523.477	6113.61
523.843	6168.3
524.21	6245.13
524.577	6276.77
524.943	6253.49
525.31	6354.51
525.676	6383.66
526.043	6400.38
526.409	6483.77
526.776	6532.13
527.142	6546.37
527.508	6559.7
527.874	6626.82
528.241	6657.1
528.607	6697.1
528.973	6769.86
529.339	6759.24
529.705	6825
530.071	6886.02
530.437	6914.27
530.803	6994.04
531.169	6945
531.535	6971.44
531.901	7069.97
532.267	7061.16
532.632	7143.64
532.998	7147.93
533.364	7218.21
533.73	7229.74
534.095	7269.74
534.461	7295.5
534.826	7288.95
535.192	7360.13
535.557	7394.03
535.923	7457.53
536.288	7459.56
536.653	7520.58
537.019	7507.7
537.384	7616.85
537.749	7558.09
538.114	7622.72
538.479	7667.02
538.845	7692.78
539.21	7691.2
539.575	7700.69
539.94	7761.48
540.305	7798.99
540.67	7825.66
541.034	7870.17
541.399	7862.94
541.764	7896.39
542.129	7914.92
542.494	7913.79
542.858	7989.27
543.223	7998.31
543.587	8015.93
543.952	8059.77
544.316	8149.72
544.681	8102.71
545.045	8112.65
545.41	8124.86
545.774	8208.47
546.138	8224.06
546.503	8238.75
546.867	8290.73
547.231	8306.32
547.595	8264.29
547.959	8391.52
548.324	8389.93
548.688	8436.94
549.052	8465.41
549.416	8483.04
549.779	8455.92
550.143	8528.46
550.507	8621.79
550.871	8615.92
551.235	8624.5
551.599	8663.15
551.962	8667.67
552.326	8705.63
552.689	8679.42
553.053	8763.03
553.417	8776.59
553.78	8926.19
554.143	8863.59
554.507	8882.35
554.87	8975.46
555.234	9017.94
555.597	8965.74
555.96	9020.65
556.323	9107.88
556.686	9063.14
557.05	9146.07
557.413	9204.15
557.776	9244.38
558.139	9255
558.502	9307.65
558.865	9331.15
559.228	9444.82
559.59	9402.34
559.953	9425.39
560.316	9570.92
560.679	9544.48
561.041	9642.11
561.404	9590.13
561.767	9721.2
562.129	9697.92
562.492	9813.85
562.854	9832.83
563.217	9764.36
563.579	9782.44
563.941	9899.73
564.304	9911.93
564.666	9971.81
565.028	10033.73
565.39	10082.77
565.753	10125.71
566.115	10169.1
566.477	10161.87
566.839	10179.04
567.201	10200.73
567.563	10339.26
567.925	10398.47
568.287	10378.36
568.648	10437.79
569.01	10479.37
569.372	10531.8
569.734	10529.31
570.095	10606.37
570.457	10701.06
570.819	10696.99
571.18	10709.65
571.542	10766.82
571.903	10748.52
572.265	10811.57
572.626	10885.01
572.987	10878
573.349	10889.98
573.71	10961.17
574.071	10963.88
574.432	10949.64
574.794	11092.91
575.155	11117.32
575.516	11109.41
575.877	11123.42
576.238	11076.19
576.599	11156.19
576.96	11112.8
577.32	11176.3
577.681	11294.72
578.042	11230.76
578.403	11317.77
578.763	11304.43
579.124	11303.76
579.485	11400.93
579.845	11407.03
580.206	11274.38
580.566	11381.95
580.927	11362.96
581.287	11407.26
581.648	11284.32
582.008	11417.43
582.368	11406.13
582.728	11443.41
583.089	11451.55
583.449	11432.11
583.809	11517.08
584.169	11469.85
584.529	11465.11
584.889	11551.43
585.249	11397.31
585.609	11388.27
585.969	11518.67
586.329	11593.24
586.688	11514.37
587.048	11470.98
587.408	11421.49
587.768	11477.54
588.127	11459.91
588.487	11473.47
588.846	11585.33
589.206	11451.78
589.565	11439.12
589.925	11537.87
590.284	11456.52
590.643	11543.98
591.003	11517.08
591.362	11561.83
591.721	11480.7
592.08	11517.08
592.44	11627.14
592.799	11608.16
593.158	11564.99
593.517	11472.57
593.876	11622.84
594.235	11569.96
594.593	11576.97
594.952	11586.69
595.311	11538.55
595.67	11574.94
596.029	11647.7
596.387	11622.17
596.746	11668.04
597.104	11628.95
597.463	11611.77
597.822	11698.1
598.18	11614.71
598.538	11565.22
598.897	11694.03
599.255	11578.33
599.613	11808.38
599.972	11642.96
600.33	11745.33
600.688	11711.2
601.046	11691.77
601.404	11681.37
601.762	11711.88
602.12	11780.35
602.478	11804.76
602.836	11888.37
603.194	11804.99
603.552	11866
603.91	11746
604.268	11871.65
604.625	11877.07
604.983	11809.96
605.341	11789.39
605.698	11879.11
606.056	11906.23
606.413	11924.08
606.771	11905.1
607.128	11973.57
607.485	11896.51
607.843	11944.87
608.2	12004.75
608.557	11968.82
608.914	11953.91
609.272	11978.54
609.629	12064.87
609.986	12131.98
610.343	12047.01
610.7	12080.23
611.057	12130.85
611.414	12063.51
611.771	12120.23
612.127	12167.01
612.484	12087.01
612.841	12130.4
613.198	12109.84
613.554	12153.9
613.911	12193
614.267	12231.87
614.624	12160.23
614.98	12180.8
615.337	12264.41
615.693	12240
616.05	12258.53
616.406	12316.84
616.762	12303.28
617.118	12293.33
617.475	12344.18
617.831	12409.94
618.187	12293.11
618.543	12291.08
618.899	12338.31
619.255	12351.86
619.611	12331.53
619.967	12361.58
620.323	12428.02
620.678	12411.98
621.034	12368.14
621.39	12416.72
621.746	12284.97
622.101	12496.72
622.457	12324.97
622.812	12373.33
623.168	12484.52
623.523	12376.72
623.879	12423.05
624.234	12402.26
624.589	12402.71
624.945	12400.45
625.3	12424.63
625.655	12468.25
626.01	12458.53
626.365	12440
626.72	12451.3
627.075	12438.87
627.43	12464.86
627.785	12432.31
628.14	12346.89
628.495	12477.28
628.85	12418.3
629.205	12376.04
629.559	12403.16
629.914	12395.71
630.269	12340.79
630.623	12369.94
630.978	12312.32
631.332	12295.37
631.687	12343.5
632.041	12264.41
632.396	12302.15
632.75	12245.43
633.104	12374.91
633.459	12263.96
633.813	12259.66
634.167	12237.29
634.521	12286.33
634.875	12288.14
635.229	12211.08
635.583	12244.97
635.937	12176.95
636.291	12260.57
636.645	12182.15
636.999	12123.62
637.352	12148.71
637.706	12035.26
638.06	12070.06
638.413	12182.83
638.767	12008.82
639.121	12085.66
639.474	12069.84
639.828	12114.81
640.181	12016.73
640.534	11965.66
640.888	12022.83
641.241	11955.94
641.594	12037.3
641.947	11999.33
642.301	11865.55
642.654	12012.21
643.007	11982.83
643.36	11995.26
643.713	11906.45
644.066	11978.54
644.419	11882.5
644.771	11789.39
645.124	11693.8
645.477	11605.44
645.83	11576.74
646.182	11512.56
646.535	11525.22
646.888	11515.73
647.24	11465.79
647.593	11517.08
647.945	11460.59
648.298	11456.52
648.65	11386.01
649.002	11401.83
649.355	11467.82
649.707	11425.11
650.059	11510.53
650.411	11581.26
650.763	11552.79
651.115	11628.95
651.467	11685.44
651.819	11626.91
652.171	11583.07
652.523	11505.11
652.875	11543.52
653.227	11557.99
653.578	11636.86
653.93	11647.48
654.282	11591.66
654.633	11492.9
654.985	11528.84
655.337	11558.44
655.688	11511.89
656.039	11527.03
656.391	11450.42
656.742	11496.07
657.094	11508.72
657.445	11555.05
657.796	11463.3
658.147	11454.03
658.498	11443.87
658.849	11459.46
659.2	11445.67
659.551	11390.76
659.902	11426.24
660.253	11481.6
660.604	11399.57
660.955	11416.3
661.306	11423.53
661.656	11391.21
662.007	11465.11
662.358	11376.52
662.708	11407.71
663.059	11404.09
663.409	11332.91
663.76	11381.72
664.11	11407.93
664.461	11390.31
664.811	11382.85
665.161	11381.49
665.511	11327.71
665.862	11360.48
666.212	11328.84
666.562	11452
666.912	11366.58
667.262	11381.49
667.612	11308.28
667.962	11321.84
668.312	11279.8
668.662	11365.9
669.011	11285.23
669.361	11292.46
669.711	11264.21
670.06	11315.73
670.41	11282.51
670.76	11242.06
671.109	11292.01
671.459	11201.16
671.808	11185.79
672.157	11231.22
672.507	11199.8
672.856	11105.8
673.205	11188.05
673.554	11219.24
673.904	11136.98
674.253	11230.76
674.602	11195.74
674.951	11015.4
675.3	10943.77
675.649	11095.17
675.998	11057.66
676.346	11088.62
676.695	11160.71
677.044	11097.89
677.393	11127.26
677.741	11129.3
678.09	11091.56
678.438	11054.05
678.787	11081.84
679.135	11014.72
679.484	10959.36
679.832	11048.4
680.181	10958.68
680.529	11025.12
680.877	10968.4
681.225	10940.15
681.573	10997.55
681.922	10896.99
682.27	10911.68
682.618	10935.18
682.966	10842.07
683.314	10847.27
683.661	10888.85
684.009	10798.91
684.357	10765.24
684.705	10845.24
685.053	10764.56
685.4	10792.13
685.748	10765.24
686.095	10761.17
686.443	10696.54
686.79	10625.58
687.138	10660.61
687.485	10655.41
687.832	10615.64
688.18	10625.36
688.527	10568.63
688.874	10520.73
689.221	10543.78
689.568	10538.35
689.915	10551.46
690.262	10489.54
690.609	10443.21
690.956	10411.12
691.303	10417.9
691.65	10380.39
691.997	10332.48
692.344	10266.95
692.69	10278.02
693.037	10239.38
693.383	10259.49
693.73	10255.2
694.077	10266.5
694.423	10198.47
694.769	10140.4
695.116	10157.35
695.462	10060.63
695.808	10057.91
696.155	10027.18
696.501	10040.29
696.847	10033.28
697.193	9960.29
697.539	10036.22
697.885	9959.84
698.231	9890.46
698.577	9885.94
698.923	9886.84
699.269	9850.01
699.614	9779.95
699.96	9742.89
700.306	9732.27
700.651	9683.69
700.997	9746.74
701.342	9656.79
701.688	9666.96
702.033	9584.71
702.379	9610.47
702.724	9588.55
703.069	9616.34
703.415	9499.51
703.76	9528.66
704.105	9504.71
704.45	9543.35
704.795	9498.83
705.14	9373.64
705.485	9419.51
705.83	9342.68
706.175	9390.13
706.52	9357.14
706.865	9291.15
707.209	9325.96
707.554	9234.21
707.899	9222.46
708.243	9213.19
708.588	9276.24
708.932	9212.29
709.277	9173.87
709.621	9118.96
709.966	9052.06
710.31	9091.39
710.654	9090.71
710.998	9194.43
711.342	9077.37
711.687	8972.74
712.031	8945.63
712.375	8962.35
712.719	8938.85
713.063	8989.02
713.407	9060.65
713.75	8930.94
714.094	8933.88
714.438	8922.12
714.782	8914.89
715.125	8869.7
715.469	8871.5
715.812	8864.95
716.156	8780.66
716.499	8779.08
716.843	8791.96
717.186	8776.14
717.53	8811.62
717.873	8784.5
718.216	8701.79
718.559	8705.63
718.902	8686.2
719.246	8725.52
719.589	8624.5
719.932	8616.82
720.275	8605.3
720.617	8610.72
720.96	8580.66
721.303	8570.27
721.646	8597.16
721.989	8553.09
722.331	8583.38
722.674	8512.64
723.016	8510.84
723.359	8598.29
723.701	8566.88
724.044	8492.08
724.386	8453.66
724.729	8448.46
725.071	8374.34
725.413	8433.78
725.755	8421.57
726.097	8407.11
726.439	8361.01
726.782	8357.85
727.124	8368.69
727.465	8369.6
727.807	8295.7
728.149	8289.15
728.491	8290.73
728.833	8303.16
729.175	8274.01
729.516	8241.01
729.858	8265.42
730.199	8220.67
730.541	8241.24
730.882	8196.27
731.224	8217.51
731.565	8155.82
731.906	8180.9
732.248	8189.94
732.589	8140.45
732.93	8081.92
733.271	8143.16
733.612	8139.09
733.953	8092.32
734.294	8084.63
734.635	8051.19
734.976	8101.35
735.317	8005.31
735.658	8079.21
735.999	8018.42
736.339	8050.51
736.68	8054.12
737.021	8020
737.361	7982.26
737.702	7950.4
738.042	7981.36
738.383	7946.78
738.723	7990.17
739.063	7894.35
739.404	7935.94
739.744	7876.28
740.084	7837.86
740.424	7863.17
740.764	7911.3
741.104	7952.66
741.444	7848.71
741.784	7835.37
742.124	7829.95
742.464	7849.16
742.804	7815.03
743.143	7761.48
743.483	7844.86
743.823	7711.76
744.162	7746.79
744.502	7756.73
744.841	7709.05
745.181	7796.05
745.52	7722.83
745.86	7718.31
746.199	7663.4
746.538	7668.6
746.877	7774.13
747.216	7597.41
747.556	7647.13
747.895	7702.27
748.234	7644.19
748.573	7606.9
748.911	7608.71
749.25	7620.46
749.589	7580.92
749.928	7580.69
750.267	7635.83
750.605	7587.7
750.944	7549.73
751.283	7450.75
751.621	7551.54
751.96	7529.17
752.298	7441.03
752.636	7448.72
752.975	7425.67
753.313	7303.41
753.651	7418.21
753.989	7373.24
754.327	7330.98
754.666	7309.96
755.004	7307.48
755.342	7274.26
755.679	7221.6
756.017	7208.72
756.355	7262.51
756.693	7235.16
757.031	7307.48
757.368	7238.55
757.706	7161.72
758.044	7193.36
758.381	7215.28
758.719	7198.55
759.056	7150.87
759.394	7175.05
759.731	7061.16
760.068	7039.91
760.405	7067.71
760.743	6995.17
761.08	6994.27
761.417	6947.03
761.754	6981.38
762.091	6907.04
762.428	6952.68
762.765	6882.18
763.102	6905.23
763.438	6838.34
763.775	6880.14
764.112	6882.86
764.449	6856.42
764.785	6792.01
765.122	6813.93
765.458	6747.94
765.795	6737.55
766.131	6678.34
766.467	6660.49
766.804	6658.23
767.14	6689.41
767.476	6631.79
767.812	6603.77
768.148	6567.84
768.485	6634.73
768.821	6570.1
769.157	6545.01
769.492	6495.97
769.828	6493.49
770.164	6410.33
770.5	6440.38
770.836	6420.5
771.171	6346.15
771.507	6392.7
771.842	6332.81
772.178	6343.66
772.513	6361.97
772.849	6340.05
773.184	6271.12
773.519	6295.3
773.855	6220.95
774.19	6213.27
774.525	6169.88
774.86	6144.57
775.195	6236.32
775.53	6206.26
775.865	6160.39
776.2	6112.03
776.535	6049.21
776.87	6046.72
777.205	6037.91
777.539	5986.16
777.874	6038.58
778.209	5975.08
778.543	5965.82
778.878	5936.67
779.212	5901.64
779.547	5916.78
779.881	5929.66
780.215	5859.61
780.55	5877.01
780.884	5852.6
781.218	5825.48
781.552	5809.89
781.886	5797.01
782.22	5724.02
782.554	5748.42
782.888	5721.08
783.222	5679.27
783.556	5629.56
783.889	5644.24
784.223	5607.64
784.557	5592.95
784.89	5622.55
785.224	5545.49
785.557	5549.56
785.891	5532.38
786.224	5516.34
786.558	5475.21
786.891	5501.42
787.224	5454.42
787.557	5448.32
787.891	5425.27
788.224	5407.87
788.557	5373.97
788.89	5353.18
789.223	5350.69
789.556	5321.99
789.888	5345.27
790.221	5292.39
790.554	5252.16
790.887	5253.52
791.219	5245.38
791.552	5219.85
791.884	5198.83
792.217	5220.53
792.549	5214.43
792.882	5178.49
793.214	5140.75
793.546	5163.35
793.879	5099.63
794.211	5075.67
794.543	5090.81
794.875	5103.24
795.207	5096.46
795.539	5075.9
795.871	4984.37
796.203	4997.03
796.535	4960.87
796.867	4938.05
797.198	4964.94
797.53	4970.14
797.862	4918.84
798.193	4914.09
798.525	4933.53
798.856	4906.64
799.188	4884.72
799.519	4870.71
799.85	4850.82
800.182	4781.22
800.513	4857.82
800.844	4816.02
801.175	4832.51
801.506	4810.59
801.837	4778.28
802.168	4780.31
802.499	4716.59
802.83	4693.08
803.161	4702.12
803.491	4683.59
803.822	4699.64
804.153	4686.08
804.483	4625.29
804.814	4631.84
805.145	4631.39
805.475	4616.47
805.805	4626.19
806.136	4570.6
806.466	4620.77
806.796	4538.96
807.126	4557.72
807.457	4555.23
807.787	4585.74
808.117	4556.59
808.447	4518.85
808.777	4530.6
809.107	4512.07
809.436	4454.22
809.766	4520.88
810.096	4514.33
810.426	4447.21
810.755	4480.66
811.085	4439.3
811.414	4403.15
811.744	4419.19
812.073	4403.82
812.403	4405.18
812.732	4375.13
813.061	4365.63
813.39	4372.41
813.719	4346.2
814.049	4375.8
814.378	4362.92
814.707	4327.44
815.036	4311.4
815.365	4269.37
815.693	4279.31
816.022	4277.73
816.351	4235.47
816.68	4241.12
817.008	4225.07
817.337	4192.31
817.665	4183.49
817.994	4181.91
818.322	4191.4
818.651	4212.42
818.979	4169.25
819.307	4188.01
819.636	4130.61
819.964	4150.5
820.292	4186.2
820.62	4137.84
820.948	4133.55
821.276	4179.88
821.604	4153.44
821.932	4190.72
822.259	4159.99
822.587	4169.71
822.915	4132.87
823.243	4132.87
823.57	4161.12
823.898	4094.91
824.225	4078.64
824.553	4078.18
824.88	4122.02
825.207	4082.25
825.535	4128.58
825.862	4133.1
826.189	4138.07
826.516	4107.56
826.843	4092.87
827.17	4124.28
827.497	4113.21
827.824	4142.14
828.151	4109.82
828.478	4136.71
828.805	4144.62
829.131	4090.84
829.458	4115.92
829.785	4063.04
830.111	4122.25
830.438	4140.78
830.764	4076.6
831.09	4103.27
831.417	4075.25
831.743	4089.03
832.069	4133.55
832.395	4063.04
832.722	4103.95
833.048	4073.66
833.374	4152.76
833.7	4066.43
834.026	4032.31
834.351	4073.21
834.677	4060.56
835.003	4075.25
835.329	4059.88
835.654	4032.31
835.98	4012.2
836.306	4083.83
836.631	3999.77
836.956	4014.46
837.282	4030.28
837.607	4017.85
837.932	4011.52
838.258	4012.42
838.583	4004.74
838.908	3959.32
839.233	3978.53
839.558	3992.08
839.883	3965.42
840.208	3957.51
840.533	3972.88
840.858	3933.78
841.182	3992.76
841.507	3923.39
841.832	3955.48
842.156	3930.17
842.481	3962.93
842.805	3885.65
843.13	3909.15
843.454	3886.32
843.778	3891.3
844.103	3822.6
844.427	3874.8
844.751	3878.19
845.075	3811.07
845.399	3854.46
845.723	3829.83
846.047	3823.73
846.371	3821.24
846.695	3835.7
847.019	3756.38
847.343	3769.49
847.666	3751.41
847.99	3710.51
848.313	3701.02
848.637	3702.15
848.96	3698.31
849.284	3736.95
849.607	3672.32
849.931	3670.51
850.254	3639.78
850.577	3616.73
850.9	3607.69
851.223	3575.6
851.546	3557.07
851.869	3572.66
852.192	3558.42
852.515	3563.62
852.838	3515.71
853.161	3583.51
853.483	3514.13
853.806	3531.53
854.129	3550.06
854.451	3475.26
854.774	3516.39
855.096	3471.65
855.419	3451.31
855.741	3429.84
856.063	3437.52
856.385	3430.07
856.708	3423.06
857.03	3407.47
857.352	3393.23
857.674	3367.02
857.996	3398.65
858.318	3391.42
858.64	3369.28
858.961	3357.75
859.283	3334.02
859.605	3321.14
859.926	3361.14
860.248	3324.76
860.57	3347.81
860.891	3334.47
861.212	3286.11
861.534	3279.79
861.855	3281.82
862.176	3302.61
862.498	3302.84
862.819	3304.42
863.14	3269.17
863.461	3252.22
863.782	3255.38
864.103	3218.55
864.424	3263.74
864.745	3267.58
865.065	3251.99
865.386	3231.43
865.707	3249.05
866.027	3210.86
866.348	3215.61
866.668	3222.61
866.989	3211.77
867.309	3195.95
867.63	3211.99
867.95	3179.9
868.27	3160.24
868.59	3197.3
868.91	3146.68
869.23	3140.36
869.55	3166.34
869.87	3130.64
870.19	3162.73
870.51	3160.02
870.83	3178.32
871.15	3156.85
871.469	3140.36
871.789	3138.32
872.109	3110.3
872.428	3091.99
872.748	3107.59
873.067	3146.91
873.386	3122.95
873.706	3137.64
874.025	3120.24
874.344	3088.83
874.663	3096.51
874.982	3093.35
875.301	3099
875.62	3063.52
875.939	3085.22
876.258	3075.5
876.577	3077.98
876.896	3048.15
877.214	3000.7
877.533	3057.42
877.852	3039.57
878.17	3048.83
878.489	3018.32
878.807	3022.84
879.125	3042.96
879.444	3021.26
879.762	3037.08
880.08	3007.7
880.398	3024.65
880.716	3012
881.034	2981.94
881.352	3035.05
881.67	3033.01
881.988	2991.66
882.306	2958.21
882.624	2972.45
882.941	2942.62
883.259	2998.21
883.577	2946.69
883.894	2937.2
884.212	2903.53
884.529	2922.06
884.846	2894.71
885.164	2921.15
885.481	2896.75
885.798	2906.92
886.115	2900.59
886.432	2935.16
886.75	2861.94
887.067	2885.22
887.383	2869.18
887.7	2895.84
888.017	2832.79
888.334	2883.41
888.651	2859.68
888.967	2850.19
889.284	2853.58
889.6	2817.43
889.917	2819.46
890.233	2819.91
890.55	2759.12
890.866	2806.58
891.182	2774.72
891.498	2757.09
891.815	2779.91
892.131	2771.33
892.447	2761.83
892.763	2749.63
893.079	2739.46
893.395	2754.6
893.71	2727.71
894.026	2718.45
894.342	2744.66
894.657	2706.24
894.973	2730.2
895.289	2707.82
895.604	2684.1
895.92	2663.98
896.235	2679.12
896.55	2682.51
896.865	2676.41
897.181	2657.2
897.496	2638
897.811	2653.14
898.126	2627.15
898.441	2635.51
898.756	2646.58
899.071	2620.59
899.386	2591.22
899.7	2632.57
900.015	2614.72
900.33	2595.96
900.644	2575.85
900.959	2597.54
901.273	2559.35
901.588	2551.9
901.902	2524.55
902.216	2534.27
902.531	2531.78
902.845	2529.3
903.159	2508.51
903.473	2483.65
903.787	2500.82
904.101	2462.86
904.415	2472.8
904.729	2479.13
905.042	2455.18
905.356	2440.71
905.67	2443.88
905.984	2442.52
906.297	2450.43
906.611	2434.61
906.924	2415.63
907.237	2391
907.551	2393.71
907.864	2403.43
908.177	2382.18
908.491	2369.98
908.804	2390.09
909.117	2376.99
909.43	2360.71
909.743	2375.18
910.056	2367.27
910.368	2367.49
910.681	2339.25
910.994	2326.59
911.307	2274.16
911.619	2323.88
911.932	2305.35
912.244	2250.21
912.557	2261.06
912.869	2261.06
913.181	2267.16
913.494	2272.13
913.806	2222.41
914.118	2215.18
914.43	2217.89
914.742	2209.53
915.054	2211.57
915.366	2193.49
915.678	2159.14
915.99	2180.83
916.302	2186.71
916.613	2161.62
916.925	2167.27
917.236	2124.11
917.548	2166.82
917.859	2150.32
918.171	2121.63
918.482	2137.22
918.794	2105.13
919.105	2090.21
919.416	2070.33
919.727	2091.57
920.038	2082.76
920.349	2063.77
920.66	2070.1
920.971	2062.19
921.282	2047.28
921.593	2061.97
921.903	2053.6
922.214	2023.77
922.525	2003.21
922.835	2012.48
923.146	2023.77
923.456	1979.26
923.767	1996.2
924.077	2023.1
924.387	1994.17
924.697	1945.36
925.008	1969.31
925.318	2005.92
925.628	1961.86
925.938	1938.13
926.248	1931.57
926.558	1912.14
926.867	1927.28
927.177	1918.24
927.487	1886.15
927.796	1892.03
928.106	1910.11
928.416	1928.41
928.725	1874.63
929.034	1873.27
929.344	1871.46
929.653	1865.13
929.962	1845.25
930.271	1848.41
930.581	1833.05
930.89	1803.89
931.199	1856.1
931.508	1856.77
931.817	1822.2
932.125	1795.98
932.434	1806.61
932.743	1794.18
933.051	1809.77
933.36	1795.08
933.669	1782.42
933.977	1765.48
934.286	1770
934.594	1764.35
934.902	1756.66
935.21	1739.26
935.519	1774.06
935.827	1736.1
936.135	1711.01
936.443	1715.08
936.751	1712.37
937.059	1708.75
937.367	1683.9
937.674	1694.52
937.982	1690.22
938.29	1666.5
938.597	1676.44
938.905	1677.12
939.213	1627.85
939.52	1654.97
939.827	1644.8
940.135	1644.8
940.442	1621.53
940.749	1641.86
941.056	1638.02
941.363	1619.27
941.67	1609.1
941.977	1593.96
942.284	1585.14
942.591	1578.36
942.898	1586.5
943.205	1609.1
943.511	1567.52
943.818	1583.11
944.125	1551.02
944.431	1579.27
944.738	1566.39
945.044	1574.29
945.35	1541.98
945.657	1525.26
945.963	1530
946.269	1511.02
946.575	1550.34
946.881	1515.09
947.187	1502.66
947.493	1505.6
947.799	1513.96
948.105	1496.78
948.41	1506.95
948.716	1483
949.022	1495.65
949.327	1477.35
949.633	1464.47
949.938	1480.06
950.244	1461.08
950.549	1443.22
950.854	1480.74
951.16	1428.54
951.465	1438.48
951.77	1429.67
952.075	1421.53
952.38	1418.59
952.685	1415.43
952.99	1395.32
953.294	1407.52
953.599	1398.25
953.904	1388.08
954.209	1405.03
954.513	1379.5
954.818	1391.93
955.122	1380.63
955.426	1351.02
955.731	1359.16
956.035	1370.46
956.339	1352.15
956.643	1357.35
956.948	1330.01
957.252	1355.32
957.556	1371.36
957.86	1338.14
958.163	1343.34
958.467	1323.68
958.771	1300.4
959.075	1306.05
959.378	1319.84
959.682	1348.99
959.985	1279.16
960.289	1273.51
960.592	1273.96
960.896	1290.91
961.199	1285.49
961.502	1313.51
961.805	1308.31
962.108	1282.55
962.411	1263.34
962.714	1256.56
963.017	1265.6
963.32	1245.49
963.623	1254.3
963.926	1226.06
964.228	1237.81
964.531	1232.83
964.833	1239.84
965.136	1243.91
965.438	1216.79
965.741	1231.7
966.043	1209.56
966.345	1218.15
966.648	1193.74
966.95	1201.88
967.252	1204.81
967.554	1208.88
967.856	1211.82
968.158	1186.96
968.46	1197.81
968.761	1166.17
969.063	1176.34
969.365	1169.33
969.666	1158.49
969.968	1167.53
970.269	1153.74
970.571	1144.48
970.872	1158.26
971.174	1169.33
971.475	1143.12
971.776	1124.59
972.077	1122.78
972.378	1123.91
972.679	1141.09
972.98	1137.47
973.281	1150.13
973.582	1091.82
973.883	1077.58
974.183	1088.43
974.484	1121.65
974.785	1098.38
975.085	1087.08
975.386	1078.71
975.686	1085.27
975.986	1079.17
976.287	1072.39
976.587	1076.23
976.887	1077.58
977.187	1054.31
977.487	1057.25
977.787	1045.04
978.087	1058.38
978.387	1063.57
978.687	1045.72
978.987	1010.24
979.286	1030.58
979.586	1034.65
979.885	1026.74
980.185	1051.14
980.484	1007.53
980.784	1032.84
981.083	1034.42
981.382	1004.59
981.682	1010.02
981.981	1014.54
982.28	1011.82
982.579	993.52
982.878	989.23
983.177	998.72
983.475	1031.03
983.774	999.17
984.073	1000.52
984.372	989.68
984.67	970.69
984.969	965.27
985.267	993.97
985.566	976.8
985.864	974.76
986.162	991.71
986.461	950.58
986.759	946.51
987.057	948.55
987.355	955.1
987.653	959.85
987.951	950.58
988.249	957.36
988.547	920.07
988.844	929.11
989.142	920.75
989.44	934.54
989.737	925.5
990.035	908.78
990.332	912.84
990.63	908.78
990.927	909.91
991.224	912.84
991.521	930.02
991.819	885.5
992.116	914.43
992.413	877.14
992.71	892.96
993.006	889.34
993.303	909
993.6	886.86
993.897	901.54
994.193	864.71
994.49	874.2
994.787	864.93
995.083	860.87
995.379	864.26
995.676	877.59
995.972	866.74
996.268	855.9
996.565	857.48
996.861	834.65
997.157	855.9
997.453	863.35
997.749	843.69
998.044	837.82
998.34	845.5
998.636	847.99
998.932	836.46
999.227	835.33
999.523	854.77
999.818	813.18
1000.114	814.09
1000.409	828.33
1000.704	806.63
1001	823.81
1001.295	813.41
1001.59	779.29
1001.885	801.66
1002.18	790.81
1002.475	798.5
1002.77	791.04
1003.065	800.08
1003.359	770.93
1003.654	801.21
1003.949	790.36
1004.243	777.71
1004.538	780.42
1004.832	758.05
1005.127	754.43
1005.421	761.89
1005.715	767.99
1006.009	744.71
1006.304	747.65
1006.598	758.72
1006.892	745.39
1007.186	752.17
1007.48	760.3
1007.773	744.26
1008.067	734.09
1008.361	728.89
1008.655	720.31
1008.948	731.38
1009.242	714.66
1009.535	723.24
1009.829	694.54
1010.122	731.38
1010.415	717.37
1010.708	719.85
1011.001	710.81
1011.295	694.32
1011.588	706.97
1011.881	695.9
1012.173	690.93
1012.466	697.03
1012.759	680.76
1013.052	684.83
1013.344	703.81
1013.637	703.13
1013.93	681.21
1014.222	676.24
1014.514	672.4
1014.807	677.14
1015.099	686.86
1015.391	669.69
1015.683	664.49
1015.976	669.01
1016.268	669.01
1016.56	645.28
1016.851	661.55
1017.143	665.17
1017.435	646.41
1017.727	646.64
1018.018	650.03
1018.31	646.18
1018.602	655.45
1018.893	658.84
1019.185	627.88
1019.476	640.99
1019.767	626.75
1020.058	608.9
1020.35	615
1020.641	623.59
1020.932	620.42
1021.223	622.68
1021.514	621.55
1021.804	630.36
1022.095	616.81
1022.386	608.44
1022.677	598.05
1022.967	590.37
1023.258	606.18
1023.548	584.49
1023.839	601.66
1024.129	598.28
1024.419	603.92
1024.709	589.46
1025	576.35
1025.29	580.42
1025.58	572.74
1025.87	575.22
1026.16	570.71
1026.449	574.32
1026.739	572.74
1027.029	559.86
1027.319	574.1
1027.608	572.51
1027.898	568.67
1028.187	550.82
1028.477	563.02
1028.766	566.64
1029.055	584.49
1029.344	541.1
1029.634	537.26
1029.923	540.88
1030.212	538.16
1030.501	560.99
1030.79	570.25
1031.078	539.97
1031.367	528.9
1031.656	526.86
1031.945	524.6
1032.233	560.08
1032.522	530.71
1032.81	526.19
1033.099	513.98
1033.387	520.09
1033.675	506.3
1033.963	501.78
1034.251	504.49
1034.54	498.16
1034.828	485.74
1035.116	505.85
1035.403	513.08
1035.691	498.16
1035.979	528.22
1036.267	495.91
1036.554	467.43
1036.842	481.89
1037.129	488.9
1037.417	495.23
1037.704	496.58
1037.992	499.75
1038.279	497.49
1038.566	490.26
1038.853	490.26
1039.14	490.26
