Data from black_plastic_tray_FLMS001491_023.txt Node
Date: Tue Feb 07 10:39:30 GMT 2017
User: dcchb
Spectrometer: FLMS00149
Trigger mode: 0
Integration Time (sec): 2.000000E-2
Scans to average: 10
Electric dark correction enabled: true
Nonlinearity correction enabled: false
Boxcar width: 0
XAxis mode: Wavelengths
Number of Pixels in Spectrum: 2048
>>>>>Begin Spectral Data<<<<<
341.393	-1.13
341.776	-1.13
342.16	-1.13
342.543	-67.57
342.927	-68.25
343.31	-83.39
343.693	-55.37
344.077	-65.76
344.46	-58.08
344.843	-52.88
345.226	-30.06
345.61	-40.45
345.993	-11.75
346.376	-1.13
346.759	-3.16
347.142	22.15
347.525	43.84
347.908	72.31
348.291	90.62
348.674	77.74
349.057	95.36
349.44	108.02
349.823	135.59
350.206	153.89
350.588	198.19
350.971	200.45
351.354	213.55
351.737	218.75
352.119	223.95
352.502	249.03
352.884	275.02
353.267	271.63
353.65	284.06
354.032	299.43
354.414	305.3
354.797	287.68
355.179	301.01
355.562	302.59
355.944	324.06
356.326	325.19
356.709	317.73
357.091	313.89
357.473	332.87
357.855	320.44
358.238	300.33
358.62	331.29
359.002	348.92
359.384	320.44
359.766	342.36
360.148	338.07
360.53	334.23
360.912	325.87
361.294	310.5
361.676	335.81
362.057	331.74
362.439	330.61
362.821	321.8
363.203	334.23
363.584	287.9
363.966	296.26
364.348	313.21
364.729	297.85
365.111	302.36
365.493	310.5
365.874	289.94
366.256	305.3
366.637	311.63
367.019	298.75
367.4	298.52
367.781	319.54
368.163	321.8
368.544	308.01
368.925	312.31
369.306	301.46
369.688	292.2
370.069	313.21
370.45	311.18
370.831	304.17
371.212	318.41
371.593	310.95
371.974	303.27
372.355	306.43
372.736	323.61
373.117	318.86
373.498	303.72
373.879	298.07
374.26	307.34
374.641	315.92
375.021	307.34
375.402	305.53
375.783	301.24
376.163	335.81
376.544	331.52
376.925	314.34
377.305	333.32
377.686	317.96
378.066	316.15
378.447	322.93
378.827	323.61
379.208	331.74
379.588	335.36
379.968	334
380.349	365.87
380.729	334.45
381.109	350.05
381.489	351.18
381.87	336.04
382.25	341.23
382.63	351.18
383.01	319.77
383.39	338.97
383.77	367.22
384.15	340.78
384.53	347.34
384.91	361.12
385.29	370.39
385.67	361.12
386.049	396.15
386.429	351.4
386.809	371.29
387.189	378.3
387.568	369.26
387.948	386.43
388.328	380.78
388.707	378.3
389.087	368.13
389.466	362.93
389.846	372.87
390.225	369.71
390.605	382.36
390.984	381.68
391.363	399.31
391.743	413.77
392.122	381.01
392.501	401.35
392.881	395.47
393.26	403.61
393.639	392.76
394.018	402.25
394.397	414
394.776	417.39
395.155	428.01
395.534	413.55
395.913	396.83
396.292	427.11
396.671	428.46
397.05	395.24
397.429	405.87
397.808	417.16
398.186	411.06
398.565	424.4
398.944	419.65
399.323	444.28
399.701	419.88
400.08	450.61
400.458	448.8
400.837	444.73
401.215	461.91
401.594	448.58
401.972	454.45
402.351	445.86
402.729	467.11
403.107	475.02
403.486	471.17
403.864	469.82
404.242	447.45
404.62	476.6
404.999	480.21
405.377	460.1
405.755	500.1
406.133	496.48
406.511	483.83
406.889	473.89
407.267	483.15
407.645	490.83
408.023	510.5
408.401	492.19
408.779	503.26
409.156	496.03
409.534	502.81
409.912	520.21
410.29	522.47
410.667	539.65
411.045	524.05
411.422	528.8
411.8	551.17
412.178	546.65
412.555	552.98
412.933	528.57
413.31	553.43
413.687	560.21
414.065	565.63
414.442	559.31
414.819	550.95
415.197	566.09
415.574	584.84
415.951	580.32
416.328	587.78
416.705	593.66
417.082	611.51
417.46	587.33
417.837	629.59
418.214	604.28
418.591	619.64
418.967	604.73
419.344	615.58
419.721	631.62
420.098	630.94
420.475	653.77
420.852	625.52
421.228	639.76
421.605	659.64
421.982	657.84
422.358	640.21
422.735	678.17
423.111	674.33
423.488	666.42
423.864	677.95
424.241	675.01
424.617	682.24
424.994	696.93
425.37	693.54
425.746	693.09
426.123	691.51
426.499	723.82
426.875	697.83
427.251	713.43
427.627	726.08
428.003	739.87
428.379	749.13
428.756	757.49
429.132	766.53
429.507	783.26
429.883	780.77
430.259	780.09
430.635	774.44
431.011	799.3
431.387	801.33
431.763	820.54
432.138	817.15
432.514	837.49
432.89	826.87
433.265	834.55
433.641	853.08
434.016	862.12
434.392	872.97
434.767	886.98
435.143	885.4
435.518	891.28
435.894	878.39
436.269	887.43
436.644	924.04
437.02	905.29
437.395	919.07
437.77	934.66
438.145	934.21
438.52	972.86
438.895	959.52
439.271	962.46
439.646	974.66
440.021	979.64
440.395	1010.14
440.77	979.64
441.145	974.21
441.52	990.71
441.895	1009.24
442.27	1018.05
442.645	1021.67
443.019	1027.09
443.394	1037.26
443.769	1034.1
444.143	1040.2
444.518	1053.53
444.892	1055.34
445.267	1054.89
445.641	1106.19
446.016	1041.33
446.39	1083.59
446.764	1069.58
447.139	1090.82
447.513	1108.67
447.887	1107.54
448.262	1129.46
448.636	1125.39
449.01	1130.14
449.384	1155.45
449.758	1137.82
450.132	1166.52
450.506	1168.1
450.88	1155.22
451.254	1166.07
451.628	1151.16
452.002	1196.35
452.376	1204.71
452.75	1218.27
453.123	1235.9
453.497	1244.26
453.871	1244.71
454.244	1282
454.618	1291.27
454.992	1314.54
455.365	1293.98
455.739	1308.89
456.112	1343.02
456.486	1356.35
456.859	1371.04
457.232	1353.41
457.606	1367.2
457.979	1370.81
458.352	1419.17
458.725	1451.94
459.099	1405.61
459.472	1460.98
459.845	1484.71
460.218	1492.16
460.591	1488.32
460.964	1504.14
461.337	1531.71
461.71	1550.24
462.083	1571.94
462.456	1606.06
462.829	1573.97
463.201	1623.01
463.574	1614.87
463.947	1639.96
464.32	1653.97
464.692	1691.93
465.065	1678.15
465.438	1725.38
465.81	1767.86
466.183	1763.12
466.555	1794.3
466.928	1797.01
467.3	1800.4
467.672	1801.08
468.045	1879.27
468.417	1877.01
468.789	1897.8
469.161	1917.92
469.534	1948.42
469.906	1973.06
470.278	1992.49
470.65	1986.39
471.022	2041.08
471.394	2064.8
471.766	2091.24
472.138	2132.6
472.51	2121.53
472.882	2172.15
473.253	2192.94
473.625	2241.07
473.997	2281.3
474.369	2292.14
474.74	2280.17
475.112	2323.1
475.484	2373.27
475.855	2387.06
476.227	2468.41
476.598	2462.76
476.97	2512.7
477.341	2565.36
477.713	2572.36
478.084	2592.47
478.455	2673.6
478.827	2715.18
479.198	2750.21
479.569	2791.11
479.94	2799.25
480.311	2873.14
480.682	2892.13
481.053	2981.39
481.424	3022.29
481.795	3068.39
482.166	3096.87
482.537	3125.79
482.908	3192.23
483.279	3177.77
483.65	3319.69
484.021	3322.4
484.391	3372.11
484.762	3398.55
485.133	3426.12
485.503	3498.67
485.874	3560.58
486.244	3562.39
486.615	3611.66
486.985	3669.73
487.356	3740.24
487.726	3730.3
488.097	3818.43
488.467	3856.85
488.837	3963.29
489.207	3985.21
489.578	4038.09
489.948	4063.85
490.318	4099.33
490.688	4094.13
491.058	4189.04
491.428	4198.53
491.798	4278.98
492.168	4367.57
492.538	4311.53
492.908	4434.69
493.278	4458.64
493.648	4506.77
494.017	4516.49
494.387	4574.34
494.757	4629.71
495.126	4684.17
495.496	4713.1
495.866	4721.23
496.235	4788.8
496.605	4790.16
496.974	4850.04
497.344	4908.12
497.713	4868.8
498.082	4949.93
498.452	4990.6
498.821	5043.71
499.19	5070.38
499.559	5097.27
499.928	5125.97
500.298	5178.85
500.667	5182.46
501.036	5218.85
501.405	5256.81
501.774	5313.98
502.143	5290.93
502.512	5367.77
502.88	5383.59
503.249	5377.26
503.618	5472.62
503.987	5499.97
504.356	5452.51
504.724	5534.32
505.093	5583.36
505.462	5573.86
505.83	5603.24
506.199	5662.9
506.567	5777.02
506.936	5731.6
507.304	5860.64
507.672	5823.8
508.041	5930.47
508.409	5946.74
508.777	5915.32
509.145	6010.69
509.514	6046.85
509.882	6037.13
510.25	6087.52
510.618	6111.03
510.986	6133.85
511.354	6197.58
511.722	6279.83
512.09	6338.82
512.458	6362.77
512.826	6409.32
513.193	6404.35
513.561	6423.33
513.929	6481.19
514.297	6558.25
514.664	6562.09
515.032	6589.88
515.4	6716.21
515.767	6669.66
516.135	6799.14
516.502	6757.79
516.869	6849.09
517.237	6906.94
517.604	6845.92
517.972	6982.42
518.339	7010.21
518.706	7092.92
519.073	7056.76
519.44	7135.63
519.808	7188.96
520.175	7206.59
520.542	7339.92
520.909	7379.24
521.276	7383.08
521.643	7448.17
522.009	7508.73
522.376	7667.6
522.743	7617.65
523.11	7695.16
523.477	7837.99
523.843	7763.64
524.21	7932.22
524.577	7919.57
524.943	7957.98
525.31	7993.01
525.676	8122.95
526.043	8102.61
526.409	8161.59
526.776	8199.56
527.142	8233.91
527.508	8383.06
527.874	8408.37
528.241	8428.25
528.607	8485.88
528.973	8544.18
529.339	8564.29
529.705	8661.02
530.071	8766.32
530.437	8811.07
530.803	8817.17
531.169	8828.24
531.535	8874.57
531.901	8910.73
532.267	9016.71
532.632	9073.21
532.998	8995.24
533.364	9126.99
533.73	9174.67
534.095	9224.84
534.461	9232.53
534.826	9335.8
535.192	9286.54
535.557	9416.48
535.923	9360.43
536.288	9430.94
536.653	9481.33
537.019	9418.96
537.384	9465.74
537.749	9582.57
538.114	9595.23
538.479	9672.29
538.845	9703.25
539.21	9661.89
539.575	9723.13
539.94	9737.37
540.305	9857.14
540.67	9825.28
541.034	9865.73
541.399	9839.06
541.764	9894.43
542.129	9966.97
542.494	9973.52
542.858	10006.06
543.223	9957.7
543.587	10112.95
543.952	10110.47
544.316	10181.88
544.681	10099.62
545.045	10153.41
545.41	10235.44
545.774	10236.79
546.138	10295.1
546.503	10338.94
546.867	10283.8
547.231	10433.17
547.595	10458.03
547.959	10498.71
548.324	10518.82
548.688	10534.19
549.052	10543.68
549.416	10587.07
549.779	10568.08
550.143	10589.33
550.507	10718.36
550.871	10748.87
551.235	10781.64
551.599	10842.65
551.962	10873.61
552.326	10884.01
552.689	11016.66
553.053	10985.7
553.417	10990.9
553.78	11117
554.143	11079.48
554.507	11126.71
554.87	11128.97
555.234	11296.43
555.597	11182.08
555.96	11244
556.323	11343.43
556.686	11346.59
557.05	11348.85
557.413	11489.64
557.776	11446.7
558.139	11591.79
558.502	11605.12
558.865	11698.45
559.228	11713.59
559.59	11766.7
559.953	11781.16
560.316	11861.84
560.679	11856.19
561.041	11994.49
561.404	12090.08
561.767	12050.98
562.129	12029.97
562.492	12184.54
562.854	12184.09
563.217	12193.8
563.579	12208.49
563.941	12371.2
564.304	12445.55
564.666	12406.68
565.028	12435.15
565.39	12579.1
565.753	12553.79
566.115	12699.33
566.477	12662.72
566.839	12677.86
567.201	12813.22
567.563	12817.74
567.925	12877.18
568.287	12905.65
568.648	12950.39
569.01	12936.38
569.372	13066.55
569.734	13029.94
570.095	13085.76
570.457	13238.75
570.819	13197.39
571.18	13267.45
571.542	13279.42
571.903	13357.16
572.265	13391.51
572.626	13351.06
572.987	13454.11
573.349	13491.62
573.71	13482.58
574.071	13459.53
574.432	13592.18
574.794	13642.13
575.155	13608.91
575.516	13561.45
575.877	13655.91
576.238	13684.61
576.599	13792.18
576.96	13740.43
577.32	13668.12
577.681	13842.12
578.042	13864.95
578.403	13941.1
578.763	13917.37
579.124	13895.45
579.485	13998.05
579.845	14000.54
580.206	13972.51
580.566	13939.52
580.927	13949.92
581.287	14024.04
581.648	13962.34
582.008	14119.63
582.368	14035.34
582.728	14089.8
583.089	14033.53
583.449	14009.8
583.809	14096.35
584.169	14072.85
584.529	14035.34
584.889	14218.16
585.249	14099.97
585.609	14012.74
585.969	14059.74
586.329	14105.62
586.688	14148.78
587.048	14222
587.408	13991.72
587.768	14099.74
588.127	14126.18
588.487	14057.48
588.846	14160.76
589.206	14043.25
589.565	14065.62
589.925	14110.82
590.284	14117.37
590.643	14127.76
591.003	14109.91
591.362	14209.34
591.721	14180.42
592.08	14123.24
592.44	14168.67
592.799	14171.38
593.158	14145.39
593.517	14175.22
593.876	14264.03
594.235	14205.28
594.593	14158.05
594.952	14136.8
595.311	14104.71
595.67	14153.3
596.029	14195.56
596.387	14258.61
596.746	14289.12
597.104	14194.43
597.463	14294.99
597.822	14162.34
598.18	14163.47
598.538	14137.93
598.897	14301.32
599.255	14161.89
599.613	14420.86
599.972	14275.78
600.33	14323.01
600.688	14310.81
601.046	14335.67
601.404	14350.36
601.762	14354.65
602.12	14412.73
602.478	14320.3
602.836	14427.64
603.194	14389.23
603.552	14380.19
603.91	14306.29
604.268	14351.71
604.625	14367.08
604.983	14360.75
605.341	14455.21
605.698	14398.72
606.056	14378.38
606.413	14402.79
606.771	14463.35
607.128	14466.96
607.485	14387.19
607.843	14356.68
608.2	14485.49
608.557	14601.2
608.914	14580.41
609.272	14622.89
609.629	14587.41
609.986	14544.7
610.343	14554.19
610.7	14648.65
611.057	14694.98
611.414	14688.88
611.771	14652.72
612.127	14737.01
612.484	14654.76
612.841	14743.57
613.198	14788.99
613.554	14773.17
613.911	14835.09
614.267	14813.4
614.624	14780.85
614.98	14811.14
615.337	14799.16
615.693	14883
616.05	14807.52
616.406	14987.18
616.762	14782.66
617.118	14828.31
617.475	14913.05
617.831	14883
618.187	14965.71
618.543	14853.85
618.899	14990.34
619.255	14946.27
619.611	14939.04
619.967	14985.59
620.323	15040.06
620.678	14995.54
621.034	14920.06
621.39	14882.55
621.746	14927.97
622.101	15135.65
622.457	14965.26
622.812	14998.7
623.168	15015.2
623.523	14998.7
623.879	15074.18
624.234	14986.05
624.589	15002.32
624.945	15086.38
625.3	15038.02
625.655	14960.28
626.01	15044.8
626.365	15063.33
626.72	15052.71
627.075	15018.59
627.43	14935.2
627.785	14959.61
628.14	14976.33
628.495	15029.44
628.85	14992.83
629.205	14907.63
629.559	15096.1
629.914	15027.18
630.269	14994.63
630.623	14852.94
630.978	14851.13
631.332	14924.13
631.687	14992.37
632.041	14813.17
632.396	14947.18
632.75	14845.94
633.104	14804.36
633.459	14714.42
633.813	14779.05
634.167	14818.82
634.521	14720.06
634.875	14729.33
635.229	14729.56
635.583	14562.1
635.937	14649.56
636.291	14546.06
636.645	14648.2
636.999	14600.52
637.352	14595.77
637.706	14491.6
638.06	14574.98
638.413	14536.79
638.767	14529.79
639.121	14453.18
639.474	14412.73
639.828	14501.54
640.181	14481.2
640.534	14440.07
640.888	14423.58
641.241	14380.41
641.594	14403.46
641.947	14445.5
642.301	14363.01
642.654	14309.45
643.007	14334.54
643.36	14352.62
643.713	14265.84
644.066	14309.45
644.419	14362.11
644.771	14226.52
645.124	13993.53
645.477	14033.08
645.83	13911.05
646.182	13836.02
646.535	13739.75
646.888	13833.31
647.24	13710.37
647.593	13760.99
647.945	13741.79
648.298	13679.19
648.65	13616.37
649.002	13587.67
649.355	13632.86
649.707	13594.67
650.059	13773.2
650.411	13839.86
650.763	13906.08
651.115	14018.39
651.467	13870.37
651.819	14026.3
652.171	13919.86
652.523	13909.46
652.875	13798.28
653.227	13805.51
653.578	13939.29
653.93	13930.48
654.282	13720.54
654.633	13731.39
654.985	13785.17
655.337	13805.51
655.688	13818.39
656.039	13787.43
656.391	13688
656.742	13803.25
657.094	13742.46
657.445	13704.72
657.796	13749.24
658.147	13737.27
658.498	13722.35
658.849	13808
659.2	13734.78
659.551	13736.36
659.902	13743.14
660.253	13756.02
660.604	13679.64
660.955	13639.19
661.306	13654.56
661.656	13673.31
662.007	13629.25
662.358	13586.31
662.708	13563.03
663.059	13495.01
663.409	13569.36
663.76	13667.66
664.11	13596.7
664.461	13697.72
664.811	13699.53
665.161	13672.18
665.511	13536.82
665.862	13624.05
666.212	13615.24
666.562	13615.24
666.912	13545.41
667.262	13456.6
667.612	13515.12
667.962	13557.38
668.312	13456.37
668.662	13476.48
669.011	13524.62
669.361	13443.49
669.711	13309.25
670.06	13349.03
670.41	13460.21
670.76	13400.1
671.109	13443.26
671.459	13346.54
671.808	13332.3
672.157	13452.98
672.507	13263.83
672.856	13305.19
673.205	13274
673.554	13224.74
673.904	13242.82
674.253	13331.63
674.602	13251.85
674.951	13145.64
675.3	13038.3
675.649	13237.17
675.998	13346.99
676.346	13323.94
676.695	13363.72
677.044	13236.26
677.393	13188.58
677.741	13262.02
678.09	13222.93
678.438	13094.12
678.787	13122.82
679.135	13171.18
679.484	13070.16
679.832	13128.69
680.181	12989.26
680.529	13100.45
680.877	13144.29
681.225	13050.5
681.573	13047.11
681.922	12973.22
682.27	12941.35
682.618	12975.25
682.966	12958.08
683.314	13035.59
683.661	12977.29
684.009	12940.9
684.357	12798.99
684.705	12856.84
685.053	12916.72
685.4	12871.75
685.748	12805.99
686.095	12748.82
686.443	12643.06
686.79	12573.68
687.138	12608.71
687.485	12737.52
687.832	12543.85
688.18	12492.1
688.527	12464.76
688.874	12492.33
689.221	12480.35
689.568	12498.2
689.915	12429.96
690.262	12387.24
690.609	12378.43
690.956	12361.26
691.303	12271.32
691.65	12143.18
691.997	12228.83
692.344	12087.37
692.69	12208.94
693.037	12132.34
693.383	12091.89
693.73	12163.3
694.077	12071.77
694.423	12118.33
694.769	11985.9
695.116	12022.06
695.462	11983.64
695.808	11865.68
696.155	11951.32
696.501	11830.42
696.847	11807.83
697.193	11759.01
697.539	11813.7
697.885	11650.99
698.231	11628.85
698.577	11694.38
698.923	11705.91
699.269	11511.56
699.614	11533.93
699.96	11452.58
700.306	11393.6
700.651	11389.08
700.997	11356.76
701.342	11382.98
701.688	11342.75
702.033	11384.56
702.379	11334.84
702.724	11333.26
703.069	11432.24
703.415	11155.19
703.76	11240.38
704.105	11198.12
704.45	11249.65
704.795	11133.72
705.14	11126.26
705.485	11131.23
705.83	11039.48
706.175	11009.2
706.52	10967.85
706.865	10956.55
707.209	10955.87
707.554	10856.21
707.899	10858.7
708.243	10848.98
708.588	10825.25
708.932	10759.49
709.277	10815.53
709.621	10749.1
709.966	10664.58
710.31	10729.89
710.654	10639.27
710.998	10712.49
711.342	10653.28
711.687	10690.11
712.031	10630.45
712.375	10563.56
712.719	10525.15
713.063	10553.17
713.407	10529.44
713.75	10516.11
714.094	10455.32
714.438	10331.48
714.782	10335.77
715.125	10323.12
715.469	10433.17
715.812	10330.12
716.156	10303.01
716.499	10227.53
716.843	10296.45
717.186	10291.71
717.53	10263.46
717.873	10334.19
718.216	10251.71
718.559	10215.55
718.902	10185.95
719.246	10225.27
719.589	10170.13
719.932	10126.74
720.275	10160.41
720.617	10122.9
720.96	10135.78
721.303	10094.88
721.646	10067.53
721.989	10022.56
722.331	10098.04
722.674	10101.43
723.016	9985.05
723.359	9955.44
723.701	9982.56
724.044	9887.42
724.386	9913.86
724.729	9910.02
725.071	9862.34
725.413	9822.11
725.755	9860.08
726.097	9740.08
726.439	9717.48
726.782	9743.47
727.124	9799.52
727.465	9750.48
727.807	9709.12
728.149	9665.73
728.491	9771.27
728.833	9742.34
729.175	9667.99
729.516	9646.3
729.858	9692.17
730.199	9710.71
730.541	9596.36
730.882	9613.31
731.224	9604.49
731.565	9505.06
731.906	9544.83
732.248	9514.78
732.589	9553.65
732.93	9495.57
733.271	9473.2
733.612	9507.55
733.953	9500.77
734.294	9448.57
734.635	9383.26
734.976	9423.26
735.317	9375.8
735.658	9402.46
735.999	9398.4
736.339	9347.1
736.68	9332.41
737.021	9287.89
737.361	9264.62
737.702	9291.06
738.042	9307.33
738.383	9208.8
738.723	9209.02
739.063	9133.55
739.404	9166.31
739.744	9145.07
740.084	9112.53
740.424	9112.75
740.764	9112.3
741.104	9170.61
741.444	9060.55
741.784	9086.31
742.124	9085.18
742.464	8992.31
742.804	8967.22
743.143	9032.53
743.483	9021.91
743.823	8995.92
744.162	9008.35
744.502	9018.52
744.841	8993.21
745.181	9049.71
745.52	8977.62
745.86	9019.42
746.199	8989.59
746.538	8924.96
746.877	8902.59
747.216	8859.88
747.556	8862.59
747.895	8913.21
748.234	8844.06
748.573	8840.9
748.911	8810.16
749.25	8821.91
749.589	8783.27
749.928	8748.92
750.267	8755.48
750.605	8725.65
750.944	8762.26
751.283	8762.26
751.621	8701.69
751.96	8683.16
752.298	8676.16
752.636	8651.98
752.975	8636.61
753.313	8686.1
753.651	8631.41
753.989	8610.85
754.327	8596.38
754.666	8513
755.004	8531.53
755.342	8566.55
755.679	8491.75
756.017	8382.38
756.355	8433
756.693	8362.94
757.031	8421.02
757.368	8412.43
757.706	8381.47
758.044	8299.44
758.381	8341.02
758.719	8291.08
759.056	8299.67
759.394	8262.61
759.731	8195.94
760.068	8181.71
760.405	8212.44
760.743	8080.47
761.08	8147.13
761.417	8094.93
761.754	8035.04
762.091	8066.91
762.428	8071.2
762.765	7976.51
763.102	8005.89
763.438	8000.92
763.775	7870.08
764.112	7902.84
764.449	7905.33
764.785	7788.72
765.122	7839.57
765.458	7801.6
765.795	7879.79
766.131	7772.68
766.467	7739.46
766.804	7793.69
767.14	7719.57
767.476	7686.35
767.812	7644.77
768.148	7668.05
768.485	7619.69
768.821	7656.07
769.157	7591.66
769.492	7570.42
769.828	7461.95
770.164	7496.3
770.5	7435.51
770.836	7422.18
771.171	7396.42
771.507	7399.35
771.842	7302.41
772.178	7300.37
772.513	7330.2
772.849	7281.62
773.184	7214.73
773.519	7216.31
773.855	7161.85
774.19	7194.39
774.525	7151
774.86	7149.19
775.195	7186.25
775.53	7119.13
775.865	7069.19
776.2	7002.08
776.535	6934.73
776.87	6960.49
777.205	7011.79
777.539	6966.82
777.874	6909.65
778.209	6826.71
778.543	6859.25
778.878	6820.39
779.212	6838.46
779.547	6807.05
779.881	6853.83
780.215	6723.67
780.55	6744.68
780.884	6669.43
781.218	6637.79
781.552	6622.88
781.886	6630.79
782.22	6596.66
782.554	6546.95
782.888	6494.74
783.222	6531.13
783.556	6478.93
783.889	6497.23
784.223	6405.71
784.557	6437.34
784.89	6398.7
785.224	6359.61
785.557	6351.02
785.891	6339.49
786.224	6289.55
786.558	6283
786.891	6230.8
787.224	6230.57
787.557	6269.89
787.891	6184.47
788.224	6244.58
788.557	6204.36
788.89	6176.56
789.223	6141.31
789.556	6180.85
789.888	6116.22
790.221	6134.3
790.554	6071.48
790.887	5996.68
791.219	6036.45
791.552	6009.33
791.884	5958.49
792.217	5979.73
792.549	5933.18
792.882	5913.74
793.214	5913.74
793.546	5897.92
793.879	5866.06
794.211	5815.89
794.543	5833.97
794.875	5873.07
795.207	5882.33
795.539	5785.38
795.871	5765.05
796.203	5738.61
796.535	5728.66
796.867	5634.43
797.198	5662.68
797.53	5659.96
797.862	5587.88
798.193	5688.44
798.525	5659.96
798.856	5651.83
799.188	5554.2
799.519	5552.85
799.85	5480.08
800.182	5468.56
800.513	5508.33
800.844	5472.17
801.175	5453.87
801.506	5465.62
801.837	5454.32
802.168	5436.69
802.499	5423.81
802.83	5388.33
803.161	5416.58
803.491	5328.9
803.822	5350.37
804.153	5279.18
804.483	5290.48
804.814	5276.02
805.145	5297.71
805.475	5206.87
805.805	5220.88
806.136	5240.54
806.466	5235.34
806.796	5206.87
807.126	5190.6
807.457	5183.59
807.787	5170.03
808.117	5178.62
808.447	5121.67
808.777	5146.53
809.107	5125.29
809.436	5146.31
809.766	5052.97
810.096	5076.25
810.426	5051.62
810.755	5078.51
811.085	4985.41
811.414	5012.52
811.744	4933.43
812.073	5019.53
812.403	4998.06
812.732	4972.3
813.061	4956.48
813.39	4907.89
813.719	4895.92
814.049	4950.6
814.378	4945.41
814.707	4867.22
815.036	4914.67
815.365	4892.07
815.693	4836.71
816.022	4859.31
816.351	4854.34
816.68	4806.65
817.008	4784.73
817.337	4769.59
817.665	4787.22
817.994	4770.5
818.322	4747.22
818.651	4769.14
818.979	4739.54
819.307	4767.78
819.636	4769.37
819.964	4693.89
820.292	4714.45
820.62	4677.84
820.948	4717.84
821.276	4691.18
821.604	4698.41
821.932	4761
822.259	4688.69
822.587	4733.21
822.915	4671.52
823.243	4717.62
823.57	4705.41
823.898	4671.06
824.225	4657.73
824.553	4644.4
824.88	4686.2
825.207	4671.52
825.535	4668.8
825.862	4725.98
826.189	4669.26
826.516	4686.88
826.843	4716.26
827.17	4730.05
827.497	4683.04
827.824	4720.33
828.151	4717.39
828.478	4698.63
828.805	4680.1
829.131	4653.89
829.458	4618.18
829.785	4651.86
830.111	4648.24
830.438	4710.61
830.764	4664.28
831.09	4738.18
831.417	4639.43
831.743	4655.47
832.069	4638.07
832.395	4620.9
832.722	4717.84
833.048	4622.93
833.374	4666.32
833.7	4596.26
834.026	4617.28
834.351	4649.37
834.677	4627.22
835.003	4639.65
835.329	4595.36
835.654	4631.29
835.98	4578.64
836.306	4605.98
836.631	4556.04
836.956	4557.62
837.282	4554.46
837.607	4559.88
837.932	4569.37
838.258	4530.28
838.583	4554.46
838.908	4501.58
839.233	4501.12
839.558	4533.44
839.883	4469.71
840.208	4497.51
840.533	4471.75
840.858	4495.93
841.182	4486.21
841.507	4476.72
841.832	4411.64
842.156	4468.58
842.481	4438.75
842.805	4453.44
843.13	4405.53
843.454	4401.24
843.778	4425.19
844.103	4398.53
844.427	4384.74
844.751	4371.41
845.075	4402.37
845.399	4368.7
845.723	4307.46
846.047	4367.57
846.371	4307.23
846.695	4284.63
847.019	4315.82
847.343	4270.85
847.666	4294.58
847.99	4304.29
848.313	4278.98
848.637	4185.88
848.96	4180.68
849.284	4209.38
849.607	4136.16
849.931	4136.39
850.254	4112.43
850.577	4134.81
850.9	4063.17
851.223	4063.62
851.546	4053.68
851.869	4023.17
852.192	4025.2
852.515	3994.47
852.838	3962.83
853.161	3984.3
853.483	3947.69
853.806	3961.48
854.129	3975.04
854.451	3937.07
854.774	3895.26
855.096	3911.76
855.419	3892.1
855.741	3885.55
856.063	3835.83
856.385	3883.51
856.708	3858.2
857.03	3826.11
857.352	3819.11
857.674	3815.72
857.996	3827.92
858.318	3770.97
858.64	3777.08
858.961	3782.95
859.283	3828.37
859.605	3784.99
859.926	3770.3
860.248	3730.98
860.57	3769.39
860.891	3745.66
861.212	3743.63
861.534	3745.89
861.855	3710.64
862.176	3685.1
862.498	3719.68
862.819	3721.48
863.14	3675.61
863.461	3696.85
863.782	3659.11
864.103	3637.42
864.424	3667.7
864.745	3652.11
865.065	3629.51
865.386	3636.06
865.707	3672.22
866.027	3647.36
866.348	3665.21
866.668	3626.12
866.989	3653.92
867.309	3572.34
867.63	3575.95
867.95	3593.13
868.27	3574.37
868.59	3601.94
868.91	3606.68
869.23	3566.01
869.55	3558.1
869.87	3577.08
870.19	3525.56
870.51	3550.64
870.83	3540.47
871.15	3565.56
871.469	3549.74
871.789	3509.06
872.109	3558.78
872.428	3483.52
872.748	3504.09
873.067	3549.29
873.386	3509.96
873.706	3494.82
874.025	3442.62
874.344	3499.12
874.663	3486.69
874.982	3449.85
875.301	3474.26
875.62	3474.26
875.939	3396.29
876.258	3438.1
876.577	3422.06
876.896	3437.2
877.214	3380.25
877.533	3408.27
877.852	3386.8
878.17	3432.68
878.489	3436.07
878.807	3471.55
879.125	3405.79
879.444	3420.48
879.762	3398.55
880.08	3414.37
880.398	3356.75
880.716	3354.49
881.034	3376.41
881.352	3379.12
881.67	3381.83
881.988	3395.39
882.306	3351.1
882.624	3323.75
882.941	3302.51
883.259	3322.17
883.577	3328.73
883.894	3334.15
884.212	3332.57
884.529	3299.35
884.846	3348.61
885.164	3326.69
885.481	3283.08
885.798	3263.19
886.115	3276.75
886.432	3236.53
886.75	3264.55
887.067	3230.88
887.383	3179.35
887.7	3216.19
888.017	3207.83
888.334	3222.06
888.651	3194.04
888.967	3213.25
889.284	3186.58
889.6	3177.32
889.917	3199.92
890.233	3150.43
890.55	3147.26
890.866	3190.2
891.182	3086.25
891.498	3092.57
891.815	3145.45
892.131	3111.56
892.447	3116.53
892.763	3083.53
893.079	3083.31
893.395	3094.83
893.71	3051.45
894.026	3078.34
894.342	3072.46
894.657	3023.42
894.973	3046.93
895.289	3051.67
895.604	3042.41
895.92	3019.81
896.235	2999.7
896.55	3009.41
896.865	2979.36
897.181	2923.54
897.496	2962.18
897.811	2985.23
898.126	2954.27
898.441	2932.13
898.756	2902.75
899.071	2930.32
899.386	2886.48
899.7	2879.25
900.015	2878.12
900.33	2868.85
900.644	2899.58
900.959	2893.71
901.273	2853.26
901.588	2834.5
901.902	2850.09
902.216	2829.53
902.531	2853.03
902.845	2803.77
903.159	2796.54
903.473	2823.65
903.787	2780.04
904.101	2765.13
904.415	2737.1
904.729	2797.44
905.042	2726.93
905.356	2741.17
905.67	2714.05
905.984	2683.09
906.297	2698.01
906.611	2708.4
906.924	2715.41
907.237	2718.8
907.551	2685.81
907.864	2691.91
908.177	2672.92
908.491	2691.23
908.804	2638.12
909.117	2641.29
909.43	2594.51
909.743	2601.97
910.056	2607.16
910.368	2565.58
910.681	2567.62
910.994	2612.36
911.307	2572.59
911.619	2562.64
911.932	2537.79
912.244	2537.11
912.557	2529.65
912.869	2505.02
913.181	2511.57
913.494	2542.31
913.806	2493.95
914.118	2477
914.43	2455.75
914.742	2473.38
915.054	2434.74
915.366	2451.23
915.678	2463.44
915.99	2403.33
916.302	2379.82
916.613	2426.38
916.925	2419.37
917.236	2365.81
917.548	2360.84
917.859	2382.76
918.171	2347.06
918.482	2370.79
918.794	2350.45
919.105	2404
919.416	2335.53
919.727	2344.35
920.038	2312.71
920.349	2317
920.66	2300.05
920.971	2314.97
921.282	2299.6
921.593	2242.65
921.903	2274.29
922.214	2266.38
922.525	2262.31
922.835	2225.93
923.146	2278.13
923.456	2259.15
923.767	2219.6
924.077	2193.61
924.387	2183.67
924.697	2207.63
925.008	2193.39
925.318	2195.87
925.628	2157.23
925.938	2141.19
926.248	2143.45
926.558	2183.9
926.867	2173.28
927.177	2105.93
927.487	2103.67
927.796	2110.9
928.106	2106.16
928.416	2130.34
928.725	2082.88
929.034	2087.63
929.344	2096.22
929.653	2072.49
929.962	2054.41
930.271	2050.79
930.581	2016.44
930.89	2046.73
931.199	2022.32
931.508	2034.75
931.817	2010.34
932.125	2012.38
932.434	2032.94
932.743	1991.36
933.051	1964.47
933.36	1995.65
933.669	1948.65
933.977	1976.67
934.286	1961.98
934.594	1974.41
934.902	1921.31
935.21	1948.2
935.519	1937.8
935.827	1964.02
936.135	1921.31
936.443	1893.51
936.751	1899.61
937.059	1889.22
937.367	1905.26
937.674	1861.87
937.982	1856.45
938.29	1849.44
938.597	1854.41
938.905	1836.56
939.213	1865.04
939.52	1836.11
939.827	1841.99
940.135	1816.9
940.442	1786.17
940.749	1809.44
941.056	1804.7
941.363	1747.07
941.67	1800.18
941.977	1747.75
942.284	1753.4
942.591	1764.93
942.898	1736.45
943.205	1748.43
943.511	1749.56
943.818	1733.06
944.125	1733.97
944.431	1740.07
944.738	1723.8
945.044	1717.92
945.35	1688.09
945.657	1681.99
945.963	1698.03
946.269	1691.71
946.575	1686.96
946.881	1680.41
947.187	1686.28
947.493	1650.8
947.799	1649
948.105	1632.95
948.41	1631.6
948.716	1623.69
949.022	1660.3
949.327	1634.99
949.633	1606.51
949.938	1634.99
950.244	1619.62
950.549	1605.83
950.854	1603.8
951.16	1606.96
951.465	1609.45
951.77	1584.14
952.075	1554.08
952.38	1565.16
952.685	1586.17
952.99	1574.87
953.294	1560.86
953.599	1563.12
953.904	1567.19
954.209	1544.14
954.513	1545.27
954.818	1551.82
955.122	1527.19
955.426	1517.02
955.731	1522.22
956.035	1514.99
956.339	1519.73
956.643	1525.61
956.948	1510.69
957.252	1477.48
957.556	1484.48
957.86	1475.89
958.163	1466.4
958.467	1453.07
958.771	1475.44
959.075	1476.8
959.378	1452.17
959.682	1460.07
959.985	1429.11
960.289	1435.22
960.592	1435.22
960.896	1423.47
961.199	1396.57
961.502	1404.48
961.805	1373.98
962.108	1383.47
962.411	1399.29
962.714	1391.38
963.017	1388.21
963.32	1388.44
963.623	1388.89
963.926	1361.77
964.228	1376.01
964.531	1377.82
964.833	1353.64
965.136	1352.28
965.438	1352.51
965.741	1336.24
966.043	1323.13
966.345	1332.17
966.648	1309.8
966.95	1320.64
967.252	1294.2
967.554	1331.04
967.856	1281.77
968.158	1292.4
968.46	1279.97
968.761	1304.6
969.063	1272.73
969.365	1288.1
969.666	1260.98
969.968	1275.22
970.269	1277.25
970.571	1282.68
970.872	1265.96
971.174	1263.24
971.475	1228.67
971.776	1285.84
972.077	1267.54
972.378	1225.73
972.679	1239.29
972.98	1238.16
973.281	1231.61
973.582	1217.6
973.883	1229.57
974.183	1199.29
974.484	1197.93
974.785	1200.19
975.085	1194.77
975.386	1181.44
975.686	1184.6
975.986	1175.34
976.287	1179.18
976.587	1184.6
976.887	1156.81
977.187	1173.53
977.487	1178.73
977.787	1187.09
978.087	1146.64
978.387	1164.49
978.687	1190.03
978.987	1167.88
979.286	1142.34
979.586	1130.14
979.885	1153.19
980.185	1144.15
980.484	1119.29
980.784	1147.99
981.083	1103.7
981.382	1117.94
981.682	1102.12
981.981	1096.47
982.28	1095.11
982.579	1093.53
982.878	1085.85
983.177	1093.08
983.475	1087.66
983.774	1109.58
984.073	1102.57
984.372	1066.41
984.67	1080.2
984.969	1096.02
985.267	1061.22
985.566	1051.5
985.864	1067.77
986.162	1039.97
986.461	1057.15
986.759	1068.22
987.057	1053.76
987.355	1033.65
987.653	1042.68
987.951	1043.81
988.249	1043.14
988.547	1017.15
988.844	1025.96
989.142	1018.05
989.44	1017.83
989.737	1025.96
990.035	980.54
990.332	1002.01
990.63	1004.04
990.927	1000.43
991.224	978.73
991.521	993.42
991.819	997.94
992.116	987.09
992.413	986.19
992.71	994.1
993.006	969.47
993.303	955.23
993.6	959.52
993.897	971.95
994.193	964.49
994.49	966.98
994.787	959.3
995.083	959.52
995.379	953.2
995.676	946.87
995.972	927.43
996.268	937.6
996.565	938.96
996.861	912.29
997.157	929.24
997.453	919.52
997.749	891.73
998.044	920.2
998.34	883.14
998.636	903.48
998.932	911.84
999.227	902.58
999.523	893.76
999.818	905.29
1000.114	881.78
1000.409	875.91
1000.704	879.52
1001	875.46
1001.295	867.1
1001.59	858.51
1001.885	853.31
1002.18	842.92
1002.475	885.63
1002.77	861.45
1003.065	839.75
1003.359	835.68
1003.654	843.82
1003.949	852.18
1004.243	837.94
1004.538	827.77
1004.832	864.61
1005.127	815.12
1005.421	809.92
1005.715	827.77
1006.009	808.57
1006.304	839.3
1006.598	811.05
1006.892	813.09
1007.186	812.86
1007.48	780.32
1007.773	795.01
1008.067	803.59
1008.361	775.8
1008.655	794.56
1008.948	797.04
1009.242	766.76
1009.535	798.4
1009.829	783.26
1010.122	792.07
1010.415	775.57
1010.708	761.79
1011.001	774.67
1011.295	752.97
1011.588	741.22
1011.881	760.66
1012.173	755.69
1012.466	763.82
1012.759	727.44
1013.052	740.09
1013.344	723.82
1013.637	750.26
1013.93	734.22
1014.222	724.27
1014.514	751.17
1014.807	715.24
1015.099	731.05
1015.391	718.63
1015.683	741
1015.976	724.5
1016.268	698.74
1016.56	689.47
1016.851	716.82
1017.143	714.56
1017.435	700.09
1017.727	693.99
1018.018	707.33
1018.31	687.21
1018.602	688.57
1018.893	682.24
1019.185	672.52
1019.476	713.2
1019.767	677.95
1020.058	691.06
1020.35	659.64
1020.641	636.14
1020.932	642.92
1021.223	663.26
1021.514	637.95
1021.804	649.7
1022.095	660.1
1022.386	651.73
1022.677	663.71
1022.967	640.66
1023.258	642.47
1023.548	637.5
1023.839	639.08
1024.129	636.37
1024.419	640.66
1024.709	634.56
1025	628.91
1025.29	628.68
1025.58	603.37
1025.87	615.13
1026.16	622.36
1026.449	622.13
1026.739	616.48
1027.029	605.18
1027.319	614.22
1027.608	591.4
1027.898	620.77
1028.187	583.71
1028.477	609.02
1028.766	610.15
1029.055	576.48
1029.344	591.85
1029.634	582.13
1029.923	587.33
1030.212	598.85
1030.501	558.63
1030.79	573.77
1031.078	548.01
1031.367	553.66
1031.656	572.64
1031.945	562.92
1032.233	564.96
1032.522	559.31
1032.81	569.93
1033.099	576.48
1033.387	552.53
1033.675	569.93
1033.963	549.59
1034.251	566.76
1034.54	534.68
1034.828	536.26
1035.116	559.08
1035.403	554.79
1035.691	559.76
1035.979	534.45
1036.267	551.17
1036.554	539.19
1036.842	538.06
1037.129	533.09
1037.417	522.92
1037.704	515.01
1037.992	512.53
1038.279	526.31
1038.566	499.65
1038.853	499.65
1039.14	499.65
