Data from black_plastic_tray_FLMS001491_024.txt Node
Date: Tue Feb 07 10:39:31 GMT 2017
User: dcchb
Spectrometer: FLMS00149
Trigger mode: 0
Integration Time (sec): 2.000000E-2
Scans to average: 10
Electric dark correction enabled: true
Nonlinearity correction enabled: false
Boxcar width: 0
XAxis mode: Wavelengths
Number of Pixels in Spectrum: 2048
>>>>>Begin Spectral Data<<<<<
341.393	-5.92
341.776	-5.92
342.16	-5.92
342.543	-80.27
342.927	-72.36
343.31	-79.14
343.693	-62.87
344.077	-60.83
344.46	-58.8
344.843	-47.95
345.226	-31
345.61	-28.06
345.993	-21.96
346.376	0.41
346.759	17.81
347.142	13.29
347.525	56
347.908	34.31
348.291	82.67
348.674	78.37
349.057	107.75
349.44	104.14
349.823	125.15
350.206	166.28
350.588	168.31
350.971	172.61
351.354	186.17
351.737	213.29
352.119	226.84
352.502	255.32
352.884	253.74
353.267	271.81
353.65	290.8
354.032	289.89
354.414	300.06
354.797	308.65
355.179	290.12
355.562	288.09
355.944	290.35
356.326	333.51
356.709	331.25
357.091	317.69
357.473	320.85
357.855	328.08
358.238	334.86
358.62	320.4
359.002	327.86
359.384	325.15
359.766	328.31
360.148	317.24
360.53	330.57
360.912	336.9
361.294	326.28
361.676	309.1
362.057	314.53
362.439	310.68
362.821	322.66
363.203	319.05
363.584	312.72
363.966	311.81
364.348	314.53
364.729	311.59
365.111	286.96
365.493	319.5
365.874	320.18
366.256	303.9
366.637	308.42
367.019	320.63
367.4	296.9
367.781	313.62
368.163	310.91
368.544	294.19
368.925	292.61
369.306	307.97
369.688	294.87
370.069	302.32
370.45	300.06
370.831	324.02
371.212	315.66
371.593	305.71
371.974	317.69
372.355	301.64
372.736	293.06
373.117	314.07
373.498	305.71
373.879	311.14
374.26	307.07
374.641	301.87
375.021	316.33
375.402	325.15
375.783	328.99
376.163	333.06
376.544	328.54
376.925	318.82
377.305	338.48
377.686	323.11
378.066	341.19
378.447	313.62
378.827	324.02
379.208	338.03
379.588	320.85
379.968	311.36
380.349	337.8
380.729	335.09
381.109	315.2
381.489	328.76
381.87	342.32
382.25	345.94
382.63	352.49
383.01	343.9
383.39	349.33
383.77	336.45
384.15	349.1
384.53	335.99
384.91	358.82
385.29	350.68
385.67	362.21
386.049	357.69
386.429	360.63
386.809	376.22
387.189	361.3
387.568	349.1
387.948	348.65
388.328	360.4
388.707	353.85
389.087	366.05
389.466	383.68
389.846	379.38
390.225	385.71
390.605	385.71
390.984	371.93
391.363	397.24
391.743	384.13
392.122	384.13
392.501	389.1
392.881	402.66
393.26	390.46
393.639	402.21
394.018	387.07
394.397	403.11
394.776	410.57
395.155	391.59
395.534	411.47
395.913	399.04
396.292	387.07
396.671	424.13
397.05	423
397.429	443.79
397.808	423
398.186	421.19
398.565	423.9
398.944	417.57
399.323	415.31
399.701	433.39
400.08	431.58
400.458	437.23
400.837	443.56
401.215	410.57
401.594	445.37
401.972	438.59
402.351	440.17
402.729	468.87
403.107	437.46
403.486	451.25
403.864	474.07
404.242	472.71
404.62	449.89
404.999	465.26
405.377	466.61
405.755	462.77
406.133	474.52
406.511	493.73
406.889	479.27
407.267	507.29
407.645	488.76
408.023	517.23
408.401	514.97
408.779	503
409.156	501.19
409.534	518.81
409.912	516.33
410.29	509.1
410.667	519.27
411.045	520.85
411.422	511.58
411.8	549.1
412.178	535.08
412.555	543.45
412.933	533.5
413.31	550
413.687	568.53
414.065	550.9
414.442	569.89
414.819	582.77
415.197	584.8
415.574	574.41
415.951	603.11
416.328	594.07
416.705	587.74
417.082	588.42
417.46	589.77
417.837	579.38
418.214	600.62
418.591	612.82
418.967	622.54
419.344	604.46
419.721	626.38
420.098	618.92
420.475	612.82
420.852	644.91
421.228	655.76
421.605	650.56
421.982	651.69
422.358	651.69
422.735	673.61
423.111	667.96
423.488	673.16
423.864	658.7
424.241	670.45
424.617	652.6
424.994	665.25
425.37	719.94
425.746	717.23
426.123	688.3
426.499	679.49
426.875	702.54
427.251	726.27
427.627	730.33
428.003	733.27
428.379	729.66
428.756	750.67
429.132	755.42
429.507	773.72
429.883	761.07
430.259	775.76
430.635	781.63
431.011	793.84
431.387	809.2
431.763	832.93
432.138	803.33
432.514	827.05
432.89	818.02
433.265	842.87
433.641	845.13
434.016	851.69
434.392	866.6
434.767	879.03
435.143	872.25
435.518	873.38
435.894	918.8
436.269	902.31
436.644	924.23
437.02	922.65
437.395	919.48
437.77	919.71
438.145	957.9
438.52	957.9
438.895	959.03
439.271	972.59
439.646	989.54
440.021	1003.32
440.395	973.72
440.77	987.05
441.145	989.99
441.52	1018.24
441.895	1047.84
442.27	1029.08
442.645	1021.4
443.019	1032.92
443.394	1019.59
443.769	1049.2
444.143	1056.43
444.518	1062.98
444.892	1042.64
445.267	1067.05
445.641	1045.13
446.016	1064.56
446.39	1090.78
446.764	1090.32
447.139	1095.3
447.513	1099.14
447.887	1103.88
448.262	1110.21
448.636	1102.75
449.01	1131.68
449.384	1140.27
449.758	1132.13
450.132	1183.66
450.506	1178.23
450.88	1177.1
451.254	1166.71
451.628	1177.1
452.002	1210.77
452.376	1202.86
452.75	1186.59
453.123	1221.62
453.497	1255.52
453.871	1235.18
454.244	1257.78
454.618	1248.29
454.992	1290.09
455.365	1269.75
455.739	1299.36
456.112	1340.71
456.486	1337.55
456.859	1357.44
457.232	1385.68
457.606	1369.87
457.979	1395.4
458.352	1414.38
458.725	1404.89
459.099	1458
459.472	1457.55
459.845	1437.21
460.218	1481.5
460.591	1480.82
460.964	1521.05
461.337	1544.55
461.71	1561.95
462.083	1575.51
462.456	1555.4
462.829	1568.05
463.201	1603.08
463.574	1589.97
463.947	1620.93
464.32	1639.91
464.692	1654.38
465.065	1742.74
465.438	1692.12
465.81	1707.03
466.183	1733.92
466.555	1791.55
466.928	1779.8
467.3	1800.59
467.672	1826.35
468.045	1855.73
468.417	1863.64
468.789	1843.07
469.161	1928.04
469.534	1943.86
469.906	1961.94
470.278	2018.89
470.65	1983.86
471.022	2038.32
471.394	2094.14
471.766	2090.3
472.138	2108.15
472.51	2105.21
472.882	2184.76
473.253	2194.7
473.625	2233.12
473.997	2295.94
474.369	2297.3
474.74	2320.12
475.112	2321.48
475.484	2408.48
475.855	2396.05
476.227	2441.7
476.598	2488.93
476.97	2501.81
477.341	2551.98
477.713	2581.58
478.084	2593.56
478.455	2696.61
478.827	2672.43
479.198	2785.2
479.569	2766.89
479.94	2812.99
480.311	2860.9
480.682	2922.82
481.053	3004.4
481.424	3048.47
481.795	3027.9
482.166	3117.39
482.537	3127.78
482.908	3187.67
483.279	3208.46
483.65	3280.1
484.021	3329.36
484.391	3346.54
484.762	3384.95
485.133	3439.19
485.503	3439.64
485.874	3544.95
486.244	3578.85
486.615	3643.93
486.985	3720.76
487.356	3738.84
487.726	3765.73
488.097	3815.22
488.467	3847.99
488.837	3894.77
489.207	3946.97
489.578	4035.78
489.948	4073.52
490.318	4092.28
490.688	4122.34
491.058	4232.16
491.428	4236.68
491.798	4248.21
492.168	4346.51
492.538	4361.88
492.908	4423.57
493.278	4509.44
493.648	4471.48
494.017	4544.24
494.387	4566.84
494.757	4593.96
495.126	4669.44
495.496	4630.12
495.866	4741.08
496.235	4726.84
496.605	4821.07
496.974	4861.3
497.344	4823.79
497.713	4924.57
498.082	4929.55
498.452	4982.88
498.821	5019.94
499.19	5030.11
499.559	5099.03
499.928	5146.94
500.298	5144.91
500.667	5203.66
501.036	5186.49
501.405	5235.07
501.774	5212.48
502.143	5301.29
502.512	5329.31
502.88	5358.23
503.249	5451.79
503.618	5456.76
503.987	5457.44
504.356	5516.87
504.724	5613.37
505.093	5591
505.462	5620.6
505.83	5586.03
506.199	5694.05
506.567	5785.79
506.936	5775.85
507.304	5843.42
507.672	5864.44
508.041	5887.94
508.409	5930.88
508.777	5987.6
509.145	6010.2
509.514	5977.65
509.882	6082.06
510.25	6050.19
510.618	6105.11
510.986	6182.39
511.354	6259.91
511.722	6292.45
512.09	6369.06
512.458	6272.56
512.826	6379.9
513.193	6405.66
513.561	6497.41
513.929	6485.21
514.297	6577.19
514.664	6614.02
515.032	6633.23
515.4	6689.5
515.767	6760.68
516.135	6741.7
516.502	6727.46
516.869	6878.42
517.237	6884.75
517.604	6818.76
517.972	6974.46
518.339	7012.2
518.706	7090.62
519.073	7068.92
519.44	7178.3
519.808	7188.47
520.175	7202.71
520.542	7371.74
520.909	7344.85
521.276	7329.71
521.643	7446.99
522.009	7473.43
522.376	7580.32
522.743	7625.75
523.11	7682.02
523.477	7778.74
523.843	7772.41
524.21	7850.82
524.577	7879.75
524.943	7969.92
525.31	8001.56
525.676	8081.78
526.043	8187.31
526.409	8193.87
526.776	8271.83
527.142	8248.55
527.508	8356.35
527.874	8383.01
528.241	8394.99
528.607	8470.47
528.973	8575.78
529.339	8575.33
529.705	8632.5
530.071	8720.63
530.437	8780.29
530.803	8832.72
531.169	8887.41
531.535	8824.36
531.901	8993.62
532.267	8990.91
532.632	9072.71
532.998	9084.69
533.364	9062.77
533.73	9140.28
534.095	9302.09
534.461	9233.61
534.826	9286.04
535.192	9280.17
535.557	9404
535.923	9414.17
536.288	9478.8
536.653	9515.64
537.019	9403.1
537.384	9487.84
537.749	9550.89
538.114	9602.42
538.479	9624.11
538.845	9704.79
539.21	9680.83
539.575	9747.95
539.94	9718.8
540.305	9817.33
540.67	9801.28
541.034	9888.51
541.399	9936.19
541.764	9888.96
542.129	9939.36
542.494	9947.04
542.858	10037.66
543.223	9992.46
543.587	10060.03
543.952	10096.87
544.316	10103.19
544.681	10152.69
545.045	10166.47
545.41	10242.63
545.774	10297.77
546.138	10323.08
546.503	10291.66
546.867	10345.45
547.231	10390.19
547.595	10380.93
547.959	10480.81
548.324	10505.22
548.688	10583.41
549.052	10544.31
549.416	10619.11
549.779	10609.17
550.143	10673.12
550.507	10713.12
550.871	10674.71
551.235	10782.95
551.599	10828.83
551.962	10954.92
552.326	10864.08
552.689	10991.53
553.053	10932.78
553.417	10976.84
553.78	11114.02
554.143	11100.23
554.507	11186.1
554.87	11157.18
555.234	11354.24
555.597	11225.88
555.96	11257.97
556.323	11326.67
556.686	11290.73
557.05	11412.54
557.413	11395.14
557.776	11415.48
558.139	11566.43
558.502	11598.97
558.865	11602.14
559.228	11723.72
559.59	11824.51
559.953	11815.01
560.316	11818.4
560.679	11876.48
561.041	12001.22
561.404	12007.33
561.767	12009.81
562.129	12092.3
562.492	12186.53
562.854	12200.77
563.217	12211.39
563.579	12254.78
563.941	12354.66
564.304	12431.95
564.666	12432.63
565.028	12453.19
565.39	12527.09
565.753	12632.62
566.115	12634.2
566.477	12641.21
566.839	12620.42
567.201	12801.2
567.563	12781.32
567.925	12891.6
568.287	12912.16
568.648	12970.24
569.01	12986.96
569.372	13101.76
569.734	13126.17
570.095	13141.31
570.457	13241.64
570.819	13205.94
571.18	13164.36
571.542	13370.68
571.903	13300.85
572.265	13335.43
572.626	13407.06
572.987	13405.03
573.349	13511.01
573.71	13444.12
574.071	13542.2
574.432	13653.38
574.794	13725.47
575.155	13638.02
575.516	13566.38
575.877	13708.75
576.238	13728.41
576.599	13696.55
576.96	13749.88
577.32	13740.61
577.681	13856.99
578.042	13824.23
578.403	13891.57
578.763	13925.02
579.124	13942.42
579.485	13990.1
579.845	14024.22
580.206	13976.99
580.566	13942.64
580.927	13913.72
581.287	13962.53
581.648	13974.96
582.008	14127.5
582.368	14039.59
582.728	14098.12
583.089	14037.78
583.449	14034.84
583.809	14166.14
584.169	14068.51
584.529	14092.47
584.889	14195.97
585.249	14077.55
585.609	14045.46
585.969	14059.25
586.329	14068.06
586.688	14146.48
587.048	14049.31
587.408	13974.51
587.768	14121.62
588.127	14077.33
588.487	14097.89
588.846	14171.79
589.206	14079.81
589.565	13994.17
589.925	14139.47
590.284	14015.86
590.643	14147.83
591.003	14171.34
591.362	14106.71
591.721	14061.96
592.08	14148.06
592.44	14265.35
592.799	14286.81
593.158	14116.87
593.517	14238.45
593.876	14219.24
594.235	14143.54
594.593	14240.94
594.952	14216.31
595.311	14168.85
595.67	14167.04
596.029	14243.88
596.387	14186.48
596.746	14255.18
597.104	14284.78
597.463	14165.46
597.822	14149.64
598.18	14179.92
598.538	14068.06
598.897	14305.57
599.255	14177.89
599.613	14381.27
599.972	14339.92
600.33	14336.08
600.688	14225.57
601.046	14245.23
601.404	14405
601.762	14316.42
602.12	14403.42
602.478	14388.73
602.836	14403.19
603.194	14362.74
603.552	14266.7
603.91	14334.72
604.268	14408.39
604.625	14308.06
604.983	14444.78
605.341	14407.71
605.698	14376.98
606.056	14433.25
606.413	14417.66
606.771	14460.82
607.128	14454.27
607.485	14418.79
607.843	14390.31
608.2	14485.68
608.557	14626.92
608.914	14539.69
609.272	14657.65
609.629	14541.72
609.986	14605
610.343	14512.34
610.7	14771.32
611.057	14635.73
611.414	14727.03
611.771	14614.71
612.127	14611.32
612.484	14713.7
612.841	14753.47
613.198	14728.61
613.554	14734.03
613.911	14759.34
614.267	14802.51
614.624	14773.81
614.98	14746.24
615.337	14896.29
615.693	14777.2
616.05	14792.79
616.406	14850.64
616.762	14829.4
617.118	14835.73
617.475	14867.36
617.831	14941.94
618.187	14927.93
618.543	14994.14
618.899	14877.98
619.255	14887.93
619.611	15051.77
619.967	14984.65
620.323	15057.64
620.678	14961.6
621.034	15010.18
621.39	14980.13
621.746	14969.73
622.101	15141.25
622.457	15028.04
622.812	15077.75
623.168	14992.56
623.523	15001.15
623.879	15026.68
624.234	14989.17
624.589	14962.73
624.945	14972.9
625.3	15028.49
625.655	15002.28
626.01	15010.41
626.365	14977.64
626.72	15134.02
627.075	15078.43
627.43	14982.61
627.785	14932.22
628.14	14954.59
628.495	15044.08
628.85	14968.15
629.205	14941.94
629.559	15030.75
629.914	15010.41
630.269	14899.23
630.623	14934.93
630.978	14924.08
631.332	14953.69
631.687	14964.76
632.041	14905.33
632.396	14843.18
632.75	14851.32
633.104	14874.37
633.459	14750.76
633.813	14802.96
634.167	14787.82
634.521	14786.01
634.875	14811.32
635.229	14773.58
635.583	14671.21
635.937	14663.75
636.291	14489.29
636.645	14569.52
636.999	14496.98
637.352	14590.31
637.706	14522.06
638.06	14644.54
638.413	14574.72
638.767	14537.65
639.121	14505.34
639.474	14474.83
639.828	14459.69
640.181	14530.2
640.534	14549.41
640.888	14352.57
641.241	14290.2
641.594	14383.08
641.947	14416.3
642.301	14321.61
642.654	14289.75
643.007	14292.92
643.36	14322.97
643.713	14281.16
644.066	14285.01
644.419	14228.96
644.771	14115.07
645.124	14101.28
645.477	14028.29
645.83	13891.12
646.182	13842.31
646.535	13826.94
646.888	13740.84
647.24	13693.38
647.593	13761.86
647.945	13674.4
648.298	13657.23
648.65	13583.56
649.002	13615.64
649.355	13533.84
649.707	13665.36
650.059	13696.77
650.411	13742.87
650.763	13913.94
651.115	13982.19
651.467	13987.16
651.819	13961.17
652.171	13923.43
652.523	13867.62
652.875	13811.57
653.227	13831.68
653.578	13933.6
653.93	13858.8
654.282	13801.63
654.633	13716.66
654.985	13742.42
655.337	13808.18
655.688	13746.26
656.039	13761.63
656.391	13708.98
656.742	13697.9
657.094	13750.78
657.445	13840.27
657.796	13709.43
658.147	13760.05
658.498	13766.6
658.849	13810.22
659.2	13803.89
659.551	13752.36
659.902	13769.77
660.253	13648.41
660.604	13638.7
660.955	13642.31
661.306	13631.46
661.656	13629.88
662.007	13671.01
662.358	13536.55
662.708	13591.92
663.059	13586.04
663.409	13519.6
663.76	13632.59
664.11	13553.5
664.461	13641.41
664.811	13633.72
665.161	13600.5
665.511	13606.83
665.862	13540.39
666.212	13645.47
666.562	13575.42
666.912	13559.15
667.262	13554.4
667.612	13530.9
667.962	13522.99
668.312	13461.3
668.662	13466.04
669.011	13432.82
669.361	13470.34
669.711	13440.51
670.06	13365.26
670.41	13399.15
670.76	13317.8
671.109	13404.8
671.459	13315.54
671.808	13315.09
672.157	13358.25
672.507	13322.55
672.856	13316.44
673.205	13327.06
673.554	13290.46
673.904	13201.42
674.253	13363.22
674.602	13256.56
674.951	13118.71
675.3	13078.48
675.649	13259.95
675.998	13259.04
676.346	13213.17
676.695	13372.26
677.044	13229.21
677.393	13234.86
677.741	13289.55
678.09	13067.64
678.438	13176.56
678.787	13194.19
679.135	13083.68
679.484	13124.36
679.832	13165.94
680.181	12994.87
680.529	13133.85
680.877	13078.71
681.225	13084.13
681.573	13125.04
681.922	13014.98
682.27	12896.57
682.618	12985.15
682.966	12967.07
683.314	13035.55
683.661	12974.08
684.009	12897.47
684.357	12874.65
684.705	12849.11
685.053	12896.12
685.4	12869.45
685.748	12750.81
686.095	12709.91
686.443	12618.61
686.79	12689.79
687.138	12616.12
687.485	12682.56
687.832	12553.3
688.18	12624.48
688.527	12520.98
688.874	12549.68
689.221	12414.09
689.568	12435.11
689.915	12393.08
690.262	12478.27
690.609	12358.28
690.956	12270.37
691.303	12234.21
691.65	12162.12
691.997	12284.15
692.344	12185.4
692.69	12122.35
693.037	12120.32
693.383	12118.06
693.73	12105.18
694.077	12095.23
694.423	12034.67
694.769	12031.73
695.116	11986.54
695.462	11963.71
695.808	11953.09
696.155	11842.81
696.501	11851.62
696.847	11922.81
697.193	11808.69
697.539	11800.33
697.885	11708.8
698.231	11594.46
698.577	11600.56
698.923	11638.3
699.269	11581.8
699.614	11516.49
699.96	11497.28
700.306	11408.7
700.651	11408.02
700.997	11330.96
701.342	11352.65
701.688	11315.37
702.033	11315.82
702.379	11404.86
702.724	11257.97
703.069	11405.99
703.415	11160.57
703.76	11236.05
704.105	11223.39
704.45	11199.44
704.795	11147.69
705.14	11188.82
705.485	11079.89
705.83	11004.64
706.175	11013.68
706.52	11015.04
706.865	10939.56
707.209	10995.6
707.554	10923.29
707.899	10915.6
708.243	10915.6
708.588	10917.86
708.932	10832.89
709.277	10766.45
709.621	10795.61
709.966	10761.26
710.31	10820.24
710.654	10687.59
710.998	10732.33
711.342	10695.27
711.687	10665.21
712.031	10579.34
712.375	10465.67
712.719	10473.35
713.063	10555.61
713.407	10521.71
713.75	10489.63
714.094	10444.88
714.438	10446.91
714.782	10441.94
715.125	10361.95
715.469	10397.2
715.812	10295.96
716.156	10226.81
716.499	10220.93
716.843	10286.92
717.186	10215.73
717.53	10265.9
717.873	10285.56
718.216	10202.4
718.559	10218.22
718.902	10170.99
719.246	10178.67
719.589	10140.71
719.932	10118.34
720.275	10108.62
720.617	10140.26
720.96	10117.43
721.303	10075.4
721.646	10060.03
721.989	10072.46
722.331	10042.18
722.674	10020.94
723.016	9992.69
723.359	9939.36
723.701	9971.45
724.044	9924.89
724.386	9823.65
724.729	9906.14
725.071	9839.7
725.413	9873.37
725.755	9826.59
726.097	9804.45
726.439	9698.69
726.782	9710.44
727.124	9817.55
727.465	9749.31
727.807	9717.44
728.149	9711.57
728.491	9770.77
728.833	9776.88
729.175	9635.41
729.516	9595.19
729.858	9586.15
730.199	9659.82
730.541	9615.07
730.882	9569.88
731.224	9539.59
731.565	9502.31
731.906	9496.43
732.248	9517.9
732.589	9520.61
732.93	9491.01
733.271	9485.58
733.612	9506.37
733.953	9458.24
734.294	9449.88
734.635	9364.01
734.976	9413.72
735.317	9395.42
735.658	9438.35
735.999	9314.97
736.339	9309.09
736.68	9272.03
737.021	9344.34
737.361	9281.75
737.702	9269.09
738.042	9206.72
738.383	9229.32
738.723	9293.95
739.063	9204.24
739.404	9209.21
739.744	9151.58
740.084	9169.89
740.424	9159.26
740.764	9097.12
741.104	9173.95
741.444	9131.02
741.784	9109.1
742.124	9114.07
742.464	9108.42
742.804	9074.07
743.143	9080.85
743.483	9010.34
743.823	9063.45
744.162	9030.91
744.502	9053.5
744.841	9011.7
745.181	9005.37
745.52	8965.15
745.86	9009.66
746.199	8938.25
746.538	8952.49
746.877	8943
747.216	8834.3
747.556	8894.86
747.895	8828.2
748.234	8834.53
748.573	8870.01
748.911	8832.72
749.25	8753.17
749.589	8773.06
749.928	8734.42
750.267	8792.95
750.605	8719.28
750.944	8777.81
751.283	8694.42
751.621	8659.16
751.96	8623.91
752.298	8679.5
752.636	8713.4
752.975	8622.56
753.313	8573.29
753.651	8594.08
753.989	8549.56
754.327	8542.11
754.666	8484.48
755.004	8529.45
755.342	8539.17
755.679	8502.33
756.017	8438.83
756.355	8456.91
756.693	8401.77
757.031	8417.36
757.368	8331.94
757.706	8330.36
758.044	8313.64
758.381	8365.16
758.719	8276.58
759.056	8300.08
759.394	8235.22
759.731	8184.38
760.068	8164.04
760.405	8198.84
760.743	8158.61
761.08	8204.71
761.417	8082.91
761.754	8043.81
762.091	8031.38
762.428	8063.02
762.765	8026.41
763.102	8017.83
763.438	7907.55
763.775	7938.96
764.112	7898.51
764.449	7945.51
764.785	7876.81
765.122	7803.37
765.458	7788.23
765.795	7786.42
766.131	7773.09
766.467	7809.7
766.804	7751.62
767.14	7682.69
767.476	7744.61
767.812	7623.26
768.148	7620.32
768.485	7614.45
768.821	7550.95
769.157	7618.97
769.492	7582.13
769.828	7535.8
770.164	7440.67
770.5	7512.3
770.836	7445.41
771.171	7389.59
771.507	7378.07
771.842	7306.66
772.178	7302.82
772.513	7341.69
772.849	7278.18
773.184	7251.97
773.519	7196.83
773.855	7207.45
774.19	7168.81
774.525	7147.57
774.86	7142.59
775.195	7143.5
775.53	7109.15
775.865	7065.76
776.2	7027.8
776.535	6975.37
776.87	6962.94
777.205	6948.02
777.539	6945.76
777.874	6972.43
778.209	6844.3
778.543	6841.59
778.878	6767.01
779.212	6767.01
779.547	6738.09
779.881	6722.04
780.215	6721.81
780.55	6732.44
780.884	6630.29
781.218	6646.56
781.552	6682.04
781.886	6621.48
782.22	6553.46
782.554	6535.6
782.888	6526.57
783.222	6523.85
783.556	6453.35
783.889	6473.69
784.223	6440.92
784.557	6462.61
784.89	6435.95
785.224	6393.24
785.557	6361.37
785.891	6355.5
786.224	6331.99
786.558	6294.71
786.891	6259
787.224	6279.11
787.557	6251.32
787.891	6218.1
788.224	6228.27
788.557	6204.09
788.89	6181.49
789.223	6178.78
789.556	6146.46
789.888	6133.81
790.221	6092.23
790.554	6088.84
790.887	6002.74
791.219	6035.28
791.552	6011.1
791.884	6030.08
792.217	5950.99
792.549	5952.34
792.882	5884.77
793.214	5894.27
793.546	5955.96
793.879	5822.63
794.211	5844.32
794.543	5839.13
794.875	5836.87
795.207	5821.73
795.539	5770.65
795.871	5722.29
796.203	5740.6
796.535	5673.48
796.867	5756.64
797.198	5641.39
797.53	5649.98
797.862	5615.63
798.193	5656.08
798.525	5623.99
798.856	5579.25
799.188	5547.38
799.519	5566.36
799.85	5460.83
800.182	5492.24
800.513	5488.63
800.844	5434.17
801.175	5446.59
801.506	5433.94
801.837	5471.45
802.168	5458.35
802.499	5426.48
802.83	5381.06
803.161	5342.19
803.491	5353.49
803.822	5372.25
804.153	5335.18
804.483	5255.86
804.814	5232.14
805.145	5264.23
805.475	5263.55
805.805	5241.4
806.136	5201.63
806.466	5228.29
806.796	5234.17
807.126	5172.03
807.457	5172.48
807.787	5143.55
808.117	5172.93
808.447	5093.83
808.777	5161.63
809.107	5194.85
809.436	5129.99
809.766	5115.76
810.096	5027.85
810.426	5026.94
810.755	5030.33
811.085	5020.84
811.414	4990.56
811.744	5006.61
812.073	4952.82
812.403	4961.41
812.732	4947.4
813.061	4963.44
813.39	4891.13
813.719	4903.11
814.049	4945.14
814.378	4907.85
814.707	4907.4
815.036	4942.2
815.365	4924.35
815.693	4862.88
816.022	4889.09
816.351	4788.53
816.68	4813.16
817.008	4834.63
817.337	4775.43
817.665	4784.69
817.994	4770.68
818.322	4756.89
818.651	4707.63
818.979	4689.1
819.307	4750.57
819.636	4747.4
819.964	4741.3
820.292	4704.47
820.62	4667.41
820.948	4672.6
821.276	4705.82
821.604	4681.64
821.932	4659.27
822.259	4674.19
822.587	4657.91
822.915	4672.38
823.243	4695.43
823.57	4666.5
823.898	4642.32
824.225	4657.91
824.553	4696.11
824.88	4683.9
825.207	4662.89
825.535	4687.52
825.862	4654.75
826.189	4685.48
826.516	4717.8
826.843	4683.45
827.17	4664.69
827.497	4678.48
827.824	4693.39
828.151	4715.09
828.478	4648.65
828.805	4667.41
829.131	4651.59
829.458	4677.57
829.785	4626.73
830.111	4685.26
830.438	4691.13
830.764	4651.81
831.09	4667.41
831.417	4668.08
831.743	4668.76
832.069	4659.95
832.395	4592.15
832.722	4609.78
833.048	4632.6
833.374	4673.51
833.7	4672.15
834.026	4595.54
834.351	4631.02
834.677	4592.61
835.003	4600.74
835.329	4628.99
835.654	4573.17
835.98	4644.36
836.306	4574.3
836.631	4578.14
836.956	4605.26
837.282	4634.41
837.607	4539.73
837.932	4551.25
838.258	4561.65
838.583	4559.16
838.908	4493.85
839.233	4516
839.558	4546.5
839.883	4481.65
840.208	4462.67
840.533	4484.59
840.858	4494.08
841.182	4499.5
841.507	4462.44
841.832	4487.3
842.156	4415.66
842.481	4444.59
842.805	4428.54
843.13	4430.12
843.454	4451.59
843.778	4460.18
844.103	4404.81
844.427	4348.54
844.751	4379.28
845.075	4391.25
845.399	4344.93
845.723	4342.67
846.047	4333.63
846.371	4309.67
846.695	4299.28
847.019	4260.86
847.343	4269
847.666	4278.94
847.99	4247.53
848.313	4256.12
848.637	4191.26
848.96	4200.75
849.284	4216.8
849.607	4190.58
849.931	4147.42
850.254	4108.55
850.577	4030.59
850.9	4058.83
851.223	4044.82
851.546	4043.92
851.869	3991.94
852.192	4018.16
852.515	4013.64
852.838	3984.26
853.161	3961.89
853.483	3935.9
853.806	3954.88
854.129	3944.03
854.451	3897.03
854.774	3880.31
855.096	3928.44
855.419	3895
855.741	3872.17
856.063	3839.86
856.385	3837.82
856.708	3839.86
857.03	3811.61
857.352	3860.2
857.674	3803.93
857.996	3811.16
858.318	3820.2
858.64	3829.91
858.961	3818.39
859.283	3814.77
859.605	3794.89
859.926	3767.77
860.248	3708.33
860.57	3691.84
860.891	3747.43
861.212	3716.02
861.534	3757.37
861.855	3712.63
862.176	3711.95
862.498	3721.89
862.819	3713.53
863.14	3673.76
863.461	3681.67
863.782	3645.96
864.103	3664.95
864.424	3605.74
864.745	3616.13
865.065	3626.75
865.386	3656.81
865.707	3629.69
866.027	3607.32
866.348	3622.24
866.668	3628.79
866.989	3656.13
867.309	3566.87
867.63	3593.31
867.95	3606.42
868.27	3545.85
868.59	3564.38
868.91	3589.69
869.23	3575.23
869.55	3572.29
869.87	3545.85
870.19	3581.78
870.51	3562.12
870.83	3576.81
871.15	3494.56
871.469	3547.21
871.789	3528.23
872.109	3538.4
872.428	3477.15
872.748	3498.85
873.067	3468.12
873.386	3527.55
873.706	3516.48
874.025	3498.85
874.344	3485.06
874.663	3471.96
874.982	3491.62
875.301	3472.86
875.62	3500.2
875.939	3435.12
876.258	3450.04
876.577	3376.14
876.896	3429.25
877.214	3415.46
877.533	3431.28
877.852	3406.42
878.17	3445.52
878.489	3381.34
878.807	3424.5
879.125	3381.34
879.444	3383.15
879.762	3372.75
880.08	3374.78
880.398	3337.72
880.716	3373.2
881.034	3361.45
881.352	3374.11
881.67	3377.5
881.988	3354.22
882.306	3357.38
882.624	3321.45
882.941	3316.25
883.259	3328.68
883.577	3316.48
883.894	3366.42
884.212	3352.64
884.529	3341.56
884.846	3322.81
885.164	3326.88
885.481	3258.63
885.798	3251.17
886.115	3269.7
886.432	3247.1
886.75	3237.84
887.067	3225.64
887.383	3220.21
887.7	3174.79
888.017	3231.06
888.334	3226.09
888.651	3192.64
888.967	3203.26
889.284	3191.96
889.6	3177.95
889.917	3164.39
890.233	3162.36
890.55	3114.68
890.866	3141.8
891.182	3146.77
891.498	3114.9
891.815	3127.56
892.131	3135.92
892.447	3128.91
892.763	3074.23
893.079	3081.91
893.395	3105.41
893.71	3077.39
894.026	3082.81
894.342	3062.48
894.657	3023.15
894.973	3071.29
895.289	3058.63
895.604	3024.51
895.92	3013.21
896.235	2982.03
896.55	2990.16
896.865	3018.41
897.181	2962.14
897.496	2948.35
897.811	2961.46
898.126	2965.76
898.441	2921.01
898.756	2891.63
899.071	2879.66
899.386	2914.46
899.7	2875.14
900.015	2915.59
900.33	2838.98
900.644	2878.75
900.959	2863.39
901.273	2848.92
901.588	2822.71
901.902	2817.06
902.216	2845.53
902.531	2803.27
902.845	2831.07
903.159	2821.58
903.473	2715.14
903.787	2781.81
904.101	2772.99
904.415	2775.93
904.729	2736.83
905.042	2727.8
905.356	2714.46
905.67	2705.88
905.984	2724.86
906.297	2690.51
906.611	2728.93
906.924	2698.19
907.237	2694.35
907.551	2657.29
907.864	2660.23
908.177	2670.85
908.491	2626.56
908.804	2657.97
909.117	2627.69
909.43	2600.34
909.743	2596.73
910.056	2613
910.368	2607.57
910.681	2587.69
910.994	2565.77
911.307	2567.12
911.619	2582.04
911.932	2548.82
912.244	2541.59
912.557	2538.2
912.869	2514.69
913.181	2509.5
913.494	2532.09
913.806	2464.75
914.118	2474.47
914.43	2483.06
914.742	2457.97
915.054	2442.15
915.366	2444.41
915.678	2419.1
915.99	2391.76
916.302	2422.27
916.613	2393.57
916.925	2406.67
917.236	2402.38
917.548	2376.62
917.859	2388.14
918.171	2379.1
918.482	2370.52
918.794	2338.88
919.105	2376.39
919.416	2326.9
919.727	2315.38
920.038	2354.02
920.349	2330.29
920.66	2314.47
920.971	2290.52
921.282	2293.23
921.593	2269.05
921.903	2277.41
922.214	2225.44
922.525	2259.11
922.835	2253.01
923.146	2253.68
923.456	2241.71
923.767	2231.54
924.077	2209.84
924.387	2225.89
924.697	2195.38
925.008	2174.36
925.318	2177.08
925.628	2197.64
925.938	2189.96
926.248	2149.05
926.558	2129.39
926.867	2164.42
927.177	2127.36
927.487	2100.47
927.796	2092.56
928.106	2074.71
928.416	2104.76
928.725	2087.81
929.034	2114.93
929.344	2063.86
929.653	2079.22
929.962	2028.38
930.271	2050.53
930.581	2024.31
930.89	2024.99
931.199	2041.26
931.508	2024.99
931.817	2010.3
932.125	1979.79
932.434	1969.85
932.743	1992.22
933.051	1951.32
933.36	1975.72
933.669	1964.65
933.977	1960.36
934.286	1956.74
934.594	1950.87
934.902	1915.84
935.21	1942.51
935.519	1956.97
935.827	1938.21
936.135	1933.47
936.443	1895.28
936.751	1891.89
937.059	1919.91
937.367	1847.14
937.674	1882.39
937.982	1849.85
938.29	1872.9
938.597	1856.63
938.905	1841.49
939.213	1834.26
939.52	1837.88
939.827	1839.68
940.135	1808.95
940.442	1796.75
940.749	1785
941.056	1803.07
941.363	1780.25
941.67	1804.2
941.977	1779.35
942.284	1770.31
942.591	1773.47
942.898	1752.45
943.205	1768.05
943.511	1786.58
943.818	1751.1
944.125	1729.18
944.431	1746.13
944.738	1705
945.044	1738.89
945.35	1700.48
945.657	1712.45
945.963	1730.99
946.269	1685.79
946.575	1681.95
946.881	1695.96
947.187	1648.5
947.493	1659.8
947.799	1654.38
948.105	1636.07
948.41	1632.46
948.716	1634.26
949.022	1658.9
949.327	1634.49
949.633	1655.06
949.938	1605.57
950.244	1593.36
950.549	1608.73
950.854	1577.09
951.16	1585
951.465	1603.31
951.77	1615.73
952.075	1572.12
952.38	1556.53
952.685	1585.9
952.99	1541.61
953.294	1575.96
953.599	1575.96
953.904	1565.57
954.209	1540.03
954.513	1526.47
954.818	1532.12
955.122	1527.15
955.426	1512.23
955.731	1515.85
956.035	1498.22
956.339	1478.56
956.643	1503.87
956.948	1483.08
957.252	1496.87
957.556	1474.04
957.86	1457.09
958.163	1470.88
958.467	1449.41
958.771	1441.28
959.075	1440.37
959.378	1474.5
959.682	1470.65
959.985	1422.97
960.289	1421.16
960.592	1442.41
960.896	1423.2
961.199	1403.76
961.502	1438.34
961.805	1399.24
962.108	1384.78
962.411	1395.85
962.714	1391.79
963.017	1371.22
963.32	1385.68
963.623	1364.89
963.926	1387.94
964.228	1363.31
964.531	1377.1
964.833	1376.64
965.136	1346.81
965.438	1348.4
965.741	1366.7
966.043	1342.3
966.345	1333.48
966.648	1320.6
966.95	1307.27
967.252	1310.66
967.554	1294.39
967.856	1314.73
968.158	1257.1
968.46	1293.26
968.761	1283.77
969.063	1276.99
969.365	1283.09
969.666	1281.05
969.968	1252.35
970.269	1273.6
970.571	1254.84
970.872	1286.7
971.174	1276.99
971.475	1276.99
971.776	1257.33
972.077	1200.83
972.378	1230.43
972.679	1253.03
972.98	1269.3
973.281	1250.77
973.582	1207.61
973.883	1199.47
974.183	1193.37
974.484	1221.62
974.785	1208.06
975.085	1188.63
975.386	1166.48
975.686	1205.12
975.986	1190.43
976.287	1198.34
976.587	1190.89
976.887	1167.61
977.187	1164.9
977.487	1151.79
977.787	1186.37
978.087	1161.28
978.387	1147.27
978.687	1150.66
978.987	1145.01
979.286	1163.77
979.586	1148.85
979.885	1139.59
980.185	1151.57
980.484	1136.65
980.784	1126.48
981.083	1121.06
981.382	1128.29
981.682	1113.15
981.981	1132.81
982.28	1121.28
982.579	1088.52
982.878	1097.78
983.177	1103.21
983.475	1076.99
983.774	1082.64
984.073	1080.61
984.372	1076.09
984.67	1094.84
984.969	1082.19
985.267	1050.1
985.566	1022.08
985.864	1059.36
986.162	1051.46
986.461	1034.73
986.759	1028.41
987.057	1035.18
987.355	1044.68
987.653	1073.38
987.951	1017.33
988.249	1007.84
988.547	1037.44
988.844	1006.94
989.142	1027.28
989.44	995.64
989.737	1026.15
990.035	992.02
990.332	1007.84
990.63	1014.39
990.927	992.25
991.224	998.12
991.521	973.94
991.819	1015.07
992.116	987.73
992.413	982.98
992.71	994.06
993.006	964.68
993.303	956.32
993.6	980.5
993.897	970.1
994.193	935.98
994.49	957.67
994.787	944.11
995.083	945.02
995.379	935.75
995.676	950.22
995.972	927.84
996.268	926.49
996.565	967.84
996.861	917.67
997.157	910.44
997.453	939.59
997.749	907.96
998.044	893.49
998.34	903.44
998.636	902.76
998.932	902.76
999.227	895.75
999.523	882.87
999.818	906.83
1000.114	891.91
1000.409	887.84
1000.704	871.12
1001	876.32
1001.295	875.87
1001.59	862.08
1001.885	868.64
1002.18	846.04
1002.475	861.18
1002.77	865.47
1003.065	850.33
1003.359	860.05
1003.654	846.04
1003.949	827.51
1004.243	838.35
1004.538	820.28
1004.832	848.52
1005.127	822.99
1005.421	817.11
1005.715	823.21
1006.009	813.27
1006.304	832.7
1006.598	822.08
1006.892	823.21
1007.186	801.52
1007.48	795.87
1007.773	798.13
1008.067	795.19
1008.361	787.06
1008.655	793.38
1008.948	770.78
1009.242	782.54
1009.535	779.6
1009.829	773.27
1010.122	787.96
1010.415	762.88
1010.708	769.88
1011.001	761.75
1011.295	784.12
1011.588	756.32
1011.881	764.46
1012.173	729.2
1012.466	745.7
1012.759	766.49
1013.052	755.19
1013.344	723.33
1013.637	750.45
1013.93	726.94
1014.222	731.69
1014.514	741.86
1014.807	728.98
1015.099	706.83
1015.391	712.48
1015.683	715.19
1015.976	697.34
1016.268	708.19
1016.56	694.4
1016.851	721.52
1017.143	704.57
1017.435	699.37
1017.727	693.95
1018.018	697.57
1018.31	674.52
1018.602	688.3
1018.893	693.27
1019.185	654.86
1019.476	682.88
1019.767	671.13
1020.058	653.05
1020.35	678.36
1020.641	657.57
1020.932	671.35
1021.223	677.45
1021.514	657.34
1021.804	654.63
1022.095	678.36
1022.386	632.94
1022.677	654.86
1022.967	632.48
1023.258	625.48
1023.548	630.68
1023.839	624.8
1024.129	633.39
1024.419	620.96
1024.709	615.31
1025	628.64
1025.29	625.48
1025.58	591.13
1025.87	605.82
1026.16	590.45
1026.449	592.71
1026.739	621.64
1027.029	607.63
1027.319	585.7
1027.608	595.87
1027.898	599.26
1028.187	564.69
1028.477	594.07
1028.766	600.85
1029.055	588.87
1029.344	573.95
1029.634	571.69
1029.923	570.79
1030.212	577.34
1030.501	575.76
1030.79	579.38
1031.078	575.54
1031.367	564.46
1031.656	558.81
1031.945	565.37
1032.233	565.37
1032.522	564.46
1032.81	556.78
1033.099	561.07
1033.387	563.33
1033.675	556.78
1033.963	555.65
1034.251	581.19
1034.54	538.7
1034.828	534.86
1035.116	551.36
1035.403	549.55
1035.691	568.08
1035.979	543.22
1036.267	560.17
1036.554	520.17
1036.842	524.46
1037.129	536.21
1037.417	516.78
1037.704	526.72
1037.992	523.33
1038.279	507.97
1038.566	510.45
1038.853	510.45
1039.14	510.45
