Data from black_plastic_tray_FLMS001491_078.txt Node
Date: Tue Feb 07 10:40:35 GMT 2017
User: dcchb
Spectrometer: FLMS00149
Trigger mode: 0
Integration Time (sec): 2.000000E-2
Scans to average: 10
Electric dark correction enabled: true
Nonlinearity correction enabled: false
Boxcar width: 0
XAxis mode: Wavelengths
Number of Pixels in Spectrum: 2048
>>>>>Begin Spectral Data<<<<<
341.393	-11.51
341.776	-11.51
342.16	-11.51
342.543	-77.5
342.927	-47.89
343.31	-64.84
343.693	-52.19
344.077	-75.24
344.46	-42.92
344.843	-49.02
345.226	-39.53
345.61	-26.88
345.993	-37.5
346.376	-4.05
346.759	6.57
347.142	21.71
347.525	47.02
347.908	45.21
348.291	65.32
348.674	99.45
349.057	106.9
349.44	152.1
349.823	139.9
350.206	166.11
350.588	188.26
350.971	190.29
351.354	183.06
351.737	226.67
352.119	233.23
352.502	266.9
352.884	272.78
353.267	296.05
353.65	275.26
354.032	300.35
354.414	307.12
354.797	306.67
355.179	308.71
355.562	320.46
355.944	305.09
356.326	317.97
356.709	311.64
357.091	329.5
357.473	315.71
357.855	340.8
358.238	326.11
358.62	313.68
359.002	318.65
359.384	339.21
359.766	314.36
360.148	327.24
360.53	310.51
360.912	319.78
361.294	323.62
361.676	336.73
362.057	330.17
362.439	333.11
362.821	314.81
363.203	312.55
363.584	322.94
363.966	324.3
364.348	316.16
364.729	308.48
365.111	334.69
365.493	334.02
365.874	316.39
366.256	304.86
366.637	314.81
367.019	319.78
367.4	293.34
367.781	310.06
368.163	329.72
368.544	317.75
368.925	289.5
369.306	310.97
369.688	313.23
370.069	301.48
370.45	296.05
370.831	325.88
371.212	304.41
371.593	320.01
371.974	310.29
372.355	317.75
372.736	312.32
373.117	325.43
373.498	296.96
373.879	330.63
374.26	312.1
374.641	322.27
375.021	312.55
375.402	329.27
375.783	341.47
376.163	337.41
376.544	337.18
376.925	349.38
377.305	336.5
377.686	351.87
378.066	335.82
378.447	324.3
378.827	348.48
379.208	341.7
379.588	334.24
379.968	335.82
380.349	334.69
380.729	346.9
381.109	334.92
381.489	357.74
381.87	371.98
382.25	361.36
382.63	374.47
383.01	326.33
383.39	366.56
383.77	350.29
384.15	348.25
384.53	357.07
384.91	364.07
385.29	356.39
385.67	357.97
386.049	375.37
386.429	385.99
386.809	360.68
387.189	382.15
387.568	403.17
387.948	354.81
388.328	366.11
388.707	368.59
389.087	374.69
389.466	388.25
389.846	407.24
390.225	399.78
390.605	406.56
390.984	402.26
391.363	363.39
391.743	377.63
392.122	385.77
392.501	410.17
392.881	400.91
393.26	424.18
393.639	424.86
394.018	406.78
394.397	411.75
394.776	405.65
395.155	417.18
395.534	412.21
395.913	413.11
396.292	445.65
396.671	427.8
397.05	443.17
397.429	411.75
397.808	448.82
398.186	441.81
398.565	446.78
398.944	438.19
399.323	464.63
399.701	463.5
400.08	442.49
400.458	428.7
400.837	444.07
401.215	447.69
401.594	450.62
401.972	450.4
402.351	475.48
402.729	468.93
403.107	479.32
403.486	452.43
403.864	465.99
404.242	471.64
404.62	488.59
404.999	490.17
405.377	473.9
405.755	479.55
406.133	493.79
406.511	467.35
406.889	497.85
407.267	494.69
407.645	529.49
408.023	514.8
408.401	531.3
408.779	522.71
409.156	543.73
409.534	515.93
409.912	541.24
410.29	529.27
410.667	527.23
411.045	551.19
411.422	529.72
411.8	552.77
412.178	558.42
412.555	546.44
412.933	565.42
413.31	568.36
413.687	594.8
414.065	585.31
414.442	577.63
414.819	590.06
415.197	583.28
415.574	613.78
415.951	609.49
416.328	625.31
416.705	616.5
417.082	596.61
417.46	633.67
417.837	627.79
418.214	658.98
418.591	633.67
418.967	630.05
419.344	633.67
419.721	662.6
420.098	670.5
420.475	655.36
420.852	675.7
421.228	648.13
421.605	666.66
421.982	662.14
422.358	669.83
422.735	687.23
423.111	676.38
423.488	708.02
423.864	673.44
424.241	702.82
424.617	710.05
424.994	720.45
425.37	736.49
425.746	713.44
426.123	744.85
426.499	735.81
426.875	775.13
427.251	735.81
427.627	779.2
428.003	776.04
428.379	772.65
428.756	796.38
429.132	786.89
429.507	814.68
429.883	795.93
430.259	806.77
430.635	830.73
431.011	822.37
431.387	839.09
431.763	868.47
432.138	863.04
432.514	855.36
432.89	895.58
433.265	877.28
433.641	891.97
434.016	897.84
434.392	898.07
434.767	925.87
435.143	923.61
435.518	935.13
435.894	969.48
436.269	958.18
436.644	977.84
437.02	996.6
437.395	986.2
437.77	1011.06
438.145	986.65
438.52	1017.84
438.895	1014.9
439.271	1008.12
439.646	1051.96
440.021	1051.51
440.395	1033.21
440.77	1038.18
441.145	1065.75
441.52	1089.03
441.895	1077.05
442.27	1104.62
442.645	1073.43
443.019	1091.96
443.394	1091.06
443.769	1095.58
444.143	1120.66
444.518	1113.88
444.892	1132.87
445.267	1118.18
445.641	1139.87
446.016	1162.7
446.39	1167.44
446.764	1170.15
447.139	1172.64
447.513	1176.25
447.887	1183.49
448.262	1194.11
448.636	1195.69
449.01	1197.04
449.384	1193.88
449.758	1212.41
450.132	1251.51
450.506	1249.7
450.88	1231.39
451.254	1240.66
451.628	1231.17
452.002	1261
452.376	1280.66
452.75	1324.5
453.123	1325.4
453.497	1306.42
453.871	1351.62
454.244	1359.53
454.618	1361.33
454.992	1364.5
455.365	1372.63
455.739	1408.11
456.112	1386.42
456.486	1440.2
456.859	1423.25
457.232	1462.57
457.606	1454.67
457.979	1477.49
458.352	1539.18
458.725	1552.29
459.099	1533.99
459.472	1575.57
459.845	1566.07
460.218	1586.64
460.591	1582.12
460.964	1610.14
461.337	1635.45
461.71	1666.86
462.083	1689.01
462.456	1696.92
462.829	1701.44
463.201	1760.65
463.574	1730.14
463.947	1744.83
464.32	1794.09
464.692	1797.71
465.065	1798.61
465.438	1841.55
465.81	1879.29
466.183	1876.57
466.555	1948.66
466.928	1929
467.3	1930.36
467.672	1939.62
468.045	2020.07
468.417	1985.72
468.789	2017.36
469.161	2030.47
469.534	2072.28
469.906	2110.47
470.278	2133.52
470.65	2104.82
471.022	2148.88
471.394	2215.32
471.766	2246.06
472.138	2265.27
472.51	2307.75
472.882	2339.16
473.253	2315.43
473.625	2377.8
473.997	2455.77
474.369	2468.88
474.74	2460.97
475.112	2499.84
475.484	2551.81
475.855	2572.15
476.227	2604.01
476.598	2669.55
476.97	2685.59
477.341	2738.93
477.713	2808.3
478.084	2799.49
478.455	2858.24
478.827	2908.41
479.198	3017.34
479.569	2987.51
479.94	3036.54
480.311	3088.07
480.682	3131.46
481.053	3220.72
481.424	3257.33
481.795	3288.97
482.166	3349.98
482.537	3391.79
482.908	3448.51
483.279	3480.37
483.65	3543.2
484.021	3583.2
484.391	3596.53
484.762	3660.26
485.133	3713.36
485.503	3720.82
485.874	3812.34
486.244	3861.16
486.615	3930.31
486.985	3977.54
487.356	3984.99
487.726	4059.57
488.097	4160.58
488.467	4159.23
488.837	4223.41
489.207	4282.16
489.578	4329.62
489.948	4450.74
490.318	4414.81
490.688	4464.76
491.058	4524.64
491.428	4584.98
491.798	4533.23
492.168	4695.94
492.538	4709.04
492.908	4770.51
493.278	4867.68
493.648	4841.47
494.017	4893.67
494.387	4949.94
494.757	5010.73
495.126	5045.53
495.496	5069.26
495.866	5079.2
496.235	5132.99
496.605	5188.8
496.974	5250.72
497.344	5255.92
497.713	5310.16
498.082	5321
498.452	5392.19
498.821	5402.81
499.19	5429.25
499.559	5497.95
499.928	5549.92
500.298	5617.04
500.667	5643.03
501.036	5649.13
501.405	5684.84
501.774	5683.48
502.143	5744.27
502.512	5736.36
502.88	5859.52
503.249	5842.57
503.618	5889.12
503.987	5931.84
504.356	6005.05
504.724	5988.33
505.093	5994.66
505.462	6066.75
505.83	6164.6
506.199	6152.85
506.567	6235.56
506.936	6225.39
507.304	6277.14
507.672	6278.27
508.041	6427.19
508.409	6460.64
508.777	6414.31
509.145	6475.1
509.514	6513.74
509.882	6574.08
510.25	6572.72
510.618	6696.34
510.986	6681.19
511.354	6785.6
511.722	6782.66
512.09	6893.84
512.458	6847.52
512.826	6965.48
513.193	6945.82
513.561	6941.07
513.929	7042.54
514.297	7110.79
514.664	7220.84
515.032	7158.02
515.4	7220.62
515.767	7303.55
516.135	7355.07
516.502	7333.61
516.869	7433.49
517.237	7466.48
517.604	7472.59
517.972	7597.33
518.339	7651.79
518.706	7576.31
519.073	7722.3
519.44	7760.71
519.808	7801.84
520.175	7829.64
520.542	7989.86
520.909	7996.41
521.276	7973.14
521.643	8126.81
522.009	8147.82
522.376	8211.78
522.743	8239.8
523.11	8381.49
523.477	8439.11
523.843	8510.07
524.21	8565.21
524.577	8629.39
524.943	8652.67
525.31	8671.65
525.676	8775.15
526.043	8808.6
526.409	8948.03
526.776	8987.12
527.142	9016.05
527.508	9045.65
527.874	9061.92
528.241	9141.24
528.607	9192.09
528.973	9348.24
529.339	9377.62
529.705	9484.96
530.071	9478.63
530.437	9567.67
530.803	9707.33
531.169	9703.26
531.535	9675.69
531.901	9701.91
532.267	9698.06
532.632	9914.78
532.998	9871.17
533.364	9842.24
533.73	9947.55
534.095	10024.16
534.461	10052.86
534.826	10082.01
535.192	10112.74
535.557	10173.31
535.923	10192.51
536.288	10278.16
536.653	10296.24
537.019	10264.38
537.384	10286.75
537.749	10422.34
538.114	10460.53
538.479	10493.52
538.845	10596.8
539.21	10566.97
539.575	10530.81
539.94	10634.31
540.305	10680.19
540.67	10666.4
541.034	10705.95
541.399	10774.42
541.764	10772.39
542.129	10903.46
542.494	10934.42
542.858	10913.4
543.223	10910.46
543.587	11005.6
543.952	10983.91
544.316	10967.86
544.681	11027.97
545.045	11133.28
545.41	11201.98
545.774	11241.3
546.138	11241.75
546.503	11232.04
546.867	11386.38
547.231	11427.28
547.595	11412.37
547.959	11438.81
548.324	11522.65
548.688	11458.24
549.052	11548.41
549.416	11539.82
549.779	11608.52
550.143	11591.12
550.507	11759.7
550.871	11741.63
551.235	11727.39
551.599	11848.97
551.962	11871.34
552.326	11876.76
552.689	11997.21
553.053	11956.54
553.417	11967.61
553.78	12126.7
554.143	12106.36
554.507	12223.65
554.87	12140.71
555.234	12310.42
555.597	12320.14
555.96	12361.72
556.323	12354.94
556.686	12357.88
557.05	12499.8
557.413	12563.3
557.776	12574.82
558.139	12672.9
558.502	12768.72
558.865	12719
559.228	12869.96
559.59	12992.44
559.953	12938.43
560.316	13045.77
560.679	12965.1
561.041	13093.23
561.404	13173.45
561.767	13145.21
562.129	13273.56
562.492	13347.69
562.854	13354.69
563.217	13436.72
563.579	13466.1
563.941	13550.84
564.304	13600.79
564.666	13737.28
565.028	13605.76
565.39	13821.57
565.753	13732.99
566.115	13903.38
566.477	13869.25
566.839	13947.67
567.201	14069.7
567.563	14003.71
567.925	14144.95
568.287	14135.69
568.648	14197.38
569.01	14158.06
569.372	14360.99
569.734	14315.34
570.095	14484.15
570.457	14488.45
570.819	14575.22
571.18	14542
571.542	14683.92
571.903	14624.71
572.265	14654.09
572.626	14658.61
572.987	14804.37
573.349	14776.8
573.71	14810.7
574.071	14806.63
574.432	14891.15
574.794	15030.13
575.155	15015.21
575.516	15017.25
575.877	15006.85
576.238	15030.13
576.599	15215.66
576.96	15069
577.32	15232.83
577.681	15238.94
578.042	15277.58
578.403	15347.86
578.763	15332.49
579.124	15500.62
579.485	15383.34
579.845	15399.61
580.206	15406.61
580.566	15405.26
580.927	15385.6
581.287	15390.57
581.648	15329.55
582.008	15524.13
582.368	15484.35
582.728	15457.91
583.089	15424.47
583.449	15428.76
583.809	15535.65
584.169	15483.45
584.529	15429.66
584.889	15703.33
585.249	15547.85
585.609	15408.2
585.969	15582.2
586.329	15595.31
586.688	15559.83
587.048	15615.65
587.408	15485.03
587.768	15495.43
588.127	15591.02
588.487	15521.19
588.846	15653.84
589.206	15475.99
589.565	15344.02
589.925	15454.75
590.284	15575.88
590.643	15485.26
591.003	15632.37
591.362	15530.91
591.721	15560.73
592.08	15619.72
592.44	15712.14
592.799	15679.6
593.158	15594.86
593.517	15634.63
593.876	15760.96
594.235	15659.72
594.593	15661.75
594.952	15675.08
595.311	15697.23
595.67	15695.19
596.029	15748.98
596.387	15772.25
596.746	15769.32
597.104	15701.97
597.463	15631.24
597.822	15709.66
598.18	15708.53
598.538	15669.88
598.897	15795.76
599.255	15560.06
599.613	15858.13
599.972	15803.89
600.33	15774.06
600.688	15750.11
601.046	15784.46
601.404	15895.42
601.762	15836.89
602.12	15859.71
602.478	15947.17
602.836	15916.43
603.194	15829.65
603.552	15931.35
603.91	15857
604.268	15916.43
604.625	15819.71
604.983	15976.09
605.341	15874.4
605.698	15976.09
606.056	15868.3
606.413	15952.82
606.771	16014.28
607.128	16012.93
607.485	15849.31
607.843	15999.14
608.2	16107.84
608.557	16143.32
608.914	16066.48
609.272	16135.41
609.629	16223.77
609.986	16177.89
610.343	16099.7
610.7	16217.89
611.057	16234.39
611.414	16154.62
611.771	16246.14
612.127	16227.84
612.484	16287.04
612.841	16440.94
613.198	16249.08
613.554	16266.71
613.911	16409.75
614.267	16361.39
614.624	16318
614.98	16278
615.337	16397.32
615.693	16412.92
616.05	16407.72
616.406	16494.72
616.762	16381.5
617.118	16381.5
617.475	16486.36
617.831	16501.5
618.187	16484.55
618.543	16557.32
618.899	16617.88
619.255	16572.46
619.611	16605
619.967	16667.82
620.323	16628.73
620.678	16598
621.034	16580.37
621.39	16490.43
621.746	16605.23
622.101	16733.36
622.457	16667.37
622.812	16633.48
623.168	16652.01
623.523	16682.06
623.879	16656.75
624.234	16617.2
624.589	16628.96
624.945	16675.28
625.3	16652.01
625.655	16656.07
626.01	16626.47
626.365	16613.81
626.72	16590.54
627.075	16635.28
627.43	16655.17
627.785	16536.75
628.14	16647.03
628.495	16654.72
628.85	16622.18
629.205	16562.74
629.559	16643.64
629.914	16617.2
630.269	16595.06
630.623	16462.18
630.978	16465.57
631.332	16617.2
631.687	16699.01
632.041	16409.07
632.396	16578.79
632.75	16505.79
633.104	16464.21
633.459	16444.33
633.813	16387.38
634.167	16411.56
634.521	16326.36
634.875	16384.89
635.229	16366.82
635.583	16159.59
635.937	16221.51
636.291	16160.49
636.645	16141.51
636.999	16085.24
637.352	16057.22
637.706	16038.46
638.06	16083.89
638.413	16115.07
638.767	16082.08
639.121	16071.91
639.474	15981.06
639.828	16040.72
640.181	16028.07
640.534	16099.7
640.888	15938.58
641.241	15903.55
641.594	15900.16
641.947	15946.04
642.301	15901.97
642.654	15840.28
643.007	15925.92
643.36	15855.42
643.713	15796.89
644.066	15980.38
644.419	15857.68
644.771	15747.17
645.124	15563.67
645.477	15480.74
645.83	15366.39
646.182	15291.36
646.535	15178.15
646.888	15332.27
647.24	15218.82
647.593	15387.86
647.945	15283.23
648.298	15172.72
648.65	15184.7
649.002	15024.93
649.355	15168.65
649.707	15150.12
650.059	15234.19
650.411	15462.43
650.763	15359.38
651.115	15537.23
651.467	15438.7
651.819	15438.48
652.171	15462.21
652.523	15388.08
652.875	15393.06
653.227	15354.64
653.578	15534.29
653.93	15402.77
654.282	15351.25
654.633	15237.35
654.985	15339.5
655.337	15399.84
655.688	15274.87
656.039	15261.99
656.391	15212.04
656.742	15206.62
657.094	15339.72
657.445	15329.1
657.796	15257.92
658.147	15171.14
658.498	15211.82
658.849	15292.95
659.2	15270.8
659.551	15154.42
659.902	15211.82
660.253	15232.61
660.604	15185.83
660.955	15078.04
661.306	15171.82
661.656	15134.31
662.007	15112.61
662.358	15038.26
662.708	15048.66
663.059	14984.25
663.409	14926.18
663.76	15065.15
664.11	15053.4
664.461	15097.47
664.811	15063.12
665.161	15124.59
665.511	14994.65
665.862	14927.08
666.212	15016.79
666.562	14984.25
666.912	15051.6
667.262	14973.18
667.612	14781.32
667.962	14868.1
668.312	14901.54
668.662	15070.35
669.011	14953.52
669.361	14823.13
669.711	14826.52
670.06	14824.26
670.41	14830.58
670.76	14793.3
671.109	14871.04
671.459	14760.08
671.808	14767.08
672.157	14801.88
672.507	14767.76
672.856	14731.6
673.205	14731.15
673.554	14812.73
673.904	14641.66
674.253	14817.25
674.602	14729.8
674.951	14482.12
675.3	14423.14
675.649	14597.14
675.998	14621.32
676.346	14746.52
676.695	14760.3
677.044	14691.83
677.393	14596.47
677.741	14590.82
678.09	14526.41
678.438	14566.64
678.787	14592.85
679.135	14517.6
679.484	14552.4
679.832	14632.85
680.181	14456.13
680.529	14443.25
680.877	14396.7
681.225	14485.28
681.573	14558.28
681.922	14388.56
682.27	14354.21
682.618	14391.05
682.966	14352.63
683.314	14446.87
683.661	14382.46
684.009	14289.13
684.357	14264.5
684.705	14243.26
685.053	14273.54
685.4	14329.13
685.748	14195.8
686.095	14164.61
686.443	14121.45
686.79	14027.44
687.138	14084.84
687.485	14116.03
687.832	13957.61
688.18	13912.19
688.527	13941.57
688.874	13932.98
689.221	13901.8
689.568	13906.99
689.915	13877.62
690.262	13843.27
690.609	13779.76
690.956	13775.47
691.303	13706.77
691.65	13637.85
691.997	13505.87
692.344	13489.38
692.69	13441.69
693.037	13471.3
693.383	13491.64
693.73	13565.31
694.077	13506.33
694.423	13508.59
694.769	13432.66
695.116	13383.62
695.462	13438.08
695.808	13308.14
696.155	13384.07
696.501	13156.96
696.847	13159.89
697.193	13134.36
697.539	13104.98
697.885	13018.65
698.231	13042.16
698.577	12990.86
698.923	13004.42
699.269	12914.93
699.614	12855.95
699.96	12788.83
700.306	12784.31
700.651	12748.83
700.997	12640.13
701.342	12592.45
701.688	12662.96
702.033	12659.34
702.379	12619.57
702.724	12696.4
703.069	12679.45
703.415	12534.6
703.76	12577.31
704.105	12533.47
704.45	12455.73
704.795	12472.23
705.14	12341.84
705.485	12381.84
705.83	12303.87
706.175	12312.23
706.52	12290.54
706.865	12199.24
707.209	12238.11
707.554	12105.01
707.899	12203.99
708.243	12118.11
708.588	12135.74
708.932	12027.04
709.277	12135.74
709.621	12054.61
709.966	11993.37
710.31	11968.06
710.654	11845.8
710.998	11948.17
711.342	11923.54
711.687	11866.82
712.031	11829.53
712.375	11819.59
712.719	11752.93
713.063	11748.63
713.407	11781.17
713.75	11626.6
714.094	11658.92
714.438	11573.72
714.782	11598.81
715.125	11612.59
715.469	11555.64
715.812	11513.16
716.156	11371.92
716.499	11495.08
716.843	11390.45
717.186	11447.17
717.53	11472.03
717.873	11513.38
718.216	11422.99
718.559	11398.58
718.902	11366.27
719.246	11369.88
719.589	11333.28
719.932	11253.05
720.275	11287.85
720.617	11260.28
720.96	11263.45
721.303	11180.06
721.646	11212.15
721.989	11159.04
722.331	11126.28
722.674	11142.55
723.016	11129.66
723.359	11100.97
723.701	11127.18
724.044	11082.21
724.386	11092.38
724.729	11114.07
725.071	11015.32
725.413	10954.3
725.755	10962.21
726.097	10818.49
726.439	10866.4
726.782	10867.75
727.124	10917.47
727.465	10811.26
727.807	10867.75
728.149	10836.11
728.491	10804.7
728.833	10756.12
729.175	10694.2
729.516	10703.01
729.858	10758.15
730.199	10769.45
730.541	10696.68
730.882	10698.49
731.224	10673.18
731.565	10536.23
731.906	10612.16
732.248	10671.82
732.589	10503.69
732.93	10523.81
733.271	10553.86
733.612	10543.69
733.953	10520.64
734.294	10501.43
734.635	10483.81
734.976	10569.68
735.317	10448.55
735.658	10426.86
735.999	10403.13
736.339	10424.15
736.68	10319.74
737.021	10387.09
737.361	10357.48
737.702	10366.07
738.042	10310.7
738.383	10326.07
738.723	10364.49
739.063	10340.08
739.404	10234.77
739.744	10254.66
740.084	10278.61
740.424	10230.48
740.764	10246.52
741.104	10249.91
741.444	10167.43
741.784	10185.96
742.124	10098.51
742.464	10154.1
742.804	10103.7
743.143	10124.49
743.483	10113.42
743.823	10036.36
744.162	10106.87
744.502	10101.67
744.841	10050.6
745.181	10004.5
745.52	9956.36
745.86	10011.28
746.199	10001.79
746.538	9994.33
746.877	9972.63
747.216	9992.07
747.556	9888.57
747.895	9993.65
748.234	9822.58
748.573	9837.27
748.911	9903.71
749.25	9834.33
749.589	9823.03
749.928	9764.5
750.267	9897.61
750.605	9842.24
750.944	9764.73
751.283	9745.75
751.621	9725.41
751.96	9634.56
752.298	9721.11
752.636	9680.44
752.975	9666.88
753.313	9561.34
753.651	9614.22
753.989	9591.63
754.327	9537.16
754.666	9499.65
755.004	9524.74
755.342	9451.29
755.679	9391.41
756.017	9361.8
756.355	9381.46
756.693	9325.42
757.031	9355.47
757.368	9357.96
757.706	9329.94
758.044	9284.52
758.381	9221.24
758.719	9243.16
759.056	9212.65
759.394	9192.99
759.731	9110.06
760.068	9192.31
760.405	9035.03
760.743	9073
761.08	9039.55
761.417	9018.76
761.754	8973.56
762.091	8960.91
762.428	8938.08
762.765	8937.18
763.102	8949.61
763.438	8905.77
763.775	8807.69
764.112	8849.05
764.449	8872.1
764.785	8734.25
765.122	8741.03
765.458	8713.91
765.795	8655.38
766.131	8711.2
766.467	8618.54
766.804	8531.99
767.14	8538.77
767.476	8506.91
767.812	8520.69
768.148	8565.66
768.485	8464.88
768.821	8487.47
769.157	8439.11
769.492	8389.4
769.828	8407.25
770.164	8327.25
770.5	8319.34
770.836	8307.37
771.171	8239.57
771.507	8240.48
771.842	8170.87
772.178	8216.52
772.513	8189.18
772.849	8195.96
773.184	8072.34
773.519	8120.48
773.855	8061.72
774.19	7947.38
774.525	7973.82
774.86	8033.7
775.195	8032.8
775.53	7921.39
775.865	7865.57
776.2	7845.46
776.535	7777.44
776.87	7801.84
777.205	7745.12
777.539	7700.83
777.874	7745.8
778.209	7620.6
778.543	7604.79
778.878	7569.31
779.212	7608.85
779.547	7551.45
779.881	7544.9
780.215	7520.49
780.55	7525.69
780.884	7406.83
781.218	7417.67
781.552	7364.57
781.886	7377.22
782.22	7338.58
782.554	7279.82
782.888	7294.29
783.222	7200.28
783.556	7252.03
783.889	7184.68
784.223	7144.23
784.557	7153.27
784.89	7130.9
785.224	7083.67
785.557	7063.56
785.891	7008.42
786.224	7027.85
786.558	7048.87
786.891	6911.02
787.224	6964.8
787.557	6963.22
787.891	6944.46
788.224	6885.93
788.557	6890
788.89	6863.79
789.223	6843
789.556	6827.86
789.888	6773.4
790.221	6783.34
790.554	6717.58
790.887	6724.13
791.219	6684.36
791.552	6695.88
791.884	6580.41
792.217	6599.61
792.549	6607.3
792.882	6511.71
793.214	6576.11
793.546	6571.82
793.879	6530.24
794.211	6511.26
794.543	6447.53
794.875	6488.66
795.207	6483.46
795.539	6460.64
795.871	6380.41
796.203	6308.32
796.535	6255.67
796.867	6283.46
797.198	6227.65
797.53	6240.3
797.862	6188.33
798.193	6232.62
798.525	6232.17
798.856	6179.74
799.188	6119.18
799.519	6049.8
799.85	6092.06
800.182	6159.4
800.513	6112.85
800.844	6056.13
801.175	6081.21
801.506	6049.8
801.837	6059.97
802.168	6033.3
802.499	5996.01
802.83	5942.91
803.161	5953.08
803.491	5944.94
803.822	5945.85
804.153	5848.22
804.483	5824.27
804.814	5823.59
805.145	5790.37
805.475	5787.88
805.805	5780.65
806.136	5806.87
806.466	5819.52
806.796	5798.05
807.126	5719.64
807.457	5763.48
807.787	5675.57
808.117	5695.91
808.447	5703.37
808.777	5654.78
809.107	5701.79
809.436	5676.25
809.766	5678.96
810.096	5619.3
810.426	5578.4
810.755	5565.52
811.085	5557.61
811.414	5589.02
811.744	5552.41
812.073	5529.13
812.403	5526.2
812.732	5474.45
813.061	5455.69
813.39	5451.85
813.719	5427.67
814.049	5396.26
814.378	5359.87
814.707	5414.56
815.036	5385.64
815.365	5381.34
815.693	5306.09
816.022	5314.68
816.351	5292.08
816.68	5274.45
817.008	5315.81
817.337	5273.77
817.665	5221.8
817.994	5270.84
818.322	5219.54
818.651	5211.85
818.979	5184.96
819.307	5232.42
819.636	5204.4
819.964	5212.31
820.292	5220.44
820.62	5157.62
820.948	5181.57
821.276	5165.75
821.604	5164.4
821.932	5173.21
822.259	5224.06
822.587	5185.19
822.915	5123.5
823.243	5190.84
823.57	5185.19
823.898	5180.89
824.225	5097.96
824.553	5130.05
824.88	5196.04
825.207	5200.56
825.535	5126.21
825.862	5195.81
826.189	5191.29
826.516	5146.77
826.843	5135.92
827.17	5129.14
827.497	5191.06
827.824	5134.57
828.151	5095.47
828.478	5165.53
828.805	5182.25
829.131	5142.25
829.458	5160.56
829.785	5093.67
830.111	5112.65
830.438	5204.62
830.764	5153.32
831.09	5101.8
831.417	5129.6
831.743	5106.32
832.069	5132.31
832.395	5132.99
832.722	5091.63
833.048	5072.2
833.374	5094.8
833.7	5104.29
834.026	5078.52
834.351	5107.45
834.677	5056.6
835.003	5081.46
835.329	5048.24
835.654	5103.38
835.98	5073.1
836.306	5051.41
836.631	5099.54
836.956	5052.08
837.282	5039.66
837.607	5050.05
837.932	5012.76
838.258	4979.77
838.583	4995.59
838.908	5034.46
839.233	4986.78
839.558	4980.9
839.883	4928.47
840.208	4967.12
840.533	4975.48
840.858	4959.88
841.182	4959.88
841.507	4953.56
841.832	4942.48
842.156	4895.93
842.481	4916.95
842.805	4871.52
843.13	4930.28
843.454	4833.33
843.778	4860.68
844.103	4826.33
844.427	4824.29
844.751	4828.14
845.075	4792.66
845.399	4800.11
845.723	4791.07
846.047	4804.41
846.371	4717.86
846.695	4720.57
847.019	4708.82
847.343	4743.17
847.666	4705.88
847.99	4671.76
848.313	4634.92
848.637	4632.89
848.96	4661.81
849.284	4594.47
849.607	4600.12
849.931	4608.25
850.254	4547.69
850.577	4500.23
850.9	4490.74
851.223	4461.82
851.546	4487.13
851.869	4405.32
852.192	4416.4
852.515	4427.24
852.838	4429.28
853.161	4400.8
853.483	4339.34
853.806	4342.5
854.129	4380.69
854.451	4373.23
854.774	4312.9
855.096	4330.75
855.419	4270.86
855.741	4279
856.063	4261.15
856.385	4286.68
856.708	4295.27
857.03	4226.12
857.352	4236.51
857.674	4255.27
857.996	4183.86
858.318	4198.32
858.64	4212.78
858.961	4208.72
859.283	4140.7
859.605	4131.66
859.926	4136.85
860.248	4133.46
860.57	4100.92
860.891	4128.27
861.212	4072.9
861.534	4099.79
861.855	4080.13
862.176	4087.36
862.498	4079.68
862.819	4079.91
863.14	4037.87
863.461	3994.94
863.782	3956.52
864.103	3994.71
864.424	3986.8
864.745	4018.67
865.065	4021.83
865.386	3988.84
865.707	3994.94
866.027	4030.19
866.348	4003.75
866.668	4030.87
866.989	3983.19
867.309	3937.09
867.63	3943.41
867.95	3961.49
868.27	3934.83
868.59	3964.43
868.91	3930.08
869.23	3973.24
869.55	3933.7
869.87	3925.56
870.19	3913.81
870.51	3929.63
870.83	3919.91
871.15	3885.34
871.469	3898.22
871.789	3910.19
872.109	3889.18
872.428	3822.51
872.748	3795.85
873.067	3821.16
873.386	3867.03
873.706	3827.48
874.025	3801.95
874.344	3826.13
874.663	3844.21
874.982	3789.74
875.301	3775.73
875.62	3761.5
875.939	3742.97
876.258	3781.16
876.577	3819.57
876.896	3762.18
877.214	3760.59
877.533	3756.75
877.852	3775.51
878.17	3747.71
878.489	3787.71
878.807	3759.69
879.125	3773.7
879.444	3763.31
879.762	3738.67
880.08	3740.71
880.398	3691.44
880.716	3723.31
881.034	3705
881.352	3722.63
881.67	3709.3
881.988	3650.09
882.306	3700.93
882.624	3667.71
882.941	3653.48
883.259	3639.69
883.577	3685.11
883.894	3650.31
884.212	3631.33
884.529	3666.81
884.846	3620.48
885.164	3626.36
885.481	3599.69
885.798	3627.49
886.115	3573.93
886.432	3584.1
886.75	3556.3
887.067	3548.4
887.383	3561.95
887.7	3526.25
888.017	3510.88
888.334	3545.68
888.651	3487.83
888.967	3492.58
889.284	3440.38
889.6	3465.23
889.917	3485.8
890.233	3428.85
890.55	3439.7
890.866	3457.1
891.182	3455.06
891.498	3443.77
891.815	3466.14
892.131	3437.66
892.447	3406.25
892.763	3409.42
893.079	3404.22
893.395	3393.6
893.71	3337.55
894.026	3385.91
894.342	3405.12
894.657	3337.1
894.973	3367.61
895.289	3296.65
895.604	3294.39
895.92	3318.57
896.235	3260.04
896.55	3290.32
896.865	3284
897.181	3299.14
897.496	3278.35
897.811	3254.84
898.126	3218.91
898.441	3196.77
898.756	3195.41
899.071	3170.78
899.386	3188.63
899.7	3201.51
900.015	3168.29
900.33	3136.2
900.644	3149.76
900.959	3148.18
901.273	3205.13
901.588	3135.75
901.902	3133.72
902.216	3117.22
902.531	3083.1
902.845	3141.85
903.159	3081.52
903.473	3065.24
903.787	3060.95
904.101	3028.41
904.415	3040.61
904.729	3012.14
905.042	3031.57
905.356	2984.12
905.67	2990.44
905.984	2970.11
906.297	2989.77
906.611	2941.63
906.924	2955.64
907.237	2989.77
907.551	2928.98
907.864	2960.61
908.177	2928.98
908.491	2950.45
908.804	2922.42
909.117	2877.9
909.43	2873.38
909.743	2857.79
910.056	2855.08
910.368	2830.45
910.681	2865.93
910.994	2828.19
911.307	2798.81
911.619	2794.52
911.932	2795.87
912.244	2802.2
912.557	2831.58
912.869	2767.4
913.181	2762.65
913.494	2773.73
913.806	2693.28
914.118	2703.67
914.43	2676.55
914.742	2680.17
915.054	2729.66
915.366	2702.54
915.678	2679.94
915.99	2650.79
916.302	2670.9
916.613	2673.39
916.925	2602.66
917.236	2640.85
917.548	2599.72
917.859	2614.86
918.171	2609.66
918.482	2585.26
918.794	2563.79
919.105	2572.83
919.416	2551.81
919.727	2580.29
920.038	2529.89
920.349	2507.97
920.66	2494.86
920.971	2513.62
921.282	2486.28
921.593	2500.29
921.903	2464.81
922.214	2483.79
922.525	2461.64
922.835	2468.42
923.146	2441.08
923.456	2428.2
923.767	2409.22
924.077	2392.95
924.387	2395.88
924.697	2413.06
925.008	2414.87
925.318	2383.68
925.628	2415.32
925.938	2401.53
926.248	2344.36
926.558	2337.35
926.867	2344.36
927.177	2376.9
927.487	2289.22
927.796	2283.34
928.106	2300.07
928.416	2295.55
928.725	2272.04
929.034	2249.22
929.344	2256.9
929.653	2246.28
929.962	2245.6
930.271	2192.5
930.581	2220.52
930.89	2219.39
931.199	2202.67
931.508	2213.06
931.817	2174.65
932.125	2176.68
932.434	2188.43
932.743	2118.6
933.051	2126.06
933.36	2153.86
933.669	2156.12
933.977	2103.01
934.286	2130.35
934.594	2117.02
934.902	2095.33
935.21	2114.31
935.519	2111.6
935.827	2097.81
936.135	2087.87
936.443	2098.94
936.751	2096.23
937.059	2075.67
937.367	2057.81
937.674	2056.91
937.982	2034.99
938.29	2040.41
938.597	2031.6
938.905	1983.01
939.213	2027.76
939.52	2002.67
939.827	2019.4
940.135	1997.93
940.442	2023.01
940.749	1970.13
941.056	1967.87
941.363	1934.65
941.67	1942.11
941.977	1913.41
942.284	1930.81
942.591	1925.61
942.898	1940.98
943.205	1900.53
943.511	1888.1
943.818	1926.29
944.125	1880.64
944.431	1869.8
944.738	1864.37
945.044	1848.33
945.35	1859.4
945.657	1825.05
945.963	1857.14
946.269	1842.68
946.575	1825.28
946.881	1819.63
947.187	1805.16
947.493	1800.64
947.799	1834.32
948.105	1759.29
948.41	1816.92
948.716	1799.51
949.022	1741.66
949.327	1756.13
949.633	1761.78
949.938	1779.4
950.244	1767.2
950.549	1733.98
950.854	1728.33
951.16	1725.39
951.465	1742.34
951.77	1718.61
952.075	1704.83
952.38	1665.96
952.685	1706.86
952.99	1704.83
953.294	1712.29
953.599	1677.71
953.904	1717.03
954.209	1671.16
954.513	1685.62
954.818	1664.38
955.122	1618.95
955.426	1651.95
955.731	1643.36
956.035	1606.07
956.339	1632.74
956.643	1632.74
956.948	1602.91
957.252	1620.54
957.556	1631.61
957.86	1586.64
958.163	1584.38
958.467	1612.4
958.771	1588.45
959.075	1556.13
959.378	1550.71
959.682	1546.19
959.985	1548.22
960.289	1533.76
960.592	1556.58
960.896	1552.52
961.199	1546.41
961.502	1533.31
961.805	1496.25
962.108	1508.9
962.411	1500.77
962.714	1511.16
963.017	1494.44
963.32	1479.52
963.623	1520.43
963.926	1469.81
964.228	1509.8
964.531	1478.85
964.833	1497.83
965.136	1464.16
965.438	1444.04
965.741	1437.94
966.043	1457.38
966.345	1440.2
966.648	1464.16
966.95	1417.6
967.252	1422.35
967.554	1417.6
967.856	1423.71
968.158	1399.07
968.46	1427.55
968.761	1383.48
969.063	1388
969.365	1354.1
969.666	1367.66
969.968	1398.4
970.269	1358.85
970.571	1355.23
970.872	1362.69
971.174	1340.54
971.475	1355.46
971.776	1343.71
972.077	1325.18
972.378	1314.1
972.679	1330.15
972.98	1328.11
973.281	1329.24
973.582	1314.33
973.883	1313.2
974.183	1329.7
974.484	1300.09
974.785	1299.19
975.085	1290.38
975.386	1296.25
975.686	1282.92
975.986	1253.54
976.287	1264.16
976.587	1257.38
976.887	1274.78
977.187	1231.85
977.487	1260.09
977.787	1250.38
978.087	1251.28
978.387	1220.77
978.687	1233.88
978.987	1251.73
979.286	1231.17
979.586	1230.49
979.885	1209.25
980.185	1210.83
980.484	1203.15
980.784	1220.32
981.083	1205.18
981.382	1193.66
981.682	1214.9
981.981	1199.3
982.28	1168.8
982.579	1181.23
982.878	1177.84
983.177	1155.46
983.475	1172.41
983.774	1185.29
984.073	1156.14
984.372	1142.58
984.67	1145.75
984.969	1138.06
985.267	1153.2
985.566	1143.49
985.864	1127.22
986.162	1121.11
986.461	1135.8
986.759	1105.07
987.057	1127.44
987.355	1076.37
987.653	1108.91
987.951	1097.84
988.249	1088.35
988.547	1082.92
988.844	1091.96
989.142	1102.13
989.44	1094.9
989.737	1082.25
990.035	1093.54
990.332	1070.04
990.63	1068.69
990.927	1078.4
991.224	1079.53
991.521	1057.16
991.819	1023.04
992.116	1049.03
992.413	1031.85
992.71	1049.93
993.006	1052.64
993.303	1063.04
993.6	1028.24
993.897	1037.05
994.193	1038.86
994.49	1017.16
994.787	1009.03
995.083	1004.51
995.379	1012.42
995.676	1037.05
995.972	999.08
996.268	1004.96
996.565	991.63
996.861	999.76
997.157	975.81
997.453	974.23
997.749	1011.51
998.044	983.72
998.34	964.73
998.636	966.54
998.932	977.62
999.227	951.63
999.523	967.22
999.818	953.21
1000.114	945.07
1000.409	938.97
1000.704	937.16
1001	959.31
1001.295	931.52
1001.59	895.36
1001.885	912.76
1002.18	919.76
1002.475	913.89
1002.77	895.13
1003.065	918.63
1003.359	913.21
1003.654	913.66
1003.949	891.97
1004.243	894.45
1004.538	889.71
1004.832	862.36
1005.127	901.46
1005.421	872.53
1005.715	869.6
1006.009	875.25
1006.304	865.53
1006.598	862.59
1006.892	860.33
1007.186	880.67
1007.48	846.32
1007.773	862.59
1008.067	825.98
1008.361	846.09
1008.655	834.79
1008.948	840.22
1009.242	834.79
1009.535	846.77
1009.829	839.09
1010.122	807.68
1010.415	817.17
1010.708	811.07
1011.001	813.1
1011.295	811.07
1011.588	788.92
1011.881	815.36
1012.173	806.32
1012.466	776.49
1012.759	802.48
1013.052	793.89
1013.344	781.91
1013.637	783.95
1013.93	776.94
1014.222	772.42
1014.514	774.23
1014.807	791.18
1015.099	770.39
1015.391	751.41
1015.683	747.57
1015.976	750.95
1016.268	751.86
1016.56	726.77
1016.851	740.56
1017.143	744.4
1017.435	750.73
1017.727	743.27
1018.018	746.21
1018.31	715.93
1018.602	704.85
1018.893	696.27
1019.185	723.38
1019.476	705.31
1019.767	715.93
1020.058	698.3
1020.35	714.35
1020.641	714.57
1020.932	727
1021.223	700.79
1021.514	703.05
1021.804	704.4
1022.095	685.87
1022.386	669.38
1022.677	672.09
1022.967	660.34
1023.258	682.93
1023.548	675.93
1023.839	665.76
1024.129	643.61
1024.419	685.19
1024.709	663.5
1025	639.55
1025.29	659.21
1025.58	670.05
1025.87	625.99
1026.16	634.35
1026.449	639.32
1026.739	633.67
1027.029	619.66
1027.319	643.39
1027.608	621.47
1027.898	634.35
1028.187	635.48
1028.477	635.93
1028.766	623.5
1029.055	601.35
1029.344	612.2
1029.634	618.3
1029.923	615.37
1030.212	624.18
1030.501	603.84
1030.79	596.38
1031.078	595.7
1031.367	606.1
1031.656	588.25
1031.945	609.94
1032.233	583.05
1032.522	582.6
1032.81	594.35
1033.099	601.58
1033.387	575.59
1033.675	578.98
1033.963	578.53
1034.251	582.37
1034.54	594.57
1034.828	572.2
1035.116	569.04
1035.403	560.68
1035.691	564.29
1035.979	567
1036.267	550.06
1036.554	547.57
1036.842	560.9
1037.129	549.6
1037.417	543.73
1037.704	546.89
1037.992	546.44
1038.279	535.37
1038.566	536.5
1038.853	536.5
1039.14	536.5
