Data from black_plastic_tray_FLMS001491_093.txt Node
Date: Tue Feb 07 10:41:02 GMT 2017
User: dcchb
Spectrometer: FLMS00149
Trigger mode: 0
Integration Time (sec): 2.000000E-2
Scans to average: 10
Electric dark correction enabled: true
Nonlinearity correction enabled: false
Boxcar width: 0
XAxis mode: Wavelengths
Number of Pixels in Spectrum: 2048
>>>>>Begin Spectral Data<<<<<
341.393	-13.11
341.776	-13.11
342.16	-13.11
342.543	-72.54
342.927	-48.81
343.31	-76.16
343.693	-67.57
344.077	-74.12
344.46	-53.78
344.843	-56.5
345.226	-36.16
345.61	-34.35
345.993	0
346.376	-1.58
346.759	10.85
347.142	23.95
347.525	28.93
347.908	59.89
348.291	75.7
348.674	83.39
349.057	117.51
349.44	126.55
349.823	138.98
350.206	156.15
350.588	180.79
350.971	202.25
351.354	211.97
351.737	217.85
352.119	201.58
352.502	248.13
352.884	256.49
353.267	256.04
353.65	271.63
354.032	282.03
354.414	281.57
354.797	309.82
355.179	288.35
355.562	293.33
355.944	307.11
356.326	305.3
356.709	305.75
357.091	337.39
357.473	310.27
357.855	341.01
358.238	310.05
358.62	321.12
359.002	320.9
359.384	317.28
359.766	308.92
360.148	331.74
360.53	327
360.912	331.29
361.294	325.64
361.676	328.35
362.057	308.69
362.439	319.31
362.821	306.21
363.203	321.57
363.584	309.6
363.966	324.96
364.348	313.66
364.729	293.55
365.111	325.64
365.493	307.79
365.874	298.3
366.256	280.22
366.637	306.66
367.019	290.61
367.4	284.96
367.781	297.39
368.163	302.36
368.544	300.56
368.925	292.2
369.306	305.3
369.688	288.13
370.069	291.97
370.45	301.01
370.831	305.08
371.212	301.91
371.593	281.8
371.974	299.88
372.355	309.37
372.736	289.94
373.117	294.46
373.498	292.65
373.879	304.62
374.26	298.07
374.641	310.73
375.021	315.25
375.402	296.49
375.783	297.17
376.163	318.86
376.544	300.11
376.925	316.6
377.305	303.49
377.686	319.31
378.066	301.24
378.447	308.01
378.827	305.75
379.208	311.18
379.588	292.42
379.968	308.92
380.349	335.13
380.729	320.22
381.109	327.22
381.489	320.9
381.87	304.17
382.25	314.79
382.63	325.87
383.01	319.99
383.39	326.09
383.77	317.96
384.15	322.7
384.53	326.32
384.91	333.55
385.29	338.52
385.67	329.03
386.049	345.53
386.429	328.13
386.809	319.54
387.189	328.13
387.568	328.13
387.948	331.97
388.328	356.6
388.707	340.78
389.087	348.24
389.466	337.39
389.846	347.79
390.225	348.69
390.605	353.66
390.984	357.96
391.363	369.71
391.743	346.66
392.122	360.44
392.501	372.42
392.881	361.8
393.26	355.47
393.639	373.78
394.018	368.35
394.397	348.69
394.776	371.06
395.155	376.49
395.534	353.66
395.913	371.06
396.292	385.75
396.671	365.19
397.05	361.57
397.429	368.8
397.808	374.91
398.186	371.29
398.565	382.36
398.944	371.06
399.323	377.62
399.701	381.68
400.08	363.15
400.458	381.23
400.837	396.83
401.215	396.6
401.594	395.47
401.972	390.05
402.351	396.6
402.729	410.38
403.107	405.41
403.486	392.76
403.864	401.35
404.242	410.38
404.62	418.75
404.999	432.31
405.377	407.22
405.755	379.88
406.133	425.07
406.511	418.75
406.889	424.85
407.267	408.35
407.645	431.18
408.023	425.07
408.401	446.32
408.779	436.15
409.156	423.27
409.534	436.15
409.912	444.06
410.29	439.76
410.667	461.46
411.045	457.39
411.422	452.42
411.8	468.91
412.178	446.54
412.555	453.77
412.933	438.63
413.31	454.9
413.687	466.88
414.065	489.03
414.442	483.15
414.819	464.85
415.197	479.76
415.574	469.59
415.951	486.09
416.328	473.43
416.705	469.59
417.082	490.83
417.46	495.81
417.837	478.41
418.214	486.09
418.591	507.33
418.967	513.88
419.344	482.93
419.721	509.82
420.098	507.78
420.475	504.85
420.852	522.02
421.228	508.01
421.605	513.21
421.982	526.54
422.358	553.43
422.735	542.13
423.111	534
423.488	544.39
423.864	554.11
424.241	540.55
424.617	545.52
424.994	543.26
425.37	555.24
425.746	554.34
426.123	576.93
426.499	576.93
426.875	595.46
427.251	574.67
427.627	564.05
428.003	566.54
428.379	595.46
428.756	606.31
429.132	601.57
429.507	597.72
429.883	619.42
430.259	622.36
430.635	637.95
431.011	597.95
431.387	635.24
431.763	622.36
432.138	618.06
432.514	631.17
432.89	650.6
433.265	655.8
433.641	644.73
434.016	659.19
434.392	671.85
434.767	661.23
435.143	663.94
435.518	688.8
435.894	697.16
436.269	686.54
436.644	680.66
437.02	711.62
437.395	691.28
437.77	704.16
438.145	721.79
438.52	717.27
438.895	719.08
439.271	728.34
439.646	733.31
440.021	744.61
440.395	735.57
440.77	743.03
441.145	750.04
441.52	775.8
441.895	774.22
442.27	748.45
442.645	767.66
443.019	764.5
443.394	808.79
443.769	792.52
444.143	769.47
444.518	795.46
444.892	781.45
445.267	797.27
445.641	828.68
446.016	780.09
446.39	817.38
446.764	805.18
447.139	821.22
447.513	790.71
447.887	841.79
448.262	840.43
448.636	821.22
449.01	841.79
449.384	853.31
449.758	862.35
450.132	883.14
450.506	854.44
450.88	870.94
451.254	866.19
451.628	894.67
452.002	880.88
452.376	893.99
452.75	901.45
453.123	896.47
453.497	924.5
453.871	931.73
454.244	945.51
454.618	918.17
454.992	936.92
455.365	959.52
455.739	972.18
456.112	977.6
456.486	966.53
456.859	995
457.232	1024.61
457.606	1009.92
457.979	1022.8
458.352	1046.07
458.725	1046.53
459.099	1028.67
459.472	1060.54
459.845	1047.2
460.218	1060.31
460.591	1078.62
460.964	1089.69
461.337	1098.05
461.71	1112.06
462.083	1157.94
462.456	1133.76
462.829	1138.05
463.201	1148.67
463.574	1140.31
463.947	1147.31
464.32	1206.75
464.692	1212.85
465.065	1177.14
465.438	1213.98
465.81	1218.05
466.183	1257.59
466.555	1250.36
466.928	1288.55
467.3	1286.29
467.672	1316.12
468.045	1322.23
468.417	1299.85
468.789	1342.79
469.161	1316.12
469.534	1370.13
469.906	1373.98
470.278	1363.58
470.65	1387.08
471.022	1420.75
471.394	1466.85
471.766	1470.02
472.138	1469.11
472.51	1485.84
472.882	1513.41
473.253	1527.19
473.625	1551.15
473.997	1577.13
474.369	1552.5
474.74	1608.32
475.112	1614.87
475.484	1650.35
475.855	1692.84
476.227	1650.35
476.598	1697.58
476.97	1735.1
477.341	1761.99
477.713	1800.4
478.084	1792.5
478.455	1826.84
478.827	1872.27
479.198	1910.23
479.569	1916.11
479.94	1941.87
480.311	1934.86
480.682	2038.82
481.053	2064.58
481.424	2071.58
481.795	2085.14
482.166	2105.71
482.537	2169.89
482.908	2204.01
483.279	2215.31
483.65	2243.33
484.021	2305.93
484.391	2274.06
484.762	2344.12
485.133	2312.03
485.503	2367.4
485.874	2395.19
486.244	2428.41
486.615	2434.96
486.985	2460.95
487.356	2525.36
487.726	2525.81
488.097	2597.9
488.467	2614.85
488.837	2673.6
489.207	2652.36
489.578	2728.74
489.948	2755.41
490.318	2781.85
490.688	2799.7
491.058	2789.98
491.428	2850.77
491.798	2898.68
492.168	2936.65
492.538	2922.41
492.908	2969.41
493.278	3005.8
493.648	3004.89
494.017	3056.64
494.387	3060.94
494.757	3103.87
495.126	3134.61
495.496	3150.43
495.866	3145.68
496.235	3196.3
496.605	3196.75
496.974	3281.27
497.344	3257.99
497.713	3302.96
498.082	3295.73
498.452	3333.47
498.821	3373.47
499.19	3389.52
499.559	3408.95
499.928	3440.36
500.298	3472.68
500.667	3493.47
501.036	3498.89
501.405	3489.63
501.774	3543.64
502.143	3587.7
502.512	3597.65
502.88	3613.92
503.249	3622.28
503.618	3647.36
503.987	3638.55
504.356	3692.78
504.724	3714.48
505.093	3713.8
505.462	3747.92
505.83	3705.21
506.199	3792.44
506.567	3861.59
506.936	3810.52
507.304	3883.51
507.672	3945.21
508.041	3893.68
508.409	3918.54
508.777	3924.87
509.145	4048.93
509.514	3983.85
509.882	4054.13
510.25	4043.96
510.618	4083.96
510.986	4126.67
511.354	4121.25
511.722	4165.31
512.09	4240.57
512.458	4232.66
512.826	4227.91
513.193	4264.07
513.561	4300.9
513.929	4307.01
514.297	4340.68
514.664	4398.3
515.032	4450.5
515.4	4434.46
515.767	4471.29
516.135	4496.6
516.502	4517.17
516.869	4526.89
517.237	4556.94
517.604	4518.53
517.972	4624.06
518.339	4648.01
518.706	4714.68
519.073	4732.76
519.44	4753.77
519.808	4728.92
520.175	4841.91
520.542	4835.35
520.909	4888.23
521.276	4911.51
521.643	4928.68
522.009	4955.8
522.376	5012.98
522.743	5039.19
523.11	5112.86
523.477	5106.08
523.843	5152.63
524.21	5208
524.577	5225.17
524.943	5204.38
525.31	5303.14
525.676	5368.9
526.043	5378.84
526.409	5408.9
526.776	5461.55
527.142	5431.5
527.508	5513.53
527.874	5583.81
528.241	5608.21
528.607	5609.12
528.973	5666.07
529.339	5598.95
529.705	5731.15
530.071	5779.96
530.437	5742
530.803	5817.93
531.169	5873.52
531.535	5850.69
531.901	5881.43
532.267	5895.21
532.632	5918.26
532.998	5988.77
533.364	6015.44
533.73	6066.73
534.095	6074.87
534.461	6065.38
534.826	6187.41
535.192	6164.13
535.557	6178.14
535.923	6160.52
536.288	6196.9
536.653	6213.4
537.019	6257.91
537.384	6257.24
537.749	6273.28
538.114	6333.39
538.479	6362.54
538.845	6356.44
539.21	6367.74
539.575	6378.36
539.94	6466.04
540.305	6486.61
540.67	6487.29
541.034	6471.02
541.399	6544.46
541.764	6605.7
542.129	6561.41
542.494	6615.65
542.858	6607.74
543.223	6676.66
543.587	6692.93
543.952	6729.54
544.316	6726.38
544.681	6718.02
545.045	6714.17
545.41	6802.31
545.774	6794.62
546.138	6854.06
546.503	6859.03
546.867	6826.94
547.231	6878.01
547.595	6953.49
547.959	6976.31
548.324	6911.91
548.688	6949.42
549.052	7049.76
549.416	7020.38
549.779	6975.18
550.143	7025.35
550.507	7171.56
550.871	7098.8
551.235	7107.61
551.599	7182.64
551.962	7149.87
552.326	7260.37
552.689	7277.77
553.053	7235.06
553.417	7281.62
553.78	7358.22
554.143	7284.1
554.507	7364.1
554.87	7390.31
555.234	7519.8
555.597	7456.53
555.96	7479.35
556.323	7528.39
556.686	7568.16
557.05	7545.34
557.413	7667.6
557.776	7621.95
558.139	7688.39
558.502	7676.86
558.865	7771.77
559.228	7784.2
559.59	7819.68
559.953	7843.86
560.316	7914.82
560.679	7919.11
561.041	7964.76
561.404	7954.59
561.767	8050.41
562.129	7980.13
562.492	8063.74
562.854	8082.05
563.217	8120.69
563.579	8176.28
563.941	8175.6
564.304	8231.65
564.666	8279.56
565.028	8286.34
565.39	8267.35
565.753	8327.46
566.115	8378.31
566.477	8410.4
566.839	8393.23
567.201	8519.55
567.563	8478.42
567.925	8547.35
568.287	8567.46
568.648	8584.63
569.01	8632.77
569.372	8643.84
569.734	8702.82
570.095	8682.26
570.457	8787.34
570.819	8819.2
571.18	8772.2
571.542	8849.94
571.903	8923.16
572.265	8896.26
572.626	8936.94
572.987	9006.77
573.349	8924.51
573.71	9003.61
574.071	8979.88
574.432	9057.61
574.794	9139.87
575.155	9072.08
575.516	9100.1
575.877	9134.22
576.238	9097.61
576.599	9156.82
576.96	9179.87
577.32	9177.61
577.681	9263.26
578.042	9311.62
578.403	9232.07
578.763	9266.87
579.124	9315.01
579.485	9292.64
579.845	9321.79
580.206	9372.18
580.566	9328.79
580.927	9344.84
581.287	9427.77
581.648	9328.34
582.008	9419.64
582.368	9374.89
582.728	9422.35
583.089	9349.81
583.449	9370.15
583.809	9419.19
584.169	9452.18
584.529	9400.2
584.889	9480.88
585.249	9319.08
585.609	9416.02
585.969	9468
586.329	9446.76
586.688	9454.21
587.048	9453.54
587.408	9363.82
587.768	9429.13
588.127	9389.81
588.487	9418.51
588.846	9503.48
589.206	9474.1
589.565	9374.67
589.925	9437.72
590.284	9435.68
590.643	9463.71
591.003	9429.13
591.362	9499.19
591.721	9445.63
592.08	9415.12
592.44	9502.8
592.799	9472.52
593.158	9427.32
593.517	9504.83
593.876	9500.09
594.235	9478.85
594.593	9542.57
594.952	9540.54
595.311	9466.64
595.67	9483.82
596.029	9609.69
596.387	9532.86
596.746	9540.77
597.104	9533.99
597.463	9531.5
597.822	9565.17
598.18	9553.2
598.538	9493.08
598.897	9568.56
599.255	9502.35
599.613	9618.28
599.972	9551.39
600.33	9590.71
600.688	9573.31
601.046	9656.7
601.404	9636.13
601.762	9658.05
602.12	9602.91
602.478	9630.71
602.836	9646.53
603.194	9640.88
603.552	9678.84
603.91	9563.14
604.268	9664.6
604.625	9643.14
604.983	9684.49
605.341	9672.97
605.698	9699.63
606.056	9761.33
606.413	9723.59
606.771	9769.01
607.128	9684.49
607.485	9674.77
607.843	9701.44
608.2	9762.68
608.557	9841.78
608.914	9822.57
609.272	9736.02
609.629	9887.42
609.986	9864.15
610.343	9800.87
610.7	9913.64
611.057	9863.24
611.414	9953.41
611.771	9928.1
612.127	9965.61
612.484	9964.94
612.841	9979.62
613.198	9892.85
613.554	9927.42
613.911	10111.82
614.267	9944.6
614.624	9985.05
614.98	10001.09
615.337	10051.26
615.693	10004.93
616.05	10010.13
616.406	10095.33
616.762	10057.14
617.118	10050.81
617.475	10035.44
617.831	10033.63
618.187	10068.66
618.543	10086.06
618.899	10136.23
619.255	10101.66
619.611	10092.39
619.967	10145.5
620.323	10134.65
620.678	10084.25
621.034	10145.72
621.39	10038.15
621.746	10065.95
622.101	10185.27
622.457	10109.34
622.812	10115.89
623.168	10149.34
623.523	10174.2
623.879	10165.16
624.234	10065.5
624.589	10130.58
624.945	10230.24
625.3	10226.4
625.655	10209.9
626.01	10229.56
626.365	10179.17
626.72	10157.47
627.075	10234.76
627.43	10190.01
627.785	10183.91
628.14	10144.37
628.495	10148.43
628.85	10145.5
629.205	10076.35
629.559	10143.69
629.914	10123.8
630.269	10087.64
630.623	10093.07
630.978	10088.55
631.332	10144.59
631.687	10091.03
632.041	10141.88
632.396	10143.24
632.75	10050.36
633.104	10064.82
633.459	10073.63
633.813	10000.87
634.167	9993.18
634.521	9970.36
634.875	9992.73
635.229	9989.79
635.583	9951.6
635.937	9870.02
636.291	9922.9
636.645	9880.87
636.999	9875.67
637.352	9882.45
637.706	9809.91
638.06	9893.98
638.413	9861.89
638.767	9884.03
639.121	9810.82
639.474	9765.39
639.828	9740.76
640.181	9780.08
640.534	9777.82
640.888	9735.11
641.241	9649.01
641.594	9768.56
641.947	9755.45
642.301	9715.68
642.654	9682.91
643.007	9713.87
643.36	9683.59
643.713	9713.87
644.066	9620.09
644.419	9630.71
644.771	9608.11
645.124	9555.23
645.477	9511.61
645.83	9419.64
646.182	9358.62
646.535	9381
646.888	9374.67
647.24	9329.25
647.593	9391.84
647.945	9341.22
648.298	9254.22
648.65	9293.09
649.002	9246.31
649.355	9297.16
649.707	9286.99
650.059	9378.06
650.411	9411.05
650.763	9408.11
651.115	9518.85
651.467	9544.38
651.819	9500.99
652.171	9469.58
652.523	9412.18
652.875	9410.6
653.227	9383.93
653.578	9475.01
653.93	9405.85
654.282	9425.29
654.633	9383.93
654.985	9396.82
655.337	9367.44
655.688	9383.71
656.039	9414.89
656.391	9265.07
656.742	9343.03
657.094	9399.98
657.445	9409.24
657.796	9407.89
658.147	9300.55
658.498	9292.41
658.849	9391.17
659.2	9355.23
659.551	9313.43
659.902	9376.48
660.253	9341.45
660.604	9336.25
660.955	9295.35
661.306	9298.74
661.656	9270.04
662.007	9314.33
662.358	9214.9
662.708	9282.47
663.059	9334.9
663.409	9205.41
663.76	9230.49
664.11	9208.57
664.461	9247.67
664.811	9301
665.161	9258.06
665.511	9195.46
665.862	9259.87
666.212	9263.71
666.562	9168.12
666.912	9240.44
667.262	9174.22
667.612	9154.34
667.962	9197.72
668.312	9223.94
668.662	9258.74
669.011	9105.07
669.361	9159.31
669.711	9156.37
670.06	9134.9
670.41	9139.87
670.76	9150.27
671.109	9175.8
671.459	9126.54
671.808	9092.42
672.157	9068.01
672.507	9030.72
672.856	9083.83
673.205	9116.82
673.554	9098.07
673.904	9123.15
674.253	9114.56
674.602	9063.26
674.951	8903.72
675.3	8883.61
675.649	9039.99
675.998	9090.83
676.346	9057.84
676.695	9076.37
677.044	8983.72
677.393	9077.05
677.741	9001.35
678.09	9011.74
678.438	8983.49
678.787	8932.87
679.135	9023.27
679.484	8937.17
679.832	8958.63
680.181	8883.83
680.529	8956.15
680.877	8924.51
681.225	8938.97
681.573	8993.21
681.922	8846.77
682.27	8930.39
682.618	8894.46
682.966	8844.06
683.314	8868.69
683.661	8844.51
684.009	8828.92
684.357	8741.69
684.705	8788.47
685.053	8841.58
685.4	8813.78
685.748	8772.2
686.095	8701.69
686.443	8683.39
686.79	8613.33
687.138	8738.98
687.485	8662.82
687.832	8618.3
688.18	8649.26
688.527	8576.27
688.874	8617.63
689.221	8598.64
689.568	8529.04
689.915	8569.72
690.262	8556.39
690.609	8558.42
690.956	8474.13
691.303	8445.65
691.65	8378.76
691.997	8409.27
692.344	8413.34
692.69	8355.49
693.037	8366.11
693.383	8284.08
693.73	8273
694.077	8293.34
694.423	8306.9
694.769	8359.78
695.116	8284.75
695.462	8259.22
695.808	8259.44
696.155	8233.68
696.501	8091.76
696.847	8175.6
697.193	8085.44
697.539	8099.67
697.885	8008.6
698.231	8041.82
698.577	8044.76
698.923	7984.42
699.269	7962.5
699.614	7922.73
699.96	7964.31
700.306	7931.32
700.651	7846.8
700.997	7900.36
701.342	7885.67
701.688	7853.8
702.033	7840.47
702.379	7814.03
702.724	7824.88
703.069	7789.85
703.415	7714.15
703.76	7787.82
704.105	7779.91
704.45	7729.74
704.795	7677.54
705.14	7680.48
705.485	7622.62
705.83	7631.66
706.175	7657.88
706.52	7609.52
706.865	7581.04
707.209	7620.59
707.554	7515.96
707.899	7614.26
708.243	7497.2
708.588	7493.36
708.932	7496.75
709.277	7494.72
709.621	7464.89
709.966	7439.58
710.31	7470.09
710.654	7381.95
710.998	7353.48
711.342	7401.84
711.687	7365.68
712.031	7290.88
712.375	7267.15
712.719	7269.87
713.063	7298.34
713.407	7339.24
713.75	7223.76
714.094	7227.38
714.438	7201.62
714.782	7214.05
715.125	7208.4
715.469	7178.34
715.812	7167.27
716.156	7117.1
716.499	7141.06
716.843	7069.87
717.186	7078.68
717.53	7113.71
717.873	7130.89
718.216	7145.35
718.559	7029.65
718.902	6993.71
719.246	7042.07
719.589	7024.22
719.932	7032.58
720.275	6974.73
720.617	6977.22
720.96	6978.57
721.303	6970.21
721.646	6945.35
721.989	6948.29
722.331	6918.01
722.674	6879.37
723.016	6934.28
723.359	6916.2
723.701	6858.58
724.044	6878.69
724.386	6824.91
724.729	6874.85
725.071	6804.11
725.413	6816.54
725.755	6788.3
726.097	6758.24
726.439	6755.3
726.782	6786.04
727.124	6832.81
727.465	6777.67
727.807	6728.41
728.149	6774.96
728.491	6766.6
728.833	6681.86
729.175	6684.8
729.516	6659.26
729.858	6648.19
730.199	6764.12
730.541	6661.97
730.882	6697.68
731.224	6676.89
731.565	6672.37
731.906	6651.58
732.248	6601.41
732.589	6580.17
732.93	6624.23
733.271	6573.16
733.612	6626.94
733.953	6533.39
734.294	6548.08
734.635	6544.01
734.976	6555.99
735.317	6537.46
735.658	6541.75
735.999	6502.65
736.339	6483.45
736.68	6499.04
737.021	6480.06
737.361	6463.33
737.702	6497.68
738.042	6509.66
738.383	6441.64
738.723	6466.27
739.063	6410.23
739.404	6421.98
739.744	6410.68
740.084	6395.76
740.424	6376.56
740.764	6402.32
741.104	6451.13
741.444	6397.12
741.784	6300.63
742.124	6340.85
742.464	6361.87
742.804	6340.4
743.143	6364.13
743.483	6272.38
743.823	6299.27
744.162	6278.93
744.502	6261.53
744.841	6228.76
745.181	6285.48
745.52	6270.34
745.86	6269.67
746.199	6229.21
746.538	6198.71
746.877	6173.62
747.216	6197.8
747.556	6174.3
747.895	6149.67
748.234	6118.94
748.573	6171.82
748.911	6168.2
749.25	6136.79
749.589	6151.25
749.928	6126.84
750.267	6124.58
750.605	6147.86
750.944	6109.22
751.283	6094.76
751.621	6116.68
751.96	6038.71
752.298	6078.03
752.636	6095.43
752.975	6007.3
753.313	6009.11
753.651	6014.53
753.989	6001.42
754.327	5927.75
754.666	5970.24
755.004	5959.17
755.342	5979.05
755.679	5922.78
756.017	5902.9
756.355	5945.61
756.693	5808.43
757.031	5856.34
757.368	5833.29
757.706	5814.54
758.044	5786.29
758.381	5843.01
758.719	5796.91
759.056	5770.7
759.394	5769.34
759.731	5742.67
760.068	5720.08
760.405	5738.83
760.743	5665.61
761.08	5706.06
761.417	5664.94
761.754	5701.09
762.091	5650.92
762.428	5636.24
762.765	5614.99
763.102	5611.6
763.438	5608.21
763.775	5582.68
764.112	5564.15
764.449	5545.62
764.785	5560.76
765.122	5437.82
765.458	5442.57
765.795	5498.84
766.131	5483.25
766.467	5474.88
766.804	5422.68
767.14	5397.82
767.476	5377.03
767.812	5386.3
768.148	5390.82
768.485	5339.07
768.821	5359.18
769.157	5328.9
769.492	5317.37
769.828	5279.64
770.164	5239.86
770.5	5287.54
770.836	5244.61
771.171	5228.56
771.507	5202.58
771.842	5156.25
772.178	5126.87
772.513	5127.77
772.849	5164.61
773.184	5109.47
773.519	5110.6
773.855	5086.19
774.19	5048.68
774.525	5043.03
774.86	5020.66
775.195	5034.22
775.53	5010.26
775.865	4988.34
776.2	4972.52
776.535	4911.06
776.87	4939.98
777.205	4910.61
777.539	4906.54
777.874	4923.26
778.209	4844.39
778.543	4845.07
778.878	4823.38
779.212	4764.85
779.547	4776.37
779.881	4796.94
780.215	4735.47
780.55	4786.54
780.884	4705.41
781.218	4766.2
781.552	4726.43
781.886	4704.28
782.22	4625.87
782.554	4645.3
782.888	4617.05
783.222	4592.2
783.556	4564.17
783.889	4574.57
784.223	4559.43
784.557	4573.89
784.89	4531.41
785.224	4530.05
785.557	4559.2
785.891	4483.95
786.224	4461.35
786.558	4443.72
786.891	4462.26
787.224	4443.95
787.557	4442.82
787.891	4407.79
788.224	4378.87
788.557	4378.64
788.89	4384.07
789.223	4354.91
789.556	4376.16
789.888	4367.12
790.221	4364.63
790.554	4316.95
790.887	4289.38
791.219	4324.41
791.552	4314.24
791.884	4265.42
792.217	4230.62
792.549	4212.32
792.882	4200.34
793.214	4184.3
793.546	4230.4
793.879	4160.57
794.211	4151.3
794.543	4187.69
794.875	4145.88
795.207	4128.48
795.539	4125.09
795.871	4123.28
796.203	4087.8
796.535	4037.86
796.867	4080.57
797.198	4027.69
797.53	4067.46
797.862	3980.46
798.193	4020.23
798.525	3981.82
798.856	3970.07
799.188	3945.21
799.519	3926.45
799.85	3962.61
800.182	3936.17
800.513	3913.34
800.844	3960.57
801.175	3918.54
801.506	3943.85
801.837	3863.18
802.168	3893
802.499	3872.21
802.83	3846.45
803.161	3860.24
803.491	3835.38
803.822	3848.49
804.153	3794.93
804.483	3775.72
804.814	3745.66
805.145	3808.49
805.475	3756.51
805.805	3740.69
806.136	3760.35
806.466	3756.29
806.796	3732.11
807.126	3712.22
807.457	3751.77
807.787	3719.22
808.117	3688.26
808.447	3654.59
808.777	3678.77
809.107	3680.58
809.436	3657.98
809.766	3640.81
810.096	3628.38
810.426	3613.24
810.755	3610.07
811.085	3631.32
811.414	3553.58
811.744	3597.65
812.073	3589.28
812.403	3561.04
812.732	3610.07
813.061	3547.93
813.39	3558.55
813.719	3557.65
814.049	3547.93
814.378	3550.87
814.707	3553.35
815.036	3532.79
815.365	3485.56
815.693	3467.03
816.022	3500.7
816.351	3449.85
816.68	3472.23
817.008	3476.07
817.337	3474.03
817.665	3453.92
817.994	3502.28
818.322	3424.77
818.651	3422.28
818.979	3414.83
819.307	3408.27
819.636	3419.35
819.964	3428.38
820.292	3391.78
820.62	3404.88
820.948	3390.65
821.276	3389.74
821.604	3393.36
821.932	3402.62
822.259	3404.43
822.587	3370.08
822.915	3378.89
823.243	3378.44
823.57	3390.19
823.898	3380.02
824.225	3342.06
824.553	3374.6
824.88	3389.52
825.207	3381.15
825.535	3373.02
825.862	3429.51
826.189	3392.23
826.516	3420.7
826.843	3399.01
827.17	3393.36
827.497	3368.72
827.824	3365.79
828.151	3392.23
828.478	3404.88
828.805	3389.97
829.131	3381.83
829.458	3383.19
829.785	3336.64
830.111	3354.71
830.438	3376.86
830.764	3356.52
831.09	3348.39
831.417	3345.67
831.743	3352.45
832.069	3342.74
832.395	3379.12
832.722	3376.86
833.048	3362.4
833.374	3332.12
833.7	3344.32
834.026	3308.16
834.351	3341.16
834.677	3320.14
835.003	3381.38
835.329	3304.55
835.654	3323.3
835.98	3362.85
836.306	3322.4
836.631	3346.8
836.956	3315.17
837.282	3313.36
837.607	3290.76
837.932	3264.55
838.258	3302.06
838.583	3306.58
838.908	3283.98
839.233	3274.26
839.558	3265
839.883	3251.44
840.208	3273.81
840.533	3267.26
840.858	3245.56
841.182	3278.56
841.507	3269.52
841.832	3204.21
842.156	3205.34
842.481	3243.76
842.805	3242.4
843.13	3201.27
843.454	3192.46
843.778	3169.18
844.103	3188.84
844.427	3193.14
844.751	3188.62
845.075	3178.22
845.399	3180.03
845.723	3168.28
846.047	3147.49
846.371	3126.02
846.695	3133.48
847.019	3133.48
847.343	3143.87
847.666	3129.86
847.99	3095.96
848.313	3101.61
848.637	3038.56
848.96	3027.49
849.284	3042.63
849.607	3040.82
849.931	3030.65
850.254	2980.71
850.577	2979.58
850.9	2985.68
851.223	2975.06
851.546	2954.72
851.869	2945.46
852.192	2935.29
852.515	2902.52
852.838	2874.95
853.161	2938.23
853.483	2859.36
853.806	2852.81
854.129	2864.56
854.451	2864.78
854.774	2847.83
855.096	2860.49
855.419	2867.5
855.741	2845.12
856.063	2845.35
856.385	2843.99
856.708	2809.87
857.03	2828.85
857.352	2827.95
857.674	2823.65
857.996	2787.95
858.318	2794.28
858.64	2786.37
858.961	2791.79
859.283	2786.37
859.605	2781.17
859.926	2764.22
860.248	2721.06
860.57	2721.06
860.891	2737.1
861.212	2724.45
861.534	2713.6
861.855	2724.45
862.176	2742.98
862.498	2714.05
862.819	2686.94
863.14	2686.26
863.461	2675.18
863.782	2686.48
864.103	2676.77
864.424	2666.82
864.745	2659.14
865.065	2646.94
865.386	2645.58
865.707	2636.99
866.027	2634.73
866.348	2649.65
866.668	2688.06
866.989	2644
867.309	2641.96
867.63	2637.22
867.95	2619.14
868.27	2607.62
868.59	2652.81
868.91	2621.85
869.23	2610.55
869.55	2622.3
869.87	2602.42
870.19	2660.04
870.51	2618.69
870.83	2620.5
871.15	2596.54
871.469	2592.7
871.789	2596.77
872.109	2596.09
872.428	2579.37
872.748	2615.07
873.067	2569.42
873.386	2536.88
873.706	2579.82
874.025	2600.84
874.344	2595.19
874.663	2573.72
874.982	2565.81
875.301	2553.61
875.62	2574.62
875.939	2564.45
876.258	2532.14
876.577	2538.46
876.896	2526.49
877.214	2516.32
877.533	2513.38
877.852	2523.32
878.17	2555.64
878.489	2546.6
878.807	2550.22
879.125	2542.76
879.444	2519.48
879.762	2477.45
880.08	2516.09
880.398	2481.29
880.716	2493.49
881.034	2477
881.352	2450.56
881.67	2487.39
881.988	2472.03
882.306	2460.95
882.624	2484.91
882.941	2461.4
883.259	2443.55
883.577	2418.47
883.894	2468.64
884.212	2460.05
884.529	2411.46
884.846	2427.05
885.164	2426.6
885.481	2425.02
885.798	2437.68
886.115	2429.54
886.432	2417.11
886.75	2432.03
887.067	2386.83
887.383	2396.1
887.7	2381.18
888.017	2378.47
888.334	2384.12
888.651	2402.87
888.967	2364.23
889.284	2333.95
889.6	2374.85
889.917	2332.37
890.233	2318.81
890.55	2328.07
890.866	2318.13
891.182	2310.22
891.498	2326.49
891.815	2338.92
892.131	2273.39
892.447	2308.19
892.763	2294.85
893.079	2290.34
893.395	2242.43
893.71	2282.2
894.026	2258.7
894.342	2246.95
894.657	2233.84
894.973	2272.71
895.289	2264.12
895.604	2236.33
895.92	2221.18
896.235	2221.86
896.55	2208.3
896.865	2218.47
897.181	2215.31
897.496	2186.38
897.811	2162.88
898.126	2162.2
898.441	2175.99
898.756	2187.06
899.071	2145.71
899.386	2190
899.7	2163.78
900.015	2140.28
900.33	2160.17
900.644	2176.67
900.959	2122.43
901.273	2136.89
901.588	2135.54
901.902	2104.8
902.216	2102.54
902.531	2113.16
902.845	2103.9
903.159	2086.05
903.473	2072.71
903.787	2066.39
904.101	2048.99
904.415	2041.3
904.729	2059.61
905.042	2032.26
905.356	2031.58
905.67	2039.49
905.984	2020.06
906.297	2004.92
906.611	2014.64
906.924	2001.76
907.237	2011.7
907.551	2021.42
907.864	1987.52
908.177	1989.78
908.491	1983.68
908.804	1994.52
909.117	1963.34
909.43	1964.02
909.743	1977.8
910.056	1946.84
910.368	1951.81
910.681	1936.67
910.994	1915.88
911.307	1898.03
911.619	1898.26
911.932	1932.6
912.244	1913.4
912.557	1871.82
912.869	1880.18
913.181	1919.5
913.494	1879.27
913.806	1868.65
914.118	1853.96
914.43	1857.58
914.742	1814.42
915.054	1836.11
915.366	1876.33
915.678	1837.47
915.99	1809.44
916.302	1832.04
916.613	1786.17
916.925	1830.69
917.236	1818.26
917.548	1776.68
917.859	1786.39
918.171	1777.58
918.482	1776.22
918.794	1757.69
919.105	1761.76
919.416	1786.85
919.727	1760.86
920.038	1776
920.349	1756.11
920.66	1712.72
920.971	1741.42
921.282	1727.86
921.593	1694.87
921.903	1696.45
922.214	1689.67
922.525	1714.31
922.835	1700.75
923.146	1649.22
923.456	1668.88
923.767	1682.22
924.077	1662.1
924.387	1621.65
924.697	1670.01
925.008	1628.43
925.318	1631.14
925.628	1643.57
925.938	1622.1
926.248	1633.63
926.558	1614.42
926.867	1633.63
927.177	1606.74
927.487	1592.05
927.796	1620.52
928.106	1616
928.416	1598.38
928.725	1581.2
929.034	1554.99
929.344	1558.38
929.653	1591.14
929.962	1542.78
930.271	1532.39
930.581	1565.61
930.89	1526.06
931.199	1558.15
931.508	1557.02
931.817	1517.93
932.125	1491.94
932.434	1520.19
932.743	1509.56
933.051	1516.57
933.36	1480.41
933.669	1492.62
933.977	1458.72
934.286	1485.38
934.594	1491.49
934.902	1470.47
935.21	1460.75
935.519	1493.29
935.827	1455.33
936.135	1465.5
936.443	1449.45
936.751	1465.27
937.059	1413.97
937.367	1421.66
937.674	1428.66
937.982	1439.06
938.29	1412.84
938.597	1412.84
938.905	1362.9
939.213	1418.04
939.52	1400.87
939.827	1402.22
940.135	1397.48
940.442	1402.22
940.749	1350.92
941.056	1359.96
941.363	1357.03
941.67	1385.27
941.977	1348.44
942.284	1351.38
942.591	1381.43
942.898	1338.04
943.205	1355.9
943.511	1336.46
943.818	1321.1
944.125	1341.66
944.431	1324.26
944.738	1337.59
945.044	1315.9
945.35	1323.36
945.657	1320.42
945.963	1311.83
946.269	1290.59
946.575	1312.96
946.881	1281.55
947.187	1295.33
947.493	1279.29
947.799	1279.06
948.105	1277.25
948.41	1259.18
948.716	1248.1
949.022	1270.25
949.327	1267.99
949.633	1253.3
949.938	1231.15
950.244	1233.19
950.549	1232.74
950.854	1235.45
951.16	1215.79
951.465	1226.86
951.77	1238.39
952.075	1211.72
952.38	1221.66
952.685	1213.53
952.99	1203.36
953.294	1204.26
953.599	1199.52
953.904	1190.25
954.209	1184.83
954.513	1192.51
954.818	1130.37
955.122	1181.21
955.426	1176.69
955.731	1158.16
956.035	1160.42
956.339	1156.81
956.643	1128.33
956.948	1124.04
957.252	1155
957.556	1135.56
957.86	1146.86
958.163	1143.02
958.467	1137.82
958.771	1133.98
959.075	1142.79
959.378	1128.56
959.682	1130.59
959.985	1104.83
960.289	1143.47
960.592	1113.19
960.896	1133.08
961.199	1107.54
961.502	1099.41
961.805	1064.83
962.108	1090.59
962.411	1097.6
962.714	1058.96
963.017	1057.15
963.32	1105.96
963.623	1084.94
963.926	1060.31
964.228	1072.06
964.531	1059.63
964.833	1030.71
965.136	1040.42
965.438	1046.53
965.741	1033.87
966.043	1042.46
966.345	1050.14
966.648	1048.56
966.95	1017.83
967.252	1018.96
967.554	1011.27
967.856	1045.62
968.158	1028
968.46	1001.56
968.761	1001.78
969.063	1018.73
969.365	1018.28
969.666	1003.36
969.968	1007.66
970.269	1006.3
970.571	996.13
970.872	988
971.174	988.9
971.475	1000.43
971.776	961.78
972.077	992.06
972.378	980.77
972.679	979.18
972.98	959.52
973.281	966.53
973.582	967.88
973.883	959.97
974.183	951.16
974.484	956.13
974.785	944.16
975.085	954.78
975.386	919.3
975.686	926.76
975.986	960.43
976.287	942.12
976.587	929.47
976.887	934.89
977.187	923.82
977.487	953.42
977.787	925.85
978.087	914.55
978.387	916.59
978.687	912.07
978.987	897.83
979.286	900.99
979.586	898.51
979.885	906.87
980.185	898.06
980.484	898.51
980.784	903.93
981.083	877.72
981.382	900.32
981.682	887.21
981.981	876.59
982.28	876.59
982.579	892.86
982.878	878.85
983.177	874.55
983.475	863.48
983.774	874.33
984.073	871.39
984.372	860.54
984.67	844.95
984.969	868.45
985.267	845.85
985.566	868.23
985.864	842.69
986.162	848.79
986.461	841.11
986.759	835.46
987.057	834.78
987.355	828.68
987.653	827.1
987.951	828.45
988.249	850.6
988.547	843.14
988.844	801.56
989.142	818.74
989.44	799.53
989.737	820.09
990.035	802.24
990.332	779.19
990.63	781.45
990.927	813.76
991.224	768.34
991.521	777.61
991.819	783.03
992.116	809.24
992.413	789.58
992.71	799.3
993.006	796.82
993.303	772.41
993.6	795.46
993.897	792.07
994.193	777.15
994.49	766.99
994.787	781.22
995.083	783.93
995.379	762.24
995.676	764.05
995.972	766.31
996.268	769.25
996.565	759.08
996.861	765.63
997.157	756.36
997.453	754.56
997.749	753.43
998.044	726.08
998.34	748
998.636	735.57
998.932	747.32
999.227	761.56
999.523	725.18
999.818	739.87
1000.114	742.35
1000.409	729.25
1000.704	723.82
1001	738.06
1001.295	748
1001.59	711.39
1001.885	739.19
1002.18	698.74
1002.475	702.81
1002.77	711.62
1003.065	704.61
1003.359	701.22
1003.654	681.79
1003.949	702.81
1004.243	677.5
1004.538	686.54
1004.832	701.68
1005.127	697.61
1005.421	682.47
1005.715	682.47
1006.009	671.17
1006.304	677.72
1006.598	655.12
1006.892	663.03
1007.186	673.2
1007.48	658.74
1007.773	680.89
1008.067	651.51
1008.361	659.19
1008.655	648.57
1008.948	649.02
1009.242	660.77
1009.535	639.98
1009.829	638.85
1010.122	634.11
1010.415	659.87
1010.708	664.62
1011.001	648.8
1011.295	625.29
1011.588	624.39
1011.881	649.93
1012.173	623.49
1012.466	612.19
1012.759	617.61
1013.052	609.93
1013.344	632.3
1013.637	593.88
1013.93	624.62
1014.222	628.91
1014.514	615.13
1014.807	622.36
1015.099	604.05
1015.391	590.04
1015.683	601.79
1015.976	604.73
1016.268	600.44
1016.56	588.46
1016.851	603.37
1017.143	595.69
1017.435	586.88
1017.727	583.71
1018.018	599.76
1018.31	577.84
1018.602	562.25
1018.893	568.12
1019.185	580.55
1019.476	573.09
1019.767	566.54
1020.058	587.78
1020.35	584.62
1020.641	567.44
1020.932	550.04
1021.223	551.4
1021.514	543.71
1021.804	580.55
1022.095	546.2
1022.386	546.2
1022.677	546.43
1022.967	556.14
1023.258	573.09
1023.548	568.35
1023.839	544.84
1024.129	511.4
1024.419	547.33
1024.709	528.35
1025	531.29
1025.29	508.01
1025.58	517.5
1025.87	508.01
1026.16	549.36
1026.449	548.69
1026.739	534.9
1027.029	518.86
1027.319	535.81
1027.608	506.43
1027.898	511.85
1028.187	526.31
1028.477	506.88
1028.766	523.6
1029.055	532.64
1029.344	496.26
1029.634	493.77
1029.923	511.85
1030.212	494.45
1030.501	494.68
1030.79	482.93
1031.078	497.39
1031.367	499.87
1031.656	475.02
1031.945	481.8
1032.233	477.95
1032.522	505.07
1032.81	488.12
1033.099	496.03
1033.387	484.73
1033.675	481.12
1033.963	456.94
1034.251	484.73
1034.54	469.14
1034.828	464.17
1035.116	465.52
1035.403	470.5
1035.691	483.83
1035.979	497.61
1036.267	469.14
1036.554	466.88
1036.842	459.65
1037.129	504.39
1037.417	455.81
1037.704	463.04
1037.992	456.26
1038.279	466.65
1038.566	464.85
1038.853	464.85
1039.14	464.85
