Data from black_metal_pc_casing_FLMS001491_00048.txt Node
Date: Wed Feb 08 14:32:46 GMT 2017
User: dcchb
Spectrometer: FLMS00149
Trigger mode: 0
Integration Time (sec): 2.000000E-2
Scans to average: 10
Electric dark correction enabled: true
Nonlinearity correction enabled: false
Boxcar width: 0
XAxis mode: Wavelengths
Number of Pixels in Spectrum: 2048
>>>>>Begin Spectral Data<<<<<
341.393	-20.93
341.776	-20.93
342.16	-20.93
342.543	-64.09
342.927	-66.81
343.31	-70.65
343.693	-71.1
344.077	-55.96
344.46	-67.48
344.843	-60.7
345.226	-54.83
345.61	-21.84
345.993	-27.26
346.376	-9.63
346.759	-2.4
347.142	37.6
347.525	52.29
347.908	64.72
348.291	83.25
348.674	94.09
349.057	109.91
349.44	110.59
349.823	144.04
350.206	148.56
350.588	179.74
350.971	206.18
351.354	199.18
351.737	224.49
352.119	239.17
352.502	260.19
352.884	257.03
353.267	250.7
353.65	280.76
354.032	270.13
354.414	298.61
354.797	312.62
355.179	302.68
355.562	292.51
355.944	304.94
356.326	295.67
356.709	312.17
357.091	307.87
357.473	337.48
357.855	320.98
358.238	332.73
358.62	320.98
359.002	322.56
359.384	333.64
359.766	309.91
360.148	319.85
360.53	322.11
360.912	331.15
361.294	321.21
361.676	322.34
362.057	325.95
362.439	314.88
362.821	312.62
363.203	309.23
363.584	301.77
363.966	312.84
364.348	324.37
364.729	284.82
365.111	297.93
365.493	303.81
365.874	298.38
366.256	311.49
366.637	304.94
367.019	299.74
367.4	295.67
367.781	296.35
368.163	290.7
368.544	304.94
368.925	301.55
369.306	303.13
369.688	277.82
370.069	315.1
370.45	309.68
370.831	284.6
371.212	304.26
371.593	308.1
371.974	286.4
372.355	297.03
372.736	307.87
373.117	297.93
373.498	331.15
373.879	279.4
374.26	302.68
374.641	295.44
375.021	293.41
375.402	291.83
375.783	304.94
376.163	298.16
376.544	297.25
376.925	313.75
377.305	308.33
377.686	306.07
378.066	312.17
378.447	317.59
378.827	323.69
379.208	304.94
379.588	323.47
379.968	332.73
380.349	322.11
380.729	317.14
381.109	325.5
381.489	334.54
381.87	320.53
382.25	325.27
382.63	339.51
383.01	331.6
383.39	331.15
383.77	341.09
384.15	322.11
384.53	325.05
384.91	327.53
385.29	356.69
385.67	346.74
386.049	336.8
386.429	317.36
386.809	324.6
387.189	325.27
387.568	353.3
387.948	328.89
388.328	343.8
388.707	329.34
389.087	356.46
389.466	369.11
389.846	363.47
390.225	368.44
390.605	350.81
390.984	340.19
391.363	351.71
391.743	356.01
392.122	366.18
392.501	364.14
392.881	358.95
393.26	361.43
393.639	346.74
394.018	373.63
394.397	368.89
394.776	372.73
395.155	360.98
395.534	367.08
395.913	367.98
396.292	387.87
396.671	365.05
397.05	383.58
397.429	395.78
397.808	382.67
398.186	374.31
398.565	358.04
398.944	388.32
399.323	382.45
399.701	403.92
400.08	398.27
400.458	380.19
400.837	392.84
401.215	363.01
401.594	398.72
401.972	417.25
402.351	393.29
402.729	399.17
403.107	398.72
403.486	419.73
403.864	398.04
404.242	386.06
404.62	402.79
404.999	396.46
405.377	414.99
405.755	423.58
406.133	422.45
406.511	409.11
406.889	423.12
407.267	435.78
407.645	417.02
408.023	429.9
408.401	421.09
408.779	424.71
409.156	448.89
409.534	448.66
409.912	453.18
410.29	453.63
410.667	459.51
411.045	450.02
411.422	451.82
411.8	443.91
412.178	463.35
412.555	458.6
412.933	476
413.31	471.48
413.687	473.97
414.065	469.45
414.442	473.74
414.819	461.77
415.197	482.11
415.574	492.28
415.951	475.55
416.328	464.03
416.705	486.85
417.082	491.6
417.46	483.91
417.837	478.49
418.214	520.98
418.591	502.67
418.967	506.51
419.344	510.58
419.721	511.48
420.098	514.87
420.475	528.88
420.852	515.55
421.228	522.33
421.605	511.94
421.982	544.93
422.358	561.43
422.735	506.51
423.111	536.79
423.488	523.69
423.864	555.78
424.241	556.45
424.617	550.35
424.994	560.75
425.37	558.26
425.746	560.75
426.123	570.47
426.499	559.84
426.875	559.62
427.251	582.89
427.627	585.61
428.003	575.44
428.379	595.32
428.756	596.68
429.132	603.23
429.507	601.2
429.883	604.36
430.259	597.36
430.635	629.22
431.011	636.23
431.387	633.51
431.763	643.23
432.138	636.23
432.514	643.23
432.89	648.43
433.265	654.76
433.641	665.15
434.016	654.3
434.392	663.12
434.767	668.99
435.143	687.07
435.518	697.92
435.894	716.22
436.269	704.02
436.644	709.67
437.02	703.34
437.395	706.96
437.77	685.04
438.145	737.47
438.52	710.8
438.895	736.11
439.271	733.62
439.646	753.29
440.021	737.47
440.395	762.78
440.77	748.54
441.145	749.9
441.52	774.53
441.895	776.11
442.27	760.52
442.645	763.91
443.019	787.86
443.394	778.82
443.769	778.14
444.143	784.24
444.518	796.9
444.892	777.24
445.267	791.48
445.641	815.43
446.016	795.09
446.39	808.65
446.764	804.13
447.139	804.36
447.513	830.8
447.887	832.38
448.262	816.56
448.636	840.29
449.01	827.18
449.384	838.93
449.758	862.66
450.132	864.02
450.506	858.82
450.88	860.18
451.254	859.95
451.628	878.71
452.002	885.03
452.376	891.59
452.75	898.37
453.123	901.08
453.497	900.63
453.871	920.96
454.244	917.12
454.618	934.98
454.992	934.07
455.365	960.96
455.739	943.11
456.112	965.03
456.486	988.31
456.859	977.01
457.232	998.93
457.606	985.82
457.979	1014.3
458.352	1036.89
458.725	1039.83
459.099	1024.24
459.472	1040.28
459.845	1092.26
460.218	1085.48
460.591	1057.91
460.964	1059.49
461.337	1106.95
461.71	1103.11
462.083	1106.72
462.456	1104.69
462.829	1123.45
463.201	1148.3
463.574	1158.25
463.947	1156.89
464.32	1184.23
464.692	1193.73
465.065	1217.45
465.438	1215.19
465.81	1223.56
466.183	1225.36
466.555	1244.12
466.928	1272.37
467.3	1287.51
467.672	1308.07
468.045	1312.37
468.417	1299.03
468.789	1301.07
469.161	1343.33
469.534	1320.73
469.906	1381.07
470.278	1353.27
470.65	1369.77
471.022	1412.25
471.394	1431.23
471.766	1430.56
472.138	1432.59
472.51	1487.5
472.882	1508.75
473.253	1516.66
473.625	1550.78
473.997	1547.39
474.369	1561.17
474.74	1568.63
475.112	1597.56
475.484	1628.06
475.855	1651.11
476.227	1691.34
476.598	1694.5
476.97	1703.54
477.341	1755.97
477.713	1760.26
478.084	1783.31
478.455	1832.13
478.827	1815.63
479.198	1871.45
479.569	1889.3
479.94	1929.07
480.311	1957.77
480.682	1972.91
481.053	2031.44
481.424	2035.51
481.795	2035.51
482.166	2073.25
482.537	2091.78
482.908	2133.81
483.279	2142.18
483.65	2167.94
484.021	2238.67
484.391	2267.14
484.762	2267.82
485.133	2294.49
485.503	2322.96
485.874	2367.48
486.244	2406.8
486.615	2397.31
486.985	2443.41
487.356	2421.04
487.726	2514.82
488.097	2548.04
488.467	2596.4
488.837	2565.22
489.207	2616.51
489.578	2668.26
489.948	2705.1
490.318	2732.22
490.688	2745.32
491.058	2775.6
491.428	2807.24
491.798	2827.58
492.168	2889.73
492.538	2886.79
492.908	2942.15
493.278	2980.8
493.648	2992.55
494.017	2998.88
494.387	3005.2
494.757	2994.81
495.126	3074.13
495.496	3099.21
495.866	3130.17
496.235	3159.78
496.605	3177.18
496.974	3208.59
497.344	3181.02
497.713	3213.33
498.082	3257.85
498.452	3281.13
498.821	3300.34
499.19	3301.47
499.559	3382.37
499.928	3367
500.298	3380.79
500.667	3420.33
501.036	3433.67
501.405	3430.5
501.774	3446.55
502.143	3496.94
502.512	3507.11
502.88	3519.77
503.249	3554.79
503.618	3563.61
503.987	3576.04
504.356	3606.77
504.724	3604.51
505.093	3618.52
505.462	3640.89
505.83	3717.73
506.199	3694.22
506.567	3755.92
506.936	3752.3
507.304	3792.98
507.672	3827.1
508.041	3854.45
508.409	3833.66
508.777	3877.72
509.145	3957.95
509.514	3922.92
509.882	3927.89
510.25	4006.53
510.618	4000.43
510.986	3977.16
511.354	4001.11
511.722	4103.25
512.09	4137.83
512.458	4116.36
512.826	4178.51
513.193	4194.55
513.561	4185.74
513.929	4214.66
514.297	4259.41
514.664	4291.95
515.032	4282.46
515.4	4401.32
515.767	4400.42
516.135	4381.66
516.502	4360.42
516.869	4437.71
517.237	4496.46
517.604	4477.26
517.972	4525.39
518.339	4569.46
518.706	4564.94
519.073	4618.95
519.44	4615.33
519.808	4692.84
520.175	4676.12
520.542	4731.94
520.909	4785.95
521.276	4791.37
521.643	4860.97
522.009	4819.62
522.376	4869.11
522.743	4953.85
523.11	4970.12
523.477	5021.65
523.843	5058.71
524.21	5039.95
524.577	5096
524.943	5151.14
525.31	5142.77
525.676	5220.74
526.043	5312.26
526.409	5278.14
526.776	5305.03
527.142	5315.88
527.508	5355.88
527.874	5417.12
528.241	5499.15
528.607	5435.65
528.973	5564.46
529.339	5526.49
529.705	5603.1
530.071	5637.45
530.437	5612.37
530.803	5678.13
531.169	5677.45
531.535	5673.16
531.901	5750.22
532.267	5837.22
532.632	5848.97
532.998	5800.61
533.364	5865.24
533.73	5879.03
534.095	5916.77
534.461	5928.97
534.826	5931.23
535.192	6001.96
535.557	6026.82
535.923	6030.89
536.288	6005.8
536.653	6119.25
537.019	6091.9
537.384	6081.28
537.749	6133.71
538.114	6127.83
538.479	6170.54
538.845	6213.03
539.21	6219.58
539.575	6237.21
539.94	6247.6
540.305	6372.35
540.67	6288.96
541.034	6335.74
541.399	6351.33
541.764	6361.5
542.129	6395.17
542.494	6428.16
542.858	6406.7
543.223	6385
543.587	6428.39
543.952	6483.08
544.316	6501.16
544.681	6518.33
545.045	6514.49
545.41	6568.73
545.774	6571.44
546.138	6582.96
546.503	6651.21
546.867	6651.66
547.231	6646.92
547.595	6683.3
547.959	6716.74
548.324	6740.02
548.688	6816.63
549.052	6852.56
549.416	6810.3
549.779	6797.19
550.143	6807.14
550.507	6871.99
550.871	6902.28
551.235	6921.48
551.599	6961.71
551.962	6971.43
552.326	6966.91
552.689	7052.33
553.053	7005.1
553.417	7101.82
553.78	7117.64
554.143	7108.15
554.507	7160.12
554.87	7208.93
555.234	7186.79
555.597	7208.71
555.96	7252.55
556.323	7286.9
556.686	7248.03
557.05	7326.45
557.413	7307.46
557.776	7342.94
558.139	7428.59
558.502	7455.26
558.865	7467.01
559.228	7543.62
559.59	7565.99
559.953	7576.16
560.316	7610.73
560.679	7678.98
561.041	7659.09
561.404	7724.63
561.767	7748.58
562.129	7728.47
562.492	7863.61
562.854	7817.05
563.217	7849.14
563.579	7843.95
563.941	7874.68
564.304	7949.71
564.666	7999.2
565.028	8051.85
565.39	8069.03
565.753	8115.35
566.115	8091.4
566.477	8119.42
566.839	8218.63
567.201	8220.89
567.563	8248.23
567.925	8317.61
568.287	8302.69
568.648	8359.41
569.01	8374.1
569.372	8430.82
569.734	8407.32
570.095	8479.86
570.457	8482.12
570.819	8507.88
571.18	8542.46
571.542	8553.08
571.903	8599.18
572.265	8629.91
572.626	8604.6
572.987	8664.94
573.349	8661.78
573.71	8743.58
574.071	8789.01
574.432	8743.36
574.794	8792.17
575.155	8764.15
575.516	8765.73
575.877	8870.13
576.238	8860.19
576.599	8870.13
576.96	8864.71
577.32	8828.33
577.681	8937.02
578.042	8934.77
578.403	8903.35
578.763	8967.98
579.124	9023.58
579.485	9010.24
579.845	9026.06
580.206	9008.66
580.566	8993.97
580.927	9034.42
581.287	9076
581.648	9159.62
582.008	9086.4
582.368	9048.43
582.728	9118.94
583.089	9099.73
583.449	9059.73
583.809	9102.22
584.169	9027.64
584.529	9051.37
584.889	9079.85
585.249	9024.03
585.609	9079.39
585.969	9134.53
586.329	9038.72
586.688	9060.19
587.048	9081.43
587.408	9057.93
587.768	9120.75
588.127	9105.16
588.487	9024.25
588.846	9149.22
589.206	9136.79
589.565	9156.45
589.925	9175.66
590.284	9151.26
590.643	9117.36
591.003	9128.43
591.362	9200.97
591.721	9110.13
592.08	9171.37
592.44	9234.64
592.799	9200.75
593.158	9164.82
593.517	9154.87
593.876	9217.7
594.235	9210.69
594.593	9197.58
594.952	9135.21
595.311	9174.53
595.67	9164.82
596.029	9260.86
596.387	9231.03
596.746	9237.58
597.104	9225.38
597.463	9210.69
597.822	9256.34
598.18	9176.11
598.538	9209.33
598.897	9260.41
599.255	9172.5
599.613	9403
599.972	9285.94
600.33	9299.73
600.688	9254.98
601.046	9325.94
601.404	9291.59
601.762	9276.23
602.12	9363
602.478	9321.42
602.836	9376.11
603.194	9311.7
603.552	9339.5
603.91	9328.43
604.268	9383.11
604.625	9362.32
604.983	9375.66
605.341	9344.25
605.698	9413.17
606.056	9395.77
606.413	9416.56
606.771	9461.76
607.128	9384.92
607.485	9307.41
607.843	9392.83
608.2	9451.59
608.557	9451.59
608.914	9452.04
609.272	9480.74
609.629	9523.68
609.986	9592.83
610.343	9498.37
610.7	9589.21
611.057	9586.27
611.414	9533.17
611.771	9625.14
612.127	9618.59
612.484	9654.07
612.841	9648.19
613.198	9548.99
613.554	9581.75
613.911	9633.28
614.267	9637.12
614.624	9698.36
614.98	9640.28
615.337	9666.72
615.693	9632.83
616.05	9673.95
616.406	9717.12
616.762	9699.49
617.118	9652.26
617.475	9665.37
617.831	9760.28
618.187	9763.22
618.543	9723.9
618.899	9791.01
619.255	9808.87
619.611	9824.91
619.967	9775.65
620.323	9781.97
620.678	9803.44
621.034	9730.22
621.39	9802.09
621.746	9747.4
622.101	9798.92
622.457	9793.5
622.812	9824.46
623.168	9809.09
623.523	9802.54
623.879	9860.62
624.234	9809.09
624.589	9773.84
624.945	9791.69
625.3	9861.52
625.655	9746.27
626.01	9796.89
626.365	9788.75
626.72	9777.68
627.075	9814.29
627.43	9780.17
627.785	9760.96
628.14	9847.06
628.495	9770.68
628.85	9734.97
629.205	9731.81
629.559	9793.5
629.914	9782.2
630.269	9803.89
630.623	9794.18
630.978	9701.07
631.332	9778.58
631.687	9708.08
632.041	9761.41
632.396	9786.95
632.75	9704.69
633.104	9810.67
633.459	9664.24
633.813	9699.72
634.167	9615.43
634.521	9696.55
634.875	9623.33
635.229	9624.01
635.583	9633.96
635.937	9606.61
636.291	9553.05
636.645	9574.97
636.999	9551.25
637.352	9593.05
637.706	9534.75
638.06	9546.5
638.413	9532.94
638.767	9498.14
639.121	9531.36
639.474	9446.16
639.828	9505.82
640.181	9515.77
640.534	9529.33
640.888	9514.18
641.241	9398.26
641.594	9410.23
641.947	9395.77
642.301	9416.79
642.654	9430.12
643.007	9341.99
643.36	9396.45
643.713	9324.81
644.066	9401.19
644.419	9335.43
644.771	9315.09
645.124	9170.47
645.477	9116.46
645.83	9126.17
646.182	9113.74
646.535	9055.44
646.888	9055.67
647.24	9014.31
647.593	9127.75
647.945	9035.78
648.298	9042.33
648.65	8952.62
649.002	8953.75
649.355	9024.03
649.707	9000.3
650.059	8999.85
650.411	9121.88
650.763	9118.26
651.115	9247.07
651.467	9205.49
651.819	9170.69
652.171	9240.29
652.523	9110.81
652.875	9108.55
653.227	9061.54
653.578	9131.82
653.93	9100.86
654.282	9037.36
654.633	9054.54
654.985	9102.9
655.337	9090.69
655.688	9101.99
656.039	9130.47
656.391	9073.74
656.742	8996.01
657.094	9033.07
657.445	9109
657.796	9054.99
658.147	9032.16
658.498	8961.43
658.849	9071.26
659.2	8978.61
659.551	9003.92
659.902	9067.19
660.253	8987.87
660.604	8978.38
660.955	8967.53
661.306	8978.38
661.656	8913.97
662.007	8996.46
662.358	8953.75
662.708	8978.38
663.059	8969.57
663.409	8953.3
663.76	8978.61
664.11	8963.92
664.461	8986.97
664.811	8933.18
665.161	9030.13
665.511	8981.09
665.862	8932.05
666.212	9006.4
666.562	8983.58
666.912	8969.34
667.262	8965.5
667.612	8948.32
667.962	8963.01
668.312	8940.41
668.662	8949
669.011	8945.16
669.361	8895.22
669.711	8911.71
670.06	8901.09
670.41	8897.03
670.76	8884.37
671.109	8872.39
671.459	8841.43
671.808	8836.91
672.157	8838.72
672.507	8859.51
672.856	8863.13
673.205	8804.15
673.554	8774.54
673.904	8774.09
674.253	8841.89
674.602	8718.95
674.951	8726.63
675.3	8699.29
675.649	8804.15
675.998	8765.05
676.346	8831.49
676.695	8803.02
677.044	8706.07
677.393	8764.6
677.741	8808.44
678.09	8823.13
678.438	8647.99
678.787	8761.89
679.135	8691.16
679.484	8692.51
679.832	8731.61
680.181	8667.65
680.529	8676.69
680.877	8618.16
681.225	8641.44
681.573	8658.16
681.922	8630.82
682.27	8612.06
682.618	8659.52
682.966	8622.68
683.314	8634.43
683.661	8584.94
684.009	8507.43
684.357	8500.2
684.705	8488.45
685.053	8523.93
685.4	8441.22
685.748	8436.7
686.095	8477.38
686.443	8421.78
686.79	8437.15
687.138	8432.41
687.485	8391.05
687.832	8306.08
688.18	8316.02
688.527	8284.84
688.874	8312.41
689.221	8289.36
689.568	8269.02
689.915	8295.23
690.262	8233.77
690.609	8217.5
690.956	8238.96
691.303	8175.91
691.65	8119.87
691.997	8158.29
692.344	8110.61
692.69	8125.97
693.037	8083.04
693.383	8038.74
693.73	8071.51
694.077	8018.63
694.423	8076.03
694.769	7973.66
695.116	7970.72
695.462	7950.84
695.808	7919.42
696.155	7889.82
696.501	7907.9
696.847	7896.15
697.193	7749.71
697.539	7880.78
697.885	7817.51
698.231	7756.49
698.577	7708.81
698.923	7762.82
699.269	7719.43
699.614	7688.47
699.96	7659.09
700.306	7706.55
700.651	7665.87
700.997	7635.36
701.342	7578.64
701.688	7584.07
702.033	7611.64
702.379	7606.21
702.724	7510.62
703.069	7602.37
703.415	7426.1
703.76	7494.35
704.105	7472.66
704.45	7463.39
704.795	7425.65
705.14	7370.06
705.485	7348.82
705.83	7335.71
706.175	7357.63
706.52	7296.39
706.865	7261.14
707.209	7276.96
707.554	7275.37
707.899	7261.36
708.243	7296.39
708.588	7265.88
708.932	7264.3
709.277	7228.6
709.621	7208.03
709.966	7163.96
710.31	7279.89
710.654	7150.18
710.998	7209.39
711.342	7132.78
711.687	7112.44
712.031	7140.69
712.375	7069.5
712.719	7035.15
713.063	7079.22
713.407	7070.86
713.75	7011.88
714.094	7029.73
714.438	7048.26
714.782	7037.19
715.125	7008.26
715.469	7014.59
715.812	6962.84
716.156	6944.31
716.499	6921.48
716.843	6906.8
717.186	6905.44
717.53	6978.21
717.873	6908.38
718.216	6918.09
718.559	6842.39
718.902	6860.92
719.246	6812.11
719.589	6808.27
719.932	6781.15
720.275	6751.32
720.617	6786.57
720.96	6811.88
721.303	6843.29
721.646	6774.14
721.989	6729.17
722.331	6771.66
722.674	6739.34
723.016	6676.07
723.359	6703.19
723.701	6706.8
724.044	6590.87
724.386	6641.49
724.729	6680.81
725.071	6663.86
725.413	6646.69
725.755	6629.29
726.097	6572.12
726.439	6521.27
726.782	6547.71
727.124	6621.38
727.465	6550.42
727.807	6599.69
728.149	6492.8
728.491	6480.59
728.833	6506.13
729.175	6478.56
729.516	6477.43
729.858	6519.24
730.199	6497.32
730.541	6487.6
730.882	6485.34
731.224	6460.71
731.565	6418
731.906	6421.16
732.248	6452.34
732.589	6450.99
732.93	6438.33
733.271	6398.79
733.612	6414.61
733.953	6378.22
734.294	6375.51
734.635	6337.32
734.976	6387.71
735.317	6363.99
735.658	6308.62
735.999	6325.34
736.339	6301.16
736.68	6394.04
737.021	6292.12
737.361	6309.3
737.702	6281.05
738.042	6297.77
738.383	6304.33
738.723	6226.14
739.063	6232.01
739.404	6218
739.744	6205.57
740.084	6169.64
740.424	6240.6
740.764	6161.28
741.104	6178
741.444	6133.93
741.784	6146.82
742.124	6158.34
742.464	6140.71
742.804	6128.29
743.143	6152.24
743.483	6094.61
743.823	6114.5
744.162	6137.1
744.502	6094.84
744.841	6080.6
745.181	6033.6
745.52	6051
745.86	6025.46
746.199	6080.38
746.538	6070.43
746.877	6090.55
747.216	6015.29
747.556	6079.25
747.895	6039.93
748.234	6025.01
748.573	5976.88
748.911	5973.04
749.25	6018.23
749.589	5925.8
749.928	5944.56
750.267	5942.3
750.605	5907.27
750.944	5934.62
751.283	5930.78
751.621	5911.34
751.96	5870.21
752.298	5911.12
752.636	5852.81
752.975	5845.13
753.313	5806.26
753.651	5852.13
753.989	5839.25
754.327	5774.62
754.666	5772.81
755.004	5778.46
755.342	5762.42
755.679	5789.31
756.017	5706.6
756.355	5750.67
756.693	5685.58
757.031	5683.78
757.368	5655.76
757.706	5657.11
758.044	5684.23
758.381	5624.57
758.719	5652.82
759.056	5659.82
759.394	5615.3
759.731	5568.3
760.068	5575.53
760.405	5557
760.743	5554.06
761.08	5585.02
761.417	5510.67
761.754	5504.8
762.091	5536.21
762.428	5500.51
762.765	5481.3
763.102	5486.95
763.438	5404.46
763.775	5383.22
764.112	5425.93
764.449	5439.49
764.785	5383.67
765.122	5376.44
765.458	5341.19
765.795	5301.41
766.131	5319.27
766.467	5324.92
766.804	5321.98
767.14	5234.07
767.476	5203.56
767.812	5169.89
768.148	5242.43
768.485	5189.33
768.821	5128.54
769.157	5166.28
769.492	5172.15
769.828	5140.74
770.164	5081.31
770.5	5095.77
770.836	5095.54
771.171	5043.79
771.507	5088.99
771.842	5025.94
772.178	5034.75
772.513	5020.52
772.849	4985.72
773.184	4993.63
773.519	5004.25
773.855	4949.33
774.19	4939.62
774.525	4949.56
774.86	4884.02
775.195	4933.74
775.53	4915.66
775.865	4862.78
776.2	4810.81
776.535	4799.96
776.87	4796.57
777.205	4787.53
777.539	4761.77
777.874	4751.37
778.209	4749.11
778.543	4707.53
778.878	4701.2
779.212	4703.92
779.547	4662.79
779.881	4627.76
780.215	4649.68
780.55	4647.87
780.884	4595.44
781.218	4593.41
781.552	4591.15
781.886	4560.64
782.22	4564.48
782.554	4607.65
782.888	4547.99
783.222	4450.82
783.556	4481.55
783.889	4440.42
784.223	4448.33
784.557	4451.04
784.89	4440.19
785.224	4406.07
785.557	4455.33
785.891	4419.18
786.224	4387.99
786.558	4328.78
786.891	4320.2
787.224	4362.91
787.557	4275.9
787.891	4326.52
788.224	4282.91
788.557	4257.6
788.89	4293.76
789.223	4264.15
789.556	4211.73
789.888	4229.13
790.221	4220.76
790.554	4196.58
790.887	4160.65
791.219	4124.95
791.552	4129.69
791.884	4164.04
792.217	4110.26
792.549	4080.88
792.882	4079.98
793.214	4071.39
793.546	4126.3
793.879	4041.33
794.211	4044.05
794.543	4092.18
794.875	4037.27
795.207	4025.06
795.539	4002.47
795.871	3988.68
796.203	3961.56
796.535	3991.84
796.867	3925.41
797.198	3955.91
797.53	3901.68
797.862	3915.91
798.193	3927.67
798.525	3898.97
798.856	3904.39
799.188	3852.64
799.519	3870.72
799.85	3805.41
800.182	3809.93
800.513	3845.63
800.844	3764.96
801.175	3798.85
801.506	3807.89
801.837	3757.27
802.168	3786.43
802.499	3763.83
802.83	3725.64
803.161	3727.44
803.491	3725.18
803.822	3708.46
804.153	3694.68
804.483	3686.77
804.814	3669.14
805.145	3682.93
805.475	3649.25
805.805	3655.36
806.136	3645.64
806.466	3657.16
806.796	3599.99
807.126	3586.21
807.457	3601.8
807.787	3642.93
808.117	3595.47
808.447	3561.12
808.777	3571.97
809.107	3549.6
809.436	3552.53
809.766	3562.93
810.096	3547.79
810.426	3511.4
810.755	3499.2
811.085	3555.92
811.414	3536.26
811.744	3491.74
812.073	3504.4
812.403	3493.55
812.732	3508.92
813.061	3444.97
813.39	3472.54
813.719	3450.84
814.049	3500.11
814.378	3426.44
814.707	3481.58
815.036	3423.5
815.365	3445.42
815.693	3375.59
816.022	3437.51
816.351	3388.02
816.68	3376.49
817.008	3342.6
817.337	3357.51
817.665	3400
817.994	3379.2
818.322	3336.72
818.651	3319.55
818.979	3310.28
819.307	3356.15
819.636	3337.4
819.964	3290.17
820.292	3312.54
820.62	3345.99
820.948	3318.42
821.276	3323.16
821.604	3294.24
821.932	3284.74
822.259	3308.92
822.587	3286.1
822.915	3292.2
823.243	3303.27
823.57	3311.86
823.898	3263.5
824.225	3268.93
824.553	3289.94
824.88	3267.12
825.207	3248.13
825.535	3271.64
825.862	3289.26
826.189	3269.6
826.516	3291.98
826.843	3303.5
827.17	3266.44
827.497	3271.41
827.824	3272.09
828.151	3262.37
828.478	3271.86
828.805	3268.7
829.131	3253.78
829.458	3252.43
829.785	3247.68
830.111	3281.35
830.438	3260.11
830.764	3295.59
831.09	3255.59
831.417	3226.44
831.743	3203.62
832.069	3234.58
832.395	3263.95
832.722	3261.47
833.048	3241.81
833.374	3281.81
833.7	3249.94
834.026	3251.52
834.351	3263.05
834.677	3244.29
835.003	3251.52
835.329	3228.25
835.654	3246.33
835.98	3228.47
836.306	3244.07
836.631	3247.68
836.956	3261.92
837.282	3228.7
837.607	3222.37
837.932	3210.62
838.258	3183.96
838.583	3201.81
838.908	3195.48
839.233	3191.41
839.558	3222.37
839.883	3196.16
840.208	3149.61
840.533	3160.23
840.858	3151.19
841.182	3143.5
841.507	3153
841.832	3123.17
842.156	3141.02
842.481	3164.07
842.805	3121.36
843.13	3093.56
843.454	3096.73
843.778	3116.61
844.103	3127.91
844.427	3070.96
844.751	3048.37
845.075	3082.94
845.399	3063.28
845.723	3034.58
846.047	3030.51
846.371	3033.23
846.695	3080.68
847.019	3039.1
847.343	3009.27
847.666	2984.87
847.99	2989.38
848.313	2966.33
848.637	2993.68
848.96	2965.66
849.284	2957.75
849.607	2932.44
849.931	2914.13
850.254	2877.98
850.577	2852.67
850.9	2887.24
851.223	2914.13
851.546	2861.7
851.869	2849.5
852.192	2878.2
852.515	2770.86
852.838	2812.21
853.161	2815.15
853.483	2819.9
853.806	2787.13
854.129	2772.22
854.451	2810.63
854.774	2759.11
855.096	2741.48
855.419	2775.83
855.741	2744.87
856.063	2747.58
856.385	2736.51
856.708	2743.52
857.03	2695.83
857.352	2731.31
857.674	2725.44
857.996	2739.9
858.318	2682.27
858.64	2679.56
858.961	2688.83
859.283	2685.66
859.605	2636.63
859.926	2682.95
860.248	2697.87
860.57	2627.36
860.891	2618.32
861.212	2623.07
861.534	2644.99
861.855	2634.82
862.176	2580.58
862.498	2632.56
862.819	2628.72
863.14	2607.02
863.461	2596.85
863.782	2604.54
864.103	2590.75
864.424	2594.37
864.745	2606.34
865.065	2560.92
865.386	2553.24
865.707	2593.01
866.027	2591.43
866.348	2588.49
866.668	2575.61
866.989	2556.18
867.309	2583.75
867.63	2603.86
867.95	2543.97
868.27	2567.25
868.59	2556.18
868.91	2560.92
869.23	2514.59
869.55	2509.4
869.87	2568.15
870.19	2532.9
870.51	2552.11
870.83	2536.97
871.15	2549.4
871.469	2514.37
871.789	2481.15
872.109	2464.88
872.428	2488.83
872.748	2486.35
873.067	2492.67
873.386	2505.56
873.706	2510.3
874.025	2472.56
874.344	2498.1
874.663	2504.88
874.982	2491.09
875.301	2452
875.62	2455.16
875.939	2466.01
876.258	2470.53
876.577	2436.18
876.896	2456.29
877.214	2470.08
877.533	2478.66
877.852	2461.26
878.17	2438.89
878.489	2461.94
878.807	2419.91
879.125	2468.04
879.444	2467.36
879.762	2446.12
880.08	2444.77
880.398	2425.56
880.716	2432.34
881.034	2405.9
881.352	2411.77
881.67	2406.58
881.988	2420.59
882.306	2368.16
882.624	2412
882.941	2406.35
883.259	2381.27
883.577	2397.54
883.894	2368.84
884.212	2376.29
884.529	2369.51
884.846	2383.98
885.164	2372.23
885.481	2316.63
885.798	2343.07
886.115	2348.95
886.432	2337.42
886.75	2317.54
887.067	2301.49
887.383	2339.46
887.7	2318.67
888.017	2317.09
888.334	2286.13
888.651	2313.47
888.967	2297.88
889.284	2287.03
889.6	2289.06
889.917	2264.43
890.233	2312.57
890.55	2270.99
890.866	2221.72
891.182	2262.4
891.498	2248.39
891.815	2237.31
892.131	2247.48
892.447	2258.33
892.763	2208.39
893.079	2236.86
893.395	2233.92
893.71	2228.27
894.026	2195.51
894.342	2207.03
894.657	2203.42
894.973	2176.75
895.289	2179.24
895.604	2190.76
895.92	2177.2
896.235	2181.5
896.55	2159.8
896.865	2137.2
897.181	2157.77
897.496	2145.79
897.811	2114.83
898.126	2159.8
898.441	2091.1
898.756	2108.05
899.071	2061.27
899.386	2110.09
899.7	2101.05
900.015	2086.36
900.33	2059.92
900.644	2076.64
900.959	2052.91
901.273	2083.65
901.588	2091.1
901.902	2040.71
902.216	2048.84
902.531	2053.14
902.845	2020.6
903.159	2024.66
903.473	2037.55
903.787	2001.84
904.101	1993.7
904.415	2007.49
904.729	1997.77
905.042	1978.79
905.356	1976.3
905.67	1952.8
905.984	1986.7
906.297	1983.99
906.611	1975.63
906.924	1949.41
907.237	1950.09
907.551	1920.71
907.864	1947.38
908.177	1937.66
908.491	1939.24
908.804	1929.3
909.117	1884.1
909.43	1908.96
909.743	1903.76
910.056	1882.07
910.368	1877.1
910.681	1870.77
910.994	1934.95
911.307	1863.54
911.619	1854.73
911.932	1841.62
912.244	1860.15
912.557	1829.19
912.869	1861.73
913.181	1819.92
913.494	1812.92
913.806	1818.34
914.118	1818.12
914.43	1811.56
914.742	1792.58
915.054	1816.08
915.366	1790.55
915.678	1778.8
915.99	1800.72
916.302	1784.67
916.613	1761.85
916.925	1780.83
917.236	1743.77
917.548	1732.24
917.859	1726.82
918.171	1727.72
918.482	1729.76
918.794	1727.5
919.105	1758.23
919.416	1725.24
919.727	1715.75
920.038	1706.48
920.349	1713.26
920.66	1702.41
920.971	1713.26
921.282	1679.36
921.593	1662.19
921.903	1666.03
922.214	1644.79
922.525	1660.61
922.835	1639.14
923.146	1666.71
923.456	1635.3
923.767	1647.27
924.077	1586.94
924.387	1638.01
924.697	1652.92
925.008	1624.45
925.318	1622.64
925.628	1589.65
925.938	1601.85
926.248	1619.25
926.558	1601.17
926.867	1573.38
927.177	1572.92
927.487	1591.46
927.796	1586.26
928.106	1585.81
928.416	1567.73
928.725	1551.23
929.034	1555.75
929.344	1544
929.653	1536.77
929.962	1523.21
930.271	1508.52
930.581	1508.52
930.89	1508.29
931.199	1494.51
931.508	1511.46
931.817	1508.97
932.125	1476.43
932.434	1500.38
932.743	1469.65
933.051	1442.76
933.36	1449.09
933.669	1449.31
933.977	1449.09
934.286	1482.08
934.594	1459.93
934.902	1412.48
935.21	1448.63
935.519	1435.98
935.827	1451.35
936.135	1398.47
936.443	1396.43
936.751	1408.18
937.059	1409.77
937.367	1406.6
937.674	1407.28
937.982	1427.62
938.29	1388.07
938.597	1372.25
938.905	1383.78
939.213	1394.4
939.52	1355.3
939.827	1388.52
940.135	1371.8
940.442	1352.59
940.749	1354.85
941.056	1363.44
941.363	1346.94
941.67	1365.7
941.977	1335.87
942.284	1296.1
942.591	1329.54
942.898	1344
943.205	1298.58
943.511	1310.78
943.818	1310.11
944.125	1286.38
944.431	1315.08
944.738	1313.5
945.044	1292.93
945.35	1285.93
945.657	1269.43
945.963	1258.58
946.269	1294.51
946.575	1268.3
946.881	1251.8
947.187	1247.74
947.493	1274.18
947.799	1266.94
948.105	1247.06
948.41	1264.91
948.716	1242.76
949.022	1229.88
949.327	1226.95
949.633	1222.88
949.938	1229.88
950.244	1209.54
950.549	1215.19
950.854	1207.96
951.16	1207.74
951.465	1200.51
951.77	1190.11
952.075	1210.45
952.38	1188.3
952.685	1176.78
952.99	1177.23
953.294	1154.86
953.599	1170.45
953.904	1146.72
954.209	1154.18
954.513	1148.53
954.818	1181.97
955.122	1142.65
955.426	1134.07
955.731	1151.01
956.035	1106.27
956.339	1134.29
956.643	1139.26
956.948	1137.68
957.252	1125.25
957.556	1131.35
957.86	1126.16
958.163	1127.29
958.467	1121.41
958.771	1121.64
959.075	1097.68
959.378	1084.35
959.682	1093.84
959.985	1101.75
960.289	1081.41
960.592	1068.53
960.896	1080.28
961.199	1081.64
961.502	1089.1
961.805	1064.01
962.108	1082.77
962.411	1054.07
962.714	1065.82
963.017	1077.12
963.32	1062.88
963.623	1064.01
963.926	1067.85
964.228	1064.01
964.531	1040.51
964.833	1035.54
965.136	1018.59
965.438	1048.42
965.741	1035.99
966.043	1042.09
966.345	1020.62
966.648	1022.66
966.95	1029.21
967.252	1010
967.554	1007.97
967.856	1009.32
968.158	1012.04
968.46	1002.77
968.761	987.63
969.063	988.99
969.365	999.61
969.666	1003.9
969.968	962.77
970.269	977.46
970.571	974.97
970.872	999.38
971.174	990.57
971.475	943.79
971.776	965.94
972.077	951.92
972.378	933.17
972.679	955.77
972.98	955.54
973.281	965.94
973.582	943.34
973.883	940.62
974.183	942.88
974.484	920.51
974.785	951.47
975.085	940.62
975.386	938.59
975.686	937.69
975.986	914.64
976.287	928.2
976.587	919.61
976.887	928.2
977.187	898.82
977.487	905.15
977.787	913.73
978.087	913.73
978.387	912.83
978.687	886.84
978.987	898.14
979.286	901.3
979.586	900.63
979.885	911.25
980.185	880.97
980.484	886.62
980.784	888.87
981.083	895.43
981.382	888.42
981.682	891.13
981.981	838.71
982.28	871.02
982.579	855.2
982.878	878.93
983.177	881.19
983.475	865.37
983.774	867.63
984.073	868.54
984.372	853.17
984.67	839.61
984.969	847.75
985.267	851.59
985.566	864.24
985.864	828.99
986.162	843
986.461	806.17
986.759	854.07
987.057	828.76
987.355	814.98
987.653	828.31
987.951	813.85
988.249	837.8
988.547	826.28
988.844	801.42
989.142	804.58
989.44	809.78
989.737	808.2
990.035	805.49
990.332	789.44
990.63	811.14
990.927	795.32
991.224	787.63
991.521	825.6
991.819	784.24
992.116	791.93
992.413	787.86
992.71	800.74
993.006	771.59
993.303	758.03
993.6	770.23
993.897	772.95
994.193	769.1
994.49	786.28
994.787	752.16
995.083	762.1
995.379	763.45
995.676	754.42
995.972	738.14
996.268	756
996.565	720.74
996.861	741.99
997.157	731.36
997.453	724.59
997.749	756.45
998.044	737.92
998.34	744.02
998.636	730.91
998.932	752.16
999.227	742.21
999.523	699.5
999.818	730.24
1000.114	712.83
1000.409	723.46
1000.704	719.16
1001	709.67
1001.295	716.22
1001.59	726.39
1001.885	724.13
1002.18	718.94
1002.475	703.12
1002.77	686.17
1003.065	670.8
1003.359	701.54
1003.654	700.18
1003.949	697.02
1004.243	682.78
1004.538	673.06
1004.832	680.07
1005.127	671.25
1005.421	674.87
1005.715	666.06
1006.009	673.51
1006.304	676.23
1006.598	660.18
1006.892	686.39
1007.186	640.97
1007.48	651.59
1007.773	664.25
1008.067	648.43
1008.361	658.37
1008.655	633.06
1008.948	628.32
1009.242	630.8
1009.535	669.9
1009.829	663.57
1010.122	643.91
1010.415	660.18
1010.708	640.97
1011.001	630.35
1011.295	646.4
1011.588	627.86
1011.881	611.82
1012.173	628.09
1012.466	614.53
1012.759	603.23
1013.052	612.27
1013.344	623.8
1013.637	605.04
1013.93	603.23
1014.222	604.14
1014.514	615.21
1014.807	615.89
1015.099	601.88
1015.391	624.25
1015.683	598.26
1015.976	594.42
1016.268	607.75
1016.56	595.1
1016.851	594.87
1017.143	584.7
1017.435	592.84
1017.727	579.96
1018.018	587.87
1018.31	574.31
1018.602	580.41
1018.893	567.3
1019.185	573.4
1019.476	575.21
1019.767	591.71
1020.058	571.6
1020.35	553.52
1020.641	551.03
1020.932	574.98
1021.223	582.89
1021.514	572.95
1021.804	563.91
1022.095	566.17
1022.386	557.81
1022.677	548.32
1022.967	546.74
1023.258	554.42
1023.548	521.43
1023.839	558.49
1024.129	537.25
1024.419	530.01
1024.709	543.57
1025	517.81
1025.29	561.43
1025.58	529.11
1025.87	518.04
1026.16	517.36
1026.449	533.18
1026.739	503.8
1027.029	516.46
1027.319	524.82
1027.608	528.21
1027.898	524.82
1028.187	513.97
1028.477	523.69
1028.766	517.59
1029.055	518.04
1029.344	504.7
1029.634	501.77
1029.923	497.25
1030.212	508.77
1030.501	500.64
1030.79	488.43
1031.078	511.03
1031.367	491.15
1031.656	495.44
1031.945	482.11
1032.233	481.43
1032.522	481.43
1032.81	491.15
1033.099	480.07
1033.387	484.82
1033.675	483.69
1033.963	484.82
1034.251	489.11
1034.54	490.69
1034.828	484.37
1035.116	469.9
1035.403	479.85
1035.691	470.81
1035.979	487.08
1036.267	490.24
1036.554	466.74
1036.842	471.48
1037.129	471.48
1037.417	447.76
1037.704	469.9
1037.992	468.32
1038.279	457.25
1038.566	477.81
1038.853	477.81
1039.14	477.81
