Data from black_plastic_tray_FLMS001491_031.txt Node
Date: Tue Feb 07 10:39:41 GMT 2017
User: dcchb
Spectrometer: FLMS00149
Trigger mode: 0
Integration Time (sec): 2.000000E-2
Scans to average: 10
Electric dark correction enabled: true
Nonlinearity correction enabled: false
Boxcar width: 0
XAxis mode: Wavelengths
Number of Pixels in Spectrum: 2048
>>>>>Begin Spectral Data<<<<<
341.393	-14.96
341.776	-14.96
342.16	-14.96
342.543	-70.77
342.927	-65.13
343.31	-81.85
343.693	-75.29
344.077	-45.46
344.46	-68.29
344.843	-63.09
345.226	-54.5
345.61	-40.04
345.993	-3.43
346.376	-8.86
346.759	8.54
347.142	14.65
347.525	37.7
347.908	49.67
348.291	99.39
348.674	110.01
349.057	120.86
349.44	113.85
349.823	130.35
350.206	156.11
350.588	199.05
350.971	199.5
351.354	225.94
351.737	217.35
352.119	246.28
352.502	248.31
352.884	276.56
353.267	270.23
353.65	293.74
354.032	279.5
354.414	294.19
354.797	323.11
355.179	296.67
355.562	299.61
355.944	325.37
356.326	346.16
356.709	328.76
357.091	329.89
357.473	322.89
357.855	323.56
358.238	349.33
358.62	334.41
359.002	341.42
359.384	350.68
359.766	354.52
360.148	324.24
360.53	310.68
360.912	339.61
361.294	351.59
361.676	339.84
362.057	338.25
362.439	321.98
362.821	313.62
363.203	333.51
363.584	335.32
363.966	316.79
364.348	319.5
364.729	318.37
365.111	325.15
365.493	321.76
365.874	337.8
366.256	302.55
366.637	312.27
367.019	316.11
367.4	304.81
367.781	325.82
368.163	316.56
368.544	322.66
368.925	321.98
369.306	329.44
369.688	315.66
370.069	348.2
370.45	313.62
370.831	331.47
371.212	312.72
371.593	349.1
371.974	298.48
372.355	325.37
372.736	333.96
373.117	322.89
373.498	326.95
373.879	330.8
374.26	329.89
374.641	321.31
375.021	337.58
375.402	331.25
375.783	349.78
376.163	355.65
376.544	348.42
376.925	339.61
377.305	359.95
377.686	350
378.066	312.49
378.447	348.88
378.827	324.92
379.208	339.84
379.588	341.42
379.968	367.18
380.349	361.53
380.729	343.9
381.109	369.89
381.489	370.57
381.87	345.49
382.25	377.35
382.63	365.37
383.01	378.03
383.39	385.48
383.77	373.73
384.15	384.58
384.53	370.57
384.91	382.77
385.29	375.31
385.67	385.26
386.049	365.37
386.429	398.14
386.809	378.93
387.189	387.07
387.568	391.59
387.948	401.08
388.328	389.78
388.707	379.16
389.087	403.79
389.466	419.83
389.846	406.27
390.225	414.18
390.605	430
390.984	417.8
391.363	395.88
391.743	421.19
392.122	424.13
392.501	427.29
392.881	401.3
393.26	429.32
393.639	434.97
394.018	427.29
394.397	438.59
394.776	437.23
395.155	442.88
395.534	472.26
395.913	435.43
396.292	451.02
396.671	454.18
397.05	446.73
397.429	448.31
397.808	473.84
398.186	475.88
398.565	459.61
398.944	476.1
399.323	473.84
399.701	460.28
400.08	468.87
400.458	489.89
400.837	498.7
401.215	493.5
401.594	503.67
401.972	489.89
402.351	494.18
402.729	484.69
403.107	520.62
403.486	502.32
403.864	518.14
404.242	523.79
404.62	519.27
404.999	534.18
405.377	519.27
405.755	536.89
406.133	538.93
406.511	559.72
406.889	531.92
407.267	523.79
407.645	557.01
408.023	580.96
408.401	570.34
408.779	566.5
409.156	559.49
409.534	572.37
409.912	596.33
410.29	599.04
410.667	579.6
411.045	610.11
411.422	586.16
411.8	642.65
412.178	597
412.555	631.81
412.933	645.59
413.31	627.96
413.687	641.75
414.065	635.42
414.442	651.01
414.819	651.47
415.197	677.45
415.574	658.7
415.951	667.51
416.328	668.64
416.705	676.55
417.082	685.14
417.46	668.64
417.837	693.5
418.214	682.43
418.591	711.13
418.967	719.03
419.344	704.8
419.721	727.4
420.098	744.12
420.475	733.05
420.852	716.32
421.228	736.44
421.605	745.47
421.982	753.38
422.358	763.55
422.735	775.08
423.111	747.73
423.488	758.36
423.864	779.15
424.241	797.45
424.617	812.37
424.994	816.89
425.37	799.94
425.746	817.56
426.123	834.51
426.499	845.59
426.875	834.74
427.251	834.06
427.627	877.45
428.003	870.44
428.379	866.15
428.756	862.53
429.132	885.13
429.507	900.27
429.883	909.09
430.259	940.95
430.635	955.41
431.011	938.92
431.387	961.51
431.763	923.55
432.138	968.07
432.514	998.8
432.89	971.01
433.265	1002.64
433.641	1024.79
434.016	1024.34
434.392	1055.3
434.767	1084.67
435.143	1072.02
435.518	1063.88
435.894	1089.42
436.269	1072.02
436.644	1078.35
437.02	1090.55
437.395	1105.24
437.77	1108.4
438.145	1138.91
438.52	1161.28
438.895	1156.99
439.271	1172.81
439.646	1164.9
440.021	1207.38
440.395	1210.55
440.77	1178.01
441.145	1200.83
441.52	1189.3
441.895	1216.42
442.27	1244.22
442.645	1243.09
443.019	1246.25
443.394	1247.61
443.769	1266.82
444.143	1276.08
444.518	1294.84
444.892	1270.43
445.267	1283.31
445.641	1287.83
446.016	1311.79
446.39	1302.52
446.764	1301.62
447.139	1334.39
447.513	1342.3
447.887	1358.11
448.262	1331.22
448.636	1396.76
449.01	1360.37
449.384	1373.71
449.758	1383.42
450.132	1404.21
450.506	1401.05
450.88	1415.51
451.254	1416.42
451.628	1436.98
452.002	1480.82
452.376	1509.97
452.75	1464.55
453.123	1498.22
453.497	1502.29
453.871	1534.15
454.244	1578.45
454.618	1589.75
454.992	1570.31
455.365	1561.5
455.739	1610.31
456.112	1614.83
456.486	1650.08
456.859	1696.41
457.232	1684.89
457.606	1714.71
457.979	1737.54
458.352	1748.16
458.725	1764.66
459.099	1776.63
459.472	1801.04
459.845	1826.58
460.218	1839.23
460.591	1857.54
460.964	1872.45
461.337	1907.93
461.71	1914.48
462.083	1946.57
462.456	1955.84
462.829	1980.24
463.201	1976.4
463.574	1982.5
463.947	2019.57
464.32	2081.94
464.692	2084.42
465.065	2080.13
465.438	2132.33
465.81	2148.6
466.183	2195.61
466.555	2219.56
466.928	2272.67
467.3	2273.57
467.672	2250.29
468.045	2326.68
468.417	2319.22
468.789	2324.87
469.161	2369.84
469.534	2425.2
469.906	2461.36
470.278	2468.14
470.65	2498.42
471.022	2535.26
471.394	2589.72
471.766	2598.31
472.138	2662.94
472.51	2667.23
472.882	2702.49
473.253	2732.09
473.625	2788.81
473.997	2807.12
474.369	2851.63
474.74	2872.65
475.112	2917.17
475.484	2968.24
475.855	3025.87
476.227	3067.67
476.598	3124.4
476.97	3189.48
477.341	3231.74
477.713	3261.11
478.084	3338.63
478.455	3355.12
478.827	3398.29
479.198	3506.08
479.569	3508.57
479.94	3594.44
480.311	3629.47
480.682	3673.76
481.053	3761.44
481.424	3797.82
481.795	3852.96
482.166	3928.22
482.537	3983.81
482.908	4037.14
483.279	4092.28
483.65	4139.06
484.021	4225.84
484.391	4276
484.762	4349.45
485.133	4335.21
485.503	4397.58
485.874	4546.5
486.244	4562.55
486.615	4601.87
486.985	4652.26
487.356	4785.59
487.726	4782.88
488.097	4887.51
488.467	4928.64
488.837	4984.91
489.207	5080.28
489.578	5144.46
489.948	5172.93
490.318	5237.79
490.688	5254.73
491.058	5315.75
491.428	5409.08
491.798	5432.81
492.168	5515.52
492.538	5576.53
492.908	5668.74
493.278	5707.38
493.648	5720.94
494.017	5861.95
494.387	5800.03
494.757	5965.9
495.126	5951.44
495.496	5992.79
495.866	6040.25
496.235	6089.52
496.605	6161.38
496.974	6190.98
497.344	6274.37
497.713	6283.41
498.082	6317.08
498.452	6365.67
498.821	6396.17
499.19	6440.47
499.559	6534.02
499.928	6538.99
500.298	6652.89
500.667	6654.02
501.036	6649.27
501.405	6685.66
501.774	6820.34
502.143	6814.92
502.512	6800.68
502.88	6900.12
503.249	6988.25
503.618	6996.16
503.987	6985.76
504.356	7066.21
504.724	7042.03
505.093	7162.03
505.462	7168.13
505.83	7202.93
506.199	7296.49
506.567	7394.57
506.936	7404.28
507.304	7508.01
507.672	7517.27
508.041	7486.31
508.409	7599.76
508.777	7664.16
509.145	7689.7
509.514	7649.25
509.882	7762.47
510.25	7838.17
510.618	7838.17
510.986	7899.18
511.354	7987.77
511.722	8010.82
512.09	8164.04
512.458	8105.28
512.826	8177.6
513.193	8235.22
513.561	8277.03
513.929	8405.16
514.297	8374.65
514.664	8463.92
515.032	8564.93
515.4	8580.07
515.767	8651.71
516.135	8647.19
516.502	8655.55
516.869	8839.95
517.237	8871.59
517.604	8846.96
517.972	8947.74
518.339	9016.44
518.706	9088.08
519.073	9137.57
519.44	9213.73
519.808	9245.36
520.175	9256.66
520.542	9431.57
520.909	9496.66
521.276	9468.41
521.643	9624.56
522.009	9685.35
522.376	9688.97
522.743	9787.04
523.11	9858.46
523.477	9970.99
523.843	10028.85
524.21	10100.03
524.577	10166.02
524.943	10182.97
525.31	10325.34
525.676	10442.39
526.043	10453.69
526.409	10557.19
526.776	10671.54
527.142	10670.41
527.508	10778.66
527.874	10823.63
528.241	10883.51
528.607	10998.99
528.973	11093.9
529.339	10977.97
529.705	11163.51
530.071	11217.52
530.437	11324.41
530.803	11316.04
531.169	11438.3
531.535	11483.5
531.901	11549.94
532.267	11585.42
532.632	11580.44
532.998	11576.6
533.364	11761.68
533.73	11782.47
534.095	11963.94
534.461	11978.4
534.826	12049.36
535.192	12012.07
535.557	12139.3
535.923	12113.76
536.288	12193.31
536.653	12208.68
537.019	12211.16
537.384	12316.47
537.749	12387.88
538.114	12455
538.479	12375.9
538.845	12517.82
539.21	12518.72
539.575	12541.1
539.94	12567.08
540.305	12576.58
540.67	12654.31
541.034	12772.05
541.399	12774.76
541.764	12728.66
542.129	12801.43
542.494	12876.23
542.858	12953.97
543.223	12986.06
543.587	12977.7
543.952	12964.81
544.316	13031.48
544.681	13093.17
545.045	13158.71
545.41	13214.3
545.774	13284.81
546.138	13242.32
546.503	13329.55
546.867	13414.07
547.231	13466.72
547.595	13535.65
547.959	13536.78
548.324	13597.79
548.688	13572.71
549.052	13655.87
549.416	13655.42
549.779	13682.99
550.143	13699.48
550.507	13869.65
550.871	13950.1
551.235	13900.84
551.599	14023.32
551.962	14028.97
552.326	13956.43
552.689	14127.27
553.053	14090.89
553.417	14179.7
553.78	14370.2
554.143	14395.06
554.507	14434.38
554.87	14429.41
555.234	14663.75
555.597	14511.67
555.96	14553.47
556.323	14657.65
556.686	14696.52
557.05	14789.85
557.413	14783.52
557.776	14797.31
558.139	15016.74
558.502	15014.25
558.865	15126.79
559.228	15169.95
559.59	15238.43
559.953	15306.45
560.316	15415.6
560.679	15342.38
561.041	15431.87
561.404	15455.82
561.767	15599.77
562.129	15583.28
562.492	15773.33
562.854	15856.26
563.217	15786.44
563.579	15952.53
563.941	15992.98
564.304	16020.55
564.666	16119.76
565.028	16103.49
565.39	16276.82
565.753	16296.03
566.115	16362.47
566.477	16435.46
566.839	16533.31
567.201	16602.01
567.563	16640.42
567.925	16723.36
568.287	16804.26
568.648	16701.89
569.01	16836.8
569.372	16907.54
569.734	16885.16
570.095	17062.11
570.457	17097.59
570.819	17176.68
571.18	17170.81
571.542	17380.97
571.903	17381.87
572.265	17514.07
572.626	17390.69
572.987	17475.43
573.349	17397.92
573.71	17399.73
574.071	17579.16
574.432	17696.22
574.794	17860.73
575.155	17773.5
575.516	17799.04
575.877	17819.38
576.238	17789.55
576.599	17917.68
576.96	17859.38
577.32	17947.28
577.681	17984.8
578.042	18155.64
578.403	18086.49
578.763	18168.52
579.124	18186.82
579.485	18192.47
579.845	18296.43
580.206	18126.71
580.566	18130.33
580.927	18206.03
581.287	18225.02
581.648	18193.83
582.008	18277.22
582.368	18173.49
582.728	18275.18
583.089	18251.68
583.449	18247.39
583.809	18264.11
584.169	18351.79
584.529	18241.51
584.889	18448.06
585.249	18331.23
585.609	18199.03
585.969	18318.35
586.329	18193.83
586.688	18349.53
587.048	18295.97
587.408	18284.9
587.768	18254.84
588.127	18298.23
588.487	18319.25
588.846	18390.43
589.206	18220.72
589.565	18284.9
589.925	18392.47
590.284	18240.38
590.643	18319.48
591.003	18335.07
591.362	18442.18
591.721	18391.11
592.08	18298.01
592.44	18426.59
592.799	18465.01
593.158	18322.87
593.517	18408.06
593.876	18499.81
594.235	18457.78
594.593	18368.29
594.952	18409.19
595.311	18409.64
595.67	18453.94
596.029	18548.62
596.387	18472.69
596.746	18555.85
597.104	18557.89
597.463	18437.89
597.822	18467.04
598.18	18396.08
598.538	18443.99
598.897	18553.14
599.255	18406.48
599.613	18756.3
599.972	18600.15
600.33	18628.85
600.688	18543.88
601.046	18658
601.404	18688.28
601.762	18697.32
602.12	18824.1
602.478	18770.09
602.836	18774.38
603.194	18671.33
603.552	18645.57
603.91	18673.59
604.268	18737.32
604.625	18646.47
604.983	18779.8
605.341	18663.42
605.698	18732.35
606.056	18726.24
606.413	18742.74
606.771	18777.54
607.128	18926.01
607.485	18802.63
607.843	18743.42
608.2	18840.59
608.557	18968.05
608.914	18931.89
609.272	18984.09
609.629	18956.07
609.986	19039.68
610.343	18932.79
610.7	19143.18
611.057	19096.4
611.414	19182.5
611.771	19129.4
612.127	19101.38
612.484	19150.19
612.841	19198.1
613.198	19274.25
613.554	19250.07
613.911	19217.76
614.267	19288.72
614.624	19230.19
614.98	19207.59
615.337	19323.07
615.693	19288.72
616.05	19187.7
616.406	19360.35
616.762	19274.48
617.118	19358.77
617.475	19438.77
617.831	19435.15
618.187	19548.6
618.543	19610.74
618.899	19626.33
619.255	19615.04
619.611	19596.5
619.967	19593.11
620.323	19632.66
620.678	19604.87
621.034	19473.57
621.39	19489.61
621.746	19545.88
622.101	19705.2
622.457	19549.27
622.812	19575.26
623.168	19709.72
623.523	19582.49
623.879	19731.42
624.234	19550.4
624.589	19621.36
624.945	19657.52
625.3	19592.89
625.655	19598.76
626.01	19608.03
626.365	19631.31
626.72	19538.88
627.075	19630.18
627.43	19553.57
627.785	19545.88
628.14	19526.68
628.495	19666.11
628.85	19553.57
629.205	19417.07
629.559	19603.74
629.914	19507.02
630.269	19551.08
630.623	19518.99
630.978	19514.92
631.332	19526.45
631.687	19569.39
632.041	19583.85
632.396	19498.65
632.75	19409.39
633.104	19462.04
633.459	19401.03
633.813	19314.93
634.167	19365.78
634.521	19347.02
634.875	19296.63
635.229	19266.8
635.583	19179.34
635.937	19151.54
636.291	19044.88
636.645	19153.35
636.999	19058.67
637.352	19078.33
637.706	18955.39
638.06	19051.43
638.413	19001.72
638.767	19023.41
639.121	18936.63
639.474	18876.98
639.828	18858.44
640.181	18903.64
640.534	18860.93
640.888	18786.58
641.241	18722.63
641.594	18824.77
641.947	18796.75
642.301	18754.49
642.654	18665.91
643.007	18658.9
643.36	18640.82
643.713	18612.35
644.066	18654.38
644.419	18561.5
644.771	18528.51
645.124	18383.2
645.477	18220.95
645.83	18094.85
646.182	18079.26
646.535	17925.14
646.888	17944.8
647.24	17806.95
647.593	17980.5
647.945	17826.83
648.298	17739.83
648.65	17725.14
649.002	17709.55
649.355	17803.33
649.707	17782.31
650.059	17827.06
650.411	18002.87
650.763	18106.6
651.115	18345.92
651.467	18276.31
651.819	18207.39
652.171	18191.8
652.523	18184.11
652.875	18125.13
653.227	18040.84
653.578	18225.24
653.93	18129.42
654.282	17982.99
654.633	17947.96
654.985	17971.69
655.337	18002.87
655.688	17992.25
656.039	17990.67
656.391	17868.41
656.742	17864.57
657.094	17854.18
657.445	17956.32
657.796	17936.66
658.147	17965.36
658.498	17825.25
658.849	17987.73
659.2	17917.23
659.551	17837.23
659.902	17938.02
660.253	17937.11
660.604	17924.01
660.955	17829.09
661.306	17779.83
661.656	17775.08
662.007	17697.57
662.358	17688.31
662.708	17755.87
663.059	17660.06
663.409	17527.18
663.76	17707.97
664.11	17692.37
664.461	17706.84
664.811	17632.49
665.161	17747.51
665.511	17652.6
665.862	17610.79
666.212	17649.66
666.562	17628.42
666.912	17601.53
667.262	17516.56
667.612	17469.78
667.962	17500.97
668.312	17448.09
668.662	17432.72
669.011	17433.62
669.361	17433.4
669.711	17384.81
670.06	17324.47
670.41	17347.52
670.76	17316.56
671.109	17374.64
671.459	17322.89
671.808	17270.69
672.157	17376
672.507	17209.45
672.856	17375.77
673.205	17307.07
673.554	17266.4
673.904	17165.83
674.253	17328.54
674.602	17319.05
674.951	16951.15
675.3	16815.33
675.649	17169.9
675.998	17156.34
676.346	17227.98
676.695	17251.93
677.044	17161.31
677.393	17115.44
677.741	17075.89
678.09	17020.08
678.438	16948.21
678.787	17086.06
679.135	17010.81
679.484	16958.83
679.832	17101.43
680.181	16955.9
680.529	17058.72
680.877	17030.24
681.225	16832.96
681.573	17030.7
681.922	16855.79
682.27	16919.96
682.618	16851.94
682.966	16877.03
683.314	16821.66
683.661	16749.8
684.009	16573.08
684.357	16605.85
684.705	16614.21
685.053	16606.53
685.4	16687.2
685.748	16524.49
686.095	16447.89
686.443	16406.98
686.79	16217.61
687.138	16350.04
687.485	16380.09
687.832	16279.53
688.18	16305.07
688.527	16266.42
688.874	16125.18
689.221	16168.12
689.568	16156.37
689.915	16039.54
690.262	16063.49
690.609	16048.35
690.956	15977.62
691.303	15922.7
691.65	15854.68
691.997	15799.09
692.344	15691.75
692.69	15693.1
693.037	15802.48
693.383	15634.12
693.73	15810.62
694.077	15661.01
694.423	15679.09
694.769	15632.31
695.116	15528.81
695.462	15364.98
695.808	15387.35
696.155	15487.69
696.501	15326.79
696.847	15373.56
697.193	15205.21
697.539	15280.69
697.885	15122.05
698.231	15005.21
698.577	15050.41
698.923	15057.87
699.269	15097.64
699.614	14924.31
699.96	14920.24
700.306	14868.04
700.651	14850.87
700.997	14729.74
701.342	14759.34
701.688	14754.82
702.033	14725.22
702.379	14763.19
702.724	14744.2
703.069	14727.71
703.415	14470.09
703.76	14645.45
704.105	14583.3
704.45	14513.7
704.795	14383.76
705.14	14343.54
705.485	14349.64
705.83	14254.27
706.175	14296.76
706.52	14210.21
706.865	14172.01
707.209	14227.38
707.554	14043.66
707.899	14215.63
708.243	14045.01
708.588	14084.33
708.932	13977.67
709.277	14021.96
709.621	14067.38
709.966	13945.58
710.31	13931.57
710.654	13821.29
710.998	13811.8
711.342	13838.46
711.687	13774.74
712.031	13794.62
712.375	13716.66
712.719	13668.52
713.063	13571.13
713.407	13609.77
713.75	13500.39
714.094	13555.53
714.438	13436.89
714.782	13466.5
715.125	13426.72
715.469	13443.45
715.812	13272.6
716.156	13240.29
716.499	13272.6
716.843	13265.15
717.186	13226.05
717.53	13214.98
717.873	13201.87
718.216	13205.26
718.559	13200.97
718.902	13109.22
719.246	13157.58
719.589	13196.9
719.932	13073.29
720.275	13128.2
720.617	13118.03
720.96	13011.37
721.303	12977.24
721.646	12888.43
721.989	12965.72
722.331	12971.82
722.674	12925.72
723.016	12799.85
723.359	12843.01
723.701	12930.01
724.044	12810.02
724.386	12767.31
724.729	12793.07
725.071	12681.88
725.413	12717.36
725.755	12755.33
726.097	12535.22
726.439	12578.16
726.782	12614.09
727.124	12685.27
727.465	12574.32
727.807	12490.93
728.149	12554.43
728.491	12577.25
728.833	12481.89
729.175	12459.74
729.516	12410.93
729.858	12431.27
730.199	12364.15
730.541	12381.55
730.882	12392.85
731.224	12458.61
731.565	12310.37
731.906	12363.25
732.248	12349.92
732.589	12232.18
732.93	12152.18
733.271	12270.6
733.612	12285.96
733.953	12223.82
734.294	12195.12
734.635	12131.62
734.976	12184.27
735.317	12097.49
735.658	12191.05
735.999	12123.25
736.339	12072.41
736.68	12080.77
737.021	12056.59
737.361	11946.31
737.702	11989.47
738.042	11963.03
738.383	11963.48
738.723	11975.24
739.063	11894.56
739.404	11901.34
739.744	11864.28
740.084	11830.16
740.424	11790.38
740.764	11790.16
741.104	11822.02
741.444	11781.57
741.784	11823.38
742.124	11752.64
742.464	11724.62
742.804	11685.53
743.143	11721.91
743.483	11662.48
743.823	11643.72
744.162	11613.66
744.502	11683.49
744.841	11590.16
745.181	11567.56
745.52	11610.05
745.86	11602.36
746.199	11535.25
746.538	11518.52
746.877	11490.5
747.216	11424.06
747.556	11383.39
747.895	11422.26
748.234	11378.19
748.573	11401.69
748.911	11301.58
749.25	11342.71
749.589	11330.06
749.928	11298.64
750.267	11295.03
750.605	11300
750.944	11200.34
751.283	11171.87
751.621	11265.42
751.96	11203.05
752.298	11164.64
752.636	11185.65
752.975	11095.49
753.313	10966.45
753.651	11021.36
753.989	11116.28
754.327	10964.42
754.666	10910.86
755.004	10945.21
755.342	10907.69
755.679	10916.51
756.017	10744.31
756.355	10763.06
756.693	10755.61
757.031	10692.78
757.368	10725.33
757.706	10727.13
758.044	10676.51
758.381	10707.7
758.719	10563.07
759.056	10635.38
759.394	10592.22
759.731	10538.44
760.068	10510.64
760.405	10477.87
760.743	10350.65
761.08	10381.38
761.417	10404.2
761.754	10395.39
762.091	10361.95
762.428	10366.01
762.765	10270.2
763.102	10314.04
763.438	10232.23
763.775	10147.49
764.112	10105.91
764.449	10162.4
764.785	10151.78
765.122	10069.3
765.458	10023.2
765.795	9987.94
766.131	10027.26
766.467	9962.63
766.804	9876.08
767.14	9786.14
767.476	9751.57
767.812	9683.32
768.148	9831.34
768.485	9753.37
768.821	9726.26
769.157	9699.14
769.492	9776.88
769.828	9645.58
770.164	9586.6
770.5	9568.97
770.836	9524.68
771.171	9512.25
771.507	9484.68
771.842	9408.75
772.178	9413.27
772.513	9391.35
772.849	9251.69
773.184	9237.45
773.519	9278.36
773.855	9176.21
774.19	9173.28
774.525	9120.4
774.86	9208.76
775.195	9147.97
775.53	9108.87
775.865	9062.32
776.2	8936.22
776.535	8902.1
776.87	8990.46
777.205	8883.11
777.539	8857.58
777.874	8896.9
778.209	8823.91
778.543	8782.33
778.878	8678.83
779.212	8738.03
779.547	8674.98
779.881	8672.95
780.215	8601.99
780.55	8560.18
780.884	8489.23
781.218	8551.15
781.552	8479.73
781.886	8443.35
782.22	8350.92
782.554	8383.92
782.888	8295.11
783.222	8254.2
783.556	8294.2
783.889	8230.02
784.223	8207.65
784.557	8133.3
784.89	8175.34
785.224	8138.5
785.557	8064.83
785.891	8072.74
786.224	8057.82
786.558	8034.55
786.891	8004.04
787.224	8033.64
787.557	7944.16
787.891	7943.7
788.224	7894.67
788.557	7908.22
788.89	7893.54
789.223	7874.33
789.556	7833.88
789.888	7800.88
790.221	7818.51
790.554	7740.32
790.887	7782.13
791.219	7696.93
791.552	7643.15
791.884	7585.29
792.217	7513.43
792.549	7461
792.882	7435.02
793.214	7505.3
793.546	7458.52
793.879	7395.92
794.211	7375.58
794.543	7439.08
794.875	7381.91
795.207	7326.54
795.539	7344.17
795.871	7312.08
796.203	7270.73
796.535	7282.48
796.867	7223.5
797.198	7181.69
797.53	7159.32
797.862	7160.9
798.193	7162.03
798.525	7112.54
798.856	7094.91
799.188	7055.82
799.519	7067.34
799.85	6977.4
800.182	7025.08
800.513	6925.43
800.844	6917.97
801.175	7001.58
801.506	6940.79
801.837	6885.2
802.168	6906.44
802.499	6858.31
802.83	6813.34
803.161	6776.05
803.491	6784.64
803.822	6800
804.153	6678.2
804.483	6722.04
804.814	6636.85
805.145	6710.52
805.475	6645.88
805.805	6611.54
806.136	6636.17
806.466	6626.68
806.796	6608.15
807.126	6549.84
807.457	6584.64
807.787	6604.98
808.117	6513.46
808.447	6548.94
808.777	6544.42
809.107	6489.05
809.436	6453.35
809.766	6493.12
810.096	6428.72
810.426	6424.42
810.755	6406.57
811.085	6424.42
811.414	6363.41
811.744	6370.19
812.073	6369.51
812.403	6372.45
812.732	6303.75
813.061	6273.69
813.39	6239.57
813.719	6225.56
814.049	6297.42
814.378	6225.78
814.707	6232.56
815.036	6217.2
815.365	6143.75
815.693	6133.58
816.022	6160.25
816.351	6157.99
816.68	6126.58
817.008	6136.52
817.337	6025.34
817.665	6050.42
817.994	6052.91
818.322	6030.31
818.651	5998.9
818.979	6016.3
819.307	6045.22
819.636	5969.07
819.964	5976.3
820.292	5936.98
820.62	5942.85
820.948	5897.2
821.276	5951.21
821.604	5946.69
821.932	5952.57
822.259	5979.24
822.587	5975.62
822.915	5934.72
823.243	5913.47
823.57	5915.96
823.898	5922.74
824.225	5962.51
824.553	5934.04
824.88	5957.54
825.207	5993.02
825.535	5955.06
825.862	5973.59
826.189	5965.9
826.516	5990.76
826.843	5955.06
827.17	5915.96
827.497	5964.32
827.824	5940.14
828.151	5946.92
828.478	5930.88
828.805	5970.65
829.131	5925
829.458	5913.47
829.785	5887.71
830.111	5904.21
830.438	5895.62
830.764	5951.89
831.09	5905.11
831.417	5866.24
831.743	5894.94
832.069	5943.3
832.395	5862.18
832.722	5924.55
833.048	5893.81
833.374	5858.79
833.7	5861.05
834.026	5878.22
834.351	5885.23
834.677	5850.43
835.003	5860.14
835.329	5847.71
835.654	5828.05
835.98	5830.09
836.306	5822.86
836.631	5797.09
836.956	5812.46
837.282	5884.1
837.607	5744.67
837.932	5790.99
838.258	5722.75
838.583	5727.26
838.908	5666.25
839.233	5693.59
839.558	5715.97
839.883	5699.02
840.208	5718.9
840.533	5720.26
840.858	5689.98
841.182	5680.49
841.507	5678.68
841.832	5612.69
842.156	5658.57
842.481	5616.08
842.805	5623.99
843.13	5590.55
843.454	5595.29
843.778	5592.35
844.103	5614.73
844.427	5591.9
844.751	5536.54
845.075	5599.58
845.399	5504.9
845.723	5476.2
846.047	5495.86
846.371	5440.04
846.695	5474.16
847.019	5442.3
847.343	5406.82
847.666	5410.21
847.99	5336.77
848.313	5327.28
848.637	5279.82
848.96	5268.97
849.284	5299.03
849.607	5221.29
849.931	5252.7
850.254	5202.76
850.577	5151.01
850.9	5162.76
851.223	5159.37
851.546	5077.56
851.869	5086.15
852.192	5141.74
852.515	5034.18
852.838	5059.94
853.161	5042.76
853.483	5023.78
853.806	4985.82
854.129	4985.82
854.451	4963.67
854.774	4931.13
855.096	4892.26
855.419	4892.03
855.741	4872.82
856.063	4873.95
856.385	4901.75
856.708	4835.31
857.03	4855.42
857.352	4842.32
857.674	4833.05
857.996	4807.51
858.318	4774.52
858.64	4745.37
858.961	4787.85
859.283	4763.22
859.605	4740.62
859.926	4762.32
860.248	4729.32
860.57	4675.54
860.891	4706.27
861.212	4703.56
861.534	4699.5
861.855	4685.03
862.176	4676.44
862.498	4727.29
862.819	4647.07
863.14	4674.41
863.461	4651.36
863.782	4635.77
864.103	4606.84
864.424	4636.9
864.745	4629.44
865.065	4568.43
865.386	4601.42
865.707	4608.2
866.027	4608.42
866.348	4594.19
866.668	4567.75
866.989	4549.67
867.309	4502.89
867.63	4530.46
867.95	4534.08
868.27	4460.86
868.59	4484.81
868.91	4485.72
869.23	4492.49
869.55	4500.86
869.87	4505.6
870.19	4511.25
870.51	4534.53
870.83	4473.96
871.15	4419.5
871.469	4477.58
871.789	4445.94
872.109	4458.15
872.428	4400.07
872.748	4417.47
873.067	4440.29
873.386	4417.02
873.706	4398.71
874.025	4390.8
874.344	4394.42
874.663	4373.4
874.982	4343.12
875.301	4382.67
875.62	4318.04
875.939	4372.72
876.258	4385.38
876.577	4342.22
876.896	4285.95
877.214	4261.77
877.533	4302.9
877.852	4334.31
878.17	4328.88
878.489	4307.64
878.807	4309.9
879.125	4315.55
879.444	4284.36
879.762	4256.57
880.08	4238.26
880.398	4249.11
880.716	4260.41
881.034	4264.03
881.352	4241.2
881.67	4237.13
881.988	4272.16
882.306	4228.55
882.624	4212.05
882.941	4188.55
883.259	4202.33
883.577	4207.98
883.894	4176.57
884.212	4144.71
884.529	4148.1
884.846	4121.43
885.164	4168.21
885.481	4137.02
885.798	4122.79
886.115	4096.8
886.432	4065.61
886.75	4029.68
887.067	4061.77
887.383	3981.32
887.7	4017.25
888.017	4023.81
888.334	3964.37
888.651	4039.4
888.967	3945.62
889.284	4018.84
889.6	3995.56
889.917	3979.51
890.233	3980.42
890.55	3988.55
890.866	3972.51
891.182	3930.48
891.498	3923.24
891.815	3919.85
892.131	3926.18
892.447	3908.78
892.763	3893.19
893.079	3843.47
893.395	3897.26
893.71	3854.32
894.026	3817.03
894.342	3823.81
894.657	3811.16
894.973	3794.66
895.289	3803.02
895.604	3805.06
895.92	3755.34
896.235	3773.19
896.55	3767.09
896.865	3749.46
897.181	3729.13
897.496	3714.44
897.811	3690.48
898.126	3663.36
898.441	3682.35
898.756	3669.24
899.071	3671.5
899.386	3650.03
899.7	3645.06
900.015	3645.51
900.33	3601.44
900.644	3606.64
900.959	3620.43
901.273	3600.09
901.588	3603.25
901.902	3562.12
902.216	3542.01
902.531	3539.98
902.845	3552.86
903.159	3546.53
903.473	3510.37
903.787	3507.21
904.101	3464.05
904.415	3481.67
904.729	3443.26
905.042	3401.22
905.356	3495.46
905.67	3414.56
905.984	3395.12
906.297	3398.06
906.611	3375.46
906.924	3360.1
907.237	3370.49
907.551	3323.26
907.864	3344.28
908.177	3335.01
908.491	3293.2
908.804	3311.96
909.117	3274.22
909.43	3294.79
909.743	3259.76
910.056	3239.65
910.368	3271.06
910.681	3189.48
910.994	3221.34
911.307	3200.1
911.619	3188.35
911.932	3196.71
912.244	3214.56
912.557	3167.11
912.869	3186.09
913.181	3145.41
913.494	3179.76
913.806	3118.75
914.118	3121.23
914.43	3095.24
914.742	3076.03
915.054	3053.66
915.366	3059.09
915.678	3008.47
915.99	3034.23
916.302	2975.02
916.613	2977.73
916.925	2940.22
917.236	2965.53
917.548	2960.11
917.859	2988.13
918.171	2956.26
918.482	2926.66
918.794	2920.33
919.105	2930.5
919.416	2934.12
919.727	2904.97
920.038	2909.26
920.349	2898.86
920.66	2877.17
920.971	2862.48
921.282	2813.44
921.593	2866.55
921.903	2762.6
922.214	2802.6
922.525	2772.99
922.835	2787.68
923.146	2754.24
923.456	2737.51
923.767	2754.69
924.077	2741.13
924.387	2732.99
924.697	2729.83
925.008	2721.02
925.318	2681.92
925.628	2716.72
925.938	2650.28
926.248	2649.15
926.558	2661.58
926.867	2690.06
927.177	2657.51
927.487	2656.38
927.796	2590.85
928.106	2619.1
928.416	2586.33
928.725	2623.62
929.034	2584.3
929.344	2560.34
929.653	2543.39
929.962	2521.02
930.271	2532.09
930.581	2571.64
930.89	2532.77
931.199	2535.03
931.508	2498.42
931.817	2486.9
932.125	2487.12
932.434	2473.11
932.743	2474.69
933.051	2431.76
933.36	2438.31
933.669	2431.08
933.977	2398.76
934.286	2427.24
934.594	2398.31
934.902	2377.3
935.21	2406.22
935.519	2366.68
935.827	2362.83
936.135	2389.27
936.443	2363.51
936.751	2344.3
937.059	2320.57
937.367	2334.59
937.674	2300.46
937.982	2313.8
938.29	2305.89
938.597	2323.29
938.905	2293.23
939.213	2258.88
939.52	2261.59
939.827	2260.92
940.135	2237.19
940.442	2235.15
940.749	2253.91
941.056	2232.44
941.363	2206.23
941.67	2194.93
941.977	2180.47
942.284	2197.41
942.591	2154.03
942.898	2186.79
943.205	2203.74
943.511	2163.97
943.818	2121.03
944.125	2100.24
944.431	2126.46
944.738	2100.69
945.044	2100.02
945.35	2059.79
945.657	2090.98
945.963	2062.73
946.269	2082.84
946.575	2076.97
946.881	2002.62
947.187	2067.02
947.493	2044.88
947.799	2037.19
948.105	2018.89
948.41	2005.55
948.716	1971.43
949.022	1985.67
949.327	1981.15
949.633	1982.73
949.938	2005.33
950.244	1963.75
950.549	1983.86
950.854	1927.14
951.16	1954.71
951.465	1907.25
951.77	1924.2
952.075	1922.39
952.38	1904.77
952.685	1905.22
952.99	1905.44
953.294	1917.65
953.599	1900.47
953.904	1880.59
954.209	1852.56
954.513	1844.65
954.818	1821.15
955.122	1854.37
955.426	1860.93
955.731	1836.52
956.035	1827.25
956.339	1827.25
956.643	1824.32
956.948	1822.51
957.252	1817.54
957.556	1792.45
957.86	1812.34
958.163	1770.08
958.467	1784.09
958.771	1786.35
959.075	1782.28
959.378	1751.78
959.682	1760.59
959.985	1751.1
960.289	1744.32
960.592	1730.53
960.896	1724.21
961.199	1723.98
961.502	1723.08
961.805	1730.08
962.108	1695.73
962.411	1727.37
962.714	1693.02
963.017	1657.54
963.32	1689.4
963.623	1692.34
963.926	1688.73
964.228	1681.95
964.531	1663.87
964.833	1660.03
965.136	1627.71
965.438	1648.95
965.741	1621.61
966.043	1622.29
966.345	1607.6
966.648	1605.79
966.95	1595.62
967.252	1565.34
967.554	1587.49
967.856	1575.06
968.158	1568.05
968.46	1566.02
968.761	1579.8
969.063	1556.75
969.365	1561.95
969.666	1554.04
969.968	1526.25
970.269	1524.21
970.571	1528.51
970.872	1558.11
971.174	1533.93
971.475	1486.25
971.776	1496.42
972.077	1508.17
972.378	1481.05
972.679	1495.06
972.98	1483.08
973.281	1489.64
973.582	1467.94
973.883	1441.05
974.183	1446.02
974.484	1456.42
974.785	1434.5
975.085	1450.54
975.386	1442.41
975.686	1416.87
975.986	1438.56
976.287	1389.3
976.587	1392.24
976.887	1406.7
977.187	1381.84
977.487	1427.04
977.787	1392.69
978.087	1406.25
978.387	1397.21
978.687	1374.84
978.987	1384.55
979.286	1372.12
979.586	1383.2
979.885	1363.54
980.185	1335.06
980.484	1373.48
980.784	1338.45
981.083	1339.81
981.382	1353.82
981.682	1342.3
981.981	1339.58
982.28	1351.33
982.579	1325.8
982.878	1327.15
983.177	1301.39
983.475	1319.02
983.774	1313.6
984.073	1298.45
984.372	1293.48
984.67	1287.16
984.969	1278.12
985.267	1286.93
985.566	1275.4
985.864	1268.85
986.162	1261.17
986.461	1249.42
986.759	1246.93
987.057	1227.72
987.355	1243.54
987.653	1226.82
987.951	1272.01
988.249	1206.48
988.547	1232.69
988.844	1216.42
989.142	1211.45
989.44	1209.19
989.737	1211.45
990.035	1212.58
990.332	1185.92
990.63	1186.14
990.927	1169.87
991.224	1178.91
991.521	1181.85
991.819	1152.7
992.116	1187.27
992.413	1200.6
992.71	1172.36
993.006	1188.85
993.303	1173.94
993.6	1155.63
993.897	1136.65
994.193	1140.04
994.49	1158.35
994.787	1121.74
995.083	1136.2
995.379	1129.87
995.676	1129.87
995.972	1116.31
996.268	1102.75
996.565	1090.32
996.861	1096.65
997.157	1096.88
997.453	1088.52
997.749	1089.87
998.044	1088.06
998.34	1077.9
998.636	1088.97
998.932	1078.57
999.227	1060.04
999.523	1063.66
999.818	1058.01
1000.114	1026.37
1000.409	1031.12
1000.704	1021.4
1001	1048.07
1001.295	1035.41
1001.59	1028.86
1001.885	1034.05
1002.18	1008.29
1002.475	1006.03
1002.77	1030.89
1003.065	1019.82
1003.359	1020.27
1003.654	1020.5
1003.949	992.47
1004.243	998.8
1004.538	994.06
1004.832	966.94
1005.127	964
1005.421	981.63
1005.715	964.68
1006.009	964.9
1006.304	941.63
1006.598	940.72
1006.892	959.48
1007.186	945.02
1007.48	923.78
1007.773	953.38
1008.067	934.85
1008.361	927.84
1008.655	902.08
1008.948	941.18
1009.242	900.72
1009.535	923.1
1009.829	893.27
1010.122	902.98
1010.415	875.19
1010.708	892.36
1011.001	890.1
1011.295	893.72
1011.588	893.49
1011.881	891.91
1012.173	887.17
1012.466	861.86
1012.759	858.92
1013.052	867.73
1013.344	872.25
1013.637	871.57
1013.93	837.22
1014.222	874.28
1014.514	876.09
1014.807	832.03
1015.099	844.46
1015.391	828.41
1015.683	853.27
1015.976	819.15
1016.268	812.14
1016.56	819.37
1016.851	826.6
1017.143	801.74
1017.435	810.56
1017.727	807.17
1018.018	822.31
1018.31	810.78
1018.602	792.48
1018.893	791.8
1019.185	798.13
1019.476	771.91
1019.767	780.5
1020.058	759.26
1020.35	764.01
1020.641	761.75
1020.932	781.41
1021.223	774.4
1021.514	761.52
1021.804	755.42
1022.095	765.59
1022.386	750.22
1022.677	735.31
1022.967	733.95
1023.258	728.3
1023.548	719.94
1023.839	713.39
1024.129	701.41
1024.419	717.9
1024.709	734.18
1025	726.94
1025.29	733.72
1025.58	712.26
1025.87	696.21
1026.16	689.66
1026.449	705.48
1026.739	682.65
1027.029	682.2
1027.319	692.82
1027.608	665.25
1027.898	670.9
1028.187	686.27
1028.477	672.26
1028.766	659.83
1029.055	679.94
1029.344	677.91
1029.634	641.52
1029.923	642.2
1030.212	646.04
1030.501	650.56
1030.79	641.07
1031.078	643.56
1031.367	637.45
1031.656	630.9
1031.945	617.57
1032.233	616.89
1032.522	620.28
1032.81	621.41
1033.099	640.39
1033.387	631.13
1033.675	603.78
1033.963	610.34
1034.251	632.71
1034.54	605.37
1034.828	610.79
1035.116	599.04
1035.403	605.59
1035.691	611.24
1035.979	618.02
1036.267	607.17
1036.554	586.38
1036.842	599.26
1037.129	590.45
1037.417	576.44
1037.704	592.48
1037.992	571.02
1038.279	585.03
1038.566	575.54
1038.853	575.54
1039.14	575.54
