Data from black_plastic_tray_FLMS001491_004.txt Node
Date: Tue Feb 07 10:39:09 GMT 2017
User: dcchb
Spectrometer: FLMS00149
Trigger mode: 0
Integration Time (sec): 2.000000E-2
Scans to average: 10
Electric dark correction enabled: true
Nonlinearity correction enabled: false
Boxcar width: 0
XAxis mode: Wavelengths
Number of Pixels in Spectrum: 2048
>>>>>Begin Spectral Data<<<<<
341.393	-32.56
341.776	-32.56
342.16	-32.56
342.543	-65.32
342.927	-82.5
343.31	-80.01
343.693	-62.61
344.077	-71.88
344.46	-64.19
344.843	-59.45
345.226	-48.37
345.61	-21.48
345.993	-12.67
346.376	-7.02
346.759	14.67
347.142	16.93
347.525	31.62
347.908	70.04
348.291	79.31
348.674	95.12
349.057	119.98
349.44	125.86
349.823	166.31
350.206	159.76
350.588	166.31
350.971	200.88
351.354	222.58
351.737	205.63
352.119	260.32
352.502	251.96
352.884	259.41
353.267	256.25
353.65	263.93
354.032	302.58
354.414	293.09
354.797	317.94
355.179	313.2
355.562	281.33
355.944	303.48
356.326	303.03
356.709	326.76
357.091	339.19
357.473	326.08
357.855	312.75
358.238	321.11
358.62	316.81
359.002	333.76
359.384	326.08
359.766	311.84
360.148	329.92
360.53	322.92
360.912	320.43
361.294	338.06
361.676	329.02
362.057	325.18
362.439	314.78
362.821	311.16
363.203	312.97
363.584	316.14
363.966	309.58
364.348	288.79
364.729	314.78
365.111	320.2
365.493	305.51
365.874	309.58
366.256	291.5
366.637	284.27
367.019	303.48
367.4	293.99
367.781	279.75
368.163	312.75
368.544	288.57
368.925	310.49
369.306	321.79
369.688	307.32
370.069	300.77
370.45	306.64
370.831	292.63
371.212	305.74
371.593	278.85
371.974	310.03
372.355	284.5
372.736	304.84
373.117	321.33
373.498	319.3
373.879	298.74
374.26	307.1
374.641	296.7
375.021	309.13
375.402	296.25
375.783	320.66
376.163	309.13
376.544	316.14
376.925	306.87
377.305	335.34
377.686	299.64
378.066	333.31
378.447	325.18
378.827	320.2
379.208	319.75
379.588	331.73
379.968	336.47
380.349	333.76
380.729	329.92
381.109	331.95
381.489	343.03
381.87	320.88
382.25	331.5
382.63	333.76
383.01	336.7
383.39	351.62
383.77	347.55
384.15	335.34
384.53	329.92
384.91	359.3
385.29	332.86
385.67	348.45
386.049	357.26
386.429	325.63
386.809	349.58
387.189	356.81
387.568	340.77
387.948	341.9
388.328	354.33
388.707	352.52
389.087	371.95
389.466	358.85
389.846	364.04
390.225	357.94
390.605	355.68
390.984	351.39
391.363	366.98
391.743	373.54
392.122	365.4
392.501	372.86
392.881	385.51
393.26	388.68
393.639	373.08
394.018	370.6
394.397	395.23
394.776	385.51
395.155	386.64
395.534	388.68
395.913	396.59
396.292	400.43
396.671	387.09
397.05	395.46
397.429	386.64
397.808	398.62
398.186	410.14
398.565	394.55
398.944	430.26
399.323	428.45
399.701	406.3
400.08	431.84
400.458	415.79
400.837	432.52
401.215	416.92
401.594	421.9
401.972	426.87
402.351	428
402.729	386.64
403.107	431.84
403.486	463.48
403.864	424.61
404.242	431.84
404.62	458.96
404.999	446.3
405.377	444.49
405.755	449.01
406.133	460.31
406.511	441.78
406.889	442.23
407.267	467.32
407.645	448.56
408.023	474.55
408.401	472.06
408.779	461.44
409.156	483.59
409.534	451.05
409.912	486.98
410.29	493.76
410.667	483.81
411.045	488.56
411.422	503.93
411.8	498.28
412.178	493.53
412.555	501.22
412.933	508
413.31	528.33
413.687	511.61
414.065	510.71
414.442	544.6
414.819	509.35
415.197	526.53
415.574	546.19
415.951	520.65
416.328	540.31
416.705	538.5
417.082	547.09
417.46	573.98
417.837	568.78
418.214	552.97
418.591	548.45
418.967	566.07
419.344	573.3
419.721	576.92
420.098	565.85
420.475	584.83
420.852	586.64
421.228	588.67
421.605	578.5
421.982	577.6
422.358	559.52
422.735	598.39
423.111	605.62
423.488	569.91
423.864	594.55
424.241	605.62
424.617	628.9
424.994	632.29
425.37	618.05
425.746	642
426.123	638.16
426.499	656.24
426.875	663.25
427.251	660.76
427.627	679.74
428.003	681.55
428.379	654.21
428.756	680.42
429.132	701.66
429.507	706.63
429.883	716.35
430.259	686.52
430.635	716.58
431.011	710.93
431.387	718.61
431.763	751.15
432.138	734.2
432.514	767.88
432.89	742.34
433.265	736.46
433.641	757.25
434.016	777.82
434.392	790.93
434.767	775.78
435.143	775.56
435.518	804.48
435.894	813.52
436.269	816.91
436.644	849
437.02	808.33
437.395	830.47
437.77	828.44
438.145	849
438.52	854.43
438.895	855.56
439.271	844.71
439.646	850.58
440.021	899.17
440.395	887.42
440.77	873.18
441.145	872.96
441.52	905.72
441.895	886.52
442.27	915.44
442.645	906.85
443.019	908.44
443.394	943.24
443.769	904.37
444.143	930.36
444.518	957.47
444.892	923.58
445.267	935.33
445.641	950.92
446.016	945.72
446.39	958.6
446.764	973.07
447.139	978.49
447.513	988.66
447.887	995.44
448.262	986.4
448.636	990.47
449.01	1002.9
449.384	1022.78
449.758	975.1
450.132	1021.65
450.506	1018.26
450.88	1023.01
451.254	1030.24
451.628	1044.25
452.002	1067.75
452.376	1057.36
452.75	1075.44
453.123	1085.38
453.497	1080.64
453.871	1115.66
454.244	1104.59
454.618	1130.13
454.992	1114.53
455.365	1112.5
455.739	1168.99
456.112	1172.16
456.486	1183.46
456.859	1211.25
457.232	1219.61
457.606	1224.13
457.979	1194.53
458.352	1248.99
458.725	1264.13
459.099	1273.62
459.472	1278.14
459.845	1276.11
460.218	1307.07
460.591	1335.09
460.964	1319.73
461.337	1318.82
461.71	1362.89
462.083	1353.62
462.456	1366.05
462.829	1369.67
463.201	1413.96
463.574	1431.13
463.947	1433.17
464.32	1480.4
464.692	1446.73
465.065	1494.86
465.438	1478.37
465.81	1532.6
466.183	1535.31
466.555	1573.28
466.928	1576.67
467.3	1559.72
467.672	1568.53
468.045	1628.64
468.417	1659.15
468.789	1618.93
469.161	1681.52
469.534	1676.33
469.906	1717.68
470.278	1723.78
470.65	1737.12
471.022	1762.2
471.394	1774.18
471.766	1795.19
472.138	1804.46
472.51	1870.22
472.882	1904.34
473.253	1892.14
473.625	1912.93
473.997	1975.53
474.369	1977.11
474.74	2012.14
475.112	2031.34
475.484	2049.65
475.855	2090.55
476.227	2090.33
476.598	2172.13
476.97	2169.65
477.341	2223.66
477.713	2272.02
478.084	2247.38
478.455	2319.25
478.827	2328.29
479.198	2387.04
479.569	2378
479.94	2433.59
480.311	2452.12
480.682	2510.43
481.053	2573.25
481.424	2573.48
481.795	2619.35
482.166	2664.1
482.537	2695.06
482.908	2717.43
483.279	2784.77
483.65	2792
484.021	2880.59
484.391	2890.98
484.762	2901.15
485.133	2921.04
485.503	2981.15
485.874	3036.29
486.244	3068.83
486.615	3117.42
486.985	3139.11
487.356	3199.9
487.726	3249.17
488.097	3305.21
488.467	3313.35
488.837	3365.77
489.207	3377.52
489.578	3476.28
489.948	3460.23
490.318	3551.98
490.688	3526.22
491.058	3559.21
491.428	3625.65
491.798	3637.63
492.168	3740
492.538	3755.37
492.908	3801.69
493.278	3817.51
493.648	3841.01
494.017	3868.36
494.387	3904.52
494.757	3963.05
495.126	4015.47
495.496	4024.74
495.866	4023.16
496.235	4051.18
496.605	4096.6
496.974	4097.51
497.344	4177.5
497.713	4183.6
498.082	4207.33
498.452	4259.31
498.821	4255.02
499.19	4265.64
499.559	4358.74
499.928	4383.83
500.298	4364.62
500.667	4414.33
501.036	4426.08
501.405	4483.71
501.774	4474.22
502.143	4542.92
502.512	4576.81
502.88	4596.93
503.249	4632.41
503.618	4660.65
503.987	4696.36
504.356	4694.55
504.724	4700.88
505.093	4728.22
505.462	4799.18
505.83	4824.04
506.199	4827.88
506.567	4905.17
506.936	4929.12
507.304	4970.7
507.672	5026.29
508.041	4973.41
508.409	5009.57
508.777	5105.39
509.145	5049.57
509.514	5135.9
509.882	5108.78
510.25	5168.89
510.618	5206.18
510.986	5216.8
511.354	5313.29
511.722	5382.22
512.09	5416.79
512.458	5408.88
512.826	5458.37
513.193	5499.28
513.561	5538.15
513.929	5548.99
514.297	5598.71
514.664	5634.41
515.032	5654.75
515.4	5672.61
515.767	5706.05
516.135	5749.44
516.502	5725.94
516.869	5860.17
517.237	5872.6
517.604	5842.77
517.972	5938.59
518.339	5967.74
518.706	5961.19
519.073	5998.92
519.44	6070.56
519.808	6110.33
520.175	6121.63
520.542	6197.56
520.909	6235.98
521.276	6234.62
521.643	6359.59
522.009	6357.11
522.376	6432.81
522.743	6429.2
523.11	6500.61
523.477	6621.96
523.843	6630.55
524.21	6672.13
524.577	6752.8
524.943	6762.75
525.31	6837.55
525.676	6912.57
526.043	6918.9
526.409	6996.19
526.776	7065.11
527.142	7023.76
527.508	7085.22
527.874	7157.31
528.241	7190.53
528.607	7181.27
528.973	7288.38
529.339	7205.22
529.705	7319.79
530.071	7406.8
530.437	7434.59
530.803	7495.38
531.169	7497.87
531.535	7530.41
531.901	7519.56
532.267	7612.67
532.632	7645.21
532.998	7699.9
533.364	7706
533.73	7770.85
534.095	7873.9
534.461	7815.37
534.826	7883.85
535.192	7960
535.557	7996.16
535.923	7994.35
536.288	8060.34
536.653	8128.36
537.019	8036.84
537.384	8087.68
537.749	8187.57
538.114	8198.64
538.479	8207
538.845	8220.11
539.21	8228.24
539.575	8241.58
539.94	8263.5
540.305	8371.74
540.67	8336.49
541.034	8321.57
541.399	8447
541.764	8369.94
542.129	8447.22
542.494	8467.11
542.858	8518.63
543.223	8528.35
543.587	8636.14
543.952	8631.4
544.316	8666.88
544.681	8646.31
545.045	8704.39
545.41	8752.07
545.774	8755.01
546.138	8848.11
546.503	8852.63
546.867	8869.36
547.231	8932.86
547.595	8922.01
547.959	8944.38
548.324	8924.72
548.688	8970.15
549.052	9021.9
549.416	9020.99
549.779	9063.7
550.143	9092.63
550.507	9095.57
550.871	9171.72
551.235	9156.58
551.599	9182.12
551.962	9223.47
552.326	9213.98
552.689	9309.8
553.053	9316.58
553.417	9249.23
553.78	9441.77
554.143	9395.9
554.507	9481.09
554.87	9387.76
555.234	9604.93
555.597	9567.42
555.96	9669.34
556.323	9621.43
556.686	9691.71
557.05	9737.81
557.413	9727.19
557.776	9772.38
558.139	9863.91
558.502	9912.49
558.865	9947.75
559.228	9990.46
559.59	10023.9
559.953	10027.07
560.316	10179.61
560.679	10148.65
561.041	10292.14
561.404	10281.3
561.767	10262.77
562.129	10252.6
562.492	10351.35
562.854	10279.72
563.217	10347.96
563.579	10466.6
563.941	10488.3
564.304	10449.65
564.666	10521.29
565.028	10515.19
565.39	10581.4
565.753	10667.95
566.115	10696.2
566.477	10643.77
566.839	10802.41
567.201	10862.98
567.563	10875.41
567.925	10945.91
568.287	10993.37
568.648	10910.89
569.01	10988.85
569.372	11064.55
569.734	11080.6
570.095	11192.69
570.457	11215.96
570.819	11323.3
571.18	11295.06
571.542	11397.2
571.903	11407.82
572.265	11408.05
572.626	11395.39
572.987	11462.96
573.349	11489.18
573.71	11547.03
574.071	11555.16
574.432	11536.86
574.794	11588.16
575.155	11585.67
575.516	11566.46
575.877	11619.34
576.238	11701.6
576.599	11744.54
576.96	11620.92
577.32	11656.4
577.681	11730.98
578.042	11803.52
578.403	11716.74
578.763	11862.27
579.124	11837.19
579.485	11902.5
579.845	11916.96
580.206	11882.16
580.566	11831.54
580.927	11871.31
581.287	11881.48
581.648	11909.05
582.008	11963.51
582.368	11961.93
582.728	11967.58
583.089	12007.58
583.449	11982.27
583.809	12038.54
584.169	12064.08
584.529	12000.57
584.889	12156.73
585.249	12062.49
585.609	12052.55
585.969	12175.03
586.329	12029.73
586.688	12073.11
587.048	12125.09
587.408	12076.5
587.768	11915.6
588.127	12018.43
588.487	12049.84
588.846	12040.8
589.206	11979.11
589.565	11980.46
589.925	12033.57
590.284	12038.09
590.643	11960.12
591.003	12068.6
591.362	12067.01
591.721	12043.06
592.08	11944.98
592.44	12039.22
592.799	12031.53
593.158	12053.68
593.517	12024.53
593.876	12058.2
594.235	12042.83
594.593	12098.88
594.952	12067.24
595.311	12014.81
595.67	12121.48
596.029	12095.04
596.387	12120.8
596.746	12201.7
597.104	12180.91
597.463	12090.29
597.822	12172.32
598.18	12168.48
598.538	12192.66
598.897	12288.7
599.255	12155.6
599.613	12318.08
599.972	12290.96
600.33	12295.03
600.688	12330.28
601.046	12353.79
601.404	12358.76
601.762	12297.52
602.12	12331.87
602.478	12342.94
602.836	12420.9
603.194	12336.84
603.552	12294.8
603.91	12226.33
604.268	12290.06
604.625	12264.3
604.983	12253.22
605.341	12262.49
605.698	12280.79
606.056	12290.51
606.413	12258.42
606.771	12344.75
607.128	12380.9
607.485	12336.16
607.843	12291.64
608.2	12470.84
608.557	12450.73
608.914	12447.57
609.272	12470.62
609.629	12521.01
609.986	12502.93
610.343	12463.39
610.7	12627
611.057	12596.26
611.414	12599.65
611.771	12558.98
612.127	12623.16
612.484	12622.25
612.841	12671.97
613.198	12561.01
613.554	12648.47
613.911	12668.81
614.267	12779.76
614.624	12693.21
614.98	12699.76
615.337	12758.52
615.693	12644.85
616.05	12725.53
616.406	12820.21
616.762	12703.83
617.118	12632.2
617.475	12684.17
617.831	12711.74
618.187	12744.51
618.543	12792.19
618.899	12806.2
619.255	12815.24
619.611	12813.43
619.967	12855.47
620.323	12810.95
620.678	12815.92
621.034	12812.53
621.39	12838.07
621.746	12792.87
622.101	12914.45
622.457	12761.68
622.812	12790.84
623.168	12849.37
623.523	12808.69
623.879	12849.82
624.234	12831.51
624.589	12887.56
624.945	12763.72
625.3	12857.05
625.655	12900.21
626.01	12874.45
626.365	12835.35
626.72	12797.39
627.075	12863.15
627.43	12777.5
627.785	12868.35
628.14	12899.31
628.495	12799.42
628.85	12925.75
629.205	12814.11
629.559	12954.22
629.914	12828.8
630.269	12867.44
630.623	12803.49
630.978	12775.7
631.332	12857.5
631.687	12901.57
632.041	12717.62
632.396	12807.56
632.75	12740.67
633.104	12693.21
633.459	12621.57
633.813	12651.86
634.167	12693.89
634.521	12667.9
634.875	12611.18
635.229	12540.22
635.583	12536.61
635.937	12479.66
636.291	12546.77
636.645	12527.11
636.999	12547.23
637.352	12532.31
637.706	12427
638.06	12444.86
638.413	12470.84
638.767	12392.2
639.121	12416.83
639.474	12346.78
639.828	12418.87
640.181	12441.47
640.534	12388.81
640.888	12336.38
641.241	12315.82
641.594	12304.52
641.947	12306.33
642.301	12317.63
642.654	12293
643.007	12247.8
643.36	12282.83
643.713	12268.59
644.066	12242.6
644.419	12198.99
644.771	12182.49
645.124	12028.6
645.477	12069.5
645.83	11857.53
646.182	11897.98
646.535	11882.61
646.888	11842.39
647.24	11790.18
647.593	11842.84
647.945	11789.28
648.298	11679.68
648.65	11719.23
649.002	11651.66
649.355	11680.36
649.707	11670.41
650.059	11724.88
650.411	11831.31
650.763	11883.29
651.115	12045.32
651.467	12008.26
651.819	11903.18
652.171	12015.26
652.523	11879.67
652.875	11902.72
653.227	11776.63
653.578	11952.67
653.93	11854.59
654.282	11833.12
654.633	11744.99
654.985	11753.58
655.337	11802.61
655.688	11759.9
656.039	11834.02
656.391	11803.74
656.742	11769.39
657.094	11726.01
657.445	11817.53
657.796	11792.67
658.147	11821.6
658.498	11803.97
658.849	11800.81
659.2	11782.05
659.551	11770.52
659.902	11791.54
660.253	11790.64
660.604	11753.8
660.955	11796.74
661.306	11729.17
661.656	11711.99
662.007	11705.44
662.358	11679.9
662.708	11657.76
663.059	11628.38
663.409	11553.13
663.76	11671.54
664.11	11570.53
664.461	11659.34
664.811	11622.28
665.161	11635.61
665.511	11573.69
665.862	11539.8
666.212	11615.05
666.562	11577.99
666.912	11585.9
667.262	11521.04
667.612	11509.51
667.962	11486.24
668.312	11552.68
668.662	11511.32
669.011	11465.9
669.361	11503.19
669.711	11493.47
670.06	11489.85
670.41	11452.34
670.76	11454.83
671.109	11481.49
671.459	11469.74
671.808	11465.45
672.157	11430.19
672.507	11307.71
672.856	11357.88
673.205	11408.27
673.554	11425
673.904	11442.62
674.253	11475.16
674.602	11437.88
674.951	11248.05
675.3	11142.97
675.649	11372.57
675.998	11362.4
676.346	11375.51
676.695	11454.6
677.044	11364.43
677.393	11372.57
677.741	11295.06
678.09	11320.14
678.438	11309.29
678.787	11287.15
679.135	11260.48
679.484	11199.47
679.832	11259.58
680.181	11205.79
680.529	11306.36
680.877	11151.56
681.225	11110.43
681.573	11238.33
681.922	11161.73
682.27	11103.2
682.618	11057.55
682.966	11027.04
683.314	11092.8
683.661	11084.89
684.009	11064.78
684.357	10952.69
684.705	10966.7
685.053	10992.92
685.4	10982.3
685.748	10957.44
686.095	10910.43
686.443	10906.59
686.79	10831.79
687.138	10782.08
687.485	10737.33
687.832	10721.96
688.18	10804.45
688.527	10600.39
688.874	10696.65
689.221	10681.96
689.568	10733.04
689.915	10658.24
690.262	10681.74
690.609	10599.48
690.956	10591.8
691.303	10647.62
691.65	10478.58
691.997	10499.14
692.344	10379.6
692.69	10477
693.037	10418.92
693.383	10357.45
693.73	10451.91
694.077	10377.34
694.423	10413.27
694.769	10352.26
695.116	10323.56
695.462	10305.7
695.808	10231.81
696.155	10214.41
696.501	10216.21
696.847	10267.74
697.193	10121.98
697.539	10144.35
697.885	10079.04
698.231	10082.66
698.577	9995.66
698.923	10008.08
699.269	9880.63
699.614	9875.88
699.96	9874.98
700.306	9878.82
700.651	9838.15
700.997	9776
701.342	9798.82
701.688	9812.61
702.033	9759.05
702.379	9702.1
702.724	9675.66
703.069	9752.5
703.415	9616.68
703.76	9592.73
704.105	9559.51
704.45	9600.86
704.795	9563.35
705.14	9500.3
705.485	9506.85
705.83	9437.03
706.175	9437.93
706.52	9395.45
706.865	9370.59
707.209	9412.62
707.554	9296.24
707.899	9366.52
708.243	9265.96
708.588	9387.31
708.932	9247.2
709.277	9295.33
709.621	9286.3
709.966	9246.75
710.31	9211.04
710.654	9127.2
710.998	9160.42
711.342	9157.49
711.687	9164.94
712.031	9127.43
712.375	9097.15
712.719	9106.64
713.063	9146.41
713.407	9052.18
713.75	9031.61
714.094	9009.24
714.438	8966.98
714.782	9019.41
715.125	8919.75
715.469	9019.86
715.812	8917.04
716.156	8906.19
716.499	8912.75
716.843	8901.9
717.186	8816.7
717.53	8862.58
717.873	8833.43
718.216	8794.78
718.559	8809.7
718.902	8678.4
719.246	8761.11
719.589	8700.32
719.932	8696.03
720.275	8701.23
720.617	8632.53
720.96	8632.3
721.303	8613.09
721.646	8620.55
721.989	8611.96
722.331	8505.07
722.674	8559.76
723.016	8572.87
723.359	8573.55
723.701	8503.72
724.044	8484.73
724.386	8475.02
724.729	8524.51
725.071	8468.01
725.413	8470.95
725.755	8464.17
726.097	8411.97
726.439	8417.39
726.782	8377.39
727.124	8386.66
727.465	8364.06
727.807	8355.25
728.149	8369.94
728.491	8299.43
728.833	8271.86
729.175	8322.7
729.516	8308.47
729.858	8341.01
730.199	8284.74
730.541	8207.45
730.882	8234.57
731.224	8284.97
731.565	8203.61
731.906	8286.32
732.248	8266.89
732.589	8168.36
732.93	8199.09
733.271	8136.95
733.612	8259.66
733.953	8146.44
734.294	8119.55
734.635	8090.17
734.976	8137.17
735.317	8059.89
735.658	8106.89
735.999	8096.95
736.339	8072.32
736.68	8060.56
737.021	8016.05
737.361	7989.38
737.702	8040
738.042	8020.34
738.383	7952.09
738.723	8035.25
739.063	7980.57
739.404	7892.89
739.744	7877.29
740.084	7863.28
740.424	7860.57
740.764	7863.51
741.104	7899.44
741.444	7915.94
741.784	7891.98
742.124	7823.51
742.464	7831.42
742.804	7771.53
743.143	7793.68
743.483	7801.81
743.823	7691.76
744.162	7758.2
744.502	7683.85
744.841	7722.04
745.181	7775.37
745.52	7721.59
745.86	7738.77
746.199	7671.42
746.538	7673.46
746.877	7641.37
747.216	7640.69
747.556	7635.72
747.895	7576.96
748.234	7543.52
748.573	7587.58
748.911	7573.8
749.25	7569.5
749.589	7487.7
749.928	7499
750.267	7610.86
750.605	7552.78
750.944	7467.13
751.283	7477.98
751.621	7468.49
751.96	7478.66
752.298	7441.6
752.636	7469.62
752.975	7367.7
753.313	7395.95
753.651	7367.48
753.989	7396.63
754.327	7354.14
754.666	7327.25
755.004	7347.36
755.342	7329.74
755.679	7303.75
756.017	7217.2
756.355	7262.62
756.693	7159.8
757.031	7234.6
757.368	7159.8
757.706	7120.48
758.044	7174.49
758.381	7117.31
758.719	7109.86
759.056	7151.21
759.394	7097.43
759.731	7021.5
760.068	7043.19
760.405	7007.03
760.743	6957.54
761.08	7005.9
761.417	6977.88
761.754	6969.97
762.091	7002.29
762.428	6983.31
762.765	6912.8
763.102	6943.08
763.438	6892.46
763.775	6884.1
764.112	6859.69
764.449	6865.57
764.785	6857.43
765.122	6765.46
765.458	6779.47
765.795	6732.92
766.131	6720.49
766.467	6711.9
766.804	6609.98
767.14	6628.29
767.476	6572.92
767.812	6576.54
768.148	6562.3
768.485	6539.25
768.821	6494.96
769.157	6497.22
769.492	6460.83
769.828	6493.83
770.164	6402.76
770.5	6408.4
770.836	6381.29
771.171	6373.38
771.507	6354.85
771.842	6292.48
772.178	6316.66
772.513	6300.16
772.849	6292.02
773.184	6276.21
773.519	6234.62
773.855	6179.48
774.19	6197.34
774.525	6182.42
774.86	6146.04
775.195	6165.7
775.53	6112.82
775.865	6123.89
776.2	6055.19
776.535	6006.16
776.87	6016.32
777.205	6020.39
777.539	6023.78
777.874	6009.32
778.209	5959.15
778.543	5974.97
778.878	5868.53
779.212	5933.16
779.547	5835.09
779.881	5904.01
780.215	5781.08
780.55	5808.87
780.884	5727.29
781.218	5748.54
781.552	5719.84
781.886	5720.74
782.22	5745.37
782.554	5675.32
782.888	5673.51
783.222	5683.9
783.556	5595.09
783.889	5573.17
784.223	5608.43
784.557	5540.63
784.89	5556
785.224	5531.37
785.557	5497.02
785.891	5493.17
786.224	5503.8
786.558	5479.84
786.891	5428.77
787.224	5438.71
787.557	5467.64
787.891	5400.52
788.224	5405.04
788.557	5346.29
788.89	5353.97
789.223	5375.44
789.556	5292.5
789.888	5277.81
790.221	5219.06
790.554	5241.43
790.887	5215.89
791.219	5204.82
791.552	5196.69
791.884	5192.84
792.217	5151.49
792.549	5140.87
792.882	5099.74
793.214	5187.19
793.546	5105.84
793.879	5098.61
794.211	5039.63
794.543	5069.68
794.875	5079.17
795.207	5073.07
795.539	5024.71
795.871	5029.23
796.203	4965.73
796.535	4951.95
796.867	4878.05
797.198	4830.82
797.53	4935
797.862	4923.7
798.193	4904.72
798.525	4838.05
798.856	4846.86
799.188	4765.51
799.519	4804.83
799.85	4750.37
800.182	4774.55
800.513	4736.58
800.844	4745.85
801.175	4694.78
801.506	4769.8
801.837	4723.93
802.168	4750.6
802.499	4695
802.83	4650.03
803.161	4678.05
803.491	4644.61
803.822	4664.27
804.153	4598.51
804.483	4581.79
804.814	4555.57
805.145	4592.41
805.475	4585.85
805.805	4557.83
806.136	4539.53
806.466	4596.93
806.796	4537.49
807.126	4527.1
807.457	4484.39
807.787	4535.91
808.117	4510.6
808.447	4472.41
808.777	4500.43
809.107	4477.83
809.436	4414.56
809.766	4439.87
810.096	4421.79
810.426	4380.66
810.755	4362.13
811.085	4342.7
811.414	4393.09
811.744	4361
812.073	4361.23
812.403	4302.02
812.732	4301.34
813.061	4285.97
813.39	4286.43
813.719	4253.66
814.049	4296.82
814.378	4226.54
814.707	4252.08
815.036	4275.81
815.365	4237.39
815.693	4237.84
816.022	4217.05
816.351	4194.9
816.68	4194.23
817.008	4223.15
817.337	4130.95
817.665	4142.25
817.994	4125.08
818.322	4146.77
818.651	4118.97
818.979	4099.54
819.307	4107.45
819.636	4086.88
819.964	4077.62
820.292	4065.64
820.62	4050.73
820.948	4057.05
821.276	4088.01
821.604	4074.23
821.932	4099.54
822.259	4058.86
822.587	4082.14
822.915	4062.03
823.243	4095.25
823.57	4088.47
823.898	4114.91
824.225	4057.51
824.553	4042.14
824.88	4091.63
825.207	4094.34
825.535	4061.8
825.862	4078.3
826.189	4029.94
826.516	4069.48
826.843	4053.66
827.17	4055.7
827.497	4070.16
827.824	4057.73
828.151	4101.8
828.478	4073.33
828.805	4119.2
829.131	4053.66
829.458	4080.56
829.785	4069.71
830.111	4109.71
830.438	4066.09
830.764	4053.21
831.09	4079.88
831.417	4049.37
831.743	4078.75
832.069	4039.88
832.395	4061.57
832.722	4062.03
833.048	4076.94
833.374	4046.21
833.7	4059.54
834.026	4000.56
834.351	4054.12
834.677	3996.49
835.003	4022.48
835.329	4027.9
835.654	4007.11
835.98	3991.29
836.306	4007.34
836.631	3989.94
836.956	3991.97
837.282	3999.43
837.607	4023.83
837.932	3979.32
838.258	3990.84
838.583	3938.41
838.908	3962.59
839.233	3967.11
839.558	3951.97
839.883	3913.56
840.208	3903.16
840.533	3906.78
840.858	3917.4
841.182	3924.4
841.507	3904.74
841.832	3891.18
842.156	3842.37
842.481	3894.57
842.805	3846.89
843.13	3826.33
843.454	3853.67
843.778	3832.65
844.103	3842.37
844.427	3827.91
844.751	3794.69
845.075	3843.5
845.399	3844.4
845.723	3794.24
846.047	3824.52
846.371	3730.28
846.695	3773.9
847.019	3731.19
847.343	3779.1
847.666	3748.59
847.99	3704.07
848.313	3719.21
848.637	3662.94
848.96	3645.09
849.284	3656.16
849.607	3618.65
849.931	3640.12
850.254	3581.59
850.577	3571.19
850.9	3534.58
851.223	3569.38
851.546	3547.46
851.869	3568.25
852.192	3494.81
852.515	3484.41
852.838	3453
853.161	3454.36
853.483	3489.39
853.806	3496.84
854.129	3433.34
854.451	3424.08
854.774	3433.12
855.096	3392.89
855.419	3417.98
855.741	3420.23
856.063	3396.73
856.385	3401.25
856.708	3419.11
857.03	3358.99
857.352	3377.98
857.674	3368.03
857.996	3352.89
858.318	3354.02
858.64	3311.76
858.961	3350.18
859.283	3334.14
859.605	3337.98
859.926	3286.23
860.248	3269.28
860.57	3268.6
860.891	3231.99
861.212	3270.63
861.534	3261.6
861.855	3274.93
862.176	3274.25
862.498	3230.41
862.819	3280.58
863.14	3221.82
863.461	3221.6
863.782	3207.81
864.103	3194.25
864.424	3191.09
864.745	3223.4
865.065	3191.99
865.386	3212.56
865.707	3200.58
866.027	3195.83
866.348	3165.55
866.668	3180.47
866.989	3182.05
867.309	3142.73
867.63	3124.65
867.95	3112.22
868.27	3152.9
868.59	3122.84
868.91	3147.93
869.23	3122.16
869.55	3128.49
869.87	3146.34
870.19	3104.99
870.51	3121.94
870.83	3136.63
871.15	3102.28
871.469	3045.1
871.789	3092.56
872.109	3085.55
872.428	3056.4
872.748	3090.75
873.067	3067.7
873.386	3053.01
873.706	3111.99
874.025	3019.79
874.344	3035.16
874.663	3027.48
874.982	3038.78
875.301	3004.88
875.62	3020.92
875.939	2982.05
876.258	3015.05
876.577	2999
876.896	2991.77
877.214	2957.65
877.533	2979.12
877.852	2970.08
878.17	3032.67
878.489	2988.83
878.807	3014.37
879.125	2975.73
879.444	2983.86
879.762	2929.63
880.08	2969.63
880.398	2951.55
880.716	2974.37
881.034	2933.69
881.352	2957.42
881.67	2953.58
881.988	2946.35
882.306	2956.74
882.624	2925.78
882.941	2933.02
883.259	2911.32
883.577	2904.09
883.894	2892.34
884.212	2932.34
884.529	2930.08
884.846	2894.37
885.164	2900.25
885.481	2906.35
885.798	2887.14
886.115	2847.82
886.432	2792.23
886.75	2814.6
887.067	2848.95
887.383	2829.97
887.7	2818.89
888.017	2815.96
888.334	2824.32
888.651	2819.35
888.967	2772.34
889.284	2782.96
889.6	2789.74
889.917	2782.51
890.233	2784.77
890.55	2752.46
890.866	2771.89
891.182	2817.76
891.498	2765.34
891.815	2766.24
892.131	2743.87
892.447	2758.56
892.763	2737.09
893.079	2717.2
893.395	2674.49
893.71	2697.54
894.026	2709.29
894.342	2666.81
894.657	2676.3
894.973	2665.23
895.289	2669.07
895.604	2702.29
895.92	2656.41
896.235	2627.94
896.55	2675.4
896.865	2649.63
897.181	2616.87
897.496	2647.37
897.811	2593.14
898.126	2622.74
898.441	2563.31
898.756	2576.87
899.071	2578.22
899.386	2593.36
899.7	2571.9
900.015	2561.27
900.33	2559.47
900.644	2536.64
900.959	2554.27
901.273	2506.13
901.588	2502.97
901.902	2499.13
902.216	2509.3
902.531	2495.51
902.845	2486.02
903.159	2480.37
903.473	2439.47
903.787	2453.25
904.101	2473.37
904.415	2420.71
904.729	2418.45
905.042	2437.44
905.356	2367.38
905.67	2427.94
905.984	2365.35
906.297	2378.91
906.611	2384.56
906.924	2367.16
907.237	2388.17
907.551	2399.02
907.864	2389.3
908.177	2338.91
908.491	2335.52
908.804	2304.56
909.117	2309.98
909.43	2283.54
909.743	2275.63
910.056	2295.07
910.368	2302.3
910.681	2250.55
910.994	2286.25
911.307	2243.77
911.619	2236.31
911.932	2220.27
912.244	2245.8
912.557	2231.34
912.869	2195.86
913.181	2201.28
913.494	2173.49
913.806	2182.08
914.118	2186.82
914.43	2160.83
914.742	2196.09
915.054	2178.46
915.366	2169.65
915.678	2143.43
915.99	2140.49
916.302	2116.09
916.613	2126.03
916.925	2121.96
917.236	2108.18
917.548	2131.23
917.859	2075.64
918.171	2085.58
918.482	2045.36
918.794	2079.93
919.105	2072.02
919.416	2058.69
919.727	2024.34
920.038	2042.19
920.349	2007.16
920.66	2025.02
920.971	2014.85
921.282	2017.56
921.593	2013.49
921.903	2006.03
922.214	1988.41
922.525	1972.14
922.835	1967.84
923.146	1959.03
923.456	1983.89
923.767	1946.6
924.077	1977.11
924.387	1962.19
924.697	1927.84
925.008	1947.96
925.318	1926.71
925.628	1918.81
925.938	1923.55
926.248	1926.49
926.558	1903.21
926.867	1907.73
927.177	1918.13
927.487	1880.39
927.796	1866.38
928.106	1860.28
928.416	1829.77
928.725	1825.7
929.034	1831.58
929.344	1815.31
929.653	1860.5
929.962	1828.64
930.271	1771.24
930.581	1818.24
930.89	1787.96
931.199	1803.33
931.508	1782.31
931.817	1786.83
932.125	1754.74
932.434	1767.17
932.743	1780.73
933.051	1766.04
933.36	1744.35
933.669	1764.46
933.977	1738.92
934.286	1742.99
934.594	1747.96
934.902	1718.36
935.21	1716.55
935.519	1740.05
935.827	1717.23
936.135	1685.37
936.443	1692.14
936.751	1676.55
937.059	1693.27
937.367	1650.34
937.674	1668.64
937.982	1698.47
938.29	1626.38
938.597	1671.58
938.905	1657.12
939.213	1636.78
939.52	1630
939.827	1618.93
940.135	1633.16
940.442	1605.37
940.749	1610.79
941.056	1610.79
941.363	1581.19
941.67	1597.46
941.977	1584.35
942.284	1570.79
942.591	1572.15
942.898	1564.24
943.205	1535.76
943.511	1510
943.818	1546.84
944.125	1547.29
944.431	1526.5
944.738	1515.65
945.044	1525.82
945.35	1534.18
945.657	1511.13
945.963	1535.31
946.269	1494.64
946.575	1498.48
946.881	1495.09
947.187	1506.16
947.493	1473.39
947.799	1493.96
948.105	1471.81
948.41	1472.72
948.716	1458.25
949.022	1445.37
949.327	1478.37
949.633	1443.34
949.938	1467.29
950.244	1418.48
950.549	1417.12
950.854	1428.87
951.16	1434.75
951.465	1421.42
951.77	1405.37
952.075	1403.34
952.38	1402.43
952.685	1423.23
952.99	1410.34
953.294	1372.15
953.599	1389.33
953.904	1394.07
954.209	1392.27
954.513	1355.66
954.818	1379.84
955.122	1359.72
955.426	1351.81
955.731	1344.36
956.035	1334.87
956.339	1366.28
956.643	1331.25
956.948	1340.74
957.252	1335.54
957.556	1339.61
957.86	1303
958.163	1324.02
958.467	1316.11
958.771	1302.78
959.075	1323.79
959.378	1319.95
959.682	1297.35
959.985	1315.66
960.289	1285.38
960.592	1279.95
960.896	1285.6
961.199	1269.78
961.502	1249.9
961.805	1270.01
962.108	1265.72
962.411	1269.33
962.714	1244.25
963.017	1244.7
963.32	1244.7
963.623	1260.97
963.926	1219.39
964.228	1220.07
964.531	1218.71
964.833	1231.82
965.136	1238.82
965.438	1204.7
965.741	1201.08
966.043	1195.21
966.345	1166.06
966.648	1158.37
966.95	1195.66
967.252	1203.8
967.554	1154.98
967.856	1172.61
968.158	1184.36
968.46	1153.18
968.761	1155.66
969.063	1165.15
969.365	1118.15
969.666	1153.63
969.968	1129.67
970.269	1143.46
970.571	1153.85
970.872	1139.62
971.174	1128.77
971.475	1134.65
971.776	1121.54
972.077	1108.21
972.378	1116.34
972.679	1122.89
972.98	1104.36
973.281	1107.98
973.582	1106.4
973.883	1117.02
974.183	1084.48
974.484	1083.8
974.785	1091.93
975.085	1072.05
975.386	1074.53
975.686	1073.63
975.986	1049.68
976.287	1056
976.587	1074.99
976.887	1064.36
977.187	1083.57
977.487	1061.2
977.787	1052.84
978.087	1056.91
978.387	1052.16
978.687	1064.14
978.987	1050.58
979.286	1009.68
979.586	1022.56
979.885	1036.57
980.185	1032.5
980.484	1008.77
980.784	1036.79
981.083	1007.42
981.382	1006.74
981.682	1029.34
981.981	980.07
982.28	988.66
982.579	990.92
982.878	986.17
983.177	992.5
983.475	976.01
983.774	978.49
984.073	980.07
984.372	969.68
984.67	973.97
984.969	967.64
985.267	975.78
985.566	952.73
985.864	954.09
986.162	965.84
986.461	964.03
986.759	935.78
987.057	959.28
987.355	976.46
987.653	934.88
987.951	925.39
988.249	946.63
988.547	937.59
988.844	919.74
989.142	903.01
989.44	934.42
989.737	911.83
990.035	920.19
990.332	902.56
990.63	915.44
990.927	923.8
991.224	903.46
991.521	881.09
991.819	900.53
992.116	898.49
992.413	893.97
992.71	879.06
993.006	873.18
993.303	888.78
993.6	885.16
993.897	898.27
994.193	886.74
994.49	874.09
994.787	876.8
995.083	869.57
995.379	863.47
995.676	861.21
995.972	866.86
996.268	852.17
996.565	860.53
996.861	839.51
997.157	846.52
997.453	878.61
997.749	837.93
998.044	833.41
998.34	816.46
998.636	824.37
998.932	823.24
999.227	811.94
999.523	844.71
999.818	805.61
1000.114	816.01
1000.409	799.29
1000.704	820.08
1001	807.87
1001.295	805.16
1001.59	790.02
1001.885	809.68
1002.18	797.93
1002.475	784.15
1002.77	787.76
1003.065	785.28
1003.359	798.83
1003.654	769.46
1003.949	768.78
1004.243	762.68
1004.538	754.77
1004.832	792.06
1005.127	782.79
1005.421	757.71
1005.715	743.02
1006.009	751.15
1006.304	755.22
1006.598	742.11
1006.892	757.71
1007.186	750.7
1007.48	713.19
1007.773	751.15
1008.067	740.53
1008.361	734.88
1008.655	743.02
1008.948	713.64
1009.242	732.4
1009.535	726.29
1009.829	735.11
1010.122	719.29
1010.415	733.3
1010.708	732.62
1011.001	686.75
1011.295	689.91
1011.588	677.26
1011.881	697.14
1012.173	705.28
1012.466	688.33
1012.759	704.37
1013.052	709.57
1013.344	684.94
1013.637	677.03
1013.93	685.17
1014.222	679.97
1014.514	679.06
1014.807	669.8
1015.099	663.47
1015.391	653.3
1015.683	642.45
1015.976	667.09
1016.268	654.66
1016.56	659.86
1016.851	670.48
1017.143	628.9
1017.435	637.71
1017.727	636.35
1018.018	648.33
1018.31	641.78
1018.602	648.56
1018.893	655.56
1019.185	618.73
1019.476	635.68
1019.767	618.95
1020.058	622.12
1020.35	610.59
1020.641	621.89
1020.932	623.02
1021.223	601.55
1021.514	594.55
1021.804	602.46
1022.095	599.97
1022.386	610.14
1022.677	625.96
1022.967	590.93
1023.258	596.35
1023.548	609.69
1023.839	579.86
1024.129	589.57
1024.419	585.28
1024.709	596.13
1025	567.65
1025.29	579.41
1025.58	583.47
1025.87	580.08
1026.16	566.75
1026.449	576.02
1026.739	570.14
1027.029	571.5
1027.319	582.12
1027.608	566.75
1027.898	554.77
1028.187	551.16
1028.477	570.14
1028.766	551.61
1029.055	528.33
1029.344	549.12
1029.634	548.9
1029.923	535.57
1030.212	534.44
1030.501	550.48
1030.79	542.8
1031.078	548.22
1031.367	529.46
1031.656	560.88
1031.945	515.68
1032.233	550.25
1032.522	538.28
1032.81	521.78
1033.099	526.53
1033.387	521.33
1033.675	516.81
1033.963	504.61
1034.251	537.37
1034.54	518.16
1034.828	543.93
1035.116	516.58
1035.403	524.94
1035.691	505.51
1035.979	517.03
1036.267	511.16
1036.554	506.41
1036.842	482.01
1037.129	500.31
1037.417	505.06
1037.704	488.33
1037.992	500.31
1038.279	505.74
1038.566	488.56
1038.853	488.56
1039.14	488.56
