Data from black_metal_pc_casing_FLMS001491_00078.txt Node
Date: Wed Feb 08 14:33:29 GMT 2017
User: dcchb
Spectrometer: FLMS00149
Trigger mode: 0
Integration Time (sec): 2.000000E-2
Scans to average: 10
Electric dark correction enabled: true
Nonlinearity correction enabled: false
Boxcar width: 0
XAxis mode: Wavelengths
Number of Pixels in Spectrum: 2048
>>>>>Begin Spectral Data<<<<<
341.393	-23.54
341.776	-23.54
342.16	-23.54
342.543	-56.76
342.927	-69.87
343.31	-57.22
343.693	-54.96
344.077	-52.02
344.46	-67.39
344.843	-36.43
345.226	-56.09
345.61	-43.21
345.993	-21.51
346.376	-21.74
346.759	2.22
347.142	27.53
347.525	27.3
347.908	40.41
348.291	80.86
348.674	103.01
349.057	129.22
349.44	144.13
349.823	150.69
350.206	188.88
350.588	203.12
350.971	215.77
351.354	239.5
351.737	227.3
352.119	227.75
352.502	241.08
352.884	248.76
353.267	266.17
353.65	289.22
354.032	289.44
354.414	294.19
354.797	300.97
355.179	293.06
355.562	314.3
355.944	330.57
356.326	321.98
356.709	326.73
357.091	336.9
357.473	330.57
357.855	348.88
358.238	328.76
358.62	348.88
359.002	335.54
359.384	330.34
359.766	330.8
360.148	325.6
360.53	342.77
360.912	331.02
361.294	315.2
361.676	309.1
362.057	319.72
362.439	330.8
362.821	314.53
363.203	336.22
363.584	334.41
363.966	310.68
364.348	299.38
364.729	310.46
365.111	325.15
365.493	318.14
365.874	336.22
366.256	320.85
366.637	308.2
367.019	313.85
367.4	324.24
367.781	324.69
368.163	302.32
368.544	322.66
368.925	325.15
369.306	320.63
369.688	295.09
370.069	310.23
370.45	323.56
370.831	322.44
371.212	303.23
371.593	314.3
371.974	318.14
372.355	298.93
372.736	307.97
373.117	315.88
373.498	318.14
373.879	312.94
374.26	308.2
374.641	326.05
375.021	320.85
375.402	316.56
375.783	326.95
376.163	346.84
376.544	340.97
376.925	353.62
377.305	326.28
377.686	326.05
378.066	341.64
378.447	343.45
378.827	353.62
379.208	357.69
379.588	354.98
379.968	339.61
380.349	358.14
380.729	355.43
381.109	362.43
381.489	335.32
381.87	362.21
382.25	344.36
382.63	347.07
383.01	355.88
383.39	346.39
383.77	368.54
384.15	363.34
384.53	359.04
384.91	369.21
385.29	355.2
385.67	380.29
386.049	371.93
386.429	381.64
386.809	380.96
387.189	343.9
387.568	367.18
387.948	390.23
388.328	398.59
388.707	396.33
389.087	378.7
389.466	376.67
389.846	390.68
390.225	381.42
390.605	378.25
390.984	383.22
391.363	389.55
391.743	396.11
392.122	401.98
392.501	403.34
392.881	421.64
393.26	421.87
393.639	394.07
394.018	404.92
394.397	430.23
394.776	421.87
395.155	415.09
395.534	425.71
395.913	384.58
396.292	435.88
396.671	421.64
397.05	428.19
397.429	432.71
397.808	451.25
398.186	434.07
398.565	446.5
398.944	455.31
399.323	446.27
399.701	458.7
400.08	456.22
400.458	448.08
400.837	429.55
401.215	465.26
401.594	450.57
401.972	441.3
402.351	460.51
402.729	458.93
403.107	456.67
403.486	464.35
403.864	463.67
404.242	470.23
404.62	478.14
404.999	489.44
405.377	475.2
405.755	512.03
406.133	487.85
406.511	496.22
406.889	498.7
407.267	496.22
407.645	484.46
408.023	518.36
408.401	525.59
408.779	530.11
409.156	528.53
409.534	507.06
409.912	528.08
410.29	523.79
410.667	528.98
411.045	535.76
411.422	545.93
411.8	562.43
412.178	544.35
412.555	545.03
412.933	554.29
413.31	611.02
413.687	555.88
414.065	569.43
414.442	578.7
414.819	559.72
415.197	602.65
415.574	594.52
415.951	622.31
416.328	589.09
416.705	616.89
417.082	592.03
417.46	603.56
417.837	616.89
418.214	620.73
418.591	615.76
418.967	613.05
419.344	651.69
419.721	640.39
420.098	658.92
420.475	665.25
420.852	662.54
421.228	647.62
421.605	660.05
421.982	671.13
422.358	665.93
422.735	657.79
423.111	674.97
423.488	668.64
423.864	694.63
424.241	693.95
424.617	695.98
424.994	703.89
425.37	684.23
425.746	686.49
426.123	713.16
426.499	712.93
426.875	735.31
427.251	719.26
427.627	749.09
428.003	733.72
428.379	751.35
428.756	753.84
429.132	766.94
429.507	758.81
429.883	784.8
430.259	814.4
430.635	782.54
431.011	804.91
431.387	801.97
431.763	841.52
432.138	819.6
432.514	838.35
432.89	818.69
433.265	885.13
433.641	872.48
434.016	874.51
434.392	881.52
434.767	872.48
435.143	874.96
435.518	910.89
435.894	894.85
436.269	905.02
436.644	930.55
437.02	938.01
437.395	934.4
437.77	929.88
438.145	955.19
438.52	979.82
438.895	972.81
439.271	953.38
439.646	975.07
440.021	1002.64
440.395	1008.97
440.77	980.95
441.145	992.25
441.52	1041.29
441.895	999.03
442.27	1017.56
442.645	1039.48
443.019	1040.83
443.394	1032.7
443.769	1068.4
444.143	1039.7
444.518	1062.75
444.892	1065.47
445.267	1075.41
445.641	1073.83
446.016	1085.35
446.39	1097.33
446.764	1085.8
447.139	1091.91
447.513	1107.27
447.887	1123.77
448.262	1109.98
448.636	1119.02
449.01	1131.68
449.384	1127.16
449.758	1158.57
450.132	1161.51
450.506	1170.1
450.88	1161.06
451.254	1140.94
451.628	1196.54
452.002	1181.85
452.376	1186.59
452.75	1215.52
453.123	1240.83
453.497	1222.07
453.871	1266.59
454.244	1263.2
454.618	1268.4
454.992	1296.87
455.365	1290.55
455.739	1321.05
456.112	1315.63
456.486	1331.9
456.859	1342.3
457.232	1372.8
457.606	1372.12
457.979	1373.25
458.352	1391.56
458.725	1440.82
459.099	1434.72
459.472	1447.38
459.845	1462.74
460.218	1463.87
460.591	1485.12
460.964	1531.22
461.337	1488.51
461.71	1557.66
462.083	1578.67
462.456	1596.53
462.829	1593.36
463.201	1615.73
463.574	1593.36
463.947	1602.4
464.32	1652.12
464.692	1688.27
465.065	1699.35
465.438	1684.66
465.81	1704.32
466.183	1748.84
466.555	1743.41
466.928	1782.51
467.3	1774.83
467.672	1781.38
468.045	1843.75
468.417	1848.27
468.789	1865.45
469.161	1864.54
469.534	1891.21
469.906	1973.47
470.278	1970.53
470.65	1971.43
471.022	2016.63
471.394	2020.7
471.766	2078.1
472.138	2104.31
472.51	2105.44
472.882	2135.04
473.253	2182.73
473.625	2223.18
473.997	2205.78
474.369	2267.24
474.74	2297.75
475.112	2283.74
475.484	2376.17
475.855	2380.01
476.227	2383.4
476.598	2462.49
476.97	2495.71
477.341	2519.21
477.713	2578.87
478.084	2569.38
478.455	2622.94
478.827	2647.8
479.198	2705.2
479.569	2730.28
479.94	2796.27
480.311	2794.91
480.682	2845.76
481.053	2950.84
481.424	2991.29
481.795	3032.42
482.166	3090.72
482.537	3096.37
482.908	3165.07
483.279	3151.29
483.65	3226.54
484.021	3298.85
484.391	3335.69
484.762	3348.12
485.133	3399.64
485.503	3441
485.874	3512.86
486.244	3514.44
486.615	3604.61
486.985	3631.27
487.356	3691.39
487.726	3724.83
488.097	3795.34
488.467	3784.94
488.837	3843.25
489.207	3893.64
489.578	3933.64
489.948	4003.02
490.318	4060.64
490.688	4074.2
491.058	4105.84
491.428	4184.25
491.798	4246.63
492.168	4263.35
492.538	4271.94
492.908	4387.19
493.278	4431.48
493.648	4379.5
494.017	4476
494.387	4524.58
494.757	4610.01
495.126	4610.91
495.496	4599.84
495.866	4666.5
496.235	4684.13
496.605	4760.06
496.974	4779.04
497.344	4805.93
497.713	4858.59
498.082	4882.32
498.452	4917.12
498.821	4973.84
499.19	4986.72
499.559	5002.54
499.928	5069.88
500.298	5074.85
500.667	5146.94
501.036	5050.22
501.405	5201.63
501.774	5154.17
502.143	5196.88
502.512	5275.75
502.88	5317.78
503.249	5348.74
503.618	5332.92
503.987	5400.04
504.356	5460.15
504.724	5449.98
505.093	5463.32
505.462	5549.87
505.83	5542.86
506.199	5616.76
506.567	5705.12
506.936	5700.15
507.304	5739.92
507.672	5758.9
508.041	5785.34
508.409	5819.01
508.777	5865.79
509.145	5911.89
509.514	5948.05
509.882	5994.83
510.25	6003.64
510.618	6060.82
510.986	6054.04
511.354	6109.63
511.722	6211.55
512.09	6268.27
512.458	6236.4
512.826	6280.02
513.193	6365.44
513.561	6319.57
513.929	6389.62
514.297	6482.27
514.664	6510.29
515.032	6560.69
515.4	6629.61
515.767	6654.7
516.135	6665.77
516.502	6639.78
516.869	6793.68
517.237	6799.33
517.604	6815.37
517.972	6818.08
518.339	6928.14
518.706	6909.38
519.073	7010.39
519.44	6983.5
519.808	7030.51
520.175	7114.35
520.542	7172.88
520.909	7206.77
521.276	7289.71
521.643	7290.16
522.009	7390.72
522.376	7477.95
522.743	7478.18
523.11	7565.18
523.477	7610.15
523.843	7698.06
524.21	7772.18
524.577	7817.83
524.943	7874.33
525.31	7916.36
525.676	7980.99
526.043	8009.24
526.409	8039.07
526.776	8139.86
527.142	8180.31
527.508	8213.3
527.874	8324.26
528.241	8309.8
528.607	8311.15
528.973	8503.24
529.339	8456.23
529.705	8529.68
530.071	8629.34
530.437	8663.91
530.803	8652.84
531.169	8700.29
531.535	8704.14
531.901	8815.77
532.267	8795.21
532.632	8937.35
532.998	8881.53
533.364	8938.93
533.73	8998.59
534.095	9057.57
534.461	9081.07
534.826	9141.64
535.192	9185.03
535.557	9266.38
535.923	9216.44
536.288	9218.47
536.653	9394.74
537.019	9321.29
537.384	9407.17
537.749	9480.61
538.114	9444.68
538.479	9482.87
538.845	9513.15
539.21	9520.16
539.575	9606.48
539.94	9544.34
540.305	9692.81
540.67	9673.38
541.034	9741.85
541.399	9737.1
541.764	9793.37
542.129	9841.73
542.494	9853.48
542.858	9905.01
543.223	9926.48
543.587	9969.86
543.952	9954.72
544.316	10104.1
544.681	10010.09
545.045	10085.57
545.41	10180.71
545.774	10169.18
546.138	10166.92
546.503	10222.74
546.867	10288.05
547.231	10345
547.595	10388.61
547.959	10372.11
548.324	10366.69
548.688	10330.99
549.052	10478.78
549.416	10452.56
549.779	10537.76
550.143	10530.3
550.507	10567.59
550.871	10685.78
551.235	10706.34
551.599	10738.43
551.962	10767.13
552.326	10830.86
552.689	10914.92
553.053	10867.24
553.417	10860.46
553.78	10960.57
554.143	11009.39
554.507	11117.41
554.87	11062.72
555.234	11187.01
555.597	11091.64
555.96	11184.3
556.323	11241.7
556.686	11265.88
557.05	11346.1
557.413	11367.79
557.776	11363.05
558.139	11508.81
558.502	11537.06
558.865	11615.7
559.228	11616.6
559.59	11665.64
559.953	11671.52
560.316	11743.6
560.679	11834.9
561.041	11810.49
561.404	11866.99
561.767	12052.97
562.129	11978.17
562.492	12113.31
562.854	12089.13
563.217	12047.55
563.579	12227.43
563.941	12255.45
564.304	12332.29
564.666	12403.47
565.028	12359.41
565.39	12514.43
565.753	12618.83
566.115	12593.98
566.477	12644.37
566.839	12646.86
567.201	12763.69
567.563	12821.09
567.925	12853.63
568.287	12833.97
568.648	12859.51
569.01	13022.21
569.372	13077.13
569.734	12958.03
570.095	13089.33
570.457	13132.72
570.819	13164.81
571.18	13220.17
571.542	13321.42
571.903	13238.03
572.265	13379.49
572.626	13360.28
572.987	13463.11
573.349	13452.26
573.71	13496.78
574.071	13561.18
574.432	13627.85
574.794	13649.32
575.155	13614.29
575.516	13657.45
575.877	13729.99
576.238	13749.43
576.599	13736.55
576.96	13827.84
577.32	13789.88
577.681	13835.07
578.042	13974.05
578.403	13929.08
578.763	13969.99
579.124	13913.94
579.485	13955.52
579.845	14035.29
580.206	14053.15
580.566	14066.03
580.927	14074.62
581.287	14102.19
581.648	14010.89
582.008	14158.68
582.368	14055.41
582.728	14186.48
583.089	14110.1
583.449	14098.8
583.809	14147.16
584.169	14188.96
584.529	14146.48
584.889	14167.04
585.249	14116.42
585.609	14119.36
585.969	14198.68
586.329	14226.02
586.688	14159.36
587.048	14294.72
587.408	14195.97
587.768	14142.64
588.127	14108.97
588.487	14252.92
588.846	14235.97
589.206	14180.15
589.565	14164.56
589.925	14268.96
590.284	14111
590.643	14234.39
591.003	14231.22
591.362	14248.17
591.721	14315.51
592.08	14204.1
592.44	14278.23
592.799	14294.72
593.158	14260.6
593.517	14230.54
593.876	14289.3
594.235	14242.97
594.593	14227.61
594.952	14307.6
595.311	14235.29
595.67	14277.1
596.029	14400.03
596.387	14413.59
596.746	14387.6
597.104	14331.11
597.463	14282.75
597.822	14395.06
598.18	14297.43
598.538	14416.08
598.897	14405.68
599.255	14350.99
599.613	14537.65
599.972	14475.06
600.33	14496.98
600.688	14460.59
601.046	14506.24
601.404	14557.99
601.762	14508.5
602.12	14501.72
602.478	14559.8
602.836	14628.05
603.194	14521.16
603.552	14588.27
603.91	14480.71
604.268	14590.99
604.625	14498.33
604.983	14635.28
605.341	14638.89
605.698	14699.91
606.056	14712.11
606.413	14778.78
606.771	14658.33
607.128	14748.72
607.485	14706.46
607.843	14721.6
608.2	14720.47
608.557	14834.14
608.914	14721.38
609.272	14846.57
609.629	14835.27
609.986	14857.42
610.343	14833.01
610.7	14926.8
611.057	14944.2
611.414	14835.27
611.771	14826.23
612.127	14971.99
612.484	14946.46
612.841	14953.24
613.198	14872.33
613.554	14932.9
613.911	15087.02
614.267	15038.43
614.624	15078.43
614.98	15112.33
615.337	15159.79
615.693	15112.78
616.05	15042.05
616.406	15167.69
616.762	15047.02
617.118	15057.19
617.475	15101.71
617.831	15119.11
618.187	15175.6
618.543	15189.84
618.899	15267.8
619.255	15228.48
619.611	15318.2
619.967	15260.35
620.323	15318.88
620.678	15282.27
621.034	15170.86
621.39	15227.13
621.746	15208.15
622.101	15406.33
622.457	15253.79
622.812	15231.65
623.168	15289.27
623.523	15342.83
623.879	15409.04
624.234	15264.87
624.589	15381.93
624.945	15333.11
625.3	15254.25
625.655	15222.38
626.01	15249.27
626.365	15264.64
626.72	15298.99
627.075	15316.62
627.43	15268.71
627.785	15231.42
628.14	15255.15
628.495	15287.92
628.85	15334.24
629.205	15183.29
629.559	15262.83
629.914	15186
630.269	15228.48
630.623	15108.26
630.978	15113.68
631.332	15121.82
631.687	15270.29
632.041	15164.3
632.396	15164.08
632.75	15046.34
633.104	15170.86
633.459	15054.93
633.813	15108.03
634.167	15074.36
634.521	15029.84
634.875	15016.06
635.229	15027.36
635.583	14921.83
635.937	14949.17
636.291	14971.99
636.645	14943.07
636.999	14879.11
637.352	15004.99
637.706	14833.01
638.06	14974.48
638.413	14921.6
638.767	14875.05
639.121	14828.04
639.474	14787.14
639.828	14767.93
640.181	14748.27
640.534	14822.39
640.888	14833.24
641.241	14664.2
641.594	14762.73
641.947	14778.55
642.301	14713.47
642.654	14741.49
643.007	14730.87
643.36	14709.18
643.713	14609.29
644.066	14658.78
644.419	14586.24
644.771	14521.61
645.124	14304.21
645.477	14292.69
645.83	14220.6
646.182	14160.72
646.535	14057.89
646.888	14183.99
647.24	14038.23
647.593	14123.88
647.945	14003.88
648.298	13976.54
648.65	13881.85
649.002	13928.18
649.355	13984.67
649.707	13896.99
650.059	14018.12
650.411	14158.68
650.763	14248.85
651.115	14340.6
651.467	14283.2
651.819	14245.68
652.171	14277.55
652.523	14254.95
652.875	14182.86
653.227	14126.37
653.578	14247.27
653.93	14116.42
654.282	14094.28
654.633	14137.89
654.985	14163.65
655.337	14158.68
655.688	14121.85
656.039	14141.28
656.391	13999.36
656.742	13976.77
657.094	14068.29
657.445	14135.86
657.796	14019.02
658.147	14051.11
658.498	14039.14
658.849	14004.79
659.2	13961.4
659.551	14065.58
659.902	14029.19
660.253	13979.93
660.604	13959.36
660.955	13984.45
661.306	13972.02
661.656	13970.21
662.007	13913.72
662.358	13987.39
662.708	13936.54
663.059	13878.69
663.409	13923.89
663.76	13990.32
664.11	13889.99
664.461	13915.52
664.811	13946.48
665.161	13911.91
665.511	13937.9
665.862	13984.22
666.212	13907.84
666.562	13913.49
666.912	13927.95
667.262	13870.1
667.612	13846.83
667.962	13895.19
668.312	13861.74
668.662	13939.48
669.011	13900.38
669.361	13828.29
669.711	13839.37
670.06	13832.81
670.41	13762.53
670.76	13725.92
671.109	13876.43
671.459	13837.33
671.808	13795.3
672.157	13798.69
672.507	13685.93
672.856	13733.16
673.205	13740.84
673.554	13805.92
673.904	13747.39
674.253	13784.91
674.602	13786.94
674.951	13587.62
675.3	13425.82
675.649	13671.69
675.998	13614.74
676.346	13683.67
676.695	13712.82
677.044	13513.27
677.393	13626.49
677.741	13678.02
678.09	13545.59
678.438	13604.12
678.787	13635.08
679.135	13578.13
679.484	13493.16
679.832	13568.87
680.181	13518.25
680.529	13563.67
680.877	13406.61
681.225	13431.24
681.573	13515.31
681.922	13471.47
682.27	13445.93
682.618	13349.89
682.966	13442.99
683.314	13483.44
683.661	13350.57
684.009	13303.34
684.357	13254.3
684.705	13309.21
685.053	13227.41
685.4	13259.27
685.748	13123
686.095	13175.88
686.443	13104.7
686.79	13072.61
687.138	13073.74
687.485	13089.1
687.832	12983.8
688.18	13077.58
688.527	12963.23
688.874	12911.93
689.221	12993.97
689.568	12845.95
689.915	12872.16
690.262	12837.13
690.609	12797.36
690.956	12779.73
691.303	12690.02
691.65	12700.64
691.997	12656.8
692.344	12656.57
692.69	12584.03
693.037	12633.3
693.383	12466.52
693.73	12545.62
694.077	12393.76
694.423	12509.69
694.769	12473.75
695.116	12477.14
695.462	12393.53
695.808	12347.88
696.155	12362.34
696.501	12290.26
696.847	12198.51
697.193	12131.39
697.539	12207.55
697.885	12035.35
698.231	12059.08
698.577	12041.45
698.923	12040.09
699.269	11986.54
699.614	11979.3
699.96	11921.45
700.306	11947.67
700.651	11861.34
700.997	11885.52
701.342	11787.22
701.688	11754.22
702.033	11724.62
702.379	11726.2
702.724	11692.53
703.069	11711.74
703.415	11628.8
703.76	11652.08
704.105	11586.77
704.45	11545.19
704.795	11548.13
705.14	11464.06
705.485	11513.78
705.83	11400.79
706.175	11413.22
706.52	11373.9
706.865	11374.8
707.209	11335.03
707.554	11299.32
707.899	11351.98
708.243	11172.55
708.588	11269.49
708.932	11172.55
709.277	11128.7
709.621	11212.32
709.966	11074.47
710.31	11133.45
710.654	11069.72
710.998	11082.83
711.342	11016.39
711.687	11027.24
712.031	10948.82
712.375	10914.47
712.719	10917.86
713.063	10944.53
713.407	10929.39
713.75	10888.94
714.094	10929.61
714.438	10794.93
714.782	10835.38
715.125	10743.18
715.469	10746.57
715.812	10734.36
716.156	10687.13
716.499	10789.73
716.843	10708.38
717.186	10599.23
717.53	10736.4
717.873	10587.48
718.216	10652.11
718.559	10626.8
718.902	10517.2
719.246	10656.85
719.589	10566.69
719.932	10530.53
720.275	10487.37
720.617	10457.31
720.96	10503.64
721.303	10433.13
721.646	10481.04
721.989	10372.34
722.331	10430.19
722.674	10339.8
723.016	10326.92
723.359	10344.77
723.701	10372.11
724.044	10257.54
724.386	10196.07
724.729	10301.38
725.071	10255.51
725.413	10245.34
725.755	10258.67
726.097	10237.65
726.439	10243.08
726.782	10148.17
727.124	10167.83
727.465	10169.86
727.807	10113.59
728.149	10185
728.491	10092.57
728.833	10095.96
729.175	10059.13
729.516	10100.26
729.858	9997.66
730.199	9992.24
730.541	9969.64
730.882	9983.88
731.224	10031.11
731.565	9923.09
731.906	9945.91
732.248	9980.03
732.589	9909.08
732.93	9932.35
733.271	9914.05
733.612	9810.55
733.953	9868.17
734.294	9849.87
734.635	9792.92
734.976	9838.79
735.317	9789.3
735.658	9815.29
735.999	9741.62
736.339	9813.48
736.68	9829.53
737.021	9750.66
737.361	9667.27
737.702	9780.94
738.042	9750.66
738.383	9688.06
738.723	9666.6
739.063	9680.61
739.404	9677.9
739.744	9728.06
740.084	9593.38
740.424	9584.79
740.764	9595.19
741.104	9625.47
741.444	9526.49
741.784	9526.03
742.124	9532.81
742.464	9508.41
742.804	9523.32
743.143	9486.04
743.483	9440.61
743.823	9466.15
744.162	9471.12
744.502	9422.53
744.841	9414.63
745.181	9379.82
745.52	9321.29
745.86	9402.65
746.199	9370.56
746.538	9385.93
746.877	9365.36
747.216	9407.62
747.556	9313.16
747.895	9342.99
748.234	9230.9
748.573	9307.74
748.911	9312.26
749.25	9281.97
749.589	9220.96
749.928	9208.3
750.267	9224.12
750.605	9177.34
750.944	9117.01
751.283	9124.92
751.621	9132.37
751.96	9068.19
752.298	9004.92
752.636	9065.93
752.975	9005.37
753.313	8987.52
753.651	9054.86
753.989	8926.73
754.327	8916.56
754.666	8924.47
755.004	8922.66
755.342	8881.31
755.679	8972.83
756.017	8812.83
756.355	8863.45
756.693	8803.79
757.031	8804.25
757.368	8693.97
757.706	8719.28
758.044	8712.72
758.381	8704.36
758.719	8623.23
759.056	8692.38
759.394	8655.1
759.731	8570.81
760.068	8557.92
760.405	8514.54
760.743	8528.32
761.08	8552.28
761.417	8519.51
761.754	8483.35
762.091	8526.51
762.428	8352.73
762.765	8393.41
763.102	8419.17
763.438	8332.85
763.775	8334.43
764.112	8333.75
764.449	8320.19
764.785	8237.93
765.122	8180.08
765.458	8178.05
765.795	8215.79
766.131	8233.64
766.467	8172.4
766.804	8130.82
767.14	8165.17
767.476	8124.26
767.812	7975.34
768.148	8071.61
768.485	8000.88
768.821	7952.74
769.157	7974.21
769.492	7905.29
769.828	7901.67
770.164	7819.41
770.5	7784.84
770.836	7828
771.171	7801.11
771.507	7751.62
771.842	7666.2
772.178	7722.92
772.513	7672.07
772.849	7656.03
773.184	7536.48
773.519	7640.66
773.855	7516.37
774.19	7536.03
774.525	7568.8
774.86	7464.39
775.195	7480.44
775.53	7447.45
775.865	7401.8
776.2	7371.97
776.535	7307.56
776.87	7336.94
777.205	7374.68
777.539	7275.47
777.874	7259.65
778.209	7264.4
778.543	7254.23
778.878	7152.54
779.212	7129.71
779.547	7061.92
779.881	7102.14
780.215	7044.07
780.55	7087.45
780.884	6967.68
781.218	7017.63
781.552	7043.39
781.886	6965.65
782.22	6962.49
782.554	6876.16
782.888	6891.75
783.222	6829.83
783.556	6800.23
783.889	6816.28
784.223	6782.38
784.557	6747.8
784.89	6787.12
785.224	6706.22
785.557	6687.24
785.891	6680.91
786.224	6668.26
786.558	6669.16
786.891	6573.12
787.224	6578.54
787.557	6554.14
787.891	6576.73
788.224	6529.28
788.557	6537.41
788.89	6469.17
789.223	6528.37
789.556	6467.13
789.888	6470.75
790.221	6371.99
790.554	6386
790.887	6403.41
791.219	6351.43
791.552	6314.82
791.884	6278.21
792.217	6267.14
792.549	6239.57
792.882	6227.14
793.214	6144.88
793.546	6252
793.879	6141.27
794.211	6123.86
794.543	6150.53
794.875	6131.55
795.207	6119.57
795.539	6116.41
795.871	6101.04
796.203	6038.67
796.535	6045.45
796.867	6019.91
797.198	5936.3
797.53	5894.94
797.862	5946.24
798.193	5942.85
798.525	5925.9
798.856	5908.28
799.188	5848.84
799.519	5822.4
799.85	5810.65
800.182	5789.64
800.513	5835.06
800.844	5736.53
801.175	5724.55
801.506	5794.83
801.837	5727.94
802.168	5701.73
802.499	5668.74
802.83	5676.87
803.161	5654.27
803.491	5640.49
803.822	5640.04
804.153	5621.73
804.483	5588.29
804.814	5558.23
805.145	5527.95
805.475	5579.25
805.805	5532.69
806.136	5550.09
806.466	5499.47
806.796	5469.19
807.126	5465.12
807.457	5487.27
807.787	5521.17
808.117	5401.85
808.447	5433.94
808.777	5412.7
809.107	5404.56
809.436	5377.67
809.766	5395.97
810.096	5396.43
810.426	5341.29
810.755	5337.9
811.085	5349.2
811.414	5274.85
811.744	5291.8
812.073	5273.94
812.403	5242.98
812.732	5221.06
813.061	5271.91
813.39	5230.55
813.719	5184.23
814.049	5239.82
814.378	5199.37
814.707	5146.94
815.036	5151.01
815.365	5145.13
815.693	5113.95
816.022	5134.29
816.351	5068.75
816.68	5037.79
817.008	5134.74
817.337	5083.67
817.665	5047.28
817.994	5007.51
818.322	5065.81
818.651	5041.18
818.979	5014.06
819.307	4993.05
819.636	5015.19
819.964	4939.26
820.292	4952.82
820.62	4989.88
820.948	4933.84
821.276	5027.17
821.604	4939.49
821.932	5021.52
822.259	4952.82
822.587	4954.4
822.915	4947.17
823.243	4945.82
823.57	4919.6
823.898	4923.44
824.225	4884.35
824.553	4934.07
824.88	4958.92
825.207	4952.82
825.535	4954.63
825.862	4909.43
826.189	4897.68
826.516	4945.82
826.843	4923.44
827.17	4964.57
827.497	4929.55
827.824	4974.29
828.151	4960.73
828.478	4942.43
828.805	4941.52
829.131	4920.05
829.458	4894.52
829.785	4920.51
830.111	4914.4
830.438	4874.63
830.764	4878.02
831.09	4974.06
831.417	4924.57
831.743	4864.46
832.069	4962.31
832.395	4912.14
832.722	4885.93
833.048	4919.83
833.374	4966.15
833.7	4873.73
834.026	4883.45
834.351	4864.46
834.677	4864.46
835.003	4887.74
835.329	4865.59
835.654	4838.47
835.98	4857.46
836.306	4853.16
836.631	4845.93
836.956	4856.55
837.282	4848.42
837.607	4813.84
837.932	4781.3
838.258	4813.84
838.583	4777.01
838.908	4804.8
839.233	4800.74
839.558	4777.01
839.883	4748.99
840.208	4774.07
840.533	4735.88
840.858	4756.44
841.182	4744.47
841.507	4751.92
841.832	4702.43
842.156	4673.96
842.481	4686.16
842.805	4699.72
843.13	4709.89
843.454	4639.16
843.778	4641.42
844.103	4584.7
844.427	4612.94
844.751	4628.54
845.075	4690.23
845.399	4621.53
845.723	4601.19
846.047	4571.59
846.371	4539.05
846.695	4563
847.019	4509.44
847.343	4537.24
847.666	4522.78
847.99	4447.07
848.313	4448.88
848.637	4460.18
848.96	4448.88
849.284	4408.88
849.607	4374.76
849.931	4362.33
850.254	4352.61
850.577	4329.79
850.9	4300.41
851.223	4280.98
851.546	4301.77
851.869	4252.73
852.192	4252.28
852.515	4219.06
852.838	4165.5
853.161	4253.18
853.483	4196.23
853.806	4195.33
854.129	4211.6
854.451	4158.94
854.774	4142.22
855.096	4125.05
855.419	4108.1
855.741	4141.09
856.063	4089.79
856.385	4101.77
856.708	4058.16
857.03	4018.61
857.352	4037.59
857.674	4094.99
857.996	4044.15
858.318	4006.41
858.64	4002.11
858.961	3991.49
859.283	3991.04
859.605	3968.67
859.926	4002.11
860.248	3937.48
860.57	3961.21
860.891	3973.64
861.212	3916.24
861.534	3934.54
861.855	3887.09
862.176	3961.66
862.498	3961.21
862.819	3873.53
863.14	3875.56
863.461	3919.85
863.782	3917.82
864.103	3901.1
864.424	3911.27
864.745	3910.14
865.065	3924.6
865.386	3824.49
865.707	3817.48
866.027	3823.36
866.348	3841.66
866.668	3821.78
866.989	3826.07
867.309	3817.48
867.63	3816.13
867.95	3796.92
868.27	3778.39
868.59	3782.91
868.91	3807.09
869.23	3780.88
869.55	3735
869.87	3770.25
870.19	3718.5
870.51	3732.97
870.83	3720.09
871.15	3710.82
871.469	3712.4
871.789	3738.62
872.109	3723.7
872.428	3671.73
872.748	3722.8
873.067	3751.72
873.386	3661.78
873.706	3695
874.025	3702.46
874.344	3669.24
874.663	3676.02
874.982	3674.21
875.301	3717.6
875.62	3653.42
875.939	3617.72
876.258	3656.13
876.577	3685.28
876.896	3682.8
877.214	3604.38
877.533	3641.67
877.852	3621.56
878.17	3619.75
878.489	3624.5
878.807	3660.88
879.125	3639.41
879.444	3622.01
879.762	3591.28
880.08	3598.96
880.398	3584.5
880.716	3590.6
881.034	3536.14
881.352	3577.49
881.67	3533.88
881.988	3583.37
882.306	3546.08
882.624	3553.31
882.941	3525.29
883.259	3532.07
883.577	3472.63
883.894	3482.35
884.212	3492.52
884.529	3494.78
884.846	3495.23
885.164	3487.78
885.481	3480.54
885.798	3516.7
886.115	3446.42
886.432	3478.96
886.75	3426.76
887.067	3421.56
887.383	3396.03
887.7	3410.26
888.017	3437.16
888.334	3420.66
888.651	3398.06
888.967	3384.05
889.284	3410.26
889.6	3406.87
889.917	3345.63
890.233	3364.39
890.55	3372.3
890.866	3379.3
891.182	3335.24
891.498	3300.21
891.815	3320.32
892.131	3332.53
892.447	3312.64
892.763	3293.66
893.079	3276.93
893.395	3258.85
893.71	3273.09
894.026	3274
894.342	3269.25
894.657	3213.21
894.973	3237.16
895.289	3206.88
895.604	3203.04
895.92	3205.98
896.235	3184.96
896.55	3186.09
896.865	3130.27
897.181	3168.91
897.496	3158.97
897.811	3149.93
898.126	3125.07
898.441	3118.29
898.756	3106.54
899.071	3092.76
899.386	3128.69
899.7	3086.43
900.015	3063.38
900.33	3014.12
900.644	3048.24
900.959	3051.4
901.273	3011.86
901.588	3009.37
901.902	2989.48
902.216	2981.57
902.531	2985.87
902.845	2979.31
903.159	2943.38
903.473	2954.23
903.787	2931.63
904.101	2940.67
904.415	2937.28
904.729	2962.82
905.042	2924.17
905.356	2902.48
905.67	2897.96
905.984	2875.14
906.297	2873.55
906.611	2892.31
906.924	2894.34
907.237	2859.32
907.551	2829.94
907.864	2830.84
908.177	2804.86
908.491	2838.75
908.804	2809.83
909.117	2728.47
909.43	2749.26
909.743	2795.14
910.056	2754.46
910.368	2729.83
910.681	2719.66
910.994	2704.97
911.307	2708.36
911.619	2686.44
911.932	2708.36
912.244	2680.11
912.557	2650.51
912.869	2647.35
913.181	2645.76
913.494	2647.8
913.806	2627.01
914.118	2611.19
914.43	2592.43
914.742	2615.26
915.054	2594.92
915.366	2573.22
915.678	2575.48
915.99	2568.03
916.302	2546.33
916.613	2529.83
916.925	2532.55
917.236	2505.65
917.548	2487.12
917.859	2533
918.171	2519.89
918.482	2482.83
918.794	2529.38
919.105	2500
919.416	2435.37
919.727	2453.68
920.038	2450.51
920.349	2422.94
920.66	2427.46
920.971	2451.19
921.282	2437.18
921.593	2402.15
921.903	2383.62
922.214	2389.73
922.525	2392.66
922.835	2363.06
923.146	2390.18
923.456	2361.48
923.767	2301.14
924.077	2336.17
924.387	2302.5
924.697	2298.2
925.008	2302.5
925.318	2298.88
925.628	2292.33
925.938	2290.97
926.248	2278.32
926.558	2303.4
926.867	2279.45
927.177	2260.46
927.487	2214.14
927.796	2226.11
928.106	2236.96
928.416	2221.82
928.725	2164.19
929.034	2210.97
929.344	2181.14
929.653	2205.32
929.962	2165.32
930.271	2164.87
930.581	2164.87
930.89	2145.21
931.199	2122.16
931.508	2095.04
931.817	2150.18
932.125	2124.65
932.434	2146.34
932.743	2107.7
933.051	2112.22
933.36	2090.98
933.669	2059.79
933.977	2066.57
934.286	2069.73
934.594	2080.81
934.902	2041.94
935.21	2000.36
935.519	2025.22
935.827	2027.7
936.135	2013.92
936.443	1976.4
936.751	2005.78
937.059	2005.33
937.367	1980.7
937.674	1996.97
937.982	1990.19
938.29	1968.95
938.597	1952.9
938.905	1954.03
939.213	1930.08
939.52	1922.62
939.827	1918.33
940.135	1924.65
940.442	1931.66
940.749	1930.3
941.056	1864.32
941.363	1866.35
941.67	1901.6
941.977	1892.11
942.284	1853.92
942.591	1869.51
942.898	1839.01
943.205	1838.55
943.511	1837.88
943.818	1829.97
944.125	1810.31
944.431	1834.26
944.738	1797.65
945.044	1807.82
945.35	1791.32
945.657	1797.42
945.963	1802.4
946.269	1769.85
946.575	1749.97
946.881	1767.14
947.187	1768.5
947.493	1741.15
947.799	1746.58
948.105	1735.28
948.41	1726.69
948.716	1738.44
949.022	1721.72
949.327	1709.74
949.633	1690.08
949.938	1702.51
950.244	1692.12
950.549	1674.04
950.854	1670.65
951.16	1683.98
951.465	1675.17
951.77	1675.17
952.075	1670.42
952.38	1632.68
952.685	1638.33
952.99	1626.81
953.294	1632.91
953.599	1655.06
953.904	1638.33
954.209	1610.54
954.513	1620.93
954.818	1631.33
955.122	1572.8
955.426	1597.2
955.731	1599.46
956.035	1572.12
956.339	1588.62
956.643	1563.08
956.948	1537.09
957.252	1540.03
957.556	1525.57
957.86	1535.74
958.163	1529.63
958.467	1546.13
958.771	1507.26
959.075	1516.3
959.378	1492.12
959.682	1528.28
959.985	1515.62
960.289	1494.16
960.592	1498
960.896	1507.94
961.199	1478.56
961.502	1491.67
961.805	1460.94
962.108	1452.35
962.411	1463.65
962.714	1439.69
963.017	1469.3
963.32	1449.19
963.623	1447.83
963.926	1401.73
964.228	1426.81
964.531	1444.89
964.833	1429.98
965.136	1407.15
965.438	1429.07
965.741	1398.11
966.043	1378.23
966.345	1407.15
966.648	1390.43
966.95	1386.81
967.252	1381.62
967.554	1397.44
967.856	1347.94
968.158	1380.26
968.46	1366.25
968.761	1363.09
969.063	1371.67
969.365	1330.09
969.666	1356.98
969.968	1344.1
970.269	1335.06
970.571	1309.98
970.872	1300.49
971.174	1316.31
971.475	1281.96
971.776	1317.66
972.077	1296.19
972.378	1308.62
972.679	1301.17
972.98	1288.29
973.281	1298.45
973.582	1280.83
973.883	1287.83
974.183	1284.67
974.484	1251.45
974.785	1275.4
975.085	1258.68
975.386	1258.91
975.686	1249.64
975.986	1259.59
976.287	1241.28
976.587	1244.67
976.887	1238.34
977.187	1248.74
977.487	1222.75
977.787	1218.68
978.087	1213.94
978.387	1217.1
978.687	1215.97
978.987	1212.58
979.286	1213.71
979.586	1180.72
979.885	1167.16
980.185	1189.53
980.484	1170.1
980.784	1200.6
981.083	1170.55
981.382	1139.14
981.682	1179.36
981.981	1166.71
982.28	1132.13
982.579	1165.58
982.878	1140.72
983.177	1138.46
983.475	1128.52
983.774	1115.63
984.073	1118.35
984.372	1146.37
984.67	1139.36
984.969	1128.29
985.267	1099.59
985.566	1124.45
985.864	1109.76
986.162	1082.42
986.461	1100.72
986.759	1100.27
987.057	1105.24
987.355	1092.36
987.653	1054.39
987.951	1067.27
988.249	1077.44
988.547	1072.25
988.844	1083.54
989.142	1060.04
989.44	1053.26
989.737	1037.22
990.035	1036.31
990.332	1042.87
990.63	1064.56
990.927	1066.82
991.224	1055.07
991.521	1030.89
991.819	1033.38
992.116	1021.85
992.413	1031.34
992.71	1020.95
993.006	1008.97
993.303	1015.98
993.6	1001.74
993.897	1021.63
994.193	994.06
994.49	1022.3
994.787	1007.84
995.083	957.45
995.379	1006.94
995.676	979.59
995.972	997.9
996.268	973.27
996.565	982.76
996.861	968.07
997.157	946.6
997.453	957.45
997.749	964.9
998.044	970.1
998.34	974.85
998.636	949.31
998.932	950.89
999.227	927.16
999.523	949.76
999.818	892.59
1000.114	952.47
1000.409	926.49
1000.704	914.06
1001	926.71
1001.295	938.01
1001.59	918.8
1001.885	901.63
1002.18	913.15
1002.475	913.15
1002.77	915.41
1003.065	884.91
1003.359	878.58
1003.654	884.45
1003.949	896.66
1004.243	882.19
1004.538	888.52
1004.832	862.99
1005.127	867.05
1005.421	856.66
1005.715	857.56
1006.009	870.9
1006.304	852.82
1006.598	841.07
1006.892	851.69
1007.186	849.43
1007.48	852.36
1007.773	854.85
1008.067	836.77
1008.361	814.63
1008.655	845.13
1008.948	818.24
1009.242	809.65
1009.535	823.21
1009.829	813.72
1010.122	825.92
1010.415	812.59
1010.708	806.26
1011.001	812.59
1011.295	772.14
1011.588	815.08
1011.881	764.01
1012.173	784.57
1012.466	774.85
1012.759	778.02
1013.052	791.58
1013.344	775.3
1013.637	772.14
1013.93	745.7
1014.222	750.67
1014.514	761.97
1014.807	749.54
1015.099	749.09
1015.391	738.92
1015.683	757.45
1015.976	723.33
1016.268	757
1016.56	740.28
1016.851	736.44
1017.143	758.13
1017.435	708.87
1017.727	743.21
1018.018	725.14
1018.31	706.15
1018.602	720.16
1018.893	736.21
1019.185	700.96
1019.476	686.27
1019.767	700.5
1020.058	698.24
1020.35	709.32
1020.641	684.46
1020.932	680.39
1021.223	689.43
1021.514	669.54
1021.804	666.61
1022.095	678.13
1022.386	672.03
1022.677	697.79
1022.967	691.01
1023.258	659.83
1023.548	668.19
1023.839	650.56
1024.129	669.32
1024.419	642.2
1024.709	650.34
1025	655.76
1025.29	638.81
1025.58	623.44
1025.87	636.33
1026.16	653.95
1026.449	645.82
1026.739	621.86
1027.029	653.73
1027.319	650.11
1027.608	616.89
1027.898	625.93
1028.187	632.48
1028.477	620.51
1028.766	607.17
1029.055	599.72
1029.344	609.89
1029.634	602.88
1029.923	586.38
1030.212	622.99
1030.501	613.27
1030.79	586.38
1031.078	575.08
1031.367	600.62
1031.656	586.83
1031.945	603.56
1032.233	581.19
1032.522	596.33
1032.81	581.86
1033.099	569.89
1033.387	589.09
1033.675	567.4
1033.963	569.89
1034.251	595.42
1034.54	568.98
1034.828	562.65
1035.116	572.82
1035.403	571.92
1035.691	557.91
1035.979	539.38
1036.267	523.11
1036.554	549.55
1036.842	535.54
1037.129	541.86
1037.417	556.78
1037.704	540.96
1037.992	531.47
1038.279	516.1
1038.566	535.99
1038.853	535.99
1039.14	535.99
