Data from black_plastic_tray_FLMS001491_049.txt Node
Date: Tue Feb 07 10:39:57 GMT 2017
User: dcchb
Spectrometer: FLMS00149
Trigger mode: 0
Integration Time (sec): 2.000000E-2
Scans to average: 10
Electric dark correction enabled: true
Nonlinearity correction enabled: false
Boxcar width: 0
XAxis mode: Wavelengths
Number of Pixels in Spectrum: 2048
>>>>>Begin Spectral Data<<<<<
341.393	-4.86
341.776	-4.86
342.16	-4.86
342.543	-63.61
342.927	-55.48
343.31	-84.86
343.693	-65.42
344.077	-57.06
344.46	-63.84
344.843	-48.25
345.226	-50.06
345.61	-13.45
345.993	-14.12
346.376	-2.37
346.759	3.73
347.142	36.5
347.525	48.25
347.908	61.58
348.291	55.25
348.674	96.83
349.057	97.29
349.44	108.13
349.823	153.78
350.206	191.75
350.588	199.88
350.971	225.19
351.354	227.45
351.737	230.16
352.119	253.21
352.502	255.25
352.884	269.71
353.267	266.77
353.65	271.97
354.032	312.65
354.414	310.39
354.797	311.74
355.179	307.9
355.562	318.75
355.944	329.6
356.326	363.04
356.709	339.77
357.091	318.07
357.473	345.87
357.855	340.89
358.238	343.61
358.62	342.7
359.002	347.67
359.384	339.99
359.766	338.64
360.148	331.4
360.53	358.97
360.912	342.02
361.294	325.75
361.676	312.42
362.057	342.25
362.439	340.44
362.821	338.86
363.203	336.83
363.584	330.27
363.966	338.86
364.348	326.66
364.729	344.06
365.111	340.22
365.493	333.89
365.874	310.16
366.256	329.37
366.637	326.66
367.019	323.27
367.4	334.57
367.781	339.54
368.163	352.19
368.544	342.25
368.925	320.1
369.306	327.11
369.688	334.79
370.069	330.95
370.45	319.43
370.831	324.4
371.212	336.15
371.593	342.25
371.974	326.21
372.355	330.5
372.736	336.15
373.117	336.6
373.498	321.01
373.879	344.51
374.26	354
374.641	325.08
375.021	342.7
375.402	339.54
375.783	358.3
376.163	353.78
376.544	366.66
376.925	341.8
377.305	356.71
377.686	367.33
378.066	356.04
378.447	382.48
378.827	357.62
379.208	362.59
379.588	362.36
379.968	371.4
380.349	358.52
380.729	377.28
381.109	370.5
381.489	373.89
381.87	381.12
382.25	377.28
382.63	384.51
383.01	376.15
383.39	386.09
383.77	410.95
384.15	391.74
384.53	402.14
384.91	409.14
385.29	397.16
385.67	407.56
386.049	409.37
386.429	412.98
386.809	383.83
387.189	402.59
387.568	423.83
387.948	395.36
388.328	419.76
388.707	405.53
389.087	429.48
389.466	435.36
389.846	418.18
390.225	431.06
390.605	422.7
390.984	438.29
391.363	451.63
391.743	438.29
392.122	455.92
392.501	432.87
392.881	459.99
393.26	450.72
393.639	472.42
394.018	474.68
394.397	462.7
394.776	447.11
395.155	470.84
395.534	481.91
395.913	464.28
396.292	479.87
396.671	490.95
397.05	493.43
397.429	492.53
397.808	510.61
398.186	506.31
398.565	501.57
398.944	505.86
399.323	487.11
399.701	522.36
400.08	530.49
400.458	515.35
400.837	526.88
401.215	514
401.594	528.23
401.972	546.31
402.351	543.6
402.729	543.15
403.107	523.04
403.486	537.27
403.864	564.39
404.242	533.88
404.62	549.7
404.999	546.09
405.377	577.95
405.755	608.01
406.133	575.24
406.511	585.63
406.889	567.78
407.267	589.7
407.645	572.53
408.023	626.54
408.401	618.63
408.779	627.22
409.156	625.18
409.534	625.86
409.912	624.05
410.29	641.45
410.667	652.07
411.045	651.85
411.422	645.29
411.8	665.86
412.178	654.11
412.555	682.13
412.933	683.26
413.31	694.11
413.687	700.89
414.065	678.97
414.442	705.41
414.819	715.12
415.197	722.35
415.574	731.39
415.951	717.83
416.328	767.55
416.705	750.83
417.082	762.13
417.46	762.13
417.837	788.34
418.214	768.91
418.591	756.7
418.967	777.95
419.344	789.92
419.721	784.95
420.098	794.44
420.475	817.72
420.852	828.79
421.228	838.28
421.605	829.24
421.982	855.46
422.358	813.42
422.735	833.09
423.111	837.83
423.488	883.25
423.864	882.58
424.241	875.12
424.617	901.33
424.994	904.5
425.37	912.18
425.746	891.39
426.123	921.22
426.499	923.03
426.875	928.45
427.251	941.56
427.627	975.23
428.003	960.77
428.379	988.79
428.756	975.23
429.132	996.7
429.507	1004.83
429.883	996.02
430.259	1021.56
430.635	1039.18
431.011	1046.19
431.387	1086.64
431.763	1088.22
432.138	1092.29
432.514	1102.23
432.89	1095.68
433.265	1123.47
433.641	1144.49
434.016	1152.63
434.392	1130.93
434.767	1211.83
435.143	1196.92
435.518	1201.44
435.894	1222.91
436.269	1250.93
436.644	1240.98
437.02	1237.14
437.395	1223.36
437.77	1256.35
438.145	1282.79
438.52	1276.01
438.895	1312.17
439.271	1282.34
439.646	1362.34
440.021	1342.22
440.395	1350.59
440.77	1354.43
441.145	1355.33
441.52	1383.13
441.895	1377.93
442.27	1441.88
442.645	1416.8
443.019	1452.28
443.394	1407.53
443.769	1438.72
444.143	1415.44
444.518	1443.01
444.892	1444.82
445.267	1469.68
445.641	1453.18
446.016	1459.96
446.39	1493.86
446.764	1495.89
447.139	1507.64
447.513	1536.34
447.887	1541.32
448.262	1540.64
448.636	1585.61
449.01	1547.42
449.384	1580.18
449.758	1585.61
450.132	1594.2
450.506	1617.47
450.88	1626.06
451.254	1672.61
451.628	1647.98
452.002	1668.54
452.376	1693.4
452.75	1706.96
453.123	1727.3
453.497	1730.69
453.871	1786.05
454.244	1775.66
454.618	1801.87
454.992	1818.14
455.365	1793.74
455.739	1838.71
456.112	1861.08
456.486	1889.78
456.859	1889.33
457.232	1909.44
457.606	1905.37
457.979	1946.28
458.352	2005.71
458.725	2018.37
459.099	2054.07
459.472	2076.22
459.845	2077.57
460.218	2087.74
460.591	2128.42
460.964	2139.49
461.337	2178.13
461.71	2201.41
462.083	2227.85
462.456	2209.77
462.829	2304.46
463.201	2311.46
463.574	2311.01
463.947	2337.45
464.32	2386.49
464.692	2409.32
465.065	2392.82
465.438	2410.9
465.81	2458.58
466.183	2489.99
466.555	2527.96
466.928	2584.45
467.3	2574.28
467.672	2608.41
468.045	2670.33
468.417	2679.59
468.789	2696.31
469.161	2756.65
469.534	2765.69
469.906	2892.47
470.278	2824.22
470.65	2862.86
471.022	2936.98
471.394	2963.2
471.766	2998
472.138	3036.42
472.51	3096.53
472.882	3109.41
473.253	3149.18
473.625	3205.9
473.997	3286.35
474.369	3273.7
474.74	3328.84
475.112	3408.61
475.484	3438.44
475.855	3483.41
476.227	3540.81
476.598	3679.56
476.97	3649.06
477.341	3719.34
477.713	3762.05
478.084	3801.59
478.455	3889.5
478.827	3910.52
479.198	4075.26
479.569	4050.4
479.94	4160.91
480.311	4194.8
480.682	4268.93
481.053	4392.09
481.424	4447.23
481.795	4472.76
482.166	4510.95
482.537	4559.77
482.908	4700.55
483.279	4726.09
483.65	4791.63
484.021	4869.59
484.391	4947.55
484.762	4930.38
485.133	5035.69
485.503	5107.32
485.874	5203.37
486.244	5261.22
486.615	5325.4
486.985	5441.1
487.356	5513.87
487.726	5525.84
488.097	5643.81
488.467	5620.08
488.837	5766.52
489.207	5862.33
489.578	5883.57
489.948	5961.09
490.318	6082.66
490.688	6071.37
491.058	6170.8
491.428	6229.55
491.798	6323.56
492.168	6359.27
492.538	6465.93
492.908	6511.58
493.278	6657.34
493.648	6617.11
494.017	6647.62
494.387	6728.07
494.757	6817.79
495.126	6916.09
495.496	6900.72
495.866	7013.04
496.235	7037.44
496.605	7129.87
496.974	7150.89
497.344	7212.8
497.713	7231.11
498.082	7332.58
498.452	7412.57
498.821	7406.25
499.19	7455.28
499.559	7587.71
499.928	7572.8
500.298	7690.31
500.667	7774.37
501.036	7739.57
501.405	7829.29
501.774	7795.39
502.143	7875.61
502.512	7921.94
502.88	7972.33
503.249	8003.97
503.618	8100.69
503.987	8171.65
504.356	8231.53
504.724	8264.75
505.093	8322.61
505.462	8374.58
505.83	8439.21
506.199	8464.98
506.567	8532.77
506.936	8552.43
507.304	8697.51
507.672	8692.09
508.041	8789.26
508.409	8843.27
508.777	8840.11
509.145	8954.45
509.514	9006.66
509.882	9017.5
510.25	9065.19
510.618	9117.61
510.986	9192.41
511.354	9244.62
511.722	9321.22
512.09	9424.95
512.458	9434.67
512.826	9536.13
513.193	9607.09
513.561	9656.13
513.929	9641.44
514.297	9812.74
514.664	9885.5
515.032	9885.73
515.4	9997.36
515.767	10018.61
516.135	10106.51
516.502	10058.83
516.869	10181.31
517.237	10205.72
517.604	10288.88
517.972	10394.64
518.339	10534.53
518.706	10440.29
519.073	10623.56
519.44	10707.18
519.808	10805.48
520.175	10786.95
520.542	10956.44
520.909	11002.99
521.276	11042.53
521.643	11111.69
522.009	11264.45
522.376	11310.1
522.743	11341.51
523.11	11452.24
523.477	11690.88
523.843	11675.96
524.21	11756.41
524.577	11790.54
524.943	11884.09
525.31	11979.23
525.676	12116.4
526.043	12172.9
526.409	12253.12
526.776	12369.96
527.142	12396.85
527.508	12449.05
527.874	12571.99
528.241	12709.61
528.607	12671.19
528.973	12826.44
529.339	12838.42
529.705	12931.52
530.071	13102.37
530.437	13060.11
530.803	13178.75
531.169	13358.18
531.535	13308.01
531.901	13404.05
532.267	13420.33
532.632	13509.59
532.998	13583.71
533.364	13689.24
533.73	13696.48
534.095	13795.91
534.461	13830.26
534.826	13974.43
535.192	13954.32
535.557	14183.92
535.923	14053.53
536.288	14146.63
536.653	14269.79
537.019	14235.67
537.384	14334.65
537.749	14464.82
538.114	14434.31
538.479	14489.9
538.845	14560.18
539.21	14599.5
539.575	14676.11
539.94	14625.49
540.305	14720.86
540.67	14756.79
541.034	14788.65
541.399	14883.34
541.764	15013.73
542.129	15077
542.494	15023.9
542.858	15009.44
543.223	15086.95
543.587	15101.86
543.952	15126.49
544.316	15123.11
544.681	15258.02
545.045	15277
545.41	15440.16
545.774	15343.66
546.138	15442.64
546.503	15463.44
546.867	15592.02
547.231	15673.15
547.595	15613.26
547.959	15746.82
548.324	15751.79
548.688	15756.76
549.052	15881.73
549.416	15869.3
549.779	16003.08
550.143	15954.5
550.507	16132.57
550.871	16124.21
551.235	16197.65
551.599	16276.07
551.962	16302.06
552.326	16320.59
552.689	16492.56
553.053	16476.52
553.417	16427.48
553.78	16663.86
554.143	16662.5
554.507	16753.8
554.87	16701.82
555.234	16907.69
555.597	16917.86
555.96	17031.76
556.323	17003.96
556.686	17103.62
557.05	17206.67
557.413	17191.98
557.776	17157.63
558.139	17437.39
558.502	17442.59
558.865	17409.37
559.228	17619.08
559.59	17643.72
559.953	17757.16
560.316	17925.07
560.679	17834.67
561.041	18021.79
561.404	18024.27
561.767	18208.9
562.129	18101.56
562.492	18329.57
562.854	18322.34
563.217	18394.43
563.579	18519.85
563.941	18626.06
564.304	18646.4
564.666	18750.81
565.028	18761.65
565.39	18883.23
565.753	19003.23
566.115	19003.68
566.477	19012.27
566.839	19197.8
567.201	19256.1
567.563	19299.94
567.925	19418.13
568.287	19389.43
568.648	19456.1
569.01	19582.2
569.372	19720.95
569.734	19642.53
570.095	19792.81
570.457	19954.62
570.819	19990.55
571.18	19974.28
571.542	20079.59
571.903	20173.59
572.265	20149.87
572.626	20280.26
572.987	20187.6
573.349	20343.53
573.71	20390.31
574.071	20416.98
574.432	20498.33
574.794	20548.05
575.155	20588.27
575.516	20521.83
575.877	20670.08
576.238	20693.81
576.599	20703.98
576.96	20710.53
577.32	20646.58
577.681	20826.46
578.042	20945.1
578.403	20983.97
578.763	21065.32
579.124	21135.6
579.485	21030.75
579.845	21179.67
580.206	21047.47
580.566	21004.31
580.927	21069.84
581.287	21088.6
581.648	21028.94
582.008	21164.53
582.368	21134.7
582.728	21303.96
583.089	21241.14
583.449	21088.37
583.809	21141.7
584.169	21173.57
584.529	21225.77
584.889	21322.26
585.249	21104.42
585.609	21179.22
585.969	21281.81
586.329	21181.25
586.688	21173.12
587.048	21214.24
587.408	21173.57
587.768	21249.72
588.127	21222.15
588.487	21162.27
588.846	21299.44
589.206	21041.37
589.565	21061.03
589.925	21320.46
590.284	21116.39
590.643	21190.29
591.003	21276.16
591.362	21230.97
591.721	21148.48
592.08	21287.91
592.44	21206.79
592.799	21287.91
593.158	21347.8
593.517	21276.39
593.876	21395.03
594.235	21333.79
594.593	21396.39
594.952	21432.09
595.311	21281.36
595.67	21456.95
596.029	21528.81
596.387	21377.18
596.746	21445.88
597.104	21335.15
597.463	21320.68
597.822	21441.13
598.18	21353.22
598.538	21352.77
598.897	21558.87
599.255	21331.3
599.613	21550.51
599.972	21583.73
600.33	21597.96
600.688	21388.7
601.046	21516.61
601.404	21520
601.762	21535.82
602.12	21643.84
602.478	21611.97
602.836	21696.72
603.194	21660.56
603.552	21720.22
603.91	21632.54
604.268	21692.2
604.625	21541.02
604.983	21639.54
605.341	21560.68
605.698	21823.95
606.056	21838.18
606.413	21666.44
606.771	21790.5
607.128	21783.72
607.485	21649.04
607.843	21737.85
608.2	21861.23
608.557	21845.41
608.914	21884.96
609.272	21852.42
609.629	21938.75
609.986	22024.62
610.343	21818.52
610.7	22122.47
611.057	22025.3
611.414	22032.3
611.771	22072.75
612.127	22245.86
612.484	22137.61
612.841	22302.13
613.198	22144.62
613.554	22146.42
613.911	22389.35
614.267	22246.31
614.624	22188.91
614.98	22139.87
615.337	22259.64
615.693	22194.56
616.05	22158.85
616.406	22383.48
616.762	22288.57
617.118	22393.42
617.475	22278.62
617.831	22458.28
618.187	22540.09
618.543	22471.61
618.899	22740.08
619.255	22601.1
619.611	22586.19
619.967	22639.97
620.323	22645.85
620.678	22633.42
621.034	22544.6
621.39	22591.84
621.746	22468.22
622.101	22762
622.457	22547.77
622.812	22566.3
623.168	22689.91
623.523	22678.16
623.879	22676.58
624.234	22583.93
624.589	22587.54
624.945	22571.27
625.3	22705.5
625.655	22636.13
626.01	22689.91
626.365	22675.67
626.72	22534.89
627.075	22519.75
627.43	22576.47
627.785	22497.37
628.14	22519.75
628.495	22582.8
628.85	22664.38
629.205	22493.31
629.559	22594.1
629.914	22468.67
630.269	22578.73
630.623	22423.48
630.978	22432.74
631.332	22525.4
631.687	22534.21
632.041	22509.13
632.396	22544.83
632.75	22399.98
633.104	22386.87
633.459	22235.23
633.813	22164.28
634.167	22239.08
634.521	22202.47
634.875	22126.76
635.229	22120.44
635.583	21937.16
635.937	21939.42
636.291	21962.93
636.645	21876.83
636.999	21880.89
637.352	21983.26
637.706	21724.29
638.06	21938.07
638.413	21837.05
638.767	21876.37
639.121	21699.88
639.474	21680.45
639.828	21737.39
640.181	21843.15
640.534	21735.59
640.888	21599.32
641.241	21523.16
641.594	21495.82
641.947	21529.04
642.301	21388.25
642.654	21539.43
643.007	21414.47
643.36	21415.6
643.713	21340.34
644.066	21522.48
644.419	21385.99
644.771	21329.95
645.124	21133.12
645.477	21061.03
645.83	20838.66
646.182	20796.18
646.535	20652.9
646.888	20894.93
647.24	20623.53
647.593	20740.58
647.945	20565
648.298	20482.29
648.65	20571.1
649.002	20437.54
649.355	20598.67
649.707	20442.29
650.059	20581.04
650.411	20896.96
650.763	20916.4
651.115	21187.13
651.467	21125.21
651.819	20980.8
652.171	20936.74
652.523	20890.41
652.875	20841.82
653.227	20814.93
653.578	20966.79
653.93	20935.83
654.282	20786.91
654.633	20628.5
654.985	20692.9
655.337	20746.23
655.688	20724.99
656.039	20729.74
656.391	20585.79
656.742	20581.72
657.094	20626.24
657.445	20744.88
657.796	20747.36
658.147	20735.39
658.498	20730.87
658.849	20686.12
659.2	20630.08
659.551	20596.41
659.902	20696.52
660.253	20625.33
660.604	20669.17
660.955	20514.15
661.306	20528.39
661.656	20427.6
662.007	20532.91
662.358	20418.33
662.708	20435.96
663.059	20377.43
663.409	20336.53
663.76	20468.05
664.11	20475.96
664.461	20437.99
664.811	20477.77
665.161	20461.5
665.511	20346.92
665.862	20317.54
666.212	20358.9
666.562	20383.53
666.912	20271.22
667.262	20228.96
667.612	20288.39
667.962	20237.55
668.312	20147.83
668.662	20236.19
669.011	20257.89
669.361	20193.71
669.711	20043.2
670.06	20083.88
670.41	19981.73
670.76	19992.36
671.109	20126.14
671.459	20075.52
671.808	20043.43
672.157	20087.49
672.507	19881.85
672.856	19998.23
673.205	19946.03
673.554	20119.58
673.904	19901.06
674.253	20047.95
674.602	19904.9
674.951	19581.29
675.3	19428.98
675.649	19864.22
675.998	19739.48
676.346	19925.69
676.695	19946.71
677.044	19785.13
677.393	19858.57
677.741	19820.16
678.09	19798.91
678.438	19549.66
678.787	19758.01
679.135	19708.3
679.484	19618.58
679.832	19694.28
680.181	19410.45
680.529	19606.83
680.877	19560.73
681.225	19544.01
681.573	19567.06
681.922	19442.99
682.27	19378.13
682.618	19344.92
682.966	19302.43
683.314	19336.55
683.661	19274.63
684.009	19150.34
684.357	19078.26
684.705	19051.82
685.053	19171.36
685.4	19217.69
685.748	19074.19
686.095	19025.83
686.443	18925.04
686.79	18897.47
687.138	18852.72
687.485	18801.43
687.832	18818.6
688.18	18693.86
688.527	18596.91
688.874	18723.46
689.221	18669.45
689.568	18558.04
689.915	18494.09
690.262	18520.53
690.609	18402.34
690.956	18477.37
691.303	18389.46
691.65	18254.32
691.997	18271.05
692.344	18123.03
692.69	18077.15
693.037	18121.44
693.383	18010.71
693.73	18110.37
694.077	18099.3
694.423	18109.47
694.769	17984.27
695.116	17976.82
695.462	17838.51
695.808	17730.49
696.155	17772.08
696.501	17671.29
696.847	17615.92
697.193	17575.7
697.539	17669.03
697.885	17429.03
698.231	17341.35
698.577	17381.8
698.923	17404.4
699.269	17352.65
699.614	17328.7
699.96	17199.43
700.306	17149.04
700.651	17038.31
700.997	17005.99
701.342	16980.23
701.688	16864.75
702.033	16920.57
702.379	16996.73
702.724	16888.71
703.069	17010.06
703.415	16782.27
703.76	16682.61
704.105	16769.84
704.45	16699.11
704.795	16528.72
705.14	16598.55
705.485	16581.15
705.83	16500.7
706.175	16481.26
706.52	16397.65
706.865	16413.24
707.209	16353.81
707.554	16164.89
707.899	16281.94
708.243	16162.63
708.588	16158.78
708.932	16154.04
709.277	16054.83
709.621	16156.52
709.966	15951.56
710.31	16027.26
710.654	15816.19
710.998	15799.7
711.342	15939.13
711.687	15853.48
712.031	15676.54
712.375	15588.18
712.719	15646.71
713.063	15606.48
713.407	15577.1
713.75	15508.18
714.094	15516.09
714.438	15401.97
714.782	15499.37
715.125	15380.05
715.469	15432.7
715.812	15444.23
716.156	15142.09
716.499	15233.16
716.843	15293.95
717.186	15243.1
717.53	15298.69
717.873	15269.77
718.216	15239.94
718.559	15225.93
718.902	15038.36
719.246	15184.12
719.589	15062.99
719.932	15008.31
720.275	15020.51
720.617	14954.3
720.96	15013.73
721.303	14809.89
721.646	14914.98
721.989	14802.66
722.331	14805.83
722.674	14786.62
723.016	14769.44
723.359	14710.69
723.701	14776.9
724.044	14673.4
724.386	14684.7
724.729	14620.07
725.071	14584.59
725.413	14497.13
725.755	14436.34
726.097	14467.98
726.439	14380.3
726.782	14386.85
727.124	14464.59
727.465	14411.71
727.807	14435.89
728.149	14285.61
728.491	14336.01
728.833	14355.89
729.175	14293.07
729.516	14241.09
729.858	14211.72
730.199	14279.06
730.541	14203.36
730.882	14226.41
731.224	14146.41
731.565	14067.31
731.906	14111.15
732.248	14032.74
732.589	13981.44
732.93	13962.68
733.271	13952.06
733.612	14010.59
733.953	13895.11
734.294	13971.95
734.635	13850.82
734.976	13942.57
735.317	13838.17
735.658	13843.82
735.999	13774.44
736.339	13757.49
736.68	13737.83
737.021	13676.59
737.361	13669.81
737.702	13694.67
738.042	13692.63
738.383	13685.85
738.723	13698.96
739.063	13603.82
739.404	13534.67
739.744	13609.92
740.084	13501.23
740.424	13559.76
740.764	13459.42
741.104	13486.99
741.444	13388.46
741.784	13391.4
742.124	13416.94
742.464	13439.31
742.804	13300.55
743.143	13286.32
743.483	13391.85
743.823	13324.28
744.162	13367.22
744.502	13378.97
744.841	13290.16
745.181	13376.71
745.52	13312.53
745.86	13349.14
746.199	13197.73
746.538	13181.01
746.877	13194.12
747.216	13004.52
747.556	12995.48
747.895	13068.47
748.234	13056.49
748.573	13016.49
748.911	12991.86
749.25	12958.64
749.589	12916.38
749.928	12952.77
750.267	12908.25
750.605	12863.96
750.944	12780.34
751.283	12807.69
751.621	12806.1
751.96	12806.33
752.298	12743.96
752.636	12764.98
752.975	12762.72
753.313	12649.95
753.651	12713.45
753.989	12544.42
754.327	12562.04
754.666	12508.03
755.004	12546
755.342	12479.78
755.679	12415.61
756.017	12345.33
756.355	12328.15
756.693	12274.82
757.031	12266.23
757.368	12308.26
757.706	12268.04
758.044	12200.47
758.381	12257.64
758.719	12197.08
759.056	12205.44
759.394	12101.26
759.731	12037.76
760.068	12015.62
760.405	12028.95
760.743	11877.31
761.08	11953.25
761.417	11868.28
761.754	11894.26
762.091	11837.32
762.428	11825.11
762.765	11774.27
763.102	11689.98
763.438	11672.12
763.775	11603.65
764.112	11617.66
764.449	11616.98
764.785	11563.65
765.122	11426.25
765.458	11468.51
765.795	11412.24
766.131	11472.35
766.467	11362.98
766.804	11239.59
767.14	11184.68
767.476	11218.8
767.812	11167.73
768.148	11222.87
768.485	11039.37
768.821	11098.8
769.157	11115.07
769.492	11052.7
769.828	11061.74
770.164	10947.4
770.5	10841.41
770.836	10973.16
771.171	10822.2
771.507	10827.4
771.842	10728.42
772.178	10679.83
772.513	10747.18
772.849	10677.12
773.184	10579.72
773.519	10588.76
773.855	10490.01
774.19	10439.61
774.525	10386.05
774.86	10428.77
775.195	10454.08
775.53	10479.61
775.865	10338.37
776.2	10288.43
776.535	10219.28
776.87	10279.84
777.205	10169.79
777.539	10157.13
777.874	10211.6
778.209	10088.44
778.543	10086.63
778.878	10018.38
779.212	9939.51
779.547	9939.29
779.881	9829.69
780.215	9819.29
780.55	9838.72
780.884	9744.26
781.218	9707.88
781.552	9671.27
781.886	9663.36
782.22	9511.5
782.554	9463.82
782.888	9489.58
783.222	9444.38
783.556	9375.01
783.889	9441.67
784.223	9412.07
784.557	9436.48
784.89	9443.71
785.224	9319.19
785.557	9296.14
785.891	9264.05
786.224	9219.08
786.558	9233.54
786.891	9163.71
787.224	9163.04
787.557	9129.36
787.891	9125.07
788.224	9149.7
788.557	9146.77
788.89	9059.99
789.223	8987.45
789.556	9010.72
789.888	8977.5
790.221	8946.09
790.554	8900.9
790.887	8909.03
791.219	8790.84
791.552	8708.36
791.884	8694.57
792.217	8579.1
792.549	8660.45
792.882	8580
793.214	8546.55
793.546	8628.36
793.879	8561.92
794.211	8481.25
794.543	8554.92
794.875	8524.86
795.207	8532.09
795.539	8465.2
795.871	8478.76
796.203	8370.97
796.535	8309.05
796.867	8288.26
797.198	8275.83
797.53	8197.64
797.862	8248.48
798.193	8167.36
798.525	8112.22
798.856	8157.19
799.188	8134.36
799.519	8110.41
799.85	8054.14
800.182	8038.55
800.513	8044.65
800.844	7948.83
801.175	7982.28
801.506	7985.67
801.837	7972.56
802.168	7942.95
802.499	7866.35
802.83	7832
803.161	7798.78
803.491	7765.11
803.822	7776.86
804.153	7700.02
804.483	7740.25
804.814	7650.76
805.145	7634.26
805.475	7635.17
805.805	7668.16
806.136	7540.25
806.466	7650.53
806.796	7586.35
807.126	7608.95
807.457	7501.38
807.787	7510.65
808.117	7520.82
808.447	7492.12
808.777	7568.5
809.107	7452.35
809.436	7476.53
809.766	7439.01
810.096	7428.62
810.426	7321.5
810.755	7358.11
811.085	7373.93
811.414	7254.84
811.744	7218.45
812.073	7262.29
812.403	7266.14
812.732	7147.72
813.061	7201.05
813.39	7163.31
813.719	7143.43
814.049	7133.48
814.378	7174.16
814.707	7149.3
815.036	7152.69
815.365	7122.19
815.693	7031.57
816.022	7057.55
816.351	6942.53
816.68	6978.23
817.008	7010.78
817.337	6902.76
817.665	6922.87
817.994	6956.31
818.322	6884
818.651	6890.55
818.979	6828.41
819.307	6876.77
819.636	6860.5
819.964	6829.09
820.292	6783.44
820.62	6782.99
820.948	6754.96
821.276	6854.4
821.604	6772.82
821.932	6808.07
822.259	6830.89
822.587	6775.98
822.915	6757.68
823.243	6845.81
823.57	6771.23
823.898	6774.62
824.225	6760.84
824.553	6752.93
824.88	6770.78
825.207	6830.89
825.535	6811.46
825.862	6844.45
826.189	6787.28
826.516	6842.87
826.843	6876.09
827.17	6891.01
827.497	6834.51
827.824	6818.24
828.151	6783.21
828.478	6813.04
828.805	6832.7
829.131	6778.47
829.458	6766.04
829.785	6750.67
830.111	6760.84
830.438	6779.14
830.764	6774.4
831.09	6809.2
831.417	6750.67
831.743	6733.27
832.069	6742.76
832.395	6726.26
832.722	6708.86
833.048	6694.17
833.374	6721.52
833.7	6722.42
834.026	6716.32
834.351	6765.81
834.677	6715.64
835.003	6694.63
835.329	6673.16
835.654	6701.18
835.98	6651.24
836.306	6694.4
836.631	6640.39
836.956	6684.46
837.282	6685.59
837.607	6568.98
837.932	6572.82
838.258	6553.61
838.583	6558.58
838.908	6553.16
839.233	6574.86
839.558	6528.75
839.883	6471.36
840.208	6524.91
840.533	6572.82
840.858	6536.44
841.182	6509.32
841.507	6546.83
841.832	6520.62
842.156	6501.64
842.481	6454.63
842.805	6447.85
843.13	6436.55
843.454	6435.2
843.778	6427.74
844.103	6354.52
844.427	6366.73
844.751	6358.82
845.075	6329.44
845.399	6349.32
845.723	6288.76
846.047	6330.12
846.371	6291.47
846.695	6272.94
847.019	6197.46
847.343	6199.95
847.666	6228.42
847.99	6115.66
848.313	6095.09
848.637	6083.79
848.96	6050.12
849.284	6077.69
849.607	6005.83
849.931	6032.95
850.254	5945.72
850.577	5909.11
850.9	5920.18
851.223	5948.66
851.546	5862.78
851.869	5874.99
852.192	5937.81
852.515	5804.93
852.838	5747.31
853.161	5783.69
853.483	5752.28
853.806	5725.16
854.129	5682.45
854.451	5699.17
854.774	5674.31
855.096	5618.95
855.419	5641.55
855.741	5597.25
856.063	5599.51
856.385	5625.95
856.708	5568.55
857.03	5559.29
857.352	5571.49
857.674	5535.33
857.996	5503.02
858.318	5462.34
858.64	5492.62
858.961	5483.81
859.283	5482.91
859.605	5491.49
859.926	5450.59
860.248	5452.62
860.57	5413.98
860.891	5397.49
861.212	5431.83
861.534	5396.81
861.855	5362.91
862.176	5383.7
862.498	5414.89
862.819	5393.64
863.14	5358.62
863.461	5301.44
863.782	5323.14
864.103	5279.97
864.424	5309.13
864.745	5277.04
865.065	5280.65
865.386	5301.44
865.707	5290.14
866.027	5272.06
866.348	5268.45
866.668	5192.52
866.989	5179.86
867.309	5157.49
867.63	5153.2
867.95	5207.89
868.27	5191.39
868.59	5178.73
868.91	5154.55
869.23	5160.88
869.55	5126.31
869.87	5157.04
870.19	5159.07
870.51	5170.6
870.83	5187.77
871.15	5090.6
871.469	5069.36
871.789	5109.58
872.109	5119.3
872.428	5078.85
872.748	5101
873.067	5065.29
873.386	5051.73
873.706	5051.28
874.025	5023.26
874.344	4991.85
874.663	5022.81
874.982	4998.4
875.301	4978.97
875.62	4976.03
875.939	4897.16
876.258	4989.13
876.577	4964.5
876.896	4951.62
877.214	4961.79
877.533	4883.6
877.852	4926.09
878.17	4959.3
878.489	4921.57
878.807	4929.25
879.125	4884.28
879.444	4853.77
879.762	4872.3
880.08	4843.15
880.398	4851.06
880.716	4878.18
881.034	4820.33
881.352	4865.3
881.67	4849.25
881.988	4795.92
882.306	4774.9
882.624	4816.94
882.941	4757.05
883.259	4745.52
883.577	4797.5
883.894	4799.76
884.212	4764.06
884.529	4752.08
884.846	4797.95
885.164	4734.68
885.481	4678.86
885.798	4701.01
886.115	4694.68
886.432	4660.78
886.75	4635.92
887.067	4611.52
887.383	4604.29
887.7	4577.17
888.017	4529.03
888.334	4583.72
888.651	4580.33
888.967	4539.65
889.284	4546.89
889.6	4493.33
889.917	4565.42
890.233	4529.71
890.55	4541.91
890.866	4484.74
891.182	4457.4
891.498	4503.27
891.815	4486.77
892.131	4455.59
892.447	4503.5
892.763	4399.77
893.079	4436.83
893.395	4424.86
893.71	4406.78
894.026	4434.35
894.342	4398.19
894.657	4329.04
894.973	4362.71
895.289	4341.47
895.604	4366.1
895.92	4275.48
896.235	4270.96
896.55	4279.1
896.865	4275.71
897.181	4290.17
897.496	4252.88
897.811	4231.19
898.126	4205.2
898.441	4142.15
898.756	4155.71
899.071	4157.29
899.386	4153.45
899.7	4192.32
900.015	4121.81
900.33	4129.27
900.644	4120
900.959	4121.36
901.273	4123.85
901.588	4124.75
901.902	4081.59
902.216	4078.88
902.531	4046.56
902.845	4024.41
903.159	4024.87
903.473	4006.56
903.787	3973.57
904.101	3946
904.415	3970.18
904.729	3944.19
905.042	3939.9
905.356	3886.56
905.67	3915.94
905.984	3896.51
906.297	3885.21
906.611	3858.54
906.924	3837.07
907.237	3810.41
907.551	3811.99
907.864	3808.37
908.177	3805.21
908.491	3791.88
908.804	3808.83
909.117	3766.57
909.43	3746
909.743	3719.11
910.056	3714.59
910.368	3662.62
910.681	3698.77
910.994	3654.48
911.307	3657.19
911.619	3653.35
911.932	3657.19
912.244	3665.1
912.557	3652.67
912.869	3637.98
913.181	3576.06
913.494	3588.27
913.806	3556.4
914.118	3579.91
914.43	3524.99
914.742	3497.2
915.054	3494.48
915.366	3482.28
915.678	3458.55
915.99	3418.55
916.302	3375.17
916.613	3399.57
916.925	3386.69
917.236	3370.65
917.548	3407.03
917.859	3401.61
918.171	3370.87
918.482	3377.88
918.794	3336.97
919.105	3315.96
919.416	3272.57
919.727	3308.27
920.038	3294.49
920.349	3310.08
920.66	3288.84
920.971	3279.8
921.282	3214.04
921.593	3166.13
921.903	3176.07
922.214	3194.38
922.525	3169.07
922.835	3157.54
923.146	3115.96
923.456	3160.48
923.767	3142.86
924.077	3107.38
924.387	3077.77
924.697	3103.76
925.008	3089.07
925.318	3068.28
925.628	3061.28
925.938	3023.99
926.248	3011.11
926.558	3038
926.867	3019.92
927.177	3006.14
927.487	2953.26
927.796	2963.88
928.106	2978.34
928.416	2967.94
928.725	2958.91
929.034	2913.71
929.344	2904.67
929.653	2911.67
929.962	2858.12
930.271	2876.42
930.581	2846.37
930.89	2857.44
931.199	2845.69
931.508	2857.21
931.817	2836.42
932.125	2805.91
932.434	2819.02
932.743	2771.57
933.051	2733.37
933.36	2724.79
933.669	2732.7
933.977	2688.86
934.286	2710.32
934.594	2698.35
934.902	2704
935.21	2680.95
935.519	2728.63
935.827	2721.4
936.135	2712.81
936.443	2651.12
936.751	2679.36
937.059	2666.48
937.367	2655.64
937.674	2615.41
937.982	2633.72
938.29	2613.83
938.597	2603.21
938.905	2588.07
939.213	2605.02
939.52	2572.02
939.827	2595.98
940.135	2576.99
940.442	2555.98
940.749	2502.87
941.056	2517.56
941.363	2487.73
941.67	2497.9
941.977	2480.05
942.284	2493.61
942.591	2464.91
942.898	2445.92
943.205	2456.77
943.511	2426.26
943.818	2383.55
944.125	2439.82
944.431	2405.25
944.738	2407.06
945.044	2372.25
945.35	2400.05
945.657	2364.34
945.963	2339.71
946.269	2347.17
946.575	2288.64
946.881	2351.24
947.187	2337
947.493	2299.26
947.799	2306.72
948.105	2280.73
948.41	2282.09
948.716	2265.82
949.022	2242.31
949.327	2245.48
949.633	2228.53
949.938	2219.49
950.244	2236.21
950.549	2204.35
950.854	2175.65
951.16	2196.44
951.465	2179.94
951.77	2153.05
952.075	2166.61
952.38	2153.5
952.685	2164.12
952.99	2136.1
953.294	2158.47
953.599	2142.2
953.904	2118.7
954.209	2136.33
954.513	2087.06
954.818	2102.88
955.122	2124.35
955.426	2037.35
955.731	2059.27
956.035	2053.39
956.339	2049.55
956.643	2046.84
956.948	2031.92
957.252	2053.17
957.556	2048.87
957.86	2060.62
958.163	2011.81
958.467	2022.66
958.771	1994.18
959.075	1996.22
959.378	1983.11
959.682	1965.94
959.985	1982.43
960.289	1997.12
960.592	1967.29
960.896	1930.01
961.199	1934.98
961.502	1929.55
961.805	1936.11
962.108	1921.87
962.411	1938.37
962.714	1903.34
963.017	1906.5
963.32	1866.96
963.623	1873.28
963.926	1873.96
964.228	1868.76
964.531	1858.37
964.833	1870.57
965.136	1821.53
965.438	1845.94
965.741	1833.51
966.043	1803.68
966.345	1787.86
966.648	1795.55
966.95	1784.47
967.252	1771.37
967.554	1765.94
967.856	1774.76
968.158	1742.21
968.46	1779.73
968.761	1731.14
969.063	1745.83
969.365	1743.57
969.666	1752.38
969.968	1695.89
970.269	1719.62
970.571	1720.75
970.872	1696.34
971.174	1695.89
971.475	1699.28
971.776	1721.42
972.077	1634.19
972.378	1699.96
972.679	1695.21
972.98	1647.75
973.281	1658.37
973.582	1652.72
973.883	1630.58
974.183	1641.88
974.484	1621.54
974.785	1587.19
975.085	1614.76
975.386	1597.59
975.686	1573.4
975.986	1581.54
976.287	1597.36
976.587	1576.79
976.887	1563.91
977.187	1594.65
977.487	1582.44
977.787	1574.99
978.087	1537.47
978.387	1560.98
978.687	1571.37
978.987	1534.31
979.286	1544.03
979.586	1516.91
979.885	1504.71
980.185	1538.15
980.484	1514.2
980.784	1497.25
981.083	1499.28
981.382	1464.93
981.682	1486.18
981.981	1467.65
982.28	1506.29
982.579	1476.01
982.878	1475.55
983.177	1470.58
983.475	1466.74
983.774	1414.31
984.073	1449.34
984.372	1438.04
984.67	1386.97
984.969	1443.46
985.267	1403.92
985.566	1399.4
985.864	1409.57
986.162	1391.94
986.461	1377.03
986.759	1391.71
987.057	1368.66
987.355	1350.81
987.653	1344.26
987.951	1356.46
988.249	1369.34
988.547	1398.49
988.844	1346.74
989.142	1330.93
989.44	1339.96
989.737	1322.56
990.035	1299.74
990.332	1316.46
990.63	1328.89
990.927	1269.91
991.224	1311.94
991.521	1313.52
991.819	1319.17
992.116	1308.78
992.413	1301.77
992.71	1291.15
993.006	1292.96
993.303	1295.67
993.6	1273.53
993.897	1269.68
994.193	1248.44
994.49	1256.13
994.787	1248.44
995.083	1244.83
995.379	1234.2
995.676	1231.27
995.972	1281.66
996.268	1243.7
996.565	1225.39
996.861	1205.96
997.157	1201.44
997.453	1198.27
997.749	1196.47
998.044	1204.15
998.34	1188.78
998.636	1191.04
998.932	1184.26
999.227	1152.17
999.523	1158.05
999.818	1155.11
1000.114	1155.79
1000.409	1127.99
1000.704	1142.46
1001	1112.63
1001.295	1110.59
1001.59	1116.47
1001.885	1126.64
1002.18	1106.52
1002.475	1101.33
1002.77	1124.15
1003.065	1084.38
1003.359	1117.6
1003.654	1104.94
1003.949	1053.64
1004.243	1092.51
1004.538	1074.44
1004.832	1076.24
1005.127	1061.78
1005.421	1043.7
1005.715	1047.32
1006.009	1054.55
1006.304	1028.11
1006.598	1035.57
1006.892	1019.52
1007.186	1020.2
1007.48	1016.81
1007.773	1031.27
1008.067	1018.62
1008.361	1029.69
1008.655	1000.76
1008.948	1003.25
1009.242	986.08
1009.535	989.92
1009.829	1009.8
1010.122	985.62
1010.415	977.71
1010.708	986.98
1011.001	989.24
1011.295	955.12
1011.588	979.07
1011.881	966.87
1012.173	948.79
1012.466	953.76
1012.759	965.74
1013.052	971.39
1013.344	941.78
1013.637	920.09
1013.93	916.47
1014.222	899.98
1014.514	901.56
1014.807	922.35
1015.099	920.09
1015.391	918.96
1015.683	914.21
1015.976	898.17
1016.268	915.12
1016.56	857.04
1016.851	861.56
1017.143	864.5
1017.435	887.77
1017.727	855.68
1018.018	853.2
1018.31	882.12
1018.602	857.49
1018.893	854.78
1019.185	839.64
1019.476	844.38
1019.767	834.22
1020.058	834.44
1020.35	842.35
1020.641	861.79
1020.932	817.27
1021.223	832.18
1021.514	818.85
1021.804	809.36
1022.095	818.17
1022.386	788.57
1022.677	809.36
1022.967	798.51
1023.258	798.28
1023.548	790.15
1023.839	769.81
1024.129	784.27
1024.419	783.82
1024.709	746.99
1025	755.35
1025.29	761
1025.58	759.42
1025.87	776.59
1026.16	763.71
1026.449	750.6
1026.739	773.65
1027.029	762.58
1027.319	754.44
1027.608	759.19
1027.898	744.95
1028.187	704.05
1028.477	726.42
1028.766	720.55
1029.055	710.15
1029.344	709.02
1029.634	717.16
1029.923	703.15
1030.212	743.37
1030.501	697.04
1030.79	695.24
1031.078	704.5
1031.367	678.97
1031.656	700.89
1031.945	674.22
1032.233	678.97
1032.522	678.97
1032.81	675.58
1033.099	687.33
1033.387	668.8
1033.675	664.73
1033.963	643.71
1034.251	683.48
1034.54	689.13
1034.828	650.27
1035.116	617.05
1035.403	649.36
1035.691	661.11
1035.979	625.41
1036.267	637.16
1036.554	648.23
1036.842	634.45
1037.129	621.34
1037.417	611.17
1037.704	623.37
1037.992	609.14
1038.279	607.55
1038.566	593.09
1038.853	593.09
1039.14	593.09
