Data from black_plastic_tray_FLMS001491_099.txt Node
Date: Tue Feb 07 10:41:03 GMT 2017
User: dcchb
Spectrometer: FLMS00149
Trigger mode: 0
Integration Time (sec): 2.000000E-2
Scans to average: 10
Electric dark correction enabled: true
Nonlinearity correction enabled: false
Boxcar width: 0
XAxis mode: Wavelengths
Number of Pixels in Spectrum: 2048
>>>>>Begin Spectral Data<<<<<
341.393	-12.25
341.776	-12.25
342.16	-12.25
342.543	-61.06
342.927	-78.68
343.31	-54.5
343.693	-70.1
344.077	-64.67
344.46	-52.02
344.843	-47.05
345.226	-38.23
345.61	-23.77
345.993	-34.84
346.376	0.41
346.759	4.25
347.142	37.24
347.525	42.89
347.908	35.21
348.291	74.31
348.674	89.22
349.057	101.65
349.44	110.69
349.823	133.51
350.206	143
350.588	158.15
350.971	179.61
351.354	217.58
351.737	220.97
352.119	229.78
352.502	240.18
352.884	241.76
353.267	265.49
353.65	270.68
354.032	281.53
354.414	313.85
354.797	270.23
355.179	289.89
355.562	303.23
355.944	289.89
356.326	324.92
356.709	316.11
357.091	296.45
357.473	310.68
357.855	323.11
358.238	291.7
358.62	326.73
359.002	283.11
359.384	332.83
359.766	332.38
360.148	317.01
360.53	325.15
360.912	320.18
361.294	291.7
361.676	314.3
362.057	312.72
362.439	306.16
362.821	294.87
363.203	297.12
363.584	296.45
363.966	314.07
364.348	303.68
364.729	287.41
365.111	309.1
365.493	292.83
365.874	300.51
366.256	292.83
366.637	300.97
367.019	294.19
367.4	307.29
367.781	287.18
368.163	289.67
368.544	282.66
368.925	299.84
369.306	315.2
369.688	297.12
370.069	302.55
370.45	277.46
370.831	307.52
371.212	283.11
371.593	307.75
371.974	288.76
372.355	298.25
372.736	287.41
373.117	283.11
373.498	302.55
373.879	298.03
374.26	301.19
374.641	310.23
375.021	291.7
375.402	286.73
375.783	301.64
376.163	298.25
376.544	313.85
376.925	305.94
377.305	314.3
377.686	298.71
378.066	314.3
378.447	297.58
378.827	301.42
379.208	326.95
379.588	335.54
379.968	292.61
380.349	334.41
380.729	302.32
381.109	285.37
381.489	316.33
381.87	333.06
382.25	320.4
382.63	320.63
383.01	335.99
383.39	340.06
383.77	335.09
384.15	328.76
384.53	330.8
384.91	333.28
385.29	322.21
385.67	329.44
386.049	341.64
386.429	343.9
386.809	334.64
387.189	337.8
387.568	322.44
387.948	355.88
388.328	347.07
388.707	336.67
389.087	334.86
389.466	338.71
389.846	340.06
390.225	336.45
390.605	356.56
390.984	352.04
391.363	367.86
391.743	378.7
392.122	342.32
392.501	354.52
392.881	375.54
393.26	359.95
393.639	382.77
394.018	376.67
394.397	356.11
394.776	336.45
395.155	365.6
395.534	371.02
395.913	375.99
396.292	340.51
396.671	364.24
397.05	359.27
397.429	347.07
397.808	359.27
398.186	382.32
398.565	399.5
398.944	371.47
399.323	381.42
399.701	375.99
400.08	370.8
400.458	370.57
400.837	391.36
401.215	387.07
401.594	391.13
401.972	364.69
402.351	380.51
402.729	402.66
403.107	399.5
403.486	399.5
403.864	413.28
404.242	420.29
404.62	421.64
404.999	412.38
405.377	400.17
405.755	398.14
406.133	397.01
406.511	404.24
406.889	425.48
407.267	405.6
407.645	427.29
408.023	432.26
408.401	421.64
408.779	430
409.156	434.07
409.534	440.4
409.912	447.4
410.29	425.03
410.667	443.79
411.045	461.41
411.422	451.7
411.8	433.17
412.178	422.55
412.555	455.31
412.933	468.87
413.31	448.08
413.687	454.18
414.065	478.36
414.442	462.54
414.819	465.71
415.197	475.43
415.574	489.21
415.951	481.53
416.328	482.43
416.705	494.41
417.082	487.85
417.46	484.69
417.837	488.98
418.214	495.31
418.591	495.99
418.967	484.01
419.344	482.88
419.721	506.38
420.098	509.77
420.475	480.62
420.852	507.29
421.228	528.53
421.605	540.96
421.982	539.15
422.358	502.77
422.735	539.38
423.111	524.69
423.488	521.98
423.864	528.98
424.241	561.07
424.617	537.8
424.994	554.97
425.37	551.58
425.746	567.4
426.123	547.97
426.499	556.33
426.875	559.72
427.251	583.67
427.627	570.34
428.003	571.47
428.379	580.51
428.756	589.55
429.132	598.59
429.507	590.68
429.883	591.13
430.259	598.36
430.635	620.28
431.011	616.89
431.387	597.68
431.763	620.05
432.138	629.77
432.514	656.66
432.89	633.84
433.265	649.88
433.641	641.07
434.016	659.83
434.392	659.38
434.767	664.35
435.143	663.22
435.518	668.64
435.894	697.11
436.269	679.94
436.644	695.31
437.02	700.05
437.395	722.88
437.77	702.76
438.145	717.23
438.52	724.01
438.895	729.88
439.271	721.07
439.646	747.51
440.021	719.49
440.395	743.89
440.77	737.57
441.145	740.73
441.52	752.48
441.895	753.84
442.27	764.23
442.645	762.2
443.019	775.98
443.394	773.72
443.769	764.68
444.143	747.06
444.518	816.89
444.892	783.89
445.267	781.41
445.641	804.23
446.016	807.62
446.39	816.43
446.764	810.33
447.139	803.78
447.513	819.82
447.887	834.96
448.262	837.68
448.636	825.25
449.01	851.23
449.384	816.43
449.758	844.91
450.132	848.97
450.506	845.81
450.88	834.74
451.254	852.59
451.628	857.11
452.002	884
452.376	892.82
452.75	890.78
453.123	906.6
453.497	920.84
453.871	907.73
454.244	890.33
454.618	922.42
454.992	934.17
455.365	922.42
455.739	948.18
456.112	965.36
456.486	993.6
456.859	977.33
457.232	977.79
457.606	1019.82
457.979	1004.23
458.352	1028.41
458.725	1045.58
459.099	1046.71
459.472	1057.78
459.845	1046.94
460.218	1061.85
460.591	1095.3
460.964	1093.26
461.337	1111.57
461.71	1106.6
462.083	1127.61
462.456	1127.84
462.829	1116.31
463.201	1148.85
463.574	1169.87
463.947	1158.57
464.32	1182.53
464.692	1195.86
465.065	1227.5
465.438	1227.95
465.81	1234.5
466.183	1228.85
466.555	1237.67
466.928	1280.6
467.3	1272.92
467.672	1282.86
468.045	1304.1
468.417	1324.67
468.789	1311.34
469.161	1331.9
469.534	1355.63
469.906	1387.27
470.278	1385.91
470.65	1411.67
471.022	1433.59
471.394	1437.43
471.766	1452.35
472.138	1500.48
472.51	1509.52
472.882	1521.27
473.253	1511.78
473.625	1523.08
473.997	1590.42
474.369	1596.98
474.74	1586.81
475.112	1630.88
475.484	1644.66
475.855	1680.14
476.227	1690.53
476.598	1700.7
476.97	1733.92
477.341	1772.57
477.713	1782.51
478.084	1769.18
478.455	1840.36
478.827	1869.51
479.198	1889.63
479.569	1906.12
479.94	1959.45
480.311	1955.39
480.682	2027.02
481.053	2041.03
481.424	2075.61
481.795	2055.27
482.166	2108.6
482.537	2114.7
482.908	2172.33
483.279	2200.13
483.65	2199.67
484.021	2269.28
484.391	2317.41
484.762	2311.54
485.133	2345.43
485.503	2327.58
485.874	2436.28
486.244	2423.17
486.615	2444.41
486.985	2497.97
487.356	2522.38
487.726	2541.81
488.097	2566.9
488.467	2569.83
488.837	2638.98
489.207	2670.62
489.578	2733.67
489.948	2717.17
490.318	2759.66
490.688	2783.16
491.058	2832.2
491.428	2832.43
491.798	2881.01
492.168	2935.93
492.538	2911.07
492.908	2951.29
493.278	3029.48
493.648	2983.83
494.017	3046.43
494.387	3042.82
494.757	3103.15
495.126	3168.69
495.496	3132.08
495.866	3146.09
496.235	3206.65
496.605	3254.79
496.974	3238.06
497.344	3264.05
497.713	3251.4
498.082	3318.06
498.452	3351.96
498.821	3339.53
499.19	3378.4
499.559	3449.58
499.928	3440.32
500.298	3458.85
500.667	3490.26
501.036	3471.05
501.405	3519.64
501.774	3494.78
502.143	3573.65
502.512	3575.91
502.88	3552.63
503.249	3568.23
503.618	3640.54
503.987	3673.31
504.356	3659.3
504.724	3699.3
505.093	3697.49
505.462	3766.41
505.83	3761.67
506.199	3807.09
506.567	3844.38
506.936	3859.97
507.304	3902.68
507.672	3952.17
508.041	3897.48
508.409	3945.39
508.777	3993.75
509.145	4024.94
509.514	4022
509.882	4060.19
510.25	4010.47
510.618	4109.23
510.986	4088.21
511.354	4174.54
511.722	4178.6
512.09	4190.81
512.458	4232.16
512.826	4230.58
513.193	4267.87
513.561	4303.8
513.929	4360.29
514.297	4349.22
514.664	4364.14
515.032	4377.7
515.4	4450.91
515.767	4440.52
516.135	4527.52
516.502	4501.53
516.869	4535.21
517.237	4581.76
517.604	4580.63
517.972	4619.72
518.339	4652.26
518.706	4668.54
519.073	4697.91
519.44	4732.71
519.808	4728.87
520.175	4794.18
520.542	4850
520.909	4880.51
521.276	4880.28
521.643	4939.94
522.009	4961.86
522.376	4971.35
522.743	5030.33
523.11	5066.94
523.477	5115.98
523.843	5116.89
524.21	5204.79
524.577	5228.52
524.943	5284.79
525.31	5275.98
525.676	5354.17
526.043	5355.07
526.409	5365.01
526.776	5482.3
527.142	5456.76
527.508	5518.68
527.874	5571.79
528.241	5604.1
528.607	5624.22
528.973	5668.51
529.339	5659.02
529.705	5700.37
530.071	5781.27
530.437	5791.9
530.803	5793.93
531.169	5876.87
531.535	5880.25
531.901	5888.16
532.267	5874.38
532.632	5981.04
532.998	5967.26
533.364	5997.09
533.73	6014.04
534.095	6020.14
534.461	6079.12
534.826	6145.78
535.192	6146.46
535.557	6226.91
535.923	6209.74
536.288	6194.37
536.653	6281.83
537.019	6227.36
537.384	6324.76
537.749	6321.15
538.114	6330.19
538.479	6328.15
538.845	6408.15
539.21	6373.58
539.575	6463.52
539.94	6455.83
540.305	6471.65
540.67	6500.8
541.034	6447.02
541.399	6574.25
541.764	6525.66
542.129	6604.3
542.494	6567.02
542.858	6550.29
543.223	6629.39
543.587	6599.33
543.952	6692.21
544.316	6717.3
544.681	6702.61
545.045	6739.89
545.41	6764.07
545.774	6798.2
546.138	6807.46
546.503	6802.49
546.867	6846.78
547.231	6882.26
547.595	6947.12
547.959	6932.2
548.324	6956.84
548.688	6945.31
549.052	6998.19
549.416	7085.65
549.779	7031.86
550.143	7047.23
550.507	7104.63
550.871	7141.92
551.235	7132.43
551.599	7197.96
551.962	7138.98
552.326	7242.71
552.689	7290.16
553.053	7272.53
553.417	7321.8
553.78	7323.61
554.143	7335.81
554.507	7409.71
554.87	7375.58
555.234	7478.18
555.597	7479.31
555.96	7504.17
556.323	7536.71
556.686	7530.83
557.05	7556.14
557.413	7619.42
557.776	7571.28
558.139	7693.31
558.502	7739.64
558.865	7787.32
559.228	7761.56
559.59	7850.6
559.953	7881.33
560.316	7892.86
560.679	7856.7
561.041	7943.25
561.404	7954.78
561.767	8005.85
562.129	7959.3
562.492	8103.7
562.854	8111.16
563.217	8090.37
563.579	8139.18
563.941	8178.27
564.304	8224.83
564.666	8288.78
565.028	8316.35
565.39	8288.78
565.753	8386.63
566.115	8375.33
566.477	8402.67
566.839	8402.67
567.201	8500.75
567.563	8474.31
567.925	8591.6
568.287	8594.08
568.648	8634.31
569.01	8663.01
569.372	8701.42
569.734	8672.05
570.095	8729.67
570.457	8751.82
570.819	8845.15
571.18	8761.99
571.542	8815.55
571.903	8807.86
572.265	8839.5
572.626	8908.88
572.987	8849.44
573.349	8977.35
573.71	9046.05
574.071	9069.55
574.432	9002.88
574.794	9056.89
575.155	9100.28
575.516	9049.66
575.877	9121.3
576.238	9215.53
576.599	9157
576.96	9180.06
577.32	9224.57
577.681	9211.01
578.042	9274.29
578.403	9187.06
578.763	9301.63
579.124	9333.5
579.485	9307.06
579.845	9268.41
580.206	9309.54
580.566	9400.84
580.927	9326.94
581.287	9337.79
581.648	9343.44
582.008	9434.51
582.368	9367.39
582.728	9420.5
583.089	9375.76
583.449	9402.2
583.809	9390.45
584.169	9393.38
584.529	9371.91
584.889	9475.64
585.249	9414.63
585.609	9413.5
585.969	9441.07
586.329	9444.46
586.688	9428.86
587.048	9489.65
587.408	9423.89
587.768	9420.27
588.127	9382.08
588.487	9417.56
588.846	9480.39
589.206	9388.64
589.565	9382.54
589.925	9472.02
590.284	9398.13
590.643	9421.63
591.003	9453.04
591.362	9486.04
591.721	9524.23
592.08	9497.79
592.44	9506.83
592.799	9476.32
593.158	9491.91
593.517	9521.74
593.876	9545.47
594.235	9495.08
594.593	9504.57
594.952	9528.75
595.311	9507.5
595.67	9487.39
596.029	9572.36
596.387	9561.97
596.746	9560.16
597.104	9533.27
597.463	9544.57
597.822	9512.02
598.18	9606.71
598.538	9582.08
598.897	9622.98
599.255	9510.67
599.613	9629.31
599.972	9574.62
600.33	9600.38
600.688	9577.78
601.046	9637.44
601.404	9645.13
601.762	9663.66
602.12	9640.61
602.478	9653.26
602.836	9705.24
603.194	9692.36
603.552	9613.04
603.91	9637.22
604.268	9734.84
604.625	9698.01
604.983	9713.15
605.341	9689.19
605.698	9635.86
606.056	9727.61
606.413	9703.43
606.771	9798.57
607.128	9838.79
607.485	9705.01
607.843	9730.55
608.2	9800.38
608.557	9773.49
608.914	9755.86
609.272	9863.43
609.629	9857.55
609.986	9865.23
610.343	9778.91
610.7	9882.41
611.057	9911.56
611.414	9943.42
611.771	9901.17
612.127	9958.34
612.484	9975.97
612.841	10007.15
613.198	9974.61
613.554	9937.32
613.911	10029.75
614.267	9996.98
614.624	9920.37
614.98	9973.71
615.337	10009.19
615.693	10020.03
616.05	9988.17
616.406	10089.18
616.762	9994.05
617.118	10010.99
617.475	10018.45
617.831	10060.48
618.187	10008.51
618.543	10037.43
618.899	10152.46
619.255	10145.45
619.611	10063.87
619.967	10089.64
620.323	10218.22
620.678	10139.35
621.034	10022.52
621.39	10162.85
621.746	10048.28
622.101	10175.06
622.457	10152.01
622.812	10064.55
623.168	10170.31
623.523	10201.27
623.879	10155.85
624.234	10088.51
624.589	10222.06
624.945	10247.82
625.3	10239.24
625.655	10207.82
626.01	10139.8
626.365	10188.84
626.72	10181.38
627.075	10209.18
627.43	10151.1
627.785	10161.27
628.14	10186.13
628.495	10219.58
628.85	10210.31
629.205	10094.61
629.559	10248.28
629.914	10087.83
630.269	10175.74
630.623	10089.86
630.978	10115.85
631.332	10106.58
631.687	10126.92
632.041	10036.08
632.396	10124.21
632.75	10059.81
633.104	10071.11
633.459	10044.44
633.813	10046.47
634.167	9962.18
634.521	9960.37
634.875	9996.98
635.229	10033.14
635.583	9922.86
635.937	9819.59
636.291	9886.25
636.645	9882.64
636.999	9883.54
637.352	9932.8
637.706	9856.65
638.06	9819.36
638.413	9860.49
638.767	9827.72
639.121	9858.91
639.474	9797.44
639.828	9756.09
640.181	9779.36
640.534	9817.1
640.888	9736.65
641.241	9671.57
641.594	9690.1
641.947	9767.16
642.301	9729.19
642.654	9713.15
643.007	9724.22
643.36	9636.09
643.713	9674.28
644.066	9679.48
644.419	9641.06
644.771	9596.99
645.124	9474.74
645.477	9492.59
645.83	9441.29
646.182	9407.85
646.535	9341.86
646.888	9409.43
647.24	9302.31
647.593	9446.94
647.945	9376.66
648.298	9248.08
648.65	9288.53
649.002	9279.71
649.355	9307.51
649.707	9331.24
650.059	9326.72
650.411	9430.9
650.763	9406.94
651.115	9539.37
651.467	9470.22
651.819	9449.88
652.171	9481.06
652.523	9467.05
652.875	9417.79
653.227	9473.61
653.578	9516.54
653.93	9463.89
654.282	9388.19
654.633	9375.98
654.985	9379.6
655.337	9389.09
655.688	9370.56
656.039	9405.13
656.391	9352.03
656.742	9365.14
657.094	9291.92
657.445	9409.43
657.796	9355.42
658.147	9383.89
658.498	9323.1
658.849	9369.2
659.2	9406.04
659.551	9290.33
659.902	9299.37
660.253	9309.77
660.604	9302.09
660.955	9256.21
661.306	9310
661.656	9315.64
662.007	9277.23
662.358	9223.9
662.708	9234.52
663.059	9291.69
663.409	9211.69
663.76	9206.04
664.11	9284.46
664.461	9309.77
664.811	9305.48
665.161	9243.78
665.511	9212.37
665.862	9286.49
666.212	9249.21
666.562	9256.66
666.912	9265.02
667.262	9187.06
667.612	9251.69
667.962	9229.32
668.312	9158.81
668.662	9193.84
669.011	9189.77
669.361	9139.83
669.711	9139.15
670.06	9145.93
670.41	9079.49
670.76	9117.23
671.109	9176.89
671.459	9112.26
671.808	9150.23
672.157	9116.78
672.507	9052.15
672.856	9099.15
673.205	9054.63
673.554	9170.56
673.904	9076.56
674.253	9105.03
674.602	9097.57
674.951	8971.47
675.3	8933.28
675.649	8974.86
675.998	9040.62
676.346	9105.93
676.695	9023.45
677.044	8995.65
677.393	9006.95
677.741	8985.71
678.09	9000.85
678.438	8964.24
678.787	9039.72
679.135	8998.59
679.484	8994.75
679.832	8954.07
680.181	8856
680.529	9016.9
680.877	8995.88
681.225	8924.69
681.573	8921.53
681.922	8866.17
682.27	8902.77
682.618	8901.87
682.966	8880.85
683.314	8891.48
683.661	8861.87
684.009	8785.04
684.357	8793.4
684.705	8822.78
685.053	8810.35
685.4	8830.91
685.748	8694.87
686.095	8693.06
686.443	8695.32
686.79	8630.01
687.138	8679.96
687.485	8673.63
687.832	8650.58
688.18	8653.97
688.527	8582.33
688.874	8565.38
689.221	8536
689.568	8562.67
689.915	8569.68
690.262	8553.86
690.609	8443.58
690.956	8393.18
691.303	8452.62
691.65	8441.09
691.997	8352.51
692.344	8352.73
692.69	8357.48
693.037	8388.66
693.383	8340.76
693.73	8397.48
694.077	8309.12
694.423	8322
694.769	8310.93
695.116	8240.42
695.462	8281.32
695.808	8167.43
696.155	8163.13
696.501	8132.63
696.847	8086.3
697.193	8103.7
697.539	8127.65
697.885	8050.37
698.231	8037.26
698.577	8049.92
698.923	8036.58
699.269	7924.27
699.614	7890.6
699.96	7882.91
700.306	7919.52
700.651	7921.33
700.997	7859.19
701.342	7871.84
701.688	7860.77
702.033	7897.6
702.379	7842.01
702.724	7862.12
703.069	7830.94
703.415	7698.29
703.76	7732.86
704.105	7741.45
704.45	7738.51
704.795	7705.97
705.14	7737.83
705.485	7649.47
705.83	7598.63
706.175	7646.54
706.52	7633.2
706.865	7581.91
707.209	7602.92
707.554	7541.68
707.899	7586.65
708.243	7575.58
708.588	7490.38
708.932	7505.3
709.277	7505.52
709.621	7430.04
709.966	7415.13
710.31	7425.98
710.654	7381.91
710.998	7315.7
711.342	7337.84
711.687	7317.05
712.031	7362.7
712.375	7319.09
712.719	7361.35
713.063	7256.49
713.407	7299.2
713.75	7256.94
714.094	7299.88
714.438	7197.28
714.782	7224.17
715.125	7165.42
715.469	7225.08
715.812	7163.61
716.156	7165.42
716.499	7105.53
716.843	7149.37
717.186	7126.55
717.53	7113.44
717.873	7124.97
718.216	7116.61
718.559	7055.37
718.902	7051.3
719.246	7056.95
719.589	6988.02
719.932	6975.59
720.275	6990.73
720.617	6993.45
720.96	6976.72
721.303	6968.59
721.646	6929.27
721.989	6864.41
722.331	6927.69
722.674	6875.71
723.016	6906.89
723.359	6925.65
723.701	6902.15
724.044	6858.08
724.386	6844.98
724.729	6795.49
725.071	6846.78
725.413	6803.17
725.755	6866.44
726.097	6793
726.439	6733.11
726.782	6742.61
727.124	6816.28
727.465	6743.74
727.807	6718.88
728.149	6704.19
728.491	6687.69
728.833	6746.67
729.175	6720.01
729.516	6699.89
729.858	6715.71
730.199	6690.86
730.541	6695.15
730.882	6684.08
731.224	6623.96
731.565	6668.93
731.906	6640.24
732.248	6632.78
732.589	6579.45
732.93	6583.29
733.271	6548.71
733.612	6605.66
733.953	6563.17
734.294	6547.81
734.635	6538.54
734.976	6537.19
735.317	6529.96
735.658	6482.73
735.999	6531.99
736.339	6535.83
736.68	6520.24
737.021	6462.84
737.361	6440.47
737.702	6424.2
738.042	6467.13
738.383	6452.9
738.723	6457.87
739.063	6447.02
739.404	6390.98
739.744	6422.39
740.084	6385.1
740.424	6364.31
740.764	6379.68
741.104	6413.57
741.444	6375.84
741.784	6311.88
742.124	6364.54
742.464	6304.88
742.804	6286.8
743.143	6275.5
743.483	6290.87
743.823	6285.22
744.162	6281.15
744.502	6312.79
744.841	6278.89
745.181	6264.2
745.52	6256.52
745.86	6280.02
746.199	6271.43
746.538	6191.43
746.877	6272.11
747.216	6232.56
747.556	6212
747.895	6201.6
748.234	6125.45
748.573	6138.33
748.911	6168.83
749.25	6155.95
749.589	6097.42
749.928	6138.33
750.267	6166.58
750.605	6127.93
750.944	6138.33
751.283	6070.76
751.621	6087.03
751.96	6070.31
752.298	6049.29
752.636	6045.9
752.975	6064.88
753.313	6019.69
753.651	6029.4
753.989	5979.24
754.327	5976.3
754.666	5919.12
755.004	5958.22
755.342	5900.14
755.679	5924.1
756.017	5958.9
756.355	5851.1
756.693	5843.87
757.031	5885.9
757.368	5826.25
757.706	5823.08
758.044	5828.96
758.381	5839.58
758.719	5757.77
759.056	5800.48
759.394	5747.15
759.731	5725
760.068	5721.62
760.405	5712.58
760.743	5701.95
761.08	5685.23
761.417	5653.59
761.754	5652.92
762.091	5623.99
762.428	5645.46
762.765	5657.66
763.102	5645.23
763.438	5579.02
763.775	5607.95
764.112	5569.98
764.449	5579.02
764.785	5505.12
765.122	5504.67
765.458	5496.99
765.795	5422.64
766.131	5493.15
766.467	5464.9
766.804	5456.99
767.14	5428.52
767.476	5376.09
767.812	5390.1
768.148	5409.76
768.485	5312.36
768.821	5354.39
769.157	5302.87
769.492	5276.2
769.828	5276.88
770.164	5234.62
770.5	5236.2
770.836	5245.7
771.171	5194.62
771.507	5219.26
771.842	5155.75
772.178	5145.59
772.513	5146.94
772.849	5120.27
773.184	5131.12
773.519	5102.2
773.855	5105.13
774.19	5082.08
774.525	5054.51
774.86	5071.91
775.195	5066.72
775.53	5030.79
775.865	5008.87
776.2	4957.79
776.535	4892.48
776.87	4917.12
777.205	4954.86
777.539	4903.56
777.874	4919.15
778.209	4854.75
778.543	4820.62
778.878	4842.32
779.212	4800.06
779.547	4777.23
779.881	4800.06
780.215	4750.57
780.55	4756.67
780.884	4739.04
781.218	4723.9
781.552	4718.48
781.886	4685.48
782.22	4647.52
782.554	4627.86
782.888	4594.19
783.222	4599.61
783.556	4615.66
783.889	4569.1
784.223	4542.44
784.557	4559.39
784.89	4529.1
785.224	4472.16
785.557	4501.53
785.891	4493.85
786.224	4456.56
786.558	4481.87
786.891	4451.59
787.224	4439.16
787.557	4416.11
787.891	4417.92
788.224	4453.4
788.557	4391.93
788.89	4387.19
789.223	4319.39
789.556	4400.07
789.888	4342.44
790.221	4325.04
790.554	4277.59
790.887	4297.92
791.219	4287.3
791.552	4257.92
791.884	4280.07
792.217	4186.06
792.549	4218.6
792.882	4202.56
793.214	4176.8
793.546	4220.86
793.879	4220.86
794.211	4174.31
794.543	4182.45
794.875	4155.33
795.207	4197.81
795.539	4092.05
795.871	4129.57
796.203	4066.52
796.535	4042.79
796.867	4005.5
797.198	4014.99
797.53	4042.34
797.862	4010.47
798.193	3974.09
798.525	3990.36
798.856	4017.93
799.188	3982.68
799.519	3984.71
799.85	3916.92
800.182	3942.9
800.513	3910.82
800.844	3883.47
801.175	3933.41
801.506	3909.46
801.837	3897.93
802.168	3885.73
802.499	3865.39
802.83	3849.12
803.161	3825.17
803.491	3868.78
803.822	3838.27
804.153	3833.53
804.483	3804.38
804.814	3721.67
805.145	3799.86
805.475	3766.64
805.805	3743.36
806.136	3771.16
806.466	3760.08
806.796	3750.82
807.126	3733.64
807.457	3694.55
807.787	3743.14
808.117	3696.81
808.447	3712.63
808.777	3690.03
809.107	3704.49
809.436	3681.67
809.766	3674.44
810.096	3639.86
810.426	3615.91
810.755	3624.72
811.085	3616.81
811.414	3606.19
811.744	3557.38
812.073	3568
812.403	3557.83
812.732	3543.82
813.061	3572.52
813.39	3551.5
813.719	3508.57
814.049	3545.18
814.378	3517.83
814.707	3530.03
815.036	3492.97
815.365	3493.2
815.693	3483.03
816.022	3499.07
816.351	3451.39
816.68	3443.93
817.008	3463.37
817.337	3446.42
817.665	3465.18
817.994	3464.5
818.322	3447.32
818.651	3444.39
818.979	3411.17
819.307	3457.27
819.636	3374.11
819.964	3388.57
820.292	3380.89
820.62	3387.67
820.948	3376.82
821.276	3426.76
821.604	3377.95
821.932	3390.6
822.259	3393.77
822.587	3361.68
822.915	3392.64
823.243	3410.49
823.57	3370.72
823.898	3369.81
824.225	3333.88
824.553	3383.6
824.88	3388.12
825.207	3359.42
825.535	3361.45
825.862	3385.41
826.189	3323.49
826.516	3430.15
826.843	3416.36
827.17	3419.3
827.497	3395.8
827.824	3362.36
828.151	3390.38
828.478	3336.37
828.805	3419.98
829.131	3387.44
829.458	3352.86
829.785	3338.85
830.111	3368.46
830.438	3385.86
830.764	3375.91
831.09	3371.62
831.417	3379.3
831.743	3361.23
832.069	3361.68
832.395	3368
832.722	3347.89
833.048	3365.07
833.374	3306.54
833.7	3338.4
834.026	3325.97
834.351	3335.69
834.677	3339.76
835.003	3333.2
835.329	3340.21
835.654	3318.74
835.98	3312.86
836.306	3327.78
836.631	3309.7
836.956	3307.44
837.282	3311.28
837.607	3312.64
837.932	3248.91
838.258	3296.82
838.583	3298.85
838.908	3293.88
839.233	3271.96
839.558	3287.33
839.883	3305.18
840.208	3262.7
840.533	3236.71
840.858	3271.06
841.182	3262.24
841.507	3263.15
841.832	3216.82
842.156	3220.44
842.481	3196.48
842.805	3222.92
843.13	3219.99
843.454	3217.95
843.778	3164.39
844.103	3201.91
844.427	3193.55
844.751	3174.11
845.075	3144.28
845.399	3209.59
845.723	3140.67
846.047	3159.65
846.371	3130.5
846.695	3131.63
847.019	3125.53
847.343	3139.76
847.666	3121.01
847.99	3059.76
848.313	3071.74
848.637	3048.92
848.96	3070.84
849.284	3037.17
849.607	3016.83
849.931	3009.6
850.254	2987.68
850.577	2977.05
850.9	2947.22
851.223	2973.66
851.546	2952.87
851.869	2947.22
852.192	2941.8
852.515	2922.37
852.838	2915.81
853.161	2885.53
853.483	2951.52
853.806	2916.27
854.129	2889.83
854.451	2833.78
854.774	2869.49
855.096	2817.96
855.419	2838.75
855.741	2871.75
856.063	2842.82
856.385	2816.15
856.708	2831.3
857.03	2789.94
857.352	2812.09
857.674	2799.21
857.996	2772.99
858.318	2754.91
858.64	2773.22
858.961	2787.91
859.283	2798.98
859.605	2774.12
859.926	2770.96
860.248	2753.78
860.57	2735.7
860.891	2725.08
861.212	2749.72
861.534	2708.59
861.855	2750.17
862.176	2713.33
862.498	2705.65
862.819	2697.06
863.14	2718.3
863.461	2666.78
863.782	2688.25
864.103	2688.47
864.424	2693.45
864.745	2675.82
865.065	2684.18
865.386	2686.44
865.707	2690.51
866.027	2664.97
866.348	2641.7
866.668	2627.46
866.989	2598.76
867.309	2674.92
867.63	2646.89
867.95	2589.27
868.27	2614.8
868.59	2606.22
868.91	2612.77
869.23	2636.72
869.55	2620
869.87	2605.99
870.19	2594.92
870.51	2572.77
870.83	2617.74
871.15	2623.39
871.469	2598.53
871.789	2596.95
872.109	2586.56
872.428	2596.05
872.748	2584.3
873.067	2590.62
873.386	2567.8
873.706	2598.76
874.025	2550.4
874.344	2568.03
874.663	2557.4
874.982	2533.45
875.301	2558.76
875.62	2521.7
875.939	2547.91
876.258	2552.21
876.577	2539.1
876.896	2512.21
877.214	2520.57
877.533	2496.62
877.852	2492.32
878.17	2554.69
878.489	2540.23
878.807	2506.33
879.125	2493.9
879.444	2501.59
879.762	2489.61
880.08	2489.16
880.398	2473.11
880.716	2461.59
881.034	2476.05
881.352	2481.7
881.67	2471.31
881.988	2452.77
882.306	2440.12
882.624	2462.94
882.941	2445.77
883.259	2467.69
883.577	2445.09
883.894	2433.11
884.212	2431.31
884.529	2507.69
884.846	2437.18
885.164	2425.66
885.481	2392.21
885.798	2405.54
886.115	2408.03
886.432	2417.07
886.75	2396.05
887.067	2389.5
887.383	2373
887.7	2386.11
888.017	2363.06
888.334	2362.16
888.651	2359.22
888.967	2382.27
889.284	2353.57
889.6	2355.6
889.917	2310.86
890.233	2327.81
890.55	2320.35
890.866	2316.05
891.182	2317.18
891.498	2325.32
891.815	2293
892.131	2305.43
892.447	2342.49
892.763	2250.07
893.079	2298.43
893.395	2298.88
893.71	2262.27
894.026	2265.43
894.342	2267.47
894.657	2260.92
894.973	2229.5
895.289	2253.68
895.604	2260.69
895.92	2234.02
896.235	2220.69
896.55	2263.17
896.865	2233.8
897.181	2200.35
897.496	2172.78
897.811	2173.46
898.126	2155.38
898.441	2180.47
898.756	2185.89
899.071	2144.31
899.386	2146.57
899.7	2139.34
900.015	2139.56
900.33	2120.58
900.644	2122.16
900.959	2170.52
901.273	2135.04
901.588	2089.17
901.902	2106.57
902.216	2079.9
902.531	2102.5
902.845	2091.43
903.159	2110.41
903.473	2115.61
903.787	2051.43
904.101	2062.5
904.415	2043.07
904.729	2046.01
905.042	2014.82
905.356	2074.71
905.67	2037.42
905.984	2027.47
906.297	2022.73
906.611	1975.27
906.924	2017.08
907.237	1993.13
907.551	2010.53
907.864	1984.99
908.177	1978.44
908.491	1947.7
908.804	1970.08
909.117	1957.19
909.43	1952.45
909.743	1944.77
910.056	1915.39
910.368	1927.82
910.681	1952
910.994	1927.82
911.307	1918.1
911.619	1907.48
911.932	1917.2
912.244	1893.02
912.557	1896.63
912.869	1889.4
913.181	1847.37
913.494	1891.89
913.806	1840.14
914.118	1858.89
914.43	1863.64
914.742	1838.33
915.054	1820.47
915.366	1806.69
915.678	1821.6
915.99	1825.67
916.302	1836.29
916.613	1840.59
916.925	1802.4
917.236	1787.93
917.548	1774.6
917.859	1805.56
918.171	1777.09
918.482	1744.54
918.794	1722.85
919.105	1753.58
919.416	1751.55
919.727	1730.99
920.038	1760.14
920.349	1745.9
920.66	1706.81
920.971	1745.9
921.282	1711.1
921.593	1745.22
921.903	1683.76
922.214	1697.31
922.525	1670.65
922.835	1687.14
923.146	1676.75
923.456	1672
923.767	1675.39
924.077	1684.21
924.387	1631.33
924.697	1654.38
925.008	1615.51
925.318	1647.82
925.628	1634.04
925.938	1611.44
926.248	1607.6
926.558	1617.77
926.867	1611.21
927.177	1619.35
927.487	1614.38
927.796	1590.42
928.106	1619.12
928.416	1601.5
928.725	1559.24
929.034	1563.31
929.344	1554.49
929.653	1586.81
929.962	1542.52
930.271	1564.44
930.581	1518.79
930.89	1526.25
931.199	1554.49
931.508	1537.54
931.817	1526.47
932.125	1526.25
932.434	1528.28
932.743	1520.6
933.051	1498
933.36	1505.23
933.669	1490.54
933.977	1479.47
934.286	1483.31
934.594	1469.98
934.902	1456.64
935.21	1446.7
935.519	1465.46
935.827	1438.56
936.135	1471.78
936.443	1454.61
936.751	1437.89
937.059	1445.12
937.367	1430.43
937.674	1407.6
937.982	1407.6
938.29	1415.51
938.597	1434.04
938.905	1409.64
939.213	1419.13
939.52	1397.66
939.827	1396.08
940.135	1357.89
940.442	1362.18
940.749	1395.85
941.056	1377.1
941.363	1361.73
941.67	1356.76
941.977	1352.46
942.284	1355.18
942.591	1326.7
942.898	1360.83
943.205	1348.85
943.511	1330.54
943.818	1318.57
944.125	1322.86
944.431	1315.86
944.738	1285.57
945.044	1312.69
945.35	1305.69
945.657	1331
945.963	1305.46
946.269	1287.61
946.575	1323.54
946.881	1279.92
947.187	1297.1
947.493	1265.91
947.799	1273.14
948.105	1253.03
948.41	1277.21
948.716	1259.13
949.022	1274.95
949.327	1253.71
949.633	1250.09
949.938	1228.17
950.244	1229.76
950.549	1255.52
950.854	1244.67
951.16	1250.09
951.465	1213.71
951.77	1215.74
952.075	1209.42
952.38	1203.54
952.685	1215.52
952.99	1209.19
953.294	1193.15
953.599	1186.37
953.904	1190.21
954.209	1168.74
954.513	1193.37
954.818	1176.88
955.122	1146.82
955.426	1139.14
955.731	1152.47
956.035	1156.31
956.339	1149.98
956.643	1137.1
956.948	1149.98
957.252	1149.08
957.556	1135.75
957.86	1158.12
958.163	1133.94
958.467	1126.03
958.771	1129.19
959.075	1142.53
959.378	1111.34
959.682	1128.06
959.985	1122.87
960.289	1099.14
960.592	1092.58
960.896	1100.72
961.199	1089.19
961.502	1081.51
961.805	1073.83
962.108	1071.34
962.411	1081.74
962.714	1058.69
963.017	1078.12
963.32	1079.48
963.623	1096.65
963.926	1096.2
964.228	1058.23
964.531	1056.88
964.833	1044.9
965.136	1058.91
965.438	1042.42
965.741	1055.07
966.043	1045.81
966.345	1053.49
966.648	1043.09
966.95	1022.08
967.252	1012.36
967.554	1018.91
967.856	1016.2
968.158	992.02
968.46	1025.92
968.761	982.53
969.063	1026.82
969.365	1019.59
969.666	1009.42
969.968	993.6
970.269	998.58
970.571	996.32
970.872	997.22
971.174	990.44
971.475	964.9
971.776	986.6
972.077	959.71
972.378	978.01
972.679	992.25
972.98	981.17
973.281	987.05
973.582	953.15
973.883	980.95
974.183	944.11
974.484	970.1
974.785	934.85
975.085	945.02
975.386	945.92
975.686	941.18
975.986	926.71
976.287	920.61
976.587	950.89
976.887	925.13
977.187	904.11
977.487	919.48
977.787	905.02
978.087	914.74
978.387	915.19
978.687	906.37
978.987	898.69
979.286	907.05
979.586	913.38
979.885	912.7
980.185	903.44
980.484	906.15
980.784	904.11
981.083	879.48
981.382	878.35
981.682	886.04
981.981	868.64
982.28	879.71
982.579	874.96
982.878	875.64
983.177	853.27
983.475	852.82
983.774	849.2
984.073	876.77
984.372	842.42
984.67	857.79
984.969	838.35
985.267	842.2
985.566	852.36
985.864	805.59
986.162	843.33
986.461	806.49
986.759	834.96
987.057	827.28
987.355	820.95
987.653	822.76
987.951	827.05
988.249	812.37
988.547	832.25
988.844	811.01
989.142	836.55
989.44	799.94
989.737	826.6
990.035	801.07
990.332	811.69
990.63	817.79
990.927	791.58
991.224	783.89
991.521	760.84
991.819	781.86
992.116	784.8
992.413	783.21
992.71	757
993.006	773.72
993.303	777.11
993.6	775.08
993.897	764.01
994.193	760.39
994.49	775.98
994.787	766.27
995.083	752.25
995.379	764.23
995.676	780.05
995.972	741.18
996.268	764.68
996.565	759.26
996.861	750.45
997.157	775.53
997.453	747.28
997.749	724.01
998.044	728.75
998.34	749.77
998.636	747.73
998.932	721.75
999.227	726.94
999.523	719.49
999.818	740.28
1000.114	724.68
1000.409	714.52
1000.704	720.16
1001	721.07
1001.295	727.85
1001.59	717.9
1001.885	707.06
1002.18	702.31
1002.475	705.93
1002.77	698.02
1003.065	694.85
1003.359	683.78
1003.654	676.78
1003.949	706.38
1004.243	689.66
1004.538	672.03
1004.832	681.97
1005.127	673.84
1005.421	678.36
1005.715	678.36
1006.009	689.21
1006.304	674.52
1006.598	655.99
1006.892	660.05
1007.186	647.62
1007.48	661.86
1007.773	672.03
1008.067	664.57
1008.361	670.9
1008.655	639.49
1008.948	634.52
1009.242	663.22
1009.535	626.38
1009.829	626.61
1010.122	627.06
1010.415	643.1
1010.708	627.96
1011.001	652.6
1011.295	663.22
1011.588	623.9
1011.881	621.18
1012.173	618.47
1012.466	606.27
1012.759	631.35
1013.052	612.82
1013.344	616.44
1013.637	647.17
1013.93	610.79
1014.222	594.29
1014.514	596.1
1014.807	608.08
1015.099	594.07
1015.391	600.17
1015.683	595.42
1015.976	598.59
1016.268	587.96
1016.56	603.56
1016.851	608.08
1017.143	571.92
1017.435	565.37
1017.727	594.29
1018.018	596.33
1018.31	586.16
1018.602	568.3
1018.893	548.42
1019.185	577.57
1019.476	576.67
1019.767	575.76
1020.058	559.72
1020.35	582.09
1020.641	569.66
1020.932	575.99
1021.223	567.85
1021.514	564.01
1021.804	556.1
1022.095	555.65
1022.386	549.32
1022.677	552.03
1022.967	533.05
1023.258	523.56
1023.548	525.14
1023.839	548.19
1024.129	551.81
1024.419	535.76
1024.709	536.21
1025	527.4
1025.29	540.73
1025.58	522.66
1025.87	516.1
1026.16	523.79
1026.449	537.8
1026.739	526.72
1027.029	529.21
1027.319	512.71
1027.608	500.28
1027.898	512.03
1028.187	498.25
1028.477	504.58
1028.766	469.55
1029.055	504.13
1029.344	510.45
1029.634	505.93
1029.923	494.41
1030.212	493.96
1030.501	499.83
1030.79	515.2
1031.078	479.95
1031.367	494.18
1031.656	491.47
1031.945	484.24
1032.233	466.16
1032.522	492.6
1032.81	484.46
1033.099	476.78
1033.387	486.5
1033.675	481.3
1033.963	472.71
1034.251	487.85
1034.54	470.23
1034.828	487.63
1035.116	457.12
1035.403	469.32
1035.691	463.45
1035.979	488.53
1036.267	460.96
1036.554	470
1036.842	459.15
1037.129	457.12
1037.417	452.6
1037.704	447.86
1037.992	442.43
1038.279	469.1
1038.566	460.74
1038.853	460.74
1039.14	460.74
