Data from black_metal_pc_casing_FLMS001491_00068.txt Node
Date: Wed Feb 08 14:33:19 GMT 2017
User: dcchb
Spectrometer: FLMS00149
Trigger mode: 0
Integration Time (sec): 2.000000E-2
Scans to average: 10
Electric dark correction enabled: true
Nonlinearity correction enabled: false
Boxcar width: 0
XAxis mode: Wavelengths
Number of Pixels in Spectrum: 2048
>>>>>Begin Spectral Data<<<<<
341.393	-22.75
341.776	-22.75
342.16	-22.75
342.543	-66.82
342.927	-64.33
343.31	-77.44
343.693	-72.24
344.077	-71.57
344.46	-79.7
344.843	-22.53
345.226	-47.84
345.61	-33.6
345.993	-7.61
346.376	-13.49
346.759	1.65
347.142	19.51
347.525	47.75
347.908	47.08
348.291	75.1
348.674	105.15
349.057	129.78
349.44	124.14
349.823	126.62
350.206	179.05
350.588	192.38
350.971	206.84
351.354	211.59
351.737	233.51
352.119	243.23
352.502	247.3
352.884	257.24
353.267	269.89
353.65	287.75
354.032	282.55
354.414	289.78
354.797	302.44
355.179	308.31
355.562	313.73
355.944	303.11
356.326	325.71
356.709	326.84
357.091	324.13
357.473	338.59
357.855	337.46
358.238	341.08
358.62	351.7
359.002	334.53
359.384	319.38
359.766	314.19
360.148	325.49
360.53	332.94
360.912	336.33
361.294	324.36
361.676	327.29
362.057	315.32
362.439	323.68
362.821	321.42
363.203	319.38
363.584	316.45
363.966	327.29
364.348	299.95
364.729	323
365.111	313.73
365.493	319.38
365.874	307.18
366.256	304.02
366.637	309.89
367.019	306.96
367.4	322.1
367.781	314.19
368.163	317.8
368.544	320.06
368.925	311.02
369.306	318.71
369.688	302.66
370.069	334.3
370.45	312.6
370.831	319.84
371.212	309.22
371.593	316.45
371.974	303.79
372.355	288.42
372.736	326.39
373.117	307.63
373.498	311.47
373.879	297.01
374.26	314.64
374.641	311.25
375.021	320.06
375.402	322.1
375.783	330.01
376.163	325.71
376.544	339.04
376.925	318.93
377.305	340.4
377.686	322.32
378.066	333.85
378.447	340.63
378.827	337.01
379.208	361.64
379.588	341.08
379.968	329.33
380.349	355.54
380.729	328.65
381.109	338.14
381.489	333.4
381.87	319.16
382.25	334.53
382.63	346.95
383.01	358.71
383.39	332.27
383.77	357.35
384.15	341.08
384.53	365.94
384.91	357.8
385.29	343.79
385.67	364.58
386.049	364.81
386.429	376.11
386.809	359.61
387.189	372.72
387.568	357.8
387.948	383.79
388.328	379.72
388.707	363.68
389.087	370
389.466	366.84
389.846	372.94
390.225	367.97
390.605	386.5
390.984	388.76
391.363	370
391.743	364.35
392.122	367.97
392.501	389.21
392.881	380.85
393.26	400.96
393.639	393.28
394.018	374.75
394.397	405.71
394.776	387.63
395.155	385.15
395.534	393.05
395.913	406.61
396.292	409.33
396.671	405.71
397.05	384.24
397.429	412.94
397.808	405.26
398.186	399.83
398.565	431.92
398.944	414.3
399.323	417.23
399.701	422.43
400.08	426.27
400.458	414.52
400.837	428.31
401.215	448.65
401.594	438.93
401.972	443.45
402.351	442.77
402.729	419.72
403.107	438.7
403.486	442.54
403.864	433.05
404.242	453.39
404.62	446.84
404.999	444.8
405.377	447.74
405.755	453.39
406.133	454.3
406.511	461.3
406.889	474.18
407.267	464.69
407.645	460.4
408.023	490
408.401	479.38
408.779	481.41
409.156	494.07
409.534	476.67
409.912	478.25
410.29	492.49
410.667	490.45
411.045	528.19
411.422	513.73
411.8	519.6
412.178	517.35
412.555	511.47
412.933	527.74
413.31	512.15
413.687	534.52
414.065	547.63
414.442	531.13
414.819	544.69
415.197	548.3
415.574	543.79
415.951	530.68
416.328	566.84
416.705	550.79
417.082	568.42
417.46	559.6
417.837	577.68
418.214	572.71
418.591	558.93
418.967	579.26
419.344	572.03
419.721	588.08
420.098	580.62
420.475	597.12
420.852	583.11
421.228	608.42
421.605	604.57
421.982	577.23
422.358	598.02
422.735	611.58
423.111	636.21
423.488	619.94
423.864	643.22
424.241	633.73
424.617	624.69
424.994	649.32
425.37	650.22
425.746	650.9
426.123	644.35
426.499	659.26
426.875	677.79
427.251	677.79
427.627	677.34
428.003	687.74
428.379	678.92
428.756	680.05
429.132	676.21
429.507	723.89
429.883	735.64
430.259	762.54
430.635	722.76
431.011	734.74
431.387	741.07
431.763	768.19
432.138	756.21
432.514	755.98
432.89	756.43
433.265	769.54
433.641	778.58
434.016	789.65
434.392	772.48
434.767	807.73
435.143	813.38
435.518	810.44
435.894	829.43
436.269	820.39
436.644	849.54
437.02	860.61
437.395	841.4
437.77	859.03
438.145	860.61
438.52	863.78
438.895	882.99
439.271	885.92
439.646	886.6
440.021	891.57
440.395	887.5
440.77	897.22
441.145	900.84
441.52	905.58
441.895	909.88
442.27	930.44
442.645	922.76
443.019	933.61
443.394	920.05
443.769	933.38
444.143	944.23
444.518	981.06
444.892	951.68
445.267	958.69
445.641	972.47
446.016	966.37
446.39	993.04
446.764	986.03
447.139	977.22
447.513	1002.08
447.887	997.78
448.262	990.78
448.636	1017.22
449.01	1009.99
449.384	1007.73
449.758	1049.99
450.132	1040.95
450.506	1033.04
450.88	1048.63
451.254	1045.69
451.628	1061.74
452.002	1076.43
452.376	1070.55
452.75	1096.09
453.123	1114.84
453.497	1091.57
453.871	1105.13
454.244	1127.95
454.618	1134.96
454.992	1117.33
455.365	1175.18
455.739	1190.55
456.112	1173.83
456.486	1175.63
456.859	1204.78
457.232	1253.82
457.606	1198.91
457.979	1245.46
458.352	1267.61
458.725	1261.05
459.099	1269.64
459.472	1302.86
459.845	1306.48
460.218	1324.56
460.591	1360.03
460.964	1336.08
461.337	1335.63
461.71	1364.78
462.083	1401.16
462.456	1382.18
462.829	1406.59
463.201	1412.91
463.574	1427.6
463.947	1445
464.32	1447.72
464.692	1487.94
465.065	1475.51
465.438	1517.32
465.81	1533.82
466.183	1520.03
466.555	1570.42
466.928	1592.57
467.3	1596.64
467.672	1593.7
468.045	1637.77
468.417	1653.13
468.789	1627.37
469.161	1668.05
469.534	1693.36
469.906	1718.22
470.278	1749.63
470.65	1768.61
471.022	1781.94
471.394	1783.98
471.766	1808.16
472.138	1813.36
472.51	1890.19
472.882	1899
473.253	1939.68
473.625	1953.47
473.997	2000.7
474.369	2002.05
474.74	1979.45
475.112	2008.61
475.484	2024.2
475.855	2118.66
476.227	2131.54
476.598	2127.92
476.97	2146.68
477.341	2168.15
477.713	2235.04
478.084	2279.33
478.455	2309.39
478.827	2314.81
479.198	2386.45
479.569	2397.3
479.94	2443.62
480.311	2468.93
480.682	2522.94
481.053	2597.06
481.424	2633
481.795	2608.36
482.166	2663.96
482.537	2688.36
482.908	2721.58
483.279	2796.61
483.65	2830.28
484.021	2875.02
484.391	2941.46
484.762	2949.37
485.133	2960.44
485.503	3009.71
485.874	3033.66
486.244	3062.81
486.615	3150.95
486.985	3178.07
487.356	3228.46
487.726	3201.57
488.097	3290.83
488.467	3281.11
488.837	3391.17
489.207	3430.26
489.578	3447.66
489.948	3491.05
490.318	3525.4
490.688	3539.19
491.058	3592.52
491.428	3597.04
491.798	3682.69
492.168	3770.59
492.538	3743.02
492.908	3802.68
493.278	3862.57
493.648	3845.85
494.017	3879.06
494.387	3945.96
494.757	3985.73
495.126	4016.46
495.496	4021.43
495.866	4032.05
496.235	4111.83
496.605	4166.51
496.974	4131.71
497.344	4208.55
497.713	4193.18
498.082	4235.44
498.452	4268.21
498.821	4303.46
499.19	4305.27
499.559	4352.72
499.928	4363.57
500.298	4427.98
500.667	4445.6
501.036	4410.58
501.405	4516.79
501.774	4463.91
502.143	4525.15
502.512	4586.84
502.88	4557.46
503.249	4573.96
503.618	4690.12
503.987	4695.31
504.356	4742.54
504.724	4697.8
505.093	4763.11
505.462	4750.23
505.83	4802.66
506.199	4838.14
506.567	4941.86
506.936	4877.68
507.304	4965.59
507.672	5004.23
508.041	4997.45
508.409	5084
508.777	5078.58
509.145	5134.4
509.514	5124.68
509.882	5134.17
510.25	5206.04
510.618	5229.31
510.986	5237.45
511.354	5277.67
511.722	5403.09
512.09	5410.55
512.458	5450.32
512.826	5461.62
513.193	5500.04
513.561	5467.05
513.929	5598.12
514.297	5561.51
514.664	5618
515.032	5656.42
515.4	5729.64
515.767	5695.74
516.135	5791.56
516.502	5699.81
516.869	5836.08
517.237	5840.82
517.604	5882.85
517.972	5950.65
518.339	5990.65
518.706	5974.38
519.073	6019.57
519.44	6082.85
519.808	6168.27
520.175	6132.79
520.542	6201.04
520.909	6281.71
521.276	6250.3
521.643	6340.24
522.009	6351.99
522.376	6446.45
522.743	6501.14
523.11	6536.85
523.477	6680.57
523.843	6629.5
524.21	6692.78
524.577	6707.69
524.943	6774.36
525.31	6811.19
525.676	6850.51
526.043	6904.97
526.409	6963.28
526.776	7007.12
527.142	7033.33
527.508	7076.04
527.874	7155.14
528.241	7176.15
528.607	7251.63
528.973	7319.65
529.339	7285.3
529.705	7319.65
530.071	7382.25
530.437	7441.68
530.803	7449.37
531.169	7546.09
531.535	7546.99
531.901	7569.14
532.267	7578.18
532.632	7601.68
532.998	7668.8
533.364	7784.72
533.73	7848.45
534.095	7809.13
534.461	7845.06
534.826	7934.1
535.192	7948.34
535.557	8018.62
535.923	7978.39
536.288	8015.23
536.653	8136.13
537.019	8120.08
537.384	8089.58
537.749	8213.87
538.114	8171.83
538.479	8155.34
538.845	8276.01
539.21	8246.41
539.575	8333.86
539.94	8365.05
540.305	8363.69
540.67	8384.03
541.034	8393.3
541.399	8437.81
541.764	8487.08
542.129	8519.85
542.494	8482.33
542.858	8529.79
543.223	8577.02
543.587	8647.07
543.952	8589.68
544.316	8617.25
544.681	8696.34
545.045	8716
545.41	8733.17
545.774	8752.83
546.138	8719.62
546.503	8807.75
546.867	8821.31
547.231	8841.87
547.595	8897.46
547.959	8968.42
548.324	9017.46
548.688	8959.84
549.052	8937.91
549.416	9086.84
549.779	9049.32
550.143	9087.74
550.507	9137.23
550.871	9206.83
551.235	9181.07
551.599	9218.59
551.962	9228.98
552.326	9337.68
552.689	9351.69
553.053	9354.63
553.417	9343.78
553.78	9521.18
554.143	9425.81
554.507	9541.06
554.87	9531.8
555.234	9685.92
555.597	9593.26
555.96	9645.24
556.323	9666.48
556.686	9715.52
557.05	9725.24
557.413	9787.16
557.776	9829.42
558.139	9862.64
558.502	9945.8
558.865	9912.8
559.228	9990.54
559.59	10004.78
559.953	10055.4
560.316	10101.73
560.679	10162.29
561.041	10224.43
561.404	10236.41
561.767	10384.88
562.129	10292.91
562.492	10449.29
562.854	10425.33
563.217	10455.61
563.579	10503.98
563.941	10554.37
564.304	10553.92
564.666	10675.72
565.028	10664.2
565.39	10686.8
565.753	10740.58
566.115	10844.53
566.477	10813.35
566.839	10932.44
567.201	10893.34
567.563	10931.99
567.925	11096.95
568.287	11021.7
568.648	11110.96
569.01	11174.01
569.372	11188.03
569.734	11166.56
570.095	11295.82
570.457	11267.57
570.819	11370.39
571.18	11350.73
571.542	11357.51
571.903	11361.35
572.265	11397.06
572.626	11497.62
572.987	11465.08
573.349	11575.81
573.71	11523.16
574.071	11613.32
574.432	11654.45
574.794	11739.65
575.155	11698.75
575.516	11761.34
575.877	11765.64
576.238	11782.36
576.599	11876.82
576.96	11805.18
577.32	11824.39
577.681	11841.57
578.042	11966.54
578.403	11892.19
578.763	11945.07
579.124	11928.12
579.485	11994.78
579.845	11995.69
580.206	11988.68
580.566	12032.75
580.927	12065.97
581.287	12117.94
581.648	12067.32
582.008	12080.66
582.368	12016.03
582.728	12138.06
583.089	12094.22
583.449	12033.88
583.809	12108
584.169	12128.57
584.529	12065.06
584.889	12216.92
585.249	12163.37
585.609	12080.2
585.969	12087.44
586.329	12197.72
586.688	12221.67
587.048	12116.81
587.408	12098.28
587.768	12150.71
588.127	12144.38
588.487	12225.74
588.846	12236.81
589.206	12174.67
589.565	12161.78
589.925	12234.1
590.284	12200.2
590.643	12151.84
591.003	12195.91
591.362	12197.04
591.721	12258.96
592.08	12255.12
592.44	12245.62
592.799	12273.19
593.158	12236.59
593.517	12250.82
593.876	12258.05
594.235	12184.16
594.593	12230.26
594.952	12318.39
595.311	12201.33
595.67	12262.8
596.029	12291.27
596.387	12412.85
596.746	12386.41
597.104	12297.15
597.463	12229.13
597.822	12284.49
598.18	12259.86
598.538	12358.16
598.897	12347.54
599.255	12237.94
599.613	12463.92
599.972	12387.99
600.33	12410.37
600.688	12342.12
601.046	12415.56
601.404	12394.1
601.762	12437.48
602.12	12521.32
602.478	12484.94
602.836	12489.01
603.194	12397.94
603.552	12491.49
603.91	12518.16
604.268	12609
604.625	12476.8
604.983	12547.54
605.341	12473.19
605.698	12529.23
606.056	12625.95
606.413	12541.89
606.771	12594.32
607.128	12597.48
607.485	12618.04
607.843	12601.55
608.2	12592.06
608.557	12772.84
608.914	12651.04
609.272	12731.04
609.629	12591.83
609.986	12790.69
610.343	12739.62
610.7	12857.13
611.057	12712.05
611.414	12789.56
611.771	12857.36
612.127	12828.66
612.484	12796.34
612.841	12853.97
613.198	12856
613.554	12840.41
613.911	13014.19
614.267	12945.72
614.624	12903.69
614.98	12938.49
615.337	12905.72
615.693	13017.13
616.05	12906.85
616.406	13070.24
616.762	12995.21
617.118	12969
617.475	13024.13
617.831	13093.06
618.187	13053.29
618.543	13050.57
618.899	13136.45
619.255	13084.25
619.611	12999.28
619.967	13082.66
620.323	13154.98
620.678	13087.41
621.034	13132.61
621.39	13016.45
621.746	12989.79
622.101	13148.43
622.457	13134.64
622.812	13052.16
623.168	13131.7
623.523	13139.16
623.879	13202.44
624.234	13108.43
624.589	13120.4
624.945	13176.9
625.3	13143.23
625.655	13119.05
626.01	13117.69
626.365	13158.37
626.72	13154.08
627.075	13080.18
627.43	13138.48
627.785	13131.02
628.14	13136.67
628.495	13154.08
628.85	13110.46
629.205	13021.42
629.559	13051.03
629.914	13061.42
630.269	12958.6
630.623	13073.17
630.978	13061.87
631.332	13063.68
631.687	13123.57
632.041	12981.2
632.396	12945.94
632.75	13042.67
633.104	13016.23
633.459	12842.67
633.813	12927.64
634.167	12980.29
634.521	12925.61
634.875	12969.22
635.229	12868.88
635.583	12819.17
635.937	12818.72
636.291	12793.18
636.645	12773.29
636.999	12781.2
637.352	12798.83
637.706	12792.73
638.06	12827.3
638.413	12735.55
638.767	12673.18
639.121	12760.19
639.474	12702.79
639.828	12698.27
640.181	12748.89
640.534	12698.95
640.888	12694.2
641.241	12539.63
641.594	12615.56
641.947	12601.1
642.301	12629.57
642.654	12572.4
643.007	12614.65
643.36	12518.84
643.713	12580.53
644.066	12592.96
644.419	12511.15
644.771	12455.34
645.124	12245.85
645.477	12249.69
645.83	12130.83
646.182	12143.03
646.535	12089.02
646.888	12173.99
647.24	12038.85
647.593	12156.36
647.945	12113.2
648.298	12011.73
648.65	12062.13
649.002	11981.22
649.355	12085.4
649.707	11983.03
650.059	12048.12
650.411	12219.64
650.763	12220.31
651.115	12317.03
651.467	12358.16
651.819	12247.43
652.171	12173.31
652.523	12221.67
652.875	12271.84
653.227	12130.15
653.578	12246.98
653.93	12214.66
654.282	12113.88
654.633	12140.99
654.985	12242.23
655.337	12124.5
655.688	12118.85
656.039	12252.4
656.391	12127.89
656.742	12091.96
657.094	12129.02
657.445	12180.54
657.796	12074.78
658.147	12089.7
658.498	12126.31
658.849	12096.93
659.2	12063.26
659.551	12011.05
659.902	12049.92
660.253	12090.6
660.604	12077.95
660.955	11932.19
661.306	12069.81
661.656	12008.12
662.007	11954.11
662.358	12124.72
662.708	11907.55
663.059	12012.64
663.409	11901.23
663.76	12039.75
664.11	11864.39
664.461	11972.41
664.811	12006.53
665.161	11883.37
665.511	11869.14
665.862	11857.39
666.212	11976.7
666.562	11957.72
666.912	11897.84
667.262	11877.27
667.612	11939.19
667.962	11901
668.312	11886.31
668.662	12000.43
669.011	11881.79
669.361	11842.25
669.711	11885.18
670.06	11831.85
670.41	11750.04
670.76	11794.79
671.109	11819.19
671.459	11895.58
671.808	11807.22
672.157	11868.91
672.507	11721.57
672.856	11787.78
673.205	11756.82
673.554	11781.46
673.904	11803.83
674.253	11806.77
674.602	11634.34
674.951	11611.52
675.3	11590.73
675.649	11715.92
675.998	11754.34
676.346	11751.4
676.695	11717.95
677.044	11667.33
677.393	11723.15
677.741	11675.47
678.09	11647.22
678.438	11629.14
678.787	11619.65
679.135	11679.76
679.484	11494.23
679.832	11649.03
680.181	11538.3
680.529	11579.43
680.877	11539.2
681.225	11538.98
681.573	11631.18
681.922	11572.87
682.27	11522.71
682.618	11460.79
682.966	11471.86
683.314	11448.58
683.661	11381.47
684.009	11403.84
684.357	11352.77
684.705	11355.03
685.053	11425.08
685.4	11303.73
685.748	11234.35
686.095	11230.06
686.443	11305.31
686.79	11224.63
687.138	11238.42
687.485	11301.02
687.832	11154.58
688.18	11195.48
688.527	11107.12
688.874	11111.87
689.221	11126.78
689.568	11009.72
689.915	11056.05
690.262	11113.45
690.609	11007.01
690.956	11002.72
691.303	10943.29
691.65	10957.3
691.997	10956.17
692.344	10747.13
692.69	10808.37
693.037	10803.63
693.383	10783.52
693.73	10763.4
694.077	10671.2
694.423	10724.08
694.769	10651.77
695.116	10633.69
695.462	10642.5
695.808	10593.24
696.155	10612.22
696.501	10522.51
696.847	10484.77
697.193	10469.63
697.539	10484.99
697.885	10480.02
698.231	10458.1
698.577	10415.62
698.923	10376.07
699.269	10299.46
699.614	10297.2
699.96	10301.27
700.306	10239.12
700.651	10264.43
700.997	10261.27
701.342	10200.25
701.688	10143.98
702.033	10118.45
702.379	10192.8
702.724	10076.64
703.069	10123.87
703.415	9976.53
703.76	10039.35
704.105	10005.01
704.45	10008.85
704.795	9921.39
705.14	9874.61
705.485	9929.53
705.83	9837.33
706.175	9828.74
706.52	9842.52
706.865	9797.33
707.209	9729.53
707.554	9724.79
707.899	9724.79
708.243	9740.15
708.588	9717.56
708.932	9583.1
709.277	9628.52
709.621	9619.7
709.966	9567.95
710.31	9569.08
710.654	9466.04
710.998	9535.87
711.342	9506.94
711.687	9507.62
712.031	9434.17
712.375	9380.16
712.719	9449.54
713.063	9435.98
713.407	9438.01
713.75	9339.71
714.094	9477.56
714.438	9330.22
714.782	9371.35
715.125	9393.04
715.469	9326.61
715.812	9324.35
716.156	9239.6
716.499	9245.25
716.843	9214.29
717.186	9155.31
717.53	9207.29
717.873	9233.5
718.216	9215.65
718.559	9154.63
718.902	9132.71
719.246	9145.14
719.589	9095.88
719.932	9088.87
720.275	9138.14
720.617	9008.2
720.96	9025.37
721.303	8947.18
721.646	9004.58
721.989	8912.15
722.331	9044.35
722.674	8937.69
723.016	8930.46
723.359	8985.6
723.701	9009.78
724.044	8946.28
724.386	8849.33
724.729	8839.84
725.071	8856.79
725.413	8845.71
725.755	8841.19
726.097	8869.22
726.439	8747.86
726.782	8784.02
727.124	8791.7
727.465	8756.45
727.807	8721.42
728.149	8704.93
728.491	8715.1
728.833	8737.69
729.175	8689.11
729.516	8656.34
729.858	8608.66
730.199	8686.85
730.541	8535.67
730.882	8577.47
731.224	8605.27
731.565	8513.75
731.906	8594.42
732.248	8572.5
732.589	8514.65
732.93	8530.92
733.271	8538.15
733.612	8520.3
733.953	8534.31
734.294	8595.32
734.635	8464.71
734.976	8504.25
735.317	8446.63
735.658	8467.19
735.999	8424.03
736.339	8430.13
736.68	8436.01
737.021	8365.5
737.361	8298.84
737.702	8322.11
738.042	8351.49
738.383	8331.6
738.723	8342.22
739.063	8241.89
739.404	8424.93
739.744	8335.9
740.084	8275.11
740.424	8281.21
740.764	8271.04
741.104	8301.55
741.444	8240.98
741.784	8179.97
742.124	8174.32
742.464	8240.08
742.804	8253.41
743.143	8187.2
743.483	8105.39
743.823	8114.89
744.162	8155.79
744.502	8171.83
744.841	8094.1
745.181	8095.22
745.52	8052.29
745.86	8043.47
746.199	8070.14
746.538	8025.85
746.877	8038.05
747.216	8049.58
747.556	8018.16
747.895	8076.69
748.234	7941.78
748.573	7925.51
748.911	7993.98
749.25	7923.25
749.589	7897.04
749.928	7909.02
750.267	7932.29
750.605	7888.45
750.944	7830.83
751.283	7904.27
751.621	7909.69
751.96	7751.73
752.298	7846.19
752.636	7800.09
752.975	7773.65
753.313	7730.94
753.651	7742.92
753.989	7709.47
754.327	7659.98
754.666	7689.13
755.004	7696.59
755.342	7700.89
755.679	7656.14
756.017	7650.49
756.355	7589.02
756.693	7634.67
757.031	7605.75
757.368	7559.65
757.706	7591.28
758.044	7576.82
758.381	7574.11
758.719	7514.9
759.056	7499.08
759.394	7478.74
759.731	7380.89
760.068	7401.23
760.405	7393.55
760.743	7384.74
761.08	7349.26
761.417	7332.31
761.754	7335.02
762.091	7280.33
762.428	7280.11
762.765	7227.68
763.102	7266.32
763.438	7184.51
763.775	7195.59
764.112	7250.73
764.449	7237.85
764.785	7107.68
765.122	7090.05
765.458	7024.52
765.795	7062.48
766.131	7064.29
766.467	7044.41
766.804	6974.8
767.14	7036.95
767.476	6980.9
767.812	6947.46
768.148	6861.13
768.485	6883.51
768.821	6844.86
769.157	6853.68
769.492	6866.56
769.828	6822.72
770.164	6795.15
770.5	6723.06
770.836	6744.07
771.171	6641.25
771.507	6629.27
771.842	6655.26
772.178	6682.61
772.513	6682.15
772.849	6590.18
773.184	6563.97
773.519	6580.69
773.855	6512.89
774.19	6587.47
774.525	6497.3
774.86	6471.99
775.195	6525.77
775.53	6476.74
775.865	6331.88
776.2	6366
776.535	6348.6
776.87	6345.89
777.205	6289.17
777.539	6301.6
777.874	6223.86
778.209	6270.19
778.543	6166.46
778.878	6132.11
779.212	6173.24
779.547	6145.22
779.881	6180.25
780.215	6096.63
780.55	6147.03
780.884	6087.82
781.218	6050.08
781.552	5999.01
781.886	6000.14
782.22	5974.83
782.554	5977.09
782.888	5880.37
783.222	5908.62
783.556	5869.07
783.889	5881.27
784.223	5810.09
784.557	5865.68
784.89	5824.55
785.224	5825
785.557	5774.83
785.891	5731.9
786.224	5777.09
786.558	5762.4
786.891	5666.81
787.224	5682.86
787.557	5637.66
787.891	5619.36
788.224	5653.03
788.557	5692.58
788.89	5556.31
789.223	5566.48
789.556	5554.95
789.888	5556.31
790.221	5514.05
790.554	5495.75
790.887	5494.16
791.219	5476.99
791.552	5500.94
791.884	5429.76
792.217	5441.06
792.549	5392.92
792.882	5384.34
793.214	5391.12
793.546	5387.95
793.879	5333.49
794.211	5270.89
794.543	5319.03
794.875	5278.58
795.207	5305.69
795.539	5261.85
795.871	5272.93
796.203	5198.35
796.535	5161.29
796.867	5175.75
797.198	5141.18
797.53	5188.63
797.862	5125.36
798.193	5142.76
798.525	5098.69
798.856	5127.39
799.188	5028.86
799.519	5015.76
799.85	5024.12
800.182	5047.4
800.513	5033.38
800.844	5007.4
801.175	5022.09
801.506	5019.6
801.837	4997.23
802.168	4940.73
802.499	4963.56
802.83	4895.99
803.161	4929.43
803.491	4924.01
803.822	4911.81
804.153	4868.64
804.483	4854.86
804.814	4792.04
805.145	4791.58
805.475	4802.43
805.805	4800.4
806.136	4816.44
806.466	4773.73
806.796	4812.83
807.126	4753.17
807.457	4733.05
807.787	4716.78
808.117	4713.17
808.447	4694.18
808.777	4745.93
809.107	4694.86
809.436	4655.77
809.766	4688.31
810.096	4639.04
810.426	4645.82
810.755	4628.88
811.085	4610.12
811.414	4547.52
811.744	4573.51
812.073	4556.33
812.403	4571.02
812.732	4556.79
813.061	4522.66
813.39	4506.17
813.719	4503.68
814.049	4556.56
814.378	4466.85
814.707	4546.39
815.036	4471.14
815.365	4448.09
815.693	4412.61
816.022	4436.34
816.351	4448.54
816.68	4413.97
817.008	4408.32
817.337	4395.66
817.665	4399.95
817.994	4355.89
818.322	4356.11
818.651	4369.45
818.979	4350.01
819.307	4329
819.636	4343.46
819.964	4312.73
820.292	4344.14
820.62	4286.29
820.948	4333.29
821.276	4276.12
821.604	4323.57
821.932	4313.4
822.259	4300.52
822.587	4274.08
822.915	4304.14
823.243	4290.58
823.57	4260.3
823.898	4241.77
824.225	4274.76
824.553	4292.39
824.88	4277.02
825.207	4236.8
825.535	4284.93
825.862	4300.75
826.189	4298.71
826.516	4295.1
826.843	4295.32
827.17	4323.8
827.497	4325.15
827.824	4286.74
828.151	4307.53
828.478	4273.18
828.805	4271.37
829.131	4246.29
829.458	4266.17
829.785	4294.42
830.111	4301.65
830.438	4273.4
830.764	4331.03
831.09	4264.82
831.417	4225.5
831.743	4272.95
832.069	4273.86
832.395	4250.81
832.722	4267.3
833.048	4213.07
833.374	4236.34
833.7	4246.51
834.026	4221.43
834.351	4251.03
834.677	4203.58
835.003	4254.42
835.329	4209.68
835.654	4233.63
835.98	4216.46
836.306	4246.96
836.631	4216.23
836.956	4188.89
837.282	4240.64
837.607	4193.41
837.932	4187.53
838.258	4193.63
838.583	4154.99
838.908	4162.45
839.233	4183.46
839.558	4164.03
839.883	4149.79
840.208	4137.14
840.533	4129.23
840.858	4141.43
841.182	4138.04
841.507	4146.63
841.832	4084.93
842.156	4046.97
842.481	4053.07
842.805	4055.78
843.13	4047.42
843.454	4089.68
843.778	4027.76
844.103	4031.15
844.427	4035.22
844.751	4039.96
845.075	4052.85
845.399	3982.79
845.723	3960.19
846.047	3942.34
846.371	3940.98
846.695	3998.16
847.019	3925.84
847.343	3909.8
847.666	3914.54
847.99	3851.04
848.313	3858.5
848.637	3849.69
848.96	3861.21
849.284	3826.64
849.607	3840.87
849.931	3809.46
850.254	3752.74
850.577	3778.95
850.9	3763.14
851.223	3747.77
851.546	3752.06
851.869	3750.03
852.192	3697.6
852.515	3682.69
852.838	3648.11
853.161	3648.56
853.483	3649.01
853.806	3637.04
854.129	3654.89
854.451	3642.01
854.774	3644.27
855.096	3598.39
855.419	3588
855.741	3591.61
856.063	3555.91
856.385	3557.27
856.708	3558.17
857.03	3516.59
857.352	3539.64
857.674	3526.31
857.996	3510.71
858.318	3501
858.64	3478.17
858.961	3492.41
859.283	3438.62
859.605	3465.97
859.926	3497.15
860.248	3429.81
860.57	3461.45
860.891	3460.54
861.212	3431.84
861.534	3409.02
861.855	3333.77
862.176	3435.01
862.498	3409.02
862.819	3413.99
863.14	3450.38
863.461	3403.37
863.782	3394.78
864.103	3403.82
864.424	3393.43
864.745	3375.12
865.065	3329.7
865.386	3360.21
865.707	3338.97
866.027	3300.55
866.348	3345.07
866.668	3327.44
866.989	3337.16
867.309	3306.88
867.63	3354.56
867.95	3336.93
868.27	3278.4
868.59	3319.31
868.91	3274.33
869.23	3300.77
869.55	3246.99
869.87	3275.24
870.19	3286.31
870.51	3279.76
870.83	3254.9
871.15	3238.86
871.469	3226.2
871.789	3258.06
872.109	3275.92
872.428	3207.44
872.748	3253.77
873.067	3249.02
873.386	3223.71
873.706	3229.59
874.025	3226.65
874.344	3187.56
874.663	3200.44
874.982	3149.59
875.301	3199.08
875.62	3206.77
875.939	3188.46
876.258	3146.43
876.577	3200.44
876.896	3160.67
877.214	3131.29
877.533	3150.04
877.852	3163.38
878.17	3166.54
878.489	3127.45
878.807	3163.38
879.125	3155.69
879.444	3147.78
879.762	3121.57
880.08	3177.16
880.398	3127.22
880.716	3119.31
881.034	3118.86
881.352	3093.32
881.67	3089.48
881.988	3110.27
882.306	3111.18
882.624	3086.54
882.941	3072.98
883.259	3042.02
883.577	3048.58
883.894	3065.07
884.212	3043.38
884.529	3014
884.846	3053.1
885.164	3054.45
885.481	3008.81
885.798	3019.2
886.115	2993.89
886.432	3005.19
886.75	2999.99
887.067	3037.96
887.383	2977.85
887.7	2994.34
888.017	2983.49
888.334	2992.53
888.651	2965.42
888.967	2961.35
889.284	2927.23
889.6	2957.96
889.917	2903.27
890.233	2903.05
890.55	2906.21
890.866	2890.16
891.182	2912.54
891.498	2884.74
891.815	2868.92
892.131	2820.56
892.447	2861.24
892.763	2814.01
893.079	2880.45
893.395	2848.36
893.71	2834.12
894.026	2849.94
894.342	2822.37
894.657	2815.14
894.973	2806.1
895.289	2785.31
895.604	2808.58
895.92	2760.22
896.235	2760.45
896.55	2752.31
896.865	2772.2
897.181	2710.73
897.496	2758.64
897.811	2740.34
898.126	2732.2
898.441	2755.93
898.756	2701.92
899.071	2679.1
899.386	2714.58
899.7	2669.6
900.015	2680.9
900.33	2620.79
900.644	2659.66
900.959	2661.02
901.273	2652.43
901.588	2596.61
901.902	2600.68
902.216	2587.12
902.531	2601.36
902.845	2593.22
903.159	2579.89
903.473	2582.83
903.787	2571.08
904.101	2569.04
904.415	2576.73
904.729	2592.32
905.042	2519.1
905.356	2552.77
905.67	2531.53
905.984	2524.98
906.297	2514.13
906.611	2513.22
906.924	2463.28
907.237	2492.89
907.551	2490.85
907.864	2476.84
908.177	2472.77
908.491	2476.16
908.804	2455.37
909.117	2435.03
909.43	2381.7
909.743	2423.28
910.056	2426.22
910.368	2401.36
910.681	2386
910.994	2383.28
911.307	2375.83
911.619	2387.8
911.932	2386.22
912.244	2345.32
912.557	2345.55
912.869	2323.63
913.181	2331.53
913.494	2308.03
913.806	2320.24
914.118	2290.63
914.43	2291.31
914.742	2273.91
915.054	2296.73
915.366	2265.1
915.678	2283.17
915.99	2260.58
916.302	2247.7
916.613	2248.15
916.925	2202.72
917.236	2230.29
917.548	2199.56
917.859	2238.2
918.171	2202.72
918.482	2213.35
918.794	2188.71
919.105	2183.29
919.416	2175.15
919.727	2176.96
920.038	2136.29
920.349	2133.35
920.66	2155.72
920.971	2142.61
921.282	2157.75
921.593	2095.61
921.903	2142.16
922.214	2126.12
922.525	2106
922.835	2084.54
923.146	2070.3
923.456	2090.19
923.767	2059.68
924.077	2053.58
924.387	2080.69
924.697	2067.13
925.008	2074.14
925.318	2045.44
925.628	2024.2
925.938	2033.01
926.248	2000.24
926.558	2000.92
926.867	2019.45
927.177	1993.46
927.487	1980.58
927.796	1953.47
928.106	1939
928.416	1967.93
928.725	1962.5
929.034	1950.75
929.344	1924.09
929.653	1950.08
929.962	1917.08
930.271	1904.65
930.581	1898.78
930.89	1912.34
931.199	1888.83
931.508	1891.32
931.817	1861.94
932.125	1881.6
932.434	1872.56
932.743	1853.13
933.051	1840.93
933.36	1847.48
933.669	1854.49
933.977	1827.82
934.286	1777.65
934.594	1827.82
934.902	1810.42
935.21	1804.77
935.519	1770.87
935.827	1796.18
936.135	1778.55
936.443	1766.13
936.751	1733.58
937.059	1753.7
937.367	1760.25
937.674	1767.93
937.982	1757.76
938.29	1753.47
938.597	1728.16
938.905	1717.09
939.213	1705.56
939.52	1706.92
939.827	1692.68
940.135	1664.89
940.442	1703.53
940.749	1700.82
941.056	1690.65
941.363	1667.82
941.67	1677.99
941.977	1669.63
942.284	1656.98
942.591	1662.63
942.898	1656.07
943.205	1642.74
943.511	1632.8
943.818	1616.3
944.125	1631.67
944.431	1592.8
944.738	1604.55
945.044	1608.16
945.35	1623.98
945.657	1619.92
945.963	1584.21
946.269	1575.17
946.575	1573.81
946.881	1558.45
947.187	1561.39
947.493	1580.59
947.799	1542.63
948.105	1529.52
948.41	1536.08
948.716	1529.75
949.022	1534.95
949.327	1541.27
949.633	1515.06
949.938	1502.63
950.244	1519.58
950.549	1512.8
950.854	1507.15
951.16	1503.53
951.465	1493.82
951.77	1459.02
952.075	1456.76
952.38	1466.7
952.685	1449.52
952.99	1458.11
953.294	1449.98
953.599	1434.16
953.904	1450.2
954.209	1401.16
954.513	1452.24
954.818	1434.38
955.122	1448.39
955.426	1407.72
955.731	1422.41
956.035	1414.5
956.339	1417.66
956.643	1405.46
956.948	1401.62
957.252	1403.42
957.556	1406.59
957.86	1366.14
958.163	1373.14
958.467	1374.72
958.771	1353.93
959.075	1358.23
959.378	1363.65
959.682	1353.71
959.985	1341.5
960.289	1341.96
960.592	1348.06
960.896	1357.78
961.199	1326.14
961.502	1340.6
961.805	1345.8
962.108	1310.54
962.411	1306.48
962.714	1304.44
963.017	1271
963.32	1297.44
963.623	1294.73
963.926	1267.16
964.228	1276.65
964.531	1275.74
964.833	1275.52
965.136	1295.18
965.438	1251.11
965.741	1255.63
966.043	1265.35
966.345	1250.89
966.648	1242.98
966.95	1264.67
967.252	1236.87
967.554	1270.09
967.856	1240.72
968.158	1214.28
968.46	1231.45
968.761	1209.76
969.063	1234.16
969.365	1192.58
969.666	1196.2
969.968	1188.74
970.269	1181.73
970.571	1186.25
970.872	1176.08
971.174	1177.44
971.475	1202.07
971.776	1170.66
972.077	1165.01
972.378	1153.94
972.679	1182.86
972.98	1174.05
973.281	1125.46
973.582	1170.44
973.883	1148.51
974.183	1136.31
974.484	1133.15
974.785	1123.66
975.085	1143.32
975.386	1134.73
975.686	1134.96
975.986	1150.77
976.287	1121.85
976.587	1112.13
976.887	1094.28
977.187	1095.18
977.487	1084.34
977.787	1110.32
978.087	1083.43
978.387	1080.72
978.687	1081.85
978.987	1078.23
979.286	1064.45
979.586	1075.75
979.885	1067.61
980.185	1054.28
980.484	1080.04
980.784	1063.09
981.083	1063.77
981.382	1052.7
981.682	1050.66
981.981	1052.02
982.28	1057.22
982.579	1047.5
982.878	1054.73
983.177	1056.09
983.475	1043.66
983.774	1040.95
984.073	993.26
984.372	1019.93
984.67	1016.54
984.969	993.49
985.267	999.82
985.566	1000.95
985.864	998.01
986.162	989.65
986.461	994.62
986.759	1007.73
987.057	975.64
987.355	994.39
987.653	988.97
987.951	991.01
988.249	972.02
988.547	969.54
988.844	948.75
989.142	961.4
989.44	955.98
989.737	983.77
990.035	936.32
990.332	953.94
990.63	965.47
990.927	912.36
991.224	917.56
991.521	946.26
991.819	919.59
992.116	954.85
992.413	918.01
992.71	955.75
993.006	909.88
993.303	921.85
993.6	884.57
993.897	876.21
994.193	896.54
994.49	937.45
994.787	920.95
995.083	914.85
995.379	877.56
995.676	901.52
995.972	894.51
996.268	887.05
996.565	867.62
996.861	897.9
997.157	884.34
997.453	874.62
997.749	855.42
998.044	878.47
998.34	866.04
998.636	867.62
998.932	866.26
999.227	871.01
999.523	859.94
999.818	864.91
1000.114	848.64
1000.409	817.45
1000.704	852.03
1001	840.27
1001.295	832.14
1001.59	827.39
1001.885	820.16
1002.18	820.39
1002.475	813.61
1002.77	820.84
1003.065	812.25
1003.359	812.93
1003.654	796.43
1003.949	799.82
1004.243	818.58
1004.538	786.49
1004.832	793.27
1005.127	800.95
1005.421	788.3
1005.715	786.04
1006.009	816.77
1006.304	804.12
1006.598	776.77
1006.892	767.96
1007.186	785.81
1007.48	784
1007.773	765.47
1008.067	777.68
1008.361	759.6
1008.655	767.51
1008.948	760.95
1009.242	755.98
1009.535	772.03
1009.829	736.1
1010.122	731.35
1010.415	733.38
1010.708	737
1011.001	740.39
1011.295	752.82
1011.588	718.7
1011.881	732.25
1012.173	720.5
1012.466	701.97
1012.759	708.75
1013.052	713.05
1013.344	702.88
1013.637	690
1013.93	691.13
1014.222	690.9
1014.514	722.31
1014.807	686.61
1015.099	710.33
1015.391	664.91
1015.683	676.21
1015.976	689.32
1016.268	672.14
1016.56	666.95
1016.851	673.73
1017.143	696.55
1017.435	665.82
1017.727	665.82
1018.018	673.27
1018.31	667.62
1018.602	662.43
1018.893	672.14
1019.185	660.39
1019.476	636.21
1019.767	652.71
1020.058	638.02
1020.35	673.73
1020.641	664.69
1020.932	645.25
1021.223	641.86
1021.514	638.7
1021.804	618.36
1022.095	643.67
1022.386	620.85
1022.677	615.65
1022.967	637.12
1023.258	638.47
1023.548	617
1023.839	620.85
1024.129	603.67
1024.419	625.82
1024.709	600.73
1025	620.85
1025.29	612.71
1025.58	586.27
1025.87	612.94
1026.16	598.92
1026.449	603.22
1026.739	599.83
1027.029	608.19
1027.319	570.9
1027.608	580.62
1027.898	579.72
1028.187	584.24
1028.477	582.65
1028.766	554.41
1029.055	584.46
1029.344	573.39
1029.634	568.19
1029.923	583.11
1030.212	563.67
1030.501	565.03
1030.79	568.42
1031.078	577
1031.367	548.76
1031.656	561.86
1031.945	574.07
1032.233	558.93
1032.522	561.64
1032.81	528.19
1033.099	534.29
1033.387	539.04
1033.675	512.37
1033.963	536.78
1034.251	541.98
1034.54	530.9
1034.828	537.23
1035.116	539.27
1035.403	499.27
1035.691	516.44
1035.979	535.88
1036.267	527.97
1036.554	505.14
1036.842	514.41
1037.129	508.76
1037.417	520.06
1037.704	517.12
1037.992	513.73
1038.279	488.87
1038.566	486.16
1038.853	486.16
1039.14	486.16
