Data from black_plastic_tray_FLMS001491_050.txt Node
Date: Tue Feb 07 10:39:57 GMT 2017
User: dcchb
Spectrometer: FLMS00149
Trigger mode: 0
Integration Time (sec): 2.000000E-2
Scans to average: 10
Electric dark correction enabled: true
Nonlinearity correction enabled: false
Boxcar width: 0
XAxis mode: Wavelengths
Number of Pixels in Spectrum: 2048
>>>>>Begin Spectral Data<<<<<
341.393	-18.77
341.776	-18.77
342.16	-18.77
342.543	-73.91
342.927	-47.7
343.31	-68.71
343.693	-91.99
344.077	-63.29
344.46	-56.06
344.843	-50.18
345.226	-43.4
345.61	-44.08
345.993	-21.26
346.376	1.79
346.759	28.46
347.142	25.07
347.525	35.24
347.908	67.33
348.291	74.11
348.674	107.33
349.057	99.64
349.44	116.14
349.823	149.59
350.206	138.06
350.588	201.56
350.971	193.2
351.354	214.44
351.737	226.87
352.119	270.94
352.502	259.87
352.884	264.61
353.267	269.36
353.65	297.61
354.032	300.09
354.414	293.54
354.797	310.26
355.179	315.46
355.562	325.85
355.944	315.23
356.326	334.21
356.709	305.06
357.091	322.24
357.473	342.12
357.855	332.41
358.238	327.21
358.62	344.16
359.002	326.98
359.384	362.46
359.766	346.87
360.148	342.8
360.53	335.57
360.912	337.6
361.294	335.34
361.676	343.93
362.057	341.22
362.439	338.06
362.821	334.44
363.203	332.86
363.584	325.18
363.966	315.46
364.348	336.02
364.729	345.29
365.111	345.51
365.493	325.85
365.874	312.29
366.256	333.54
366.637	325.18
367.019	324.95
367.4	319.3
367.781	322.46
368.163	316.59
368.544	309.81
368.925	317.27
369.306	325.85
369.688	339.86
370.069	293.31
370.45	340.54
370.831	309.81
371.212	308.45
371.593	322.69
371.974	338.06
372.355	336.02
372.736	338.73
373.117	323.14
373.498	312.29
373.879	345.29
374.26	319.3
374.641	318.17
375.021	343.03
375.402	331.95
375.783	361.56
376.163	361.78
376.544	371.05
376.925	362.69
377.305	354.78
377.686	343.93
378.066	347.55
378.447	352.74
378.827	334.44
379.208	344.38
379.588	362.46
379.968	352.07
380.349	372.41
380.729	357.72
381.109	371.95
381.489	381.22
381.87	362.91
382.25	366.98
382.63	375.12
383.01	388.45
383.39	369.92
383.77	387.09
384.15	382.12
384.53	399.98
384.91	394.55
385.29	395.91
385.67	405.85
386.049	414.21
386.429	409.01
386.809	417.6
387.189	401.11
387.568	406.53
387.948	418.05
388.328	409.69
388.707	398.85
389.087	400.43
389.466	435.45
389.846	417.6
390.225	426.19
390.605	435
390.984	426.64
391.363	449.24
391.743	423.48
392.122	441.1
392.501	420.54
392.881	438.39
393.26	442.46
393.639	437.49
394.018	450.37
394.397	461.44
394.776	450.82
395.155	481.1
395.534	469.8
395.913	450.6
396.292	472.06
396.671	482.91
397.05	472.97
397.429	480.2
397.808	493.76
398.186	503.48
398.565	482.91
398.944	507.32
399.323	493.76
399.701	519.52
400.08	496.7
400.458	506.41
400.837	509.8
401.215	506.87
401.594	520.42
401.972	506.19
402.351	508
402.729	539.41
403.107	536.47
403.486	531.27
403.864	539.63
404.242	546.41
404.62	545.73
404.999	545.73
405.377	572.17
405.755	572.4
406.133	567.43
406.511	574.43
406.889	574.66
407.267	573.76
407.645	596.13
408.023	591.38
408.401	630.03
408.779	617.6
409.156	629.12
409.534	620.08
409.912	635.68
410.29	645.17
410.667	644.94
411.045	628.44
411.422	665.05
411.8	671.61
412.178	676.58
412.555	691.72
412.933	665.96
413.31	689.69
413.687	711.15
414.065	696.24
414.442	713.41
414.819	700.76
415.197	733.3
415.574	717.93
415.951	746.86
416.328	729.23
416.705	739.4
417.082	742.11
417.46	752.06
417.837	757.25
418.214	755.9
418.591	778.27
418.967	779.85
419.344	783.47
419.721	788.44
420.098	785.73
420.475	816.24
420.852	802.45
421.228	803.58
421.605	814.2
421.982	834.09
422.358	821.43
422.735	847.87
423.111	839.06
423.488	860.3
423.864	870.25
424.241	868.89
424.617	885.16
424.994	894.88
425.37	881.32
425.746	915.67
426.123	900.75
426.499	931.49
426.875	932.62
427.251	940.75
427.627	947.53
428.003	962.22
428.379	957.02
428.756	973.97
429.132	988.21
429.507	998.83
429.883	1020.07
430.259	1040.64
430.635	1042.22
431.011	1058.49
431.387	1081.77
431.763	1088.09
432.138	1075.21
432.514	1103.91
432.89	1104.82
433.265	1133.06
433.641	1112.27
434.016	1131.71
434.392	1160.41
434.767	1194.3
435.143	1177.36
435.518	1198.6
435.894	1193.63
436.269	1233.85
436.644	1241.76
437.02	1230.24
437.395	1262.33
437.77	1275.88
438.145	1284.25
438.52	1284.25
438.895	1285.15
439.271	1304.58
439.646	1347.52
440.021	1315.21
440.395	1333.51
440.77	1337.58
441.145	1374.19
441.52	1393.62
441.895	1396.56
442.27	1386.16
442.645	1371.7
443.019	1421.42
443.394	1410.34
443.769	1425.03
444.143	1415.99
444.518	1427.07
444.892	1438.14
445.267	1485.37
445.641	1438.82
446.016	1471.13
446.39	1495.09
446.764	1460.74
447.139	1481.53
447.513	1513.84
447.887	1508.87
448.262	1531.25
448.636	1539.61
449.01	1571.24
449.384	1565.14
449.758	1568.98
450.132	1595.88
450.506	1604.92
450.88	1617.57
451.254	1632.26
451.628	1637.46
452.002	1658.02
452.376	1657.57
452.75	1674.74
453.123	1691.92
453.497	1752.71
453.871	1740.73
454.244	1763.78
454.618	1800.62
454.992	1799.71
455.365	1815.31
455.739	1831.8
456.112	1843.1
456.486	1884
456.859	1894.85
457.232	1896.21
457.606	1923.33
457.979	1925.58
458.352	1979.14
458.725	1992.93
459.099	2010.78
459.472	2071.8
459.845	2085.58
460.218	2099.82
460.591	2113.6
460.964	2133.26
461.337	2183.21
461.71	2192.02
462.083	2246.03
462.456	2230.21
462.829	2247.38
463.201	2289.64
463.574	2310.66
463.947	2328.29
464.32	2393.37
464.692	2372.58
465.065	2394.5
465.438	2455.06
465.81	2461.62
466.183	2506.36
466.555	2552.69
466.928	2574.61
467.3	2550.43
467.672	2606.7
468.045	2660.48
468.417	2671.33
468.789	2700.93
469.161	2723.08
469.534	2759.24
469.906	2851.44
470.278	2841.49
470.65	2882.85
471.022	2929.17
471.394	2987.03
471.766	3043.3
472.138	3034.26
472.51	3078.77
472.882	3126.01
473.253	3171.88
473.625	3219.79
473.997	3279.22
474.369	3293.91
474.74	3337.07
475.112	3380.01
475.484	3406.45
475.855	3461.59
476.227	3500.23
476.598	3614.35
476.97	3644.64
477.341	3730.51
477.713	3793.33
478.084	3832.43
478.455	3886.66
478.827	3936.15
479.198	4055.25
479.569	4048.02
479.94	4123.49
480.311	4141.8
480.682	4227.9
481.053	4373.43
481.424	4415.69
481.795	4476.48
482.166	4517.16
482.537	4636.02
482.908	4701.33
483.279	4698.39
483.65	4752.63
484.021	4838.28
484.391	4890.93
484.762	4997.14
485.133	5014.77
485.503	5080.98
485.874	5176.57
486.244	5267.19
486.615	5371.14
486.985	5401.2
487.356	5497.02
487.726	5578.37
488.097	5657.24
488.467	5619.73
488.837	5754.18
489.207	5831.47
489.578	5883.9
489.948	5930.9
490.318	6035.31
490.688	6067.62
491.058	6108.75
491.428	6242.31
491.798	6243.21
492.168	6398.69
492.538	6449.31
492.908	6504.45
493.278	6638.46
493.648	6591.45
494.017	6618.34
494.387	6776.76
494.757	6829.41
495.126	6868.28
495.496	6985.56
495.866	6968.84
496.235	7073.7
496.605	7123.41
496.974	7199.12
497.344	7193.02
497.713	7273.47
498.082	7309.85
498.452	7443.63
498.821	7428.49
499.19	7398.21
499.559	7568.37
499.928	7606.11
500.298	7687.02
500.667	7742.38
501.036	7685.43
501.405	7792.32
501.774	7767.47
502.143	7934.01
502.512	7951.19
502.88	7986.22
503.249	8032.54
503.618	8102.6
503.987	8117.74
504.356	8225.76
504.724	8257.62
505.093	8308.02
505.462	8288.36
505.83	8374.23
506.199	8452.87
506.567	8553.89
506.936	8556.82
507.304	8695.35
507.672	8751.17
508.041	8704.16
508.409	8781.9
508.777	8852.86
509.145	9003.14
509.514	8927.43
509.882	9001.33
510.25	9045.85
510.618	9119.29
510.986	9229.35
511.354	9267.76
511.722	9341.44
512.09	9426.86
512.458	9472.28
512.826	9480.64
513.193	9602.67
513.561	9614.65
513.929	9682.67
514.297	9768.77
514.664	9780.52
515.032	9905.49
515.4	9985.26
515.767	10038.14
516.135	10101.19
516.502	10042.66
516.869	10291.01
517.237	10308.87
517.604	10263.44
517.972	10420.95
518.339	10467.06
518.706	10525.81
519.073	10625.7
519.44	10695.98
519.808	10761.74
520.175	10829.31
520.542	10993.14
520.909	11012.35
521.276	11058.45
521.643	11204.44
522.009	11252.8
522.376	11314.94
522.743	11381.61
523.11	11475.62
523.477	11623.86
523.843	11617.08
524.21	11771.65
524.577	11791.09
524.943	11898.43
525.31	12029.05
525.676	12168.25
526.043	12178.65
526.409	12262.94
526.776	12401.92
527.142	12371.41
527.508	12495.48
527.874	12544.97
528.241	12669.48
528.607	12709.26
528.973	12818.18
529.339	12781.34
529.705	12999.42
530.071	13049.36
530.437	13145.85
530.803	13185.85
531.169	13399.18
531.535	13310.37
531.901	13356.24
532.267	13440.76
532.632	13507.2
532.998	13624.49
533.364	13620.87
533.73	13647.99
534.095	13778.83
534.461	13936.34
534.826	13923.46
535.192	13954.42
535.557	14116.68
535.923	14010.46
536.288	14135.21
536.653	14287.75
537.019	14170.46
537.384	14267.63
537.749	14385.82
538.114	14434.86
538.479	14447.97
538.845	14502.2
539.21	14533.62
539.575	14614.97
539.94	14624.91
540.305	14766.83
540.67	14685.7
541.034	14735.42
541.399	14888.63
541.764	14918.01
542.129	15032.36
542.494	14994.62
542.858	14971.34
543.223	15047.73
543.587	15200.26
543.952	15081.17
544.316	15096.76
544.681	15237.55
545.045	15325.91
545.41	15442.97
545.774	15344.44
546.138	15435.74
546.503	15458.79
546.867	15464.44
547.231	15643.42
547.595	15783.53
547.959	15812.45
548.324	15848.38
548.688	15915.5
549.052	15838.21
549.416	15910.08
549.779	15879.57
550.143	15985.33
550.507	16141.93
550.871	16218.99
551.235	16147.58
551.599	16288.6
551.962	16324.75
552.326	16327.24
552.689	16481.81
553.053	16423.96
553.417	16439.55
553.78	16721.35
554.143	16641.13
554.507	16786.66
554.87	16719.55
555.234	16983.95
555.597	16838.87
555.96	16997.28
556.323	17093.32
556.686	17162.7
557.05	17180.78
557.413	17284.96
557.776	17336.48
558.139	17401.11
558.502	17454.22
558.865	17522.91
559.228	17598.39
559.59	17726.07
559.953	17808.11
560.316	17904.15
560.679	17847.2
561.041	18011.26
561.404	18065.5
561.767	18209.9
562.129	18118.83
562.492	18321.99
562.854	18418.26
563.217	18418.94
563.579	18537.35
563.941	18561.76
564.304	18670
564.666	18778.25
565.028	18806.05
565.39	18805.14
565.753	18907.06
566.115	18982.54
566.477	19140.73
566.839	19068.86
567.201	19206.26
567.563	19391.57
567.925	19427.95
568.287	19309.31
568.648	19426.14
569.01	19504.56
569.372	19621.84
569.734	19629.3
570.095	19877.2
570.457	19913.59
570.819	19901.16
571.18	20039.91
571.542	20107.03
571.903	20101.6
572.265	20105.67
572.626	20227.93
572.987	20275.16
573.349	20368.94
573.71	20352.22
574.071	20437.87
574.432	20404.42
574.794	20643.74
575.155	20504.08
575.516	20497.75
575.877	20495.27
576.238	20557.86
576.599	20745.2
576.96	20599.67
577.32	20669.72
577.681	20849.61
578.042	20895.71
578.403	20939.1
578.763	20975.71
579.124	20986.33
579.485	21144.97
579.845	21119.43
580.206	21057.51
580.566	21000.11
580.927	21040.11
581.287	21187.23
581.648	21084.4
582.008	21118.3
582.368	21199.88
582.728	21245.75
583.089	21200.33
583.449	21196.72
583.809	21169.15
584.169	21181.12
584.529	21052.54
584.889	21350.61
585.249	21168.69
585.609	21182.03
585.969	21160.33
586.329	21203.27
586.688	21196.49
587.048	21163.72
587.408	21229.71
587.768	21214.57
588.127	21181.35
588.487	21126.21
588.846	21242.82
589.206	21099.77
589.565	20999.21
589.925	21347.9
590.284	21220.9
590.643	21193.78
591.003	21090.5
591.362	21331.63
591.721	21125.31
592.08	21232.42
592.44	21234.91
592.799	21258.18
593.158	21333.66
593.517	21260.44
593.876	21450.04
594.235	21405.98
594.593	21247.56
594.952	21379.31
595.311	21322.82
595.67	21327.56
596.029	21470.38
596.387	21414.79
596.746	21462.47
597.104	21329.14
597.463	21374.11
597.822	21450.72
598.18	21261.57
598.538	21341.8
598.897	21580.89
599.255	21387.22
599.613	21717.83
599.972	21451.85
600.33	21505.18
600.688	21409.37
601.046	21567.1
601.404	21659.53
601.762	21554.67
602.12	21697.72
602.478	21696.14
602.836	21819.53
603.194	21664.27
603.552	21643.94
603.91	21625.63
604.268	21749.47
604.625	21596.71
604.983	21683.03
605.341	21511.96
605.698	21590.15
606.056	21696.59
606.413	21663.15
606.771	21745.18
607.128	21796.25
607.485	21732.07
607.843	21646.42
608.2	21879.41
608.557	21924.83
608.914	21898.85
609.272	21905.85
609.629	21962.35
609.986	22044.83
610.343	21926.87
610.7	22121.21
611.057	22069.69
611.414	22173.41
611.771	22113.53
612.127	22116.01
612.484	22113.75
612.841	22264.94
613.198	22192.85
613.554	22288.21
613.911	22341.32
614.267	22269.23
614.624	22352.62
614.98	22234.88
615.337	22277.82
615.693	22296.8
616.05	22189.91
616.406	22322.11
616.762	22322.56
617.118	22259.74
617.475	22319.17
617.831	22446.63
618.187	22572.5
618.543	22483.01
618.899	22751.7
619.255	22604.14
619.611	22670.35
619.967	22646.17
620.323	22659.96
620.678	22582.67
621.034	22590.35
621.39	22478.26
621.746	22520.75
622.101	22741.76
622.457	22460.86
622.812	22646.62
623.168	22706.06
623.523	22708.54
623.879	22657.02
624.234	22524.37
624.589	22552.84
624.945	22673.74
625.3	22645.72
625.655	22666.96
626.01	22571.82
626.365	22559.84
626.72	22571.37
627.075	22623.8
627.43	22489.34
627.785	22615.89
628.14	22699.05
628.495	22508.09
628.85	22537.25
629.205	22542.9
629.559	22703.34
629.914	22426.29
630.269	22446.85
630.623	22567.53
630.978	22425.84
631.332	22452.95
631.687	22531.14
632.041	22536.57
632.396	22567.98
632.75	22432.62
633.104	22309
633.459	22293.19
633.813	22254.32
634.167	22155.11
634.521	22134.09
634.875	22224.26
635.229	22079.63
635.583	22017.49
635.937	21964.15
636.291	21911.27
636.645	21891.61
636.999	21890.03
637.352	21919.18
637.706	21891.84
638.06	21936.13
638.413	21907.21
638.767	21885.29
639.121	21759.87
639.474	21651.85
639.828	21728.45
640.181	21664.5
640.534	21711.73
640.888	21695.69
641.241	21491.17
641.594	21580.44
641.947	21631.51
642.301	21480.78
642.654	21503.6
643.007	21469.93
643.36	21291.4
643.713	21522.58
644.066	21526.65
644.419	21368.01
644.771	21282.36
645.124	21071.97
645.477	21025.42
645.83	20977.74
646.182	20780.46
646.535	20718.54
646.888	20723.28
647.24	20667.24
647.593	20693.91
647.945	20586.79
648.298	20500.69
648.65	20473.57
649.002	20436.06
649.355	20476.74
649.707	20529.84
650.059	20639.22
650.411	20900
650.763	20993.78
651.115	21104.74
651.467	21064.52
651.819	20972.54
652.171	20894.8
652.523	20839.66
652.875	20800.57
653.227	20770.74
653.578	20949.27
653.93	20833.11
654.282	20788.82
654.633	20645.09
654.985	20733
655.337	20588.37
655.688	20713.79
656.039	20676.05
656.391	20597.86
656.742	20675.6
657.094	20595.38
657.445	20723.51
657.796	20748.82
658.147	20620.91
658.498	20597.41
658.849	20623.85
659.2	20726.45
659.551	20627.01
659.902	20653.45
660.253	20538.2
660.604	20629.05
660.955	20463.18
661.306	20499.79
661.656	20410.07
662.007	20429.51
662.358	20384.31
662.708	20353.8
663.059	20474.48
663.409	20349.06
663.76	20501.82
664.11	20539.78
664.461	20477.64
664.811	20496.62
665.161	20445.32
665.511	20297.08
665.862	20301.82
666.212	20341.82
666.562	20318.55
666.912	20293.69
667.262	20309.96
667.612	20258.44
667.962	20266.57
668.312	20151.32
668.662	20349.51
669.011	20163.75
669.361	20069.51
669.711	20065.9
670.06	20037.43
670.41	19966.01
670.76	19958.33
671.109	20128.5
671.459	20095.73
671.808	20120.13
672.157	20122.39
672.507	19874.27
672.856	19914.72
673.205	19950.2
673.554	19986.58
673.904	19943.64
674.253	19979.57
674.602	19830.2
674.951	19519.47
675.3	19550.88
675.649	19861.84
675.998	19820.26
676.346	19855.73
676.695	20053.24
677.044	19791.78
677.393	19871.1
677.741	19789.3
678.09	19777.32
678.438	19644.89
678.787	19806.47
679.135	19649.86
679.484	19625.46
679.832	19680.82
680.181	19526.93
680.529	19646.93
680.877	19540.49
681.225	19589.98
681.573	19596.08
681.922	19426.59
682.27	19399.93
682.618	19434.96
682.966	19361.74
683.314	19278.8
683.661	19291.68
684.009	19067.06
684.357	19051.24
684.705	18999.03
685.053	19179.82
685.4	19127.39
685.748	19069.99
686.095	19020.5
686.443	18964.23
686.79	18820.96
687.138	18902.31
687.485	18825.03
687.832	18740.06
688.18	18791.36
688.527	18661.64
688.874	18621.42
689.221	18573.96
689.568	18553.4
689.915	18572.6
690.262	18521.08
690.609	18374.64
690.956	18343.23
691.303	18235.66
691.65	18263.69
691.997	18178.04
692.344	18079.51
692.69	18079.06
693.037	18037.93
693.383	18062.11
693.73	18078.61
694.077	18011.94
694.423	18051.71
694.769	17970.13
695.116	17824.83
695.462	17861.44
695.808	17715.23
696.155	17794.32
696.501	17583.7
696.847	17710.48
697.193	17623.03
697.539	17689.24
697.885	17455.12
698.231	17384.39
698.577	17333.77
698.923	17347.33
699.269	17279.53
699.614	17195.92
699.96	17280.89
700.306	17234.79
700.651	17034.79
700.997	16993.89
701.342	17018.07
701.688	16898.98
702.033	16878.86
702.379	16913.21
702.724	16943.5
703.069	16893.33
703.415	16708.47
703.76	16627.8
704.105	16751.18
704.45	16686.55
704.795	16529.04
705.14	16560
705.485	16629.83
705.83	16454.92
706.175	16462.38
706.52	16434.81
706.865	16298.09
707.209	16372.21
707.554	16212.67
707.899	16302.16
708.243	16208.37
708.588	16149.84
708.932	16065.1
709.277	16059.22
709.621	16160.92
709.966	16002.5
710.31	16128.83
710.654	15871.43
710.998	15902.17
711.342	15897.42
711.687	15751.89
712.031	15686.81
712.375	15617.65
712.719	15610.2
713.063	15569.75
713.407	15630.08
713.75	15492.23
714.094	15454.95
714.438	15369.3
714.782	15465.34
715.125	15438.68
715.469	15442.52
715.812	15352.8
716.156	15177.67
716.499	15291.79
716.843	15270.32
717.186	15101.06
717.53	15187.84
717.873	15356.64
718.216	15245.69
718.559	15164.11
718.902	15075.52
719.246	15118.23
719.589	15053.15
719.932	15025.35
720.275	15106.48
720.617	14912.81
720.96	14911.68
721.303	14881.63
721.646	14804.34
721.989	14831.91
722.331	14794.17
722.674	14831.46
723.016	14841.4
723.359	14624.91
723.701	14798.24
724.044	14704.68
724.386	14570.9
724.729	14612.93
725.071	14530.9
725.413	14510.56
725.755	14495.65
726.097	14492.71
726.439	14299.5
726.782	14307.63
727.124	14392.83
727.465	14368.65
727.807	14453.62
728.149	14304.24
728.491	14338.59
728.833	14359.83
729.175	14270.12
729.516	14167.3
729.858	14209.78
730.199	14305.82
730.541	14195.54
730.882	14167.3
731.224	14151.03
731.565	14077.81
731.906	14061.09
732.248	14097.47
732.589	13958.49
732.93	13973.4
733.271	14063.8
733.612	13987.41
733.953	14064.47
734.294	13953.29
734.635	13870.13
734.976	14020.63
735.317	13893.63
735.658	13857.93
735.999	13775.44
736.339	13720.76
736.68	13751.94
737.021	13710.59
737.361	13631.49
737.702	13707.42
738.042	13661.1
738.383	13700.19
738.723	13716.69
739.063	13556.69
739.404	13612.51
739.744	13530.03
740.084	13510.37
740.424	13640.08
740.764	13552.62
741.104	13546.52
741.444	13419.29
741.784	13380.88
742.124	13426.53
742.464	13389.24
742.804	13395.57
743.143	13352.18
743.483	13312.63
743.823	13269.69
744.162	13322.57
744.502	13387.2
744.841	13275.57
745.181	13343.82
745.52	13315.79
745.86	13237.83
746.199	13224.04
746.538	13153.76
746.877	13183.14
747.216	13006.42
747.556	13065.86
747.895	13060.66
748.234	13112.64
748.573	13062.92
748.911	12973.66
749.25	12955.35
749.589	12936.59
749.928	12866.09
750.267	12946.99
750.605	12871.51
750.944	12825.86
751.283	12846.2
751.621	12849.82
751.96	12821.57
752.298	12781.34
752.636	12766.88
752.975	12666.55
753.313	12646.88
753.651	12682.36
753.989	12567.79
754.327	12533.22
754.666	12474.69
755.004	12553.78
755.342	12519.66
755.679	12452.31
756.017	12303.84
756.355	12278.08
756.693	12280.11
757.031	12245.54
757.368	12238.53
757.706	12298.42
758.044	12238.99
758.381	12287.8
758.719	12238.08
759.056	12167.12
759.394	12075.6
759.731	12040.8
760.068	11928.26
760.405	11943.85
760.743	11963.06
761.08	11845.32
761.417	11829.28
761.754	11831.54
762.091	11890.75
762.428	11836.28
762.765	11661.83
763.102	11743.41
763.438	11687.59
763.775	11553.13
764.112	11648.27
764.449	11601.71
764.785	11544.09
765.122	11396.75
765.458	11417.99
765.795	11464.77
766.131	11353.81
766.467	11405.11
766.804	11289.63
767.14	11178.45
767.476	11162.18
767.812	11135.06
768.148	11150.2
768.485	11128.28
768.821	11136.87
769.157	11067.49
769.492	10991.34
769.828	11073.59
770.164	10918.12
770.5	10845.58
770.836	10834.73
771.171	10825.01
771.507	10823.2
771.842	10725.35
772.178	10649.88
772.513	10707.5
772.849	10598.13
773.184	10611.68
773.519	10563.55
773.855	10580.05
774.19	10462.08
774.525	10408.98
774.86	10470.22
775.195	10379.15
775.53	10368.07
775.865	10376.89
776.2	10327.62
776.535	10203.79
776.87	10212.37
777.205	10223.67
777.539	10187.29
777.874	10142.54
778.209	10062.55
778.543	10088.53
778.878	9988.42
779.212	9993.17
779.547	9886.28
779.881	9877.47
780.215	9833.85
780.55	9700.52
780.884	9660.3
781.218	9679.51
781.552	9691.26
781.886	9612.16
782.22	9609.9
782.554	9544.14
782.888	9416.24
783.222	9396.8
783.556	9364.49
783.889	9404.48
784.223	9435.44
784.557	9397.93
784.89	9383.69
785.224	9329.91
785.557	9320.42
785.891	9321.32
786.224	9190.48
786.558	9150.93
786.891	9140.54
787.224	9142.34
787.557	9134.66
787.891	9106.87
788.224	9130.14
788.557	9079.97
788.89	9037.49
789.223	9073.19
789.556	9001.11
789.888	8985.51
790.221	8968.79
790.554	8858.06
790.887	8846.31
791.219	8772.86
791.552	8742.35
791.884	8632.75
792.217	8651.74
792.549	8573.32
792.882	8584.17
793.214	8532.87
793.546	8601.79
793.879	8546.43
794.211	8530.16
794.543	8519.99
794.875	8451.06
795.207	8515.47
795.539	8423.95
795.871	8421.23
796.203	8349.14
796.535	8349.82
796.867	8275.93
797.198	8220.11
797.53	8218.75
797.862	8140.79
798.193	8221.01
798.525	8148.47
798.856	8135.14
799.188	8043.16
799.519	8112.54
799.85	8016.72
800.182	8035.93
800.513	8028.93
800.844	7977.4
801.175	8038.19
801.506	7972.43
801.837	7970.17
802.168	7895.15
802.499	7875.03
802.83	7832.1
803.161	7873
803.491	7794.36
803.822	7786.22
804.153	7677.52
804.483	7668.03
804.814	7575.15
805.145	7600.46
805.475	7670.97
805.805	7689.73
806.136	7599.79
806.466	7633.68
806.796	7649.5
807.126	7584.19
807.457	7592.78
807.787	7572.89
808.117	7456.29
808.447	7509.17
808.777	7538.09
809.107	7462.16
809.436	7462.39
809.766	7444.31
810.096	7355.72
810.426	7326.12
810.755	7308.27
811.085	7314.14
811.414	7306.91
811.744	7167.71
812.073	7218.1
812.403	7254.48
812.732	7165.9
813.061	7205.22
813.39	7130.65
813.719	7133.81
814.049	7198.67
814.378	7122.06
814.707	7121.15
815.036	7102.17
815.365	7119.57
815.693	6984.43
816.022	6980.82
816.351	7022.85
816.68	6964.77
817.008	7014.49
817.337	6859.92
817.665	6918.67
817.994	6926.13
818.322	6893.14
818.651	6826.93
818.979	6851.56
819.307	6895.62
819.636	6805
819.964	6770.66
820.292	6834.16
820.62	6754.84
820.948	6781.5
821.276	6804.33
821.604	6781.95
821.932	6822.18
822.259	6822.41
822.587	6809.75
822.915	6741.05
823.243	6828.73
823.57	6788.28
823.898	6799.81
824.225	6781.73
824.553	6781.73
824.88	6802.29
825.207	6791.22
825.535	6806.59
825.862	6839.35
826.189	6784.67
826.516	6802.07
826.843	6820.15
827.17	6856.98
827.497	6841.61
827.824	6809.98
828.151	6777.43
828.478	6790.99
828.805	6783.31
829.131	6781.95
829.458	6764.78
829.785	6697.66
830.111	6767.27
830.438	6818.56
830.764	6810.2
831.09	6771.11
831.417	6756.64
831.743	6772.69
832.069	6785.34
832.395	6701.5
832.722	6707.38
833.048	6725.46
833.374	6745.12
833.7	6696.53
834.026	6730.66
834.351	6700.6
834.677	6638.46
835.003	6744.22
835.329	6671.67
835.654	6737.21
835.98	6664.9
836.306	6645.46
836.631	6696.53
836.956	6586.48
837.282	6652.47
837.607	6543.32
837.932	6544.67
838.258	6546.71
838.583	6522.07
838.908	6565.01
839.233	6623.54
839.558	6549.64
839.883	6541.28
840.208	6512.81
840.533	6524.56
840.858	6486.37
841.182	6525.01
841.507	6514.62
841.832	6452.25
842.156	6452.47
842.481	6452.47
842.805	6419.7
843.13	6456.77
843.454	6430.33
843.778	6396.43
844.103	6423.32
844.427	6393.94
844.751	6333.15
845.075	6352.81
845.399	6336.32
845.723	6347.62
846.047	6306.03
846.371	6291.57
846.695	6295.19
847.019	6262.87
847.343	6203.89
847.666	6148.52
847.99	6139.49
848.313	6113.95
848.637	6086.83
848.96	6123.21
849.284	6025.14
849.607	5992.14
849.931	6007.74
850.254	5997.12
850.577	5911.02
850.9	5886.84
851.223	5897.01
851.546	5875.99
851.869	5818.82
852.192	5881.19
852.515	5807.74
852.838	5740.17
853.161	5737.24
853.483	5718.93
853.806	5679.61
854.129	5684.81
854.451	5671.93
854.774	5664.02
855.096	5634.41
855.419	5641.65
855.741	5636
856.063	5627.18
856.385	5607.52
856.708	5539.73
857.03	5568.65
857.352	5551.7
857.674	5559.61
857.996	5500.86
858.318	5476.9
858.64	5478.26
858.961	5473.29
859.283	5476.23
859.605	5441.42
859.926	5458.6
860.248	5412.27
860.57	5381.54
860.891	5391.71
861.212	5373.63
861.534	5337.92
861.855	5406.4
862.176	5394.19
862.498	5391.26
862.819	5367.75
863.14	5342.44
863.461	5335.44
863.782	5305.38
864.103	5286.17
864.424	5239.17
864.745	5305.84
865.065	5257.02
865.386	5289.79
865.707	5238.94
866.027	5260.64
866.348	5215.22
866.668	5210.24
866.989	5215.22
867.309	5173.64
867.63	5192.62
867.95	5240.3
868.27	5174.09
868.59	5153.3
868.91	5158.72
869.23	5113.52
869.55	5197.82
869.87	5184.93
870.19	5155.1
870.51	5143.35
870.83	5136.35
871.15	5124.82
871.469	5118.72
871.789	5103.35
872.109	5110.81
872.428	5093.86
872.748	5038.27
873.067	5086.18
873.386	5024.71
873.706	5069.68
874.025	5010.48
874.344	4991.72
874.663	4970.48
874.982	4988.78
875.301	4988.56
875.62	4955.56
875.939	4929.12
876.258	4948.33
876.577	4950.82
876.896	4907.2
877.214	4860.2
877.533	4891.16
877.852	4954.88
878.17	4947.43
878.489	4978.39
878.807	4941.55
879.125	4876.92
879.444	4906.75
879.762	4872.4
880.08	4879.41
880.398	4857.03
880.716	4860.42
881.034	4847.77
881.352	4838.95
881.67	4797.15
881.988	4806.41
882.306	4776.13
882.624	4794.21
882.941	4815.45
883.259	4819.52
883.577	4779.52
883.894	4780.88
884.212	4735.45
884.529	4790.59
884.846	4729.35
885.164	4753.53
885.481	4719.18
885.798	4709.47
886.115	4653.2
886.432	4629.02
886.75	4670.82
887.067	4586.08
887.383	4606.19
887.7	4623.59
888.017	4520.32
888.334	4596.7
888.651	4581.33
888.967	4544.5
889.284	4571.84
889.6	4508.34
889.917	4494.1
890.233	4507.21
890.55	4491.62
890.866	4535.46
891.182	4482.81
891.498	4498.85
891.815	4478.29
892.131	4475.57
892.447	4472.41
892.763	4433.99
893.079	4466.99
893.395	4417.04
893.71	4431.96
894.026	4373.2
894.342	4403.94
894.657	4361
894.973	4342.92
895.289	4319.19
895.604	4299.53
895.92	4296.82
896.235	4271.74
896.55	4306.77
896.865	4276.03
897.181	4292.98
897.496	4273.55
897.811	4214.11
898.126	4191.29
898.441	4203.04
898.756	4149.48
899.071	4193.1
899.386	4146.77
899.7	4142.02
900.015	4133.44
900.33	4141.35
900.644	4120.56
900.959	4097.05
901.273	4067.45
901.588	4079.2
901.902	4087.79
902.216	4116.49
902.531	4040.78
902.845	4080.56
903.159	4007.79
903.473	3961.69
903.787	3945.87
904.101	3985.19
904.415	3967.34
904.729	3926.44
905.042	3925.53
905.356	3878.98
905.67	3898.41
905.984	3862.26
906.297	3877.4
906.611	3829.49
906.924	3851.86
907.237	3827.46
907.551	3821.81
907.864	3789.26
908.177	3829.94
908.491	3786.55
908.804	3750.85
909.117	3743.62
909.43	3732.09
909.743	3738.42
910.056	3645.54
910.368	3711.75
910.681	3668.82
910.994	3622.72
911.307	3617.52
911.619	3600.57
911.932	3618.65
912.244	3646.44
912.557	3588.37
912.869	3601.93
913.181	3582.26
913.494	3593.11
913.806	3518.31
914.118	3508.14
914.43	3504.3
914.742	3524.86
915.054	3472.89
915.366	3478.09
915.678	3465.88
915.99	3391.31
916.302	3430.4
916.613	3378.88
916.925	3403.96
917.236	3431.08
917.548	3360.12
917.859	3369.39
918.171	3359.45
918.482	3303.18
918.794	3332.1
919.105	3304.53
919.416	3284.19
919.727	3267.92
920.038	3279.22
920.349	3282.16
920.66	3244.87
920.971	3218.21
921.282	3264.53
921.593	3200.81
921.903	3159.45
922.214	3187.02
922.525	3162.84
922.835	3145.67
923.146	3154.25
923.456	3164.2
923.767	3130.53
924.077	3082.39
924.387	3085.55
924.697	3057.08
925.008	3078.77
925.318	3065.89
925.628	3010.08
925.938	3042.62
926.248	2992.22
926.558	3012.11
926.867	3021.15
927.177	3006.91
927.487	2979.12
927.796	2953.35
928.106	2940.7
928.416	2948.61
928.725	2937.08
929.034	2889.85
929.344	2909.51
929.653	2889.4
929.962	2840.59
930.271	2835.39
930.581	2822.96
930.89	2867.03
931.199	2854.37
931.508	2826.13
931.817	2818.22
932.125	2812.12
932.434	2799.23
932.743	2775.73
933.051	2769.86
933.36	2728.95
933.669	2735.28
933.977	2730.76
934.286	2745
934.594	2687.15
934.902	2676.07
935.21	2682.4
935.519	2669.07
935.827	2712.68
936.135	2669.75
936.443	2672.91
936.751	2657.32
937.059	2645.57
937.367	2628.39
937.674	2594.72
937.982	2641.95
938.29	2554.27
938.597	2609.86
938.905	2558.11
939.213	2578.9
939.52	2574.16
939.827	2570.31
940.135	2571.22
940.442	2519.69
940.749	2513.82
941.056	2498.45
941.363	2502.52
941.67	2482.41
941.977	2456.42
942.284	2451.22
942.591	2439.02
942.898	2443.09
943.205	2433.37
943.511	2390.88
943.818	2395.4
944.125	2393.6
944.431	2401.73
944.738	2381.17
945.044	2381.17
945.35	2345.23
945.657	2350.66
945.963	2319.47
946.269	2327.83
946.575	2366.7
946.881	2295.74
947.187	2320.38
947.493	2283.09
947.799	2288.97
948.105	2295.29
948.41	2253.03
948.716	2277.67
949.022	2243.54
949.327	2230.21
949.633	2222.75
949.938	2228.18
950.244	2221.85
950.549	2207.84
950.854	2194.96
951.16	2175.52
951.465	2150.44
951.77	2166.26
952.075	2167.39
952.38	2152.7
952.685	2135.52
952.99	2166.71
953.294	2142.75
953.599	2152.25
953.904	2099.82
954.209	2079.71
954.513	2084.22
954.818	2099.37
955.122	2054.62
955.426	2039.48
955.731	2027.96
956.035	2016.2
956.339	2018.01
956.643	2035.41
956.948	2051.91
957.252	2023.66
957.556	2061.85
957.86	1977.34
958.163	2014.17
958.467	1987.73
958.771	1997.45
959.075	1981.18
959.378	1995.64
959.682	1958.8
959.985	1941.86
960.289	1949.99
960.592	1945.02
960.896	1953.83
961.199	1929.88
961.502	1923.33
961.805	1897.79
962.108	1917.9
962.411	1893.5
962.714	1864.57
963.017	1870.67
963.32	1867.51
963.623	1868.64
963.926	1881.97
964.228	1819.6
964.531	1828.41
964.833	1854.17
965.136	1815.76
965.438	1842.2
965.741	1813.95
966.043	1833.61
966.345	1789.77
966.648	1793.61
966.95	1752.93
967.252	1773.95
967.554	1752.26
967.856	1750.45
968.158	1752.03
968.46	1782.76
968.761	1726.49
969.063	1706.83
969.365	1699.83
969.666	1704.8
969.968	1697.57
970.269	1707.29
970.571	1706.83
970.872	1681.07
971.174	1695.53
971.475	1690.79
971.776	1658.7
972.077	1674.52
972.378	1680.62
972.679	1667.74
972.98	1670.22
973.281	1658.47
973.582	1617.57
973.883	1644.01
974.183	1608.98
974.484	1601.75
974.785	1627.06
975.085	1622.54
975.386	1617.8
975.686	1619.6
975.986	1574.18
976.287	1564.01
976.587	1572.83
976.887	1584.13
977.187	1564.24
977.487	1551.13
977.787	1568.08
978.087	1559.27
978.387	1535.76
978.687	1557.01
978.987	1550.23
979.286	1525.14
979.586	1516.33
979.885	1539.15
980.185	1481.3
980.484	1481.3
980.784	1476.56
981.083	1495.77
981.382	1503.68
981.682	1473.62
981.981	1491.47
982.28	1459.38
982.579	1452.38
982.878	1459.61
983.177	1449.44
983.475	1433.85
983.774	1419.61
984.073	1444.24
984.372	1424.58
984.67	1405.82
984.969	1405.82
985.267	1393.4
985.566	1397.69
985.864	1392.49
986.162	1389.1
986.461	1379.84
986.759	1409.44
987.057	1370.35
987.355	1377.58
987.653	1371.02
987.951	1329.67
988.249	1368.09
988.547	1353.17
988.844	1351.59
989.142	1342.55
989.44	1327.41
989.737	1298.26
990.035	1311.36
990.332	1292.61
990.63	1296.67
990.927	1332.38
991.224	1310.69
991.521	1286.96
991.819	1292.38
992.116	1306.84
992.413	1284.47
992.71	1275.88
993.006	1262.33
993.303	1272.27
993.6	1281.76
993.897	1263.46
994.193	1291.48
994.49	1260.74
994.787	1240.86
995.083	1194.53
995.379	1224.81
995.676	1233.4
995.972	1237.24
996.268	1188.88
996.565	1207.41
996.861	1191.59
997.157	1194.53
997.453	1193.17
997.749	1211.48
998.044	1174.19
998.34	1188.2
998.636	1169.67
998.932	1180.97
999.227	1174.64
999.523	1165.6
999.818	1166.73
1000.114	1145.49
1000.409	1146.17
1000.704	1137.13
1001	1119.96
1001.295	1097.13
1001.59	1134.87
1001.885	1101.43
1002.18	1105.95
1002.475	1102.78
1002.77	1076.57
1003.065	1086.06
1003.359	1108.43
1003.654	1102.33
1003.949	1097.36
1004.243	1086.28
1004.538	1065.04
1004.832	1082.22
1005.127	1067.98
1005.421	1064.59
1005.715	1049.22
1006.009	1034.31
1006.304	1023.69
1006.598	1049.45
1006.892	1046.06
1007.186	1018.72
1007.48	1020.52
1007.773	1025.04
1008.067	1028.89
1008.361	1030.69
1008.655	1002.9
1008.948	977.81
1009.242	1014.42
1009.535	985.5
1009.829	992.05
1010.122	973.75
1010.415	981.43
1010.708	955.21
1011.001	969.45
1011.295	964.03
1011.588	943.24
1011.881	940.75
1012.173	931.71
1012.466	948.21
1012.759	919.74
1013.052	928.32
1013.344	942.56
1013.637	934.88
1013.93	926.74
1014.222	930.58
1014.514	938.72
1014.807	884.03
1015.099	898.27
1015.391	908.21
1015.683	915.44
1015.976	884.03
1016.268	898.95
1016.56	876.57
1016.851	879.28
1017.143	877.25
1017.435	868.21
1017.727	866.86
1018.018	891.71
1018.31	846.97
1018.602	851.49
1018.893	823.69
1019.185	852.84
1019.476	863.24
1019.767	845.16
1020.058	806.29
1020.35	822.11
1020.641	817.14
1020.932	816.69
1021.223	795.9
1021.514	817.14
1021.804	788.21
1022.095	814.88
1022.386	762.45
1022.677	743.92
1022.967	792.51
1023.258	781.43
1023.548	800.64
1023.839	763.81
1024.129	789.12
1024.419	778.04
1024.709	782.56
1025	761.77
1025.29	760.64
1025.58	718.84
1025.87	772.62
1026.16	752.51
1026.449	764.03
1026.739	736.46
1027.029	728.33
1027.319	750.47
1027.608	748.21
1027.898	684.94
1028.187	703.92
1028.477	708.44
1028.766	720.19
1029.055	739.63
1029.344	688.78
1029.634	693.53
1029.923	689.69
1030.212	692.85
1030.501	693.53
1030.79	703.92
1031.078	698.27
1031.367	689.69
1031.656	699.63
1031.945	703.92
1032.233	674.54
1032.522	646.52
1032.81	664.6
1033.099	653.3
1033.387	657.6
1033.675	631.61
1033.963	655.11
1034.251	632.06
1034.54	651.95
1034.828	664.15
1035.116	645.62
1035.403	649.69
1035.691	623.7
1035.979	651.49
1036.267	629.57
1036.554	629.35
1036.842	625.73
1037.129	616.92
1037.417	609.46
1037.704	630.03
1037.992	607.43
1038.279	597.48
1038.566	603.36
1038.853	603.36
1039.14	603.36
