Data from black_metal_pc_casing_FLMS001491_00042.txt Node
Date: Wed Feb 08 14:32:45 GMT 2017
User: dcchb
Spectrometer: FLMS00149
Trigger mode: 0
Integration Time (sec): 2.000000E-2
Scans to average: 10
Electric dark correction enabled: true
Nonlinearity correction enabled: false
Boxcar width: 0
XAxis mode: Wavelengths
Number of Pixels in Spectrum: 2048
>>>>>Begin Spectral Data<<<<<
341.393	-34.98
341.776	-34.98
342.16	-34.98
342.543	-46.51
342.927	-60.3
343.31	-72.5
343.693	-68.43
344.077	-78.15
344.46	-65.72
344.843	-65.49
345.226	-41.99
345.61	-20.97
345.993	-5.38
346.376	1.4
346.759	5.47
347.142	41.62
347.525	27.61
347.908	56.54
348.291	82.98
348.674	103.32
349.057	99.7
349.44	115.07
349.823	148.06
350.206	172.69
350.588	174.73
350.971	183.09
351.354	212.69
351.737	227.83
352.119	231.45
352.502	241.39
352.884	253.37
353.267	265.35
353.65	285.46
354.032	279.13
354.414	311.67
354.797	300.37
355.179	308.73
355.562	293.59
355.944	308.51
356.326	318.45
356.709	320.49
357.091	334.95
357.473	301.96
357.855	330.66
358.238	315.74
358.62	336.76
359.002	322.97
359.384	292.46
359.766	339.47
360.148	324.55
360.53	329.75
360.912	332.69
361.294	321.39
361.676	304.89
362.057	314.61
362.439	320.26
362.821	313.25
363.203	318.9
363.584	291.11
363.966	317.1
364.348	297.21
364.729	315.51
365.111	301.5
365.493	301.96
365.874	296.08
366.256	290.66
366.637	286.59
367.019	282.75
367.4	289.53
367.781	298.79
368.163	313.48
368.544	305.12
368.925	289.75
369.306	307.15
369.688	304.44
370.069	291.79
370.45	307.6
370.831	295.18
371.212	287.94
371.593	298.79
371.974	293.37
372.355	286.14
372.736	292.69
373.117	291.79
373.498	313.71
373.879	304.22
374.26	302.18
374.641	285.46
375.021	339.24
375.402	306.93
375.783	315.97
376.163	314.84
376.544	313.48
376.925	319.58
377.305	313.93
377.686	303.99
378.066	312.35
378.447	322.29
378.827	313.03
379.208	316.42
379.588	319.13
379.968	322.75
380.349	309.41
380.729	307.15
381.109	319.13
381.489	307.83
381.87	324.78
382.25	334.95
382.63	318
383.01	314.16
383.39	322.75
383.77	326.81
384.15	348.51
384.53	325.68
384.91	325.46
385.29	326.59
385.67	337.89
386.049	327.94
386.429	328.85
386.809	351.22
387.189	327.04
387.568	367.72
387.948	331.11
388.328	365.23
388.707	339.92
389.087	346.25
389.466	350.09
389.846	358.45
390.225	347.83
390.605	361.84
390.984	355.29
391.363	357.55
391.743	351.9
392.122	351.67
392.501	336.98
392.881	362.52
393.26	350.54
393.639	384.21
394.018	379.47
394.397	366.13
394.776	364.1
395.155	357.1
395.534	384.89
395.913	370.43
396.292	381.95
396.671	398.68
397.05	372.91
397.429	360.26
397.808	388.28
398.186	374.5
398.565	400.48
398.944	374.5
399.323	375.4
399.701	400.48
400.08	383.08
400.458	371.78
400.837	405
401.215	423.99
401.594	406.36
401.972	403.65
402.351	390.09
402.729	398.68
403.107	410.88
403.486	407.26
403.864	386.02
404.242	382.18
404.62	408.85
404.999	402.29
405.377	412.23
405.755	421.5
406.133	425.57
406.511	404.1
406.889	409.3
407.267	430.77
407.645	402.07
408.023	416.08
408.401	431.9
408.779	412.91
409.156	424.21
409.534	423.08
409.912	419.01
410.29	442.74
410.667	436.42
411.045	441.84
411.422	460.37
411.8	429.64
412.178	454.04
412.555	463.76
412.933	455.17
413.31	459.92
413.687	470.54
414.065	485.23
414.442	475.06
414.819	465.34
415.197	481.16
415.574	474.15
415.951	490.88
416.328	487.04
416.705	487.26
417.082	502.4
417.46	503.31
417.837	486.81
418.214	510.31
418.591	475.28
418.967	504.44
419.344	521.61
419.721	506.02
420.098	511.89
420.475	511.89
420.852	511.67
421.228	522.97
421.605	506.47
421.982	541.27
422.358	529.75
422.735	548.73
423.111	531.1
423.488	534.49
423.864	544.43
424.241	554.6
424.617	534.49
424.994	543.98
425.37	561.38
425.746	559.8
426.123	559.8
426.499	569.52
426.875	570.2
427.251	566.13
427.627	588.73
428.003	585.11
428.379	591.21
428.756	578.11
429.132	585.34
429.507	600.7
429.883	623.98
430.259	614.26
430.635	597.77
431.011	570.42
431.387	626.47
431.763	621.95
432.138	644.09
432.514	619.01
432.89	617.65
433.265	670.08
433.641	691.78
434.016	647.93
434.392	656.52
434.767	660.14
435.143	685.45
435.518	680.02
435.894	695.17
436.269	695.39
436.644	712.79
437.02	720.93
437.395	705.11
437.77	723.87
438.145	693.36
438.52	715.73
438.895	710.98
439.271	721.38
439.646	743.75
440.021	745.79
440.395	735.16
440.77	738.1
441.145	780.59
441.52	744.88
441.895	772.23
442.27	741.49
442.645	749.18
443.019	781.72
443.394	777.2
443.769	769.97
444.143	763.86
444.518	783.07
444.892	805.44
445.267	799.8
445.641	807.7
446.016	821.26
446.39	815.61
446.764	818.1
447.139	812.68
447.513	831.88
447.887	810.19
448.262	802.96
448.636	848.83
449.01	841.6
449.384	848.61
449.758	844.77
450.132	837.99
450.506	853.81
450.88	854.26
451.254	881.6
451.628	848.61
452.002	876.63
452.376	883.63
452.75	902.39
453.123	906.23
453.497	934.26
453.871	922.96
454.244	939.9
454.618	945.78
454.992	936.74
455.365	952.56
455.739	963.86
456.112	963.18
456.486	967.25
456.859	981.71
457.232	988.04
457.606	974.71
457.979	1033.01
458.352	1000.02
458.725	1057.64
459.099	1009.96
459.472	1045.44
459.845	1066.68
460.218	1050.41
460.591	1087.92
460.964	1078.21
461.337	1095.61
461.71	1122.95
462.083	1120.92
462.456	1130.86
462.829	1132.22
463.201	1146.68
463.574	1153.23
463.947	1167.7
464.32	1181.48
464.692	1185.1
465.065	1191.42
465.438	1223.74
465.81	1215.83
466.183	1232.55
466.555	1248.82
466.928	1259.67
467.3	1239.56
467.672	1238.43
468.045	1325.43
468.417	1286.34
468.789	1300.57
469.161	1307.58
469.534	1333.11
469.906	1367.24
470.278	1385.32
470.65	1379.22
471.022	1393
471.394	1428.93
471.766	1438.65
472.138	1463.05
472.51	1488.14
472.882	1498.31
473.253	1492.43
473.625	1537.18
473.997	1564.97
474.369	1583.5
474.74	1576.95
475.112	1607.46
475.484	1654.24
475.855	1669.83
476.227	1680.9
476.598	1679.55
476.97	1715.7
477.341	1748.24
477.713	1760.9
478.084	1776.72
478.455	1795.48
478.827	1813.55
479.198	1858.75
479.569	1879.77
479.94	1925.87
480.311	1958.63
480.682	1932.87
481.053	2027.33
481.424	2036.82
481.795	2046.99
482.166	2070.95
482.537	2108.46
482.908	2136.71
483.279	2134.9
483.65	2196.14
484.021	2249.02
484.391	2265.29
484.762	2252.86
485.133	2283.82
485.503	2319.76
485.874	2345.07
486.244	2391.17
486.615	2439.75
486.985	2447.89
487.356	2513.42
487.726	2519.75
488.097	2541.9
488.467	2583.7
488.837	2611.95
489.207	2652.63
489.578	2681.78
489.948	2676.13
490.318	2731.72
490.688	2771.95
491.058	2741.21
491.428	2761.55
491.798	2812.4
492.168	2889.46
492.538	2915.22
492.908	2948.21
493.278	2978.27
493.648	2963.58
494.017	3003.58
494.387	3011.49
494.757	3042.67
495.126	3058.04
495.496	3064.37
495.866	3116.57
496.235	3121.99
496.605	3170.13
496.974	3208.77
497.344	3214.2
497.713	3222.78
498.082	3272.95
498.452	3318.6
498.821	3274.08
499.19	3334.87
499.559	3331.71
499.928	3383.46
500.298	3416.68
500.667	3432.04
501.036	3441.76
501.405	3438.6
501.774	3447.86
502.143	3500.06
502.512	3533.06
502.88	3523.79
503.249	3528.54
503.618	3530.12
503.987	3611.25
504.356	3618.93
504.724	3648.99
505.093	3640.4
505.462	3663.9
505.83	3657.8
506.199	3716.33
506.567	3780.51
506.936	3787.51
507.304	3815.31
507.672	3829.32
508.041	3876.78
508.409	3822.99
508.777	3880.84
509.145	3925.59
509.514	3917.23
509.882	3952.25
510.25	3966.72
510.618	4020.05
510.986	3988.41
511.354	4028.19
511.722	4106.6
512.09	4138.24
512.458	4126.71
512.826	4178.69
513.193	4148.18
513.561	4206.49
513.929	4249.42
514.297	4266.37
514.664	4327.84
515.032	4331
515.4	4359.48
515.767	4360.83
516.135	4396.76
516.502	4399.7
516.869	4467.5
517.237	4490.55
517.604	4449.19
517.972	4540.71
518.339	4563.31
518.706	4592.46
519.073	4607.6
519.44	4646.47
519.808	4667.04
520.175	4681.95
520.542	4704.78
520.909	4775.96
521.276	4792.46
521.643	4836.98
522.009	4827.49
522.376	4935.05
522.743	4923.3
523.11	4996.52
523.477	4998.56
523.843	5052.79
524.21	5044.43
524.577	5154.94
524.943	5206.01
525.31	5196.29
525.676	5263.18
526.043	5208.27
526.409	5333.91
526.776	5370.52
527.142	5306.8
527.508	5377.75
527.874	5440.13
528.241	5441.71
528.607	5509.73
528.973	5571.2
529.339	5520.35
529.705	5580.91
530.071	5610.06
530.437	5694.36
530.803	5689.61
531.169	5711.76
531.535	5732.32
531.901	5721.93
532.267	5833.34
532.632	5820.23
532.998	5836.05
533.364	5843.73
533.73	5886.89
534.095	5955.37
534.461	5935.71
534.826	5977.29
535.192	5981.58
535.557	6003.73
535.923	6005.53
536.288	6069.94
536.653	6108.58
537.019	6085.08
537.384	6099.99
537.749	6208.24
538.114	6165.98
538.479	6159.65
538.845	6214.12
539.21	6199.43
539.575	6241.91
539.94	6263.38
540.305	6326.43
540.67	6328.46
541.034	6423.38
541.399	6358.52
541.764	6402.13
542.129	6422.7
542.494	6418.86
542.858	6446.2
543.223	6434.9
543.587	6503.83
543.952	6497.05
544.316	6486.2
544.681	6498.18
545.045	6601.22
545.41	6573.43
545.774	6569.81
546.138	6590.38
546.503	6645.07
546.867	6677.61
547.231	6702.92
547.595	6730.03
547.959	6708.34
548.324	6782.46
548.688	6799.86
549.052	6777.94
549.416	6778.4
549.779	6842.57
550.143	6818.39
550.507	6870.37
550.871	6953.98
551.235	6952.4
551.599	6948.33
551.962	6957.6
552.326	6988.33
552.689	7016.81
553.053	7006.86
553.417	7055.45
553.78	7112.17
554.143	7099.74
554.507	7143.81
554.87	7169.12
555.234	7243.47
555.597	7193.75
555.96	7242.56
556.323	7269.23
556.686	7259.51
557.05	7350.58
557.413	7393.52
557.776	7369.79
558.139	7451.6
558.502	7483.69
558.865	7495.89
559.228	7539.73
559.59	7594.42
559.953	7625.83
560.316	7667.19
560.679	7646.85
561.041	7690.91
561.404	7764.81
561.767	7762.78
562.129	7723.23
562.492	7898.59
562.854	7847.75
563.217	7821.53
563.579	7932.49
563.941	7983.56
564.304	8011.36
564.666	7982.21
565.028	8066.5
565.39	8086.84
565.753	8168.64
566.115	8166.61
566.477	8230.79
566.839	8184.91
567.201	8251.8
567.563	8272.59
567.925	8353.72
568.287	8314.17
568.648	8322.31
569.01	8443.44
569.372	8452.48
569.734	8426.94
570.095	8458.13
570.457	8466.03
570.819	8532.93
571.18	8512.36
571.542	8611.12
571.903	8609.53
572.265	8668.97
572.626	8647.72
572.987	8656.99
573.349	8693.83
573.71	8687.72
574.071	8707.61
574.432	8754.61
574.794	8824.44
575.155	8841.39
575.516	8797.55
575.877	8812.92
576.238	8827.15
576.599	8872.8
576.96	8926.36
577.32	8918.45
577.681	8904.22
578.042	9015.85
578.403	8943.76
578.763	8931.33
579.124	8946.93
579.485	8988.51
579.845	8984.66
580.206	8990.99
580.566	8982.63
580.927	9068.05
581.287	9108.28
581.648	9029.86
582.008	9087.49
582.368	9070.99
582.728	9128.39
583.089	9063.53
583.449	9091.55
583.809	9149.63
584.169	9090.88
584.529	9035.29
584.889	9119.12
585.249	9073.02
585.609	9080.03
585.969	9166.58
586.329	9079.8
586.688	9150.31
587.048	9066.02
587.408	9101.95
587.768	9153.93
588.127	9123.87
588.487	9102.85
588.846	9209.74
589.206	9077.32
589.565	9169.07
589.925	9199.12
590.284	9178.11
590.643	9175.62
591.003	9152.12
591.362	9206.58
591.721	9143.53
592.08	9278.44
592.44	9255.39
592.799	9161.38
593.158	9161.84
593.517	9153.47
593.876	9233.47
594.235	9224.88
594.593	9194.83
594.952	9298.78
595.311	9236.64
595.67	9259.69
596.029	9253.36
596.387	9258.78
596.746	9293.81
597.104	9240.25
597.463	9245
597.822	9273.92
598.18	9265.11
598.538	9235.05
598.897	9254.26
599.255	9233.47
599.613	9388.95
599.972	9277.54
600.33	9294.94
600.688	9258.1
601.046	9319.35
601.404	9326.8
601.762	9362.06
602.12	9343.07
602.478	9339.91
602.836	9392.34
603.194	9357.76
603.552	9387.37
603.91	9385.56
604.268	9341.04
604.625	9433.92
604.983	9427.37
605.341	9341.27
605.698	9382.62
606.056	9447.7
606.413	9404.31
606.771	9419.91
607.128	9465.78
607.485	9351.21
607.843	9419.46
608.2	9391.66
608.557	9572.67
608.914	9529.74
609.272	9566.34
609.629	9562.5
609.986	9534.71
610.343	9552.56
610.7	9548.94
611.057	9558.66
611.414	9501.04
611.771	9568.83
612.127	9658.32
612.484	9670.07
612.841	9598.89
613.198	9660.81
613.554	9569.51
613.911	9644.76
614.267	9672.56
614.624	9709.62
614.98	9721.59
615.337	9722.27
615.693	9677.3
616.05	9694.48
616.406	9755.94
616.762	9699.9
617.118	9685.66
617.475	9754.81
617.831	9744.64
618.187	9769.28
618.543	9785.32
618.899	9780.35
619.255	9864.87
619.611	9800.69
619.967	9880.91
620.323	9829.16
620.678	9781.03
621.034	9786.45
621.39	9795.94
621.746	9776.51
622.101	9864.87
622.457	9787.13
622.812	9771.76
623.168	9812.89
623.523	9778.77
623.879	9872.1
624.234	9786
624.589	9859.44
624.945	9884.08
625.3	9865.55
625.655	9874.81
626.01	9845.43
626.365	9894.02
626.72	9824.64
627.075	9844.76
627.43	9807.02
627.785	9766.57
628.14	9835.94
628.495	9774.7
628.85	9748.71
629.205	9725.44
629.559	9866.22
629.914	9781.48
630.269	9786.45
630.623	9803.17
630.978	9741.03
631.332	9758.88
631.687	9771.76
632.041	9719.56
632.396	9827.13
632.75	9751.2
633.104	9769.05
633.459	9684.53
633.813	9704.65
634.167	9679.11
634.521	9739.22
634.875	9652.22
635.229	9672.56
635.583	9613.8
635.937	9566.34
636.291	9602.05
636.645	9598.43
636.999	9554.14
637.352	9602.05
637.706	9557.31
638.06	9566.12
638.413	9499
638.767	9550.98
639.121	9547.59
639.474	9540.13
639.828	9495.84
640.181	9583.29
640.534	9470.98
640.888	9431.21
641.241	9441.15
641.594	9459
641.947	9432.34
642.301	9412.45
642.654	9378.55
643.007	9417.2
643.36	9393.24
643.713	9369.97
644.066	9429.17
644.419	9356.86
644.771	9229.4
645.124	9213.59
645.477	9185.56
645.83	9183.08
646.182	9090.2
646.535	9094.27
646.888	9105.11
647.24	8993.48
647.593	9123.64
647.945	9072.12
648.298	8972.69
648.65	8981.73
649.002	9023.08
649.355	9014.04
649.707	9056.98
650.059	9042.52
650.411	9132.23
650.763	9141.04
651.115	9207.03
651.467	9181.04
651.819	9180.82
652.171	9169.07
652.523	9109.18
652.875	9142.63
653.227	9086.58
653.578	9155.96
653.93	9122.29
654.282	9105.11
654.633	9015.85
654.985	9068.5
655.337	9114.6
655.688	9082.06
656.039	9097.88
656.391	9004.33
656.742	9115.28
657.094	8988.28
657.445	9082.29
657.796	9128.62
658.147	9098.56
658.498	9084.78
658.849	9113.7
659.2	9054.95
659.551	9016.08
659.902	9068.5
660.253	9061.73
660.604	8999.58
660.955	8915.06
661.306	9009.07
661.656	8945.12
662.007	8984.44
662.358	9008.39
662.708	9008.39
663.059	9020.6
663.409	8990.54
663.76	8982.18
664.11	8983.53
664.461	8940.82
664.811	8922.75
665.161	9005.91
665.511	8982.86
665.862	8945.57
666.212	9014.04
666.562	8930.2
666.912	8932.24
667.262	8984.44
667.612	8961.39
667.962	8994.83
668.312	8910.09
668.662	8920.03
669.011	8938.11
669.361	8834.16
669.711	8901.96
670.06	8893.37
670.41	8919.81
670.76	8860.15
671.109	8866.7
671.459	8868.28
671.808	8875.52
672.157	8916.19
672.507	8812.47
672.856	8874.84
673.205	8860.15
673.554	8857.66
673.904	8836.65
674.253	8821.51
674.602	8818.79
674.951	8752.81
675.3	8700.6
675.649	8915.06
675.998	8748.74
676.346	8818.34
676.695	8811.56
677.044	8774.27
677.393	8817.66
677.741	8713.71
678.09	8764.56
678.438	8733.37
678.787	8706.03
679.135	8692.92
679.484	8719.14
679.832	8746.48
680.181	8675.07
680.529	8716.65
680.877	8678.46
681.225	8602.08
681.573	8694.95
681.922	8648.85
682.27	8626.03
682.618	8564.79
682.966	8640.27
683.314	8578.57
683.661	8567.27
684.009	8586.94
684.357	8498.12
684.705	8500.16
685.053	8549.42
685.4	8488.41
685.748	8448.63
686.095	8473.04
686.443	8404.57
686.79	8413.83
687.138	8450.44
687.485	8397.11
687.832	8356.88
688.18	8426.49
688.527	8376.77
688.874	8305.36
689.221	8266.72
689.568	8319.82
689.915	8289.77
690.262	8272.14
690.609	8269.43
690.956	8198.47
691.303	8195.53
691.65	8214.74
691.997	8114.41
692.344	8100.17
692.69	8089.1
693.037	8117.34
693.383	8003.67
693.73	8055.65
694.077	8031.02
694.423	8027.18
694.769	7985.6
695.116	7996.22
695.462	7997.35
695.808	7914.18
696.155	7950.79
696.501	7912.38
696.847	7856.11
697.193	7776.34
697.539	7891.81
697.885	7816.11
698.231	7800.52
698.577	7770.01
698.923	7818.59
699.269	7704.92
699.614	7717.13
699.96	7714.87
700.306	7717.58
700.651	7683
700.997	7653.17
701.342	7684.59
701.688	7612.27
702.033	7611.37
702.379	7606.4
702.724	7600.97
703.069	7564.36
703.415	7472.61
703.76	7522.1
704.105	7460.41
704.45	7493.18
704.795	7389.9
705.14	7391.94
705.485	7408.21
705.83	7375.22
706.175	7350.36
706.52	7358.94
706.865	7319.62
707.209	7285.95
707.554	7324.14
707.899	7296.35
708.243	7268.1
708.588	7275.78
708.932	7232.62
709.277	7217.48
709.621	7264.94
709.966	7210.47
710.31	7232.17
710.654	7150.36
710.998	7146.75
711.342	7139.74
711.687	7146.3
712.031	7057.94
712.375	7109.01
712.719	7068.33
713.063	7059.97
713.407	7132.51
713.75	7059.52
714.094	7042.34
714.438	7015.68
714.782	7004.15
715.125	6971.38
715.469	6937.71
715.812	6929.13
716.156	6972.29
716.499	6971.84
716.843	6933.87
717.186	6891.39
717.53	6940.65
717.873	6928.22
718.216	6923.25
718.559	6874.66
718.902	6829.69
719.246	6857.04
719.589	6820.65
719.932	6813.2
720.275	6747.89
720.617	6737.94
720.96	6811.84
721.303	6779.98
721.646	6769.36
721.989	6737.49
722.331	6764.16
722.674	6737.72
723.016	6694.1
723.359	6706.98
723.701	6721.45
724.044	6669.7
724.386	6626.31
724.729	6635.12
725.071	6667.21
725.413	6650.26
725.755	6651.62
726.097	6594.9
726.439	6568.68
726.782	6561.23
727.124	6638.06
727.465	6573.88
727.807	6584.73
728.149	6528.91
728.491	6541.57
728.833	6533.43
729.175	6525.52
729.516	6463.6
729.858	6499.08
730.199	6514
730.541	6463.38
730.882	6509.25
731.224	6445.3
731.565	6444.84
731.906	6486.2
732.248	6485.07
732.589	6436.94
732.93	6409.59
733.271	6407.56
733.612	6352.19
733.953	6403.04
734.294	6378.41
734.635	6368.69
734.976	6394.45
735.317	6306.54
735.658	6369.14
735.999	6374.56
736.339	6341.12
736.68	6341.12
737.021	6265.64
737.361	6339.54
737.702	6297.73
738.042	6240.78
738.383	6242.14
738.723	6323.27
739.063	6227.9
739.404	6263.61
739.744	6278.52
740.084	6166.66
740.424	6200.11
740.764	6184.74
741.104	6200.11
741.444	6191.07
741.784	6150.84
742.124	6143.16
742.464	6194.91
742.804	6154.68
743.143	6156.04
743.483	6162.37
743.823	6158.98
744.162	6070.17
744.502	6098.64
744.841	6130.05
745.181	6148.36
745.52	6029.49
745.86	6098.87
746.199	6073.1
746.538	6038.3
746.877	6071.3
747.216	6080.56
747.556	6066.32
747.895	6013.9
748.234	6006.21
748.573	6004.18
748.911	5944.07
749.25	6003.73
749.589	5988.36
749.928	5949.72
750.267	5906.78
750.605	5958.76
750.944	5932.77
751.283	5907.68
751.621	5908.36
751.96	5892.54
752.298	5899.32
752.636	5863.17
752.975	5817.06
753.313	5834.24
753.651	5832.21
753.989	5796.5
754.327	5818.42
754.666	5800.12
755.004	5779.1
755.342	5783.62
755.679	5772.55
756.017	5697.97
756.355	5732.77
756.693	5644.19
757.031	5744.75
757.368	5708.37
757.706	5710.17
758.044	5696.62
758.381	5678.99
758.719	5647.13
759.056	5627.47
759.394	5599.22
759.731	5566.45
760.068	5636.28
760.405	5549.05
760.743	5527.81
761.08	5557.86
761.417	5523.51
761.754	5531.42
762.091	5518.77
762.428	5533.91
762.765	5446
763.102	5486.23
763.438	5426.34
763.775	5476.06
764.112	5427.02
764.449	5427.24
764.785	5400.8
765.122	5387.7
765.458	5373.01
765.795	5350.18
766.131	5331.43
766.467	5295.04
766.804	5277.19
767.14	5276.29
767.476	5231.09
767.812	5261.6
768.148	5245.55
768.485	5223.41
768.821	5218.44
769.157	5204.2
769.492	5173.24
769.828	5143.18
770.164	5129.63
770.5	5124.2
770.836	5068.16
771.171	5085.11
771.507	5075.84
771.842	5055.05
772.178	5053.47
772.513	5058.67
772.849	5033.36
773.184	5005.79
773.519	4980.25
773.855	4960.82
774.19	4965.79
774.525	4921.27
774.86	4887.6
775.195	4905.68
775.53	4881.95
775.865	4875.17
776.2	4865.45
776.535	4820.71
776.87	4841.72
777.205	4810.31
777.539	4769.41
777.874	4778.22
778.209	4775.74
778.543	4748.39
778.878	4677.21
779.212	4709.75
779.547	4667.26
779.881	4662.29
780.215	4623.88
780.55	4663.87
780.884	4658
781.218	4611.45
781.552	4603.31
781.886	4628.62
782.22	4596.31
782.554	4565.57
782.888	4528.06
783.222	4466.82
783.556	4504.1
783.889	4467.27
784.223	4442.19
784.557	4430.43
784.89	4454.16
785.224	4417.1
785.557	4408.06
785.891	4382.3
786.224	4409.42
786.558	4370.32
786.891	4348.4
787.224	4349.98
787.557	4296.65
787.891	4280.16
788.224	4244.9
788.557	4298.69
788.89	4246.48
789.223	4311.57
789.556	4251.23
789.888	4243.09
790.221	4173.49
790.554	4166.26
790.887	4192.7
791.219	4207.39
791.552	4125.58
791.884	4147.5
792.217	4143.89
792.549	4109.76
792.882	4096.21
793.214	4096.43
793.546	4094.17
793.879	4045.13
794.211	4016.89
794.543	4058.24
794.875	4034.51
795.207	4076.55
795.539	4018.92
795.871	4008.52
796.203	4002.2
796.535	3960.62
796.867	3933.72
797.198	3957.9
797.53	3946.15
797.862	3890.79
798.193	3905.48
798.525	3926.49
798.856	3901.18
799.188	3855.99
799.519	3854.4
799.85	3831.58
800.182	3839.94
800.513	3866.83
800.844	3815.08
801.175	3821.18
801.506	3731.7
801.837	3777.12
802.168	3763.56
802.499	3771.47
802.83	3731.7
803.161	3683.56
803.491	3743.22
803.822	3772.37
804.153	3712.04
804.483	3669.78
804.814	3676.56
805.145	3677.01
805.475	3691.92
805.805	3670
806.136	3651.25
806.466	3652.38
806.796	3649.66
807.126	3625.03
807.457	3617.57
807.787	3608.08
808.117	3637.46
808.447	3570.57
808.777	3602.43
809.107	3580.74
809.436	3573.73
809.766	3578.48
810.096	3513.62
810.426	3524.7
810.755	3555.66
811.085	3554.98
811.414	3529.67
811.744	3540.29
812.073	3512.94
812.403	3499.61
812.732	3516.56
813.061	3484.7
813.39	3463.23
813.719	3447.18
814.049	3467.3
814.378	3470.46
814.707	3441.53
815.036	3480.4
815.365	3424.59
815.693	3425.26
816.022	3397.47
816.351	3424.59
816.68	3371.93
817.008	3432.49
817.337	3367.64
817.665	3322.44
817.994	3358.15
818.322	3336
818.651	3306.85
818.979	3295.55
819.307	3351.14
819.636	3329.67
819.964	3324.7
820.292	3284.93
820.62	3336.45
820.948	3288.54
821.276	3306.17
821.604	3276.57
821.932	3305.72
822.259	3281.54
822.587	3343.68
822.915	3306.85
823.243	3301.65
823.57	3243.12
823.898	3302.78
824.225	3277.24
824.553	3262.56
824.88	3270.46
825.207	3278.6
825.535	3292.39
825.862	3310.24
826.189	3273.63
826.516	3332.38
826.843	3277.24
827.17	3292.16
827.497	3257.36
827.824	3253.97
828.151	3300.07
828.478	3285.15
828.805	3289.9
829.131	3269.33
829.458	3254.19
829.785	3241.54
830.111	3260.07
830.438	3232.95
830.764	3264.59
831.09	3265.27
831.417	3253.52
831.743	3290.58
832.069	3260.52
832.395	3216.91
832.722	3304.14
833.048	3273.85
833.374	3288.77
833.7	3265.49
834.026	3272.5
834.351	3252.16
834.677	3235.44
835.003	3242.89
835.329	3311.59
835.654	3241.54
835.98	3217.13
836.306	3249.45
836.631	3233.86
836.956	3253.06
837.282	3198.15
837.607	3217.36
837.932	3179.85
838.258	3240.18
838.583	3176.91
838.908	3177.81
839.233	3213.07
839.558	3200.64
839.883	3176.23
840.208	3166.96
840.533	3158.15
840.858	3160.64
841.182	3169.9
841.507	3159.96
841.832	3123.12
842.156	3126.74
842.481	3138.04
842.805	3105.5
843.13	3105.27
843.454	3133.52
843.778	3084.93
844.103	3096.91
844.427	3113.18
844.751	3107.76
845.075	3104.37
845.399	3073.63
845.723	3059.85
846.047	3064.37
846.371	3074.09
846.695	3034.09
847.019	3002.9
847.343	2978.27
847.666	3019.85
847.99	2985.27
848.313	2979.85
848.637	2981.43
848.96	2951.6
849.284	2956.8
849.607	2950.93
849.931	2922.68
850.254	2932.39
850.577	2890.14
850.9	2893.98
851.223	2840.65
851.546	2901.44
851.869	2867.31
852.192	2874.09
852.515	2840.65
852.838	2834.09
853.161	2855.56
853.483	2816.92
853.806	2812.85
854.129	2784.38
854.451	2783.47
854.774	2790.03
855.096	2747.77
855.419	2799.97
855.741	2784.83
856.063	2748.44
856.385	2708.45
856.708	2752.96
857.03	2743.7
857.352	2728.33
857.674	2725.39
857.996	2710.93
858.318	2715.23
858.64	2714.77
858.961	2684.04
859.283	2684.94
859.605	2672.06
859.926	2670.25
860.248	2679.97
860.57	2655.79
860.891	2661.44
861.212	2623.7
861.534	2653.76
861.855	2653.98
862.176	2644.27
862.498	2651.27
862.819	2629.13
863.14	2648.56
863.461	2597.04
863.782	2623.7
864.103	2616.92
864.424	2628.9
864.745	2614.89
865.065	2601.56
865.386	2578.73
865.707	2564.95
866.027	2612.4
866.348	2598.62
866.668	2609.24
866.989	2597.04
867.309	2559.3
867.63	2568.79
867.95	2566.3
868.27	2549.58
868.59	2564.95
868.91	2536.92
869.23	2562.69
869.55	2517.94
869.87	2562.01
870.19	2526.08
870.51	2511.39
870.83	2514.1
871.15	2499.19
871.469	2526.53
871.789	2532.41
872.109	2556.59
872.428	2515.91
872.748	2525.63
873.067	2509.58
873.386	2499.64
873.706	2518.17
874.025	2458.06
874.344	2467.55
874.663	2483.14
874.982	2463.03
875.301	2483.59
875.62	2478.17
875.939	2479.75
876.258	2479.3
876.577	2489.24
876.896	2500.77
877.214	2469.81
877.533	2491.28
877.852	2448.11
878.17	2484.5
878.489	2458.28
878.807	2449.7
879.125	2427.78
879.444	2467.32
879.762	2440.43
880.08	2430.49
880.398	2424.16
880.716	2432.07
881.034	2420.54
881.352	2395.23
881.67	2408.11
881.988	2405.18
882.306	2428.45
882.624	2416.02
882.941	2376.7
883.259	2370.6
883.577	2420.32
883.894	2397.72
884.212	2394.78
884.529	2392.3
884.846	2361.11
885.164	2362.01
885.481	2359.98
885.798	2361.56
886.115	2334.9
886.432	2338.29
886.75	2330.38
887.067	2316.14
887.383	2315.46
887.7	2347.1
888.017	2307.55
888.334	2289.93
888.651	2318.85
888.967	2309.36
889.284	2280.66
889.6	2292.41
889.917	2298.51
890.233	2264.62
890.55	2263.94
890.866	2296.48
891.182	2244.96
891.498	2231.17
891.815	2242.47
892.131	2253.54
892.447	2247.21
892.763	2228.01
893.079	2228.46
893.395	2188.23
893.71	2234.79
894.026	2235.92
894.342	2196.59
894.657	2224.84
894.973	2207.22
895.289	2217.39
895.604	2183.04
895.92	2214.9
896.235	2135.13
896.55	2146.43
896.865	2133.09
897.181	2183.94
897.496	2158.86
897.811	2118.4
898.126	2127.44
898.441	2128.35
898.756	2110.27
899.071	2136.26
899.386	2122.47
899.7	2102.81
900.015	2108.01
900.33	2089.93
900.644	2073.43
900.959	2075.47
901.273	2050.61
901.588	2041.8
901.902	2055.58
902.216	2050.84
902.531	2008.58
902.845	2039.54
903.159	2030.95
903.473	2039.99
903.787	2028.69
904.101	2015.13
904.415	1982.36
904.729	1984.62
905.042	2002.93
905.356	1962.48
905.67	2003.38
905.984	1966.54
906.297	1974
906.611	1989.59
906.924	1940.78
907.237	1933.32
907.551	1943.27
907.864	1906.66
908.177	1921.57
908.491	1917.51
908.804	1947.79
909.117	1923.16
909.43	1907.79
909.743	1895.59
910.056	1884.96
910.368	1868.47
910.681	1878.64
910.994	1846.1
911.307	1891.97
911.619	1844.51
911.932	1874.12
912.244	1839.32
912.557	1844.97
912.869	1858.52
913.181	1822.37
913.494	1833.67
913.806	1780.11
914.118	1801.8
914.43	1783.05
914.742	1800.67
915.054	1808.58
915.366	1793.67
915.678	1758.41
915.99	1800.67
916.302	1778.53
916.613	1777.17
916.925	1776.27
917.236	1747.57
917.548	1750.05
917.859	1773.33
918.171	1743.95
918.482	1723.39
918.794	1721.81
919.105	1743.27
919.416	1735.36
919.727	1703.5
920.038	1716.16
920.349	1685.2
920.66	1686.78
920.971	1694.91
921.282	1693.33
921.593	1685.42
921.903	1668.93
922.214	1672.77
922.525	1644.29
922.835	1635.71
923.146	1652.43
923.456	1628.93
923.767	1634.12
924.077	1626.67
924.387	1626.44
924.697	1627.12
925.008	1597.97
925.318	1599.32
925.628	1617.85
925.938	1605.88
926.248	1574.24
926.558	1589.15
926.867	1580.79
927.177	1577.63
927.487	1576.27
927.796	1550.51
928.106	1560.45
928.416	1538.31
928.725	1520
929.034	1561.13
929.344	1545.09
929.653	1538.53
929.962	1524.75
930.271	1507.12
930.581	1500.57
930.89	1502.6
931.199	1490.17
931.508	1505.09
931.817	1489.27
932.125	1526.56
932.434	1486.56
932.743	1487.46
933.051	1444.98
933.36	1483.85
933.669	1444.07
933.977	1423.73
934.286	1461.25
934.594	1432.1
934.902	1447.91
935.21	1436.61
935.519	1437.74
935.827	1449.5
936.135	1400.91
936.443	1418.08
936.751	1415.6
937.059	1423.06
937.367	1353
937.674	1402.27
937.982	1396.62
938.29	1359.78
938.597	1391.64
938.905	1365.88
939.213	1355.71
939.52	1360.68
939.827	1369.5
940.135	1361.59
940.442	1373.34
940.749	1355.71
941.056	1343.06
941.363	1346.9
941.67	1331.08
941.977	1343.74
942.284	1360.91
942.591	1336.5
942.898	1315.49
943.205	1308.93
943.511	1301.48
943.818	1315.49
944.125	1302.38
944.431	1292.66
944.738	1280.46
945.044	1306.9
945.35	1289.05
945.657	1291.08
945.963	1275.26
946.269	1259.67
946.575	1256.28
946.881	1270.74
947.187	1261.7
947.493	1252.89
947.799	1268.48
948.105	1267.35
948.41	1250.18
948.716	1232.1
949.022	1219.67
949.327	1229.16
949.633	1209.05
949.938	1226.9
950.244	1220.8
950.549	1211.54
950.854	1199.56
951.16	1214.93
951.465	1223.96
951.77	1196.17
952.075	1191.65
952.38	1190.52
952.685	1171.76
952.99	1163.63
953.294	1173.57
953.599	1185.77
953.904	1153.46
954.209	1153.46
954.513	1161.37
954.818	1167.92
955.122	1148.26
955.426	1170.63
955.731	1146.68
956.035	1169.73
956.339	1162.27
956.643	1133.8
956.948	1129.96
957.252	1114.59
957.556	1115.95
957.86	1122.95
958.163	1126.34
958.467	1106.45
958.771	1106.45
959.075	1119.33
959.378	1117.98
959.682	1057.87
959.985	1084.31
960.289	1076.4
960.592	1069.84
960.896	1068.49
961.199	1072.33
961.502	1081.37
961.805	1095.15
962.108	1050.41
962.411	1056.06
962.714	1071.2
963.017	1074.36
963.32	1041.37
963.623	1043.4
963.926	1059.45
964.228	1030.07
964.531	1049.05
964.833	1055.61
965.136	1045.21
965.438	1037.76
965.741	1018.77
966.043	1033.69
966.345	1009.28
966.648	1015.16
966.95	1034.37
967.252	1008.38
967.554	990.07
967.856	996.85
968.158	1002.05
968.46	993.24
968.761	974.48
969.063	976.06
969.365	987.81
969.666	975.61
969.968	965.44
970.269	984.42
970.571	973.8
970.872	960.7
971.174	947.36
971.475	967.7
971.776	955.05
972.077	944.88
972.378	954.59
972.679	938.32
972.98	959.34
973.281	957.98
973.582	962.28
973.883	941.26
974.183	933.8
974.484	945.78
974.785	960.7
975.085	923.18
975.386	940.58
975.686	951.88
975.986	940.36
976.287	922.05
976.587	926.57
976.887	903.52
977.187	913.69
977.487	906.23
977.787	880.7
978.087	888.15
978.387	896.29
978.687	914.37
978.987	907.82
979.286	899.23
979.586	875.73
979.885	886.35
980.185	883.41
980.484	863.97
980.784	855.16
981.083	882.73
981.382	873.47
981.682	884.54
981.981	875.05
982.28	843.86
982.579	870.3
982.878	847.25
983.177	852.22
983.475	866.01
983.774	859.23
984.073	844.09
984.372	805.9
984.67	853.81
984.969	871.21
985.267	853.81
985.566	836.18
985.864	833.47
986.162	842.51
986.461	823.98
986.759	820.59
987.057	824.2
987.355	844.99
987.653	821.72
987.951	802.06
988.249	826.46
988.547	813.35
988.844	812.68
989.142	810.87
989.44	795.05
989.737	823.98
990.035	810.42
990.332	818.1
990.63	804.77
990.927	804.32
991.224	777.65
991.521	781.26
991.819	802.51
992.116	781.72
992.413	787.82
992.71	790.3
993.006	762.28
993.303	756.63
993.6	790.08
993.897	768.84
994.193	753.47
994.49	753.24
994.787	725.22
995.083	763.86
995.379	761.15
995.676	770.64
995.972	745.79
996.268	730.19
996.565	740.14
996.861	738.78
997.157	756.18
997.453	730.42
997.749	722.28
998.044	712.11
998.34	724.32
998.636	731.55
998.932	730.87
999.227	710.76
999.523	734.26
999.818	718.89
1000.114	721.83
1000.409	703.3
1000.704	731.1
1001	692.91
1001.295	687.03
1001.59	711.66
1001.885	714.15
1002.18	713.24
1002.475	690.87
1002.77	722.28
1003.065	675.73
1003.359	698.78
1003.654	706.92
1003.949	669.86
1004.243	673.92
1004.538	697.88
1004.832	669.86
1005.127	676.18
1005.421	679.35
1005.715	680.93
1006.009	656.52
1006.304	665.79
1006.598	658.1
1006.892	662.17
1007.186	652.45
1007.48	663.3
1007.773	660.59
1008.067	666.47
1008.361	674.6
1008.655	644.77
1008.948	651.55
1009.242	630.76
1009.535	665.56
1009.829	651.78
1010.122	622.62
1010.415	631.21
1010.708	639.35
1011.001	628.95
1011.295	645.22
1011.588	614.94
1011.881	647.93
1012.173	601.61
1012.466	611.1
1012.759	646.58
1013.052	628.27
1013.344	616.52
1013.637	610.65
1013.93	606.58
1014.222	610.65
1014.514	603.64
1014.807	598.22
1015.099	605.9
1015.391	612.68
1015.683	567.94
1015.976	599.57
1016.268	583.98
1016.56	594.6
1016.851	585.56
1017.143	589.41
1017.435	578.78
1017.727	586.92
1018.018	586.47
1018.31	584.66
1018.602	579.01
1018.893	583.08
1019.185	549.41
1019.476	543.98
1019.767	545.79
1020.058	570.87
1020.35	564.77
1020.641	558.9
1020.932	573.59
1021.223	559.12
1021.514	546.02
1021.804	536.75
1022.095	541.72
1022.386	539.01
1022.677	557.32
1022.967	546.69
1023.258	532.68
1023.548	558.45
1023.839	540.82
1024.129	543.08
1024.419	539.69
1024.709	548.95
1025	528.39
1025.29	528.84
1025.58	543.08
1025.87	544.66
1026.16	531.55
1026.449	542.85
1026.739	506.92
1027.029	537.66
1027.319	522.74
1027.608	504.89
1027.898	519.8
1028.187	517.09
1028.477	531.55
1028.766	511.67
1029.055	514.38
1029.344	524.55
1029.634	495.62
1029.923	496.3
1030.212	479.8
1030.501	514.15
1030.79	490.42
1031.078	464.89
1031.367	483.19
1031.656	487.04
1031.945	490.2
1032.233	506.02
1032.522	488.39
1032.81	469.63
1033.099	493.59
1033.387	476.87
1033.675	481.39
1033.963	458.79
1034.251	486.81
1034.54	476.41
1034.828	463.98
1035.116	506.02
1035.403	477.54
1035.691	482.29
1035.979	478.22
1036.267	459.01
1036.554	459.47
1036.842	452.69
1037.129	478.45
1037.417	454.95
1037.704	444.32
1037.992	438.9
1038.279	455.4
1038.566	455.17
1038.853	455.17
1039.14	455.17
