Data from black_metal_pc_casing_FLMS001491_00037.txt Node
Date: Wed Feb 08 14:32:35 GMT 2017
User: dcchb
Spectrometer: FLMS00149
Trigger mode: 0
Integration Time (sec): 2.000000E-2
Scans to average: 10
Electric dark correction enabled: true
Nonlinearity correction enabled: false
Boxcar width: 0
XAxis mode: Wavelengths
Number of Pixels in Spectrum: 2048
>>>>>Begin Spectral Data<<<<<
341.393	-10.07
341.776	-10.07
342.16	-10.07
342.543	-43.97
342.927	-65.21
343.31	-80.35
343.693	-73.57
344.077	-68.37
344.46	-43.29
344.843	-48.26
345.226	-46.45
345.61	-22.5
345.993	-12.1
346.376	-18.21
346.759	15.24
347.142	8.46
347.525	58.18
347.908	42.36
348.291	78.29
348.674	92.98
349.057	117.61
349.44	135.91
349.823	137.04
350.206	147.89
350.588	177.72
350.971	198.06
351.354	197.16
351.737	212.52
352.119	233.54
352.502	237.38
352.884	251.39
353.267	257.72
353.65	285.97
354.032	286.65
354.414	305.18
354.797	281.9
355.179	315.8
355.562	310.83
355.944	312.86
356.326	323.25
356.709	316.25
357.091	330.94
357.473	318.96
357.855	312.18
358.238	330.71
358.62	331.84
359.002	329.81
359.384	303.82
359.766	335.91
360.148	318.73
360.53	328
360.912	335.46
361.294	314.21
361.676	323.93
362.057	294.1
362.439	311.96
362.821	320.09
363.203	312.41
363.584	312.63
363.966	316.25
364.348	304.05
364.729	314.44
365.111	313.31
365.493	290.26
365.874	315.34
366.256	311.05
366.637	283.26
367.019	314.44
367.4	280.77
367.781	317.6
368.163	308.79
368.544	304.95
368.925	311.73
369.306	319.64
369.688	293.88
370.069	298.85
370.45	303.14
370.831	302.46
371.212	305.4
371.593	294.1
371.974	294.55
372.355	303.59
372.736	311.73
373.117	306.53
373.498	333.88
373.879	298.62
374.26	300.2
374.641	308.79
375.021	317.15
375.402	330.03
375.783	303.37
376.163	325.97
376.544	343.82
376.925	311.28
377.305	328.68
377.686	312.86
378.066	343.37
378.447	316.25
378.827	337.49
379.208	316.47
379.588	350.15
379.968	320.09
380.349	320.77
380.729	326.42
381.109	320.54
381.489	326.64
381.87	335.01
382.25	327.32
382.63	325.06
383.01	333.88
383.39	352.63
383.77	341.33
384.15	339.98
384.53	349.24
384.91	354.21
385.29	329.81
385.67	354.89
386.049	356.02
386.429	320.09
386.809	366.87
387.189	351.95
387.568	347.89
387.948	350.82
388.328	361.9
388.707	351.5
389.087	386.3
389.466	360.77
389.846	362.58
390.225	355.34
390.605	383.37
390.984	367.77
391.363	358.28
391.743	364.84
392.122	358.96
392.501	360.99
392.881	388.56
393.26	379.07
393.639	366.42
394.018	389.92
394.397	388.79
394.776	380.88
395.155	387.21
395.534	404.16
395.913	390.82
396.292	387.66
396.671	397.83
397.05	394.66
397.429	390.82
397.808	415.23
398.186	422.01
398.565	407.55
398.944	411.39
399.323	414.78
399.701	395.34
400.08	407.77
400.458	421.1
400.837	391.05
401.215	408
401.594	421.1
401.972	432.63
402.351	408.68
402.729	421.1
403.107	442.12
403.486	428.56
403.864	429.47
404.242	440.31
404.62	419.97
404.999	441.22
405.377	447.77
405.755	426.75
406.133	452.29
406.511	462.23
406.889	444.83
407.267	485.74
407.645	449.35
408.023	458.39
408.401	454.78
408.779	480.54
409.156	473.08
409.534	475.79
409.912	466.98
410.29	481.89
410.667	472.63
411.045	499.52
411.422	490.03
411.8	502.68
412.178	496.58
412.555	506.75
412.933	523.93
413.31	500.88
413.687	501.55
414.065	524.83
414.442	524.6
414.819	537.49
415.197	512.18
415.574	543.36
415.951	551.27
416.328	538.84
416.705	553.08
417.082	546.07
417.46	563.93
417.837	569.8
418.214	549.24
418.591	556.24
418.967	549.69
419.344	569.58
419.721	578.61
420.098	565.28
420.475	561.67
420.852	575.9
421.228	587.2
421.605	587.88
421.982	563.47
422.358	599.41
422.735	586.98
423.111	592.85
423.488	616.58
423.864	597.82
424.241	621.33
424.617	611.61
424.994	608.22
425.37	659.29
425.746	624.94
426.123	646.41
426.499	636.47
426.875	644.15
427.251	651.61
427.627	663.13
428.003	659.29
428.379	638.95
428.756	674.21
429.132	686.18
429.507	683.24
429.883	657.71
430.259	695
430.635	683.92
431.011	704.71
431.387	730.48
431.763	704.26
432.138	723.7
432.514	721.89
432.89	731.38
433.265	758.5
433.641	738.61
434.016	745.16
434.392	744.26
434.767	782.23
435.143	767.76
435.518	744.71
435.894	772.51
436.269	821.09
436.644	810.93
437.02	803.02
437.395	820.64
437.77	803.24
438.145	817.03
438.52	831.04
438.895	819.74
439.271	819.51
439.646	860.42
440.021	848.89
440.395	857.48
440.77	854.77
441.145	863.35
441.52	874.2
441.895	877.36
442.27	890.24
442.645	887.53
443.019	887.08
443.394	872.84
443.769	889.12
444.143	891.6
444.518	904.93
444.892	911.04
445.267	914.2
445.641	937.02
446.016	924.37
446.39	938.38
446.764	932.96
447.139	953.52
447.513	934.99
447.887	935.67
448.262	948.55
448.636	956.01
449.01	952.62
449.384	965.5
449.758	970.02
450.132	996.23
450.506	1007.76
450.88	995.55
451.254	1009.56
451.628	996.46
452.002	1009.11
452.376	1030.13
452.75	1054.53
453.123	1023.57
453.497	1039.17
453.871	1054.53
454.244	1072.84
454.618	1069.22
454.992	1084.82
455.365	1087.3
455.739	1126.17
456.112	1130.92
456.486	1138.15
456.859	1134.31
457.232	1188.09
457.606	1147.87
457.979	1187.41
458.352	1175.44
458.725	1212.5
459.099	1238.71
459.472	1215.66
459.845	1224.93
460.218	1233.96
460.591	1262.66
460.964	1250.01
461.337	1283.23
461.71	1302.21
462.083	1301.31
462.456	1312.61
462.829	1330.46
463.201	1346.05
463.574	1333.4
463.947	1362.77
464.32	1378.59
464.692	1380.18
465.065	1383.57
465.438	1419.04
465.81	1438.93
466.183	1463.79
466.555	1465.37
466.928	1482.09
467.3	1486.39
467.672	1498.36
468.045	1546.05
468.417	1526.61
468.789	1515.99
469.161	1565.48
469.534	1571.58
469.906	1641.86
470.278	1635.99
470.65	1647.51
471.022	1673.95
471.394	1691.35
471.766	1712.6
472.138	1717.79
472.51	1752.37
472.882	1774.74
473.253	1805.7
473.625	1796.44
473.997	1877.11
474.369	1875.98
474.74	1860.16
475.112	1907.62
475.484	1953.49
475.855	1968.86
476.227	1970.89
476.598	2034.85
476.97	1999.59
477.341	2052.02
477.713	2125.01
478.084	2113.26
478.455	2132.92
478.827	2186.71
479.198	2243.66
479.569	2224
479.94	2292.02
480.311	2308.74
480.682	2341.28
481.053	2406.14
481.424	2446.81
481.795	2470.32
482.166	2505.57
482.537	2520.03
482.908	2549.64
483.279	2579.24
483.65	2655.17
484.021	2712.57
484.391	2709.63
484.762	2687.94
485.133	2742.17
485.503	2805.67
485.874	2859.91
486.244	2859.01
486.615	2936.97
486.985	2902.4
487.356	2990.53
487.726	3017.65
488.097	3062.17
488.467	3068.04
488.837	3175.38
489.207	3143.75
489.578	3240.92
489.948	3197.98
490.318	3265.55
490.688	3283.18
491.058	3372.89
491.428	3379.9
491.798	3374.02
492.168	3477.3
492.538	3498.09
492.908	3499.44
493.278	3582.15
493.648	3611.53
494.017	3623.73
494.387	3613.79
494.757	3674.8
495.126	3751.86
495.496	3764.07
495.866	3771.53
496.235	3796.38
496.605	3776.95
496.974	3839.55
497.344	3881.8
497.713	3883.61
498.082	3922.71
498.452	3985.3
498.821	3991.18
499.19	4040.22
499.559	4051.97
499.928	4031.63
500.298	4108.92
500.667	4113.21
501.036	4120.89
501.405	4144.62
501.774	4197.95
502.143	4208.8
502.512	4221.46
502.88	4273.88
503.249	4236.6
503.618	4293.09
503.987	4321.79
504.356	4375.8
504.724	4370.38
505.093	4412.86
505.462	4428.91
505.83	4474.11
506.199	4484.5
506.567	4534.22
506.936	4533.31
507.304	4598.85
507.672	4612.63
508.041	4658.28
508.409	4727.66
508.777	4742.35
509.145	4756.81
509.514	4750.71
509.882	4863.02
510.25	4851.27
510.618	4924.26
510.986	4883.59
511.354	4898.28
511.722	4965.62
512.09	5002.91
512.458	5018.27
512.826	5049.01
513.193	5078.16
513.561	5081.77
513.929	5157.25
514.297	5173.52
514.664	5220.3
515.032	5227.53
515.4	5272.28
515.767	5346.62
516.135	5343.91
516.502	5355.89
516.869	5423.23
517.237	5453.06
517.604	5475.66
517.972	5514.98
518.339	5579.61
518.706	5589.56
519.073	5644.47
519.44	5657.8
519.808	5743.9
520.175	5733.73
520.542	5785.03
520.909	5836.56
521.276	5841.53
521.643	5926.5
522.009	5916.1
522.376	5979.15
522.743	5988.87
523.11	6003.33
523.477	6116.32
523.843	6103.22
524.21	6205.81
524.577	6284.68
524.943	6309.31
525.31	6387.05
525.676	6389.99
526.043	6408.97
526.409	6493.49
526.776	6545.01
527.142	6535.29
527.508	6598.34
527.874	6596.76
528.241	6670.88
528.607	6664.1
528.973	6824.33
529.339	6744.1
529.705	6826.13
530.071	6863.65
530.437	6900.93
530.803	6966.7
531.169	6977.99
531.535	6993.14
531.901	7045.79
532.267	7061.16
532.632	7111.1
532.998	7133.02
533.364	7196.29
533.73	7220.7
534.095	7288.72
534.461	7300.47
534.826	7299.34
535.192	7342.05
535.557	7399.68
535.923	7412.11
536.288	7434.93
536.653	7558.54
537.019	7516.96
537.384	7556.51
537.749	7541.37
538.114	7615.27
538.479	7545.66
538.845	7670.86
539.21	7630.18
539.575	7707.01
539.94	7737.3
540.305	7779.33
540.67	7803.28
541.034	7905.43
541.399	7902.26
541.764	7882.6
542.129	7899.78
542.494	7950.4
542.858	8008.48
543.223	7937.07
543.587	8070.17
543.952	8020
544.316	8069.72
544.681	8102.71
545.045	8160.79
545.41	8165.31
545.774	8258.41
546.138	8169.6
546.503	8252.54
546.867	8290.73
547.231	8273.33
547.595	8326.66
547.959	8389.03
548.324	8372.76
548.688	8398.52
549.052	8474
549.416	8478.07
549.779	8499.08
550.143	8484.62
550.507	8598.52
550.871	8597.16
551.235	8626.54
551.599	8659.31
551.962	8682.13
552.326	8762.13
552.689	8773.65
553.053	8707.44
553.417	8817.27
553.78	8901.79
554.143	8861.11
554.507	8909.24
554.87	8922.58
555.234	9018.84
555.597	8938.62
555.96	9038.73
556.323	9012.74
556.686	9111.72
557.05	9131.16
557.413	9186.75
557.776	9175.68
558.139	9309.46
558.502	9313.07
558.865	9309.23
559.228	9392.85
559.59	9422
559.953	9443.01
560.316	9512.17
560.679	9515.33
561.041	9604.82
561.404	9652.73
561.767	9666.51
562.129	9647.3
562.492	9750.58
562.854	9688.43
563.217	9755.77
563.579	9873.74
563.941	9930.69
564.304	9958.03
564.666	9949.67
565.028	10048.87
565.39	9994.41
565.753	10081.42
566.115	10091.81
566.477	10183.11
566.839	10250.45
567.201	10317.79
567.563	10391.24
567.925	10408.86
568.287	10422.88
568.648	10426.27
569.01	10483.44
569.372	10521.4
569.734	10546.04
570.095	10616.77
570.457	10648.63
570.819	10685.24
571.18	10699.03
571.542	10744.45
571.903	10744.22
572.265	10801.4
572.626	10879.81
572.987	10818.57
573.349	10899.93
573.71	10897.21
574.071	10915.07
574.432	10970.43
574.794	10989.64
575.155	11042.97
575.516	11000.71
575.877	11085.68
576.238	11066.7
576.599	11150.31
576.96	11207.49
577.32	11188.05
577.681	11249.52
578.042	11230.09
578.403	11211.78
578.763	11279.8
579.124	11309.18
579.485	11334.49
579.845	11383.08
580.206	11346.02
580.566	11385.34
580.927	11356.86
581.287	11424.88
581.648	11416.97
582.008	11449.52
582.368	11392.79
582.728	11430.53
583.089	11493.13
583.449	11364.32
583.809	11422.4
584.169	11447.26
584.529	11422.62
584.889	11507.37
585.249	11404.32
585.609	11397.99
585.969	11536.52
586.329	11420.59
586.688	11456.07
587.048	11454.26
587.408	11459.01
587.768	11491.55
588.127	11523.19
588.487	11469.4
588.846	11583.07
589.206	11512.34
589.565	11462.4
589.925	11522.06
590.284	11491.77
590.643	11486.35
591.003	11480.7
591.362	11564.09
591.721	11574.48
592.08	11492.45
592.44	11574.03
592.799	11495.84
593.158	11540.59
593.517	11567.48
593.876	11563.41
594.235	11597.99
594.593	11570.64
594.952	11563.64
595.311	11505.79
595.67	11551.21
596.029	11612.67
596.387	11621.04
596.746	11717.08
597.104	11649.96
597.463	11663.75
597.822	11602.96
598.18	11634.82
598.538	11646.8
598.897	11637.98
599.255	11583.98
599.613	11781.48
599.972	11655.84
600.33	11682.96
600.688	11716.85
601.046	11710.75
601.404	11811.09
601.762	11732.9
602.12	11839.34
602.478	11813.12
602.836	11822.39
603.194	11773.35
603.552	11802.27
603.91	11698.55
604.268	11830.3
604.625	11754.37
604.983	11857.19
605.341	11767.25
605.698	11886.57
606.056	11920.46
606.413	11848.6
606.771	11930.41
607.128	11946.23
607.485	11868.26
607.843	11884.31
608.2	11966.34
608.557	11921.59
608.914	11914.14
609.272	12020.35
609.629	12004.53
609.986	12104.41
610.343	12056.51
610.7	12138.08
611.057	12034.58
611.414	12068.48
611.771	12096.96
612.127	12144.41
612.484	12067.13
612.841	12214.47
613.198	12139.21
613.554	12132.89
613.911	12191.42
614.267	12140.34
614.624	12190.96
614.98	12264.18
615.337	12288.82
615.693	12198.2
616.05	12258.99
616.406	12304.41
616.762	12297.18
617.118	12253.56
617.475	12375.14
617.831	12451.3
618.187	12306.22
618.543	12367.91
618.899	12449.72
619.255	12335.37
619.611	12403.39
619.967	12375.37
620.323	12428.25
620.678	12340.57
621.034	12375.14
621.39	12400.9
621.746	12345.54
622.101	12507.11
622.457	12390.51
622.812	12361.81
623.168	12453.33
623.523	12374.01
623.879	12429.83
624.234	12386.44
624.589	12448.13
624.945	12373.11
625.3	12492.65
625.655	12433.22
626.01	12418.53
626.365	12417.4
626.72	12413.56
627.075	12355.71
627.43	12378.3
627.785	12446.1
628.14	12372.43
628.495	12393.45
628.85	12383.28
629.205	12332.66
629.559	12424.18
629.914	12312.09
630.269	12313.9
630.623	12324.29
630.978	12294.46
631.332	12362.49
631.687	12322.71
632.041	12371.3
632.396	12360
632.75	12334.46
633.104	12273.67
633.459	12213.56
633.813	12287.01
634.167	12255.82
634.521	12263.96
634.875	12267.8
635.229	12241.81
635.583	12213.56
635.937	12252.88
636.291	12239.55
636.645	12196.84
636.999	12129.5
637.352	12128.14
637.706	12049.27
638.06	12117.07
638.413	12127.24
638.767	12106.45
639.121	12145.99
639.474	12076.84
639.828	12012.89
640.181	12041.14
640.534	12033.68
640.888	12007.92
641.241	11922.95
641.594	11922.95
641.947	11995.94
642.301	11973.8
642.654	11909.62
643.007	11956.85
643.36	11939.45
643.713	11868.26
644.066	11975.38
644.419	11854.7
644.771	11751.2
645.124	11683.63
645.477	11623.52
645.83	11544.43
646.182	11520.25
646.535	11463.98
646.888	11451.1
647.24	11567.48
647.593	11545.56
647.945	11513.02
648.298	11386.24
648.65	11390.99
649.002	11469.4
649.355	11417.65
649.707	11432.79
650.059	11475.28
650.411	11642.96
650.763	11594.14
651.115	11717.3
651.467	11643.41
651.819	11653.58
652.171	11678.21
652.523	11560.47
652.875	11586.01
653.227	11501.94
653.578	11613.58
653.93	11551.21
654.282	11596.18
654.633	11502.4
654.985	11463.53
655.337	11498.78
655.688	11513.02
656.039	11525.22
656.391	11419.91
656.742	11456.75
657.094	11449.97
657.445	11546.24
657.796	11468.72
658.147	11477.54
658.498	11459.23
658.849	11441.38
659.2	11454.26
659.551	11350.99
659.902	11445.45
660.253	11463.07
660.604	11416.97
660.955	11409.97
661.306	11363.64
661.656	11391.89
662.007	11449.06
662.358	11432.57
662.708	11428.95
663.059	11377.2
663.409	11292.68
663.76	11408.84
664.11	11398.44
664.461	11397.09
664.811	11367.71
665.161	11316.19
665.511	11329.29
665.862	11363.87
666.212	11379.91
666.562	11421.49
666.912	11428.72
667.262	11344.21
667.612	11354.83
667.962	11373.59
668.312	11305.11
668.662	11341.04
669.011	11344.89
669.361	11274.15
669.711	11346.92
670.06	11246.13
670.41	11259.01
670.76	11207.94
671.109	11240.71
671.459	11283.64
671.808	11218.33
672.157	11237.77
672.507	11177.21
672.856	11136.53
673.205	11161.84
673.554	11127.72
673.904	11206.13
674.253	11279.35
674.602	11200.03
674.951	11063.31
675.3	10990.77
675.649	11052.01
675.998	11184.66
676.346	11148.51
676.695	11108.28
677.044	11036.42
677.393	11114.83
677.741	11150.31
678.09	11059.02
678.438	11006.14
678.787	11070.09
679.135	11036.87
679.484	10983.31
679.832	11015.63
680.181	10955.07
680.529	10996.87
680.877	10951.22
681.225	10902.19
681.573	10907.38
681.922	10954.84
682.27	10913.26
682.618	10894.28
682.966	10913.48
683.314	10955.52
683.661	10846.14
684.009	10861.28
684.357	10800.94
684.705	10852.69
685.053	10748.97
685.4	10808.85
685.748	10709.42
686.095	10705.58
686.443	10675.3
686.79	10650.21
687.138	10660.84
687.485	10659.48
687.832	10683.21
688.18	10602.76
688.527	10578.13
688.874	10561.18
689.221	10496.09
689.568	10532.7
689.915	10498.58
690.262	10537.67
690.609	10426.27
690.956	10392.82
691.303	10429.88
691.65	10360.73
691.997	10349.21
692.344	10302.88
692.69	10277.57
693.037	10229.66
693.383	10181.53
693.73	10228.98
694.077	10194.41
694.423	10156.22
694.769	10198.25
695.116	10146.27
695.462	10096.1
695.808	10082.32
696.155	10077.57
696.501	9974.98
696.847	10013.85
697.193	9977.92
697.539	9941.31
697.885	9951.93
698.231	9903.34
698.577	9852.04
698.923	9851.82
699.269	9861.99
699.614	9741.54
699.96	9759.39
700.306	9798.26
700.651	9776.34
700.997	9687.3
701.342	9751.48
701.688	9640.52
702.033	9622.9
702.379	9636.91
702.724	9601.43
703.069	9576.34
703.415	9529.11
703.76	9524.82
704.105	9490.92
704.45	9521.43
704.795	9416.57
705.14	9407.54
705.485	9439.4
705.83	9428.1
706.175	9334.32
706.52	9338.84
706.865	9256.58
707.209	9272.4
707.554	9270.14
707.899	9362.11
708.243	9236.92
708.588	9196.02
708.932	9187.43
709.277	9211.83
709.621	9222.23
709.966	9120.99
710.31	9067.66
710.654	9050.71
710.998	9082.57
711.342	9041.9
711.687	9053.87
712.031	8962.58
712.375	9008.45
712.719	9029.24
713.063	9008
713.407	9069.92
713.75	8992.86
714.094	8904.95
714.438	8898.62
714.782	8850.49
715.125	8901.56
715.469	8894.55
715.812	8782.47
716.156	8768.23
716.499	8829.02
716.843	8811.84
717.186	8783.6
717.53	8760.09
717.873	8770.04
718.216	8824.05
718.559	8742.02
718.902	8625.41
719.246	8603.71
719.589	8671.74
719.932	8600.1
720.275	8631.06
720.617	8582.7
720.96	8580.66
721.303	8665.41
721.646	8629.02
721.989	8608.23
722.331	8564.85
722.674	8609.36
723.016	8511.51
723.359	8526.2
723.701	8539.99
724.044	8462.25
724.386	8391.74
724.729	8452.31
725.071	8452.08
725.413	8392.87
725.755	8413.21
726.097	8363.27
726.439	8383.16
726.782	8299.77
727.124	8434.91
727.465	8347.9
727.807	8318.3
728.149	8282.82
728.491	8287.34
728.833	8330.73
729.175	8227.45
729.516	8286.89
729.858	8264.51
730.199	8212.09
730.541	8230.39
730.882	8221.13
731.224	8228.81
731.565	8172.54
731.906	8208.02
732.248	8202.82
732.589	8137.06
732.93	8175.93
733.271	8128.02
733.612	8189.49
733.953	8056.16
734.294	8017.97
734.635	8065.65
734.976	8061.81
735.317	8035.14
735.658	8033.11
735.999	8021.58
736.339	8018.19
736.68	8038.53
737.021	7995.37
737.361	8020.9
737.702	7970.96
738.042	8023.39
738.383	7938.42
738.723	7995.82
739.063	7945.2
739.404	7935.26
739.744	7917.86
740.084	7878.99
740.424	7885.54
740.764	7864.98
741.104	7869.27
741.444	7822.72
741.784	7855.03
742.124	7802.83
742.464	7834.24
742.804	7809.61
743.143	7769.39
743.483	7774.36
743.823	7755.6
744.162	7746.79
744.502	7759.89
744.841	7730.52
745.181	7798.09
745.52	7688.94
745.86	7719.9
746.199	7714.25
746.538	7670.86
746.877	7655.49
747.216	7733
747.556	7604.19
747.895	7666.79
748.234	7655.94
748.573	7603.74
748.911	7599.45
749.25	7584.53
749.589	7547.92
749.928	7568.94
750.267	7548.15
750.605	7552.89
750.944	7568.04
751.283	7445.1
751.621	7563.29
751.96	7417.76
752.298	7496.62
752.636	7443.29
752.975	7399.68
753.313	7385.44
753.651	7435.61
753.989	7374.37
754.327	7380.47
754.666	7249.4
755.004	7337.99
755.342	7376.63
755.679	7286.91
756.017	7252.34
756.355	7258.67
756.693	7207.14
757.031	7282.85
757.368	7187.03
757.706	7222.73
758.044	7206.24
758.381	7192.23
758.719	7163.3
759.056	7137.99
759.394	7128.72
759.731	7081.95
760.068	7091.21
760.405	6999.24
760.743	7022.74
761.08	7083.3
761.417	6992.91
761.754	6909.75
762.091	6938.22
762.428	6900.48
762.765	6852.12
763.102	6917.43
763.438	6862.97
763.775	6833.82
764.112	6863.87
764.449	6848.96
764.785	6808.28
765.122	6783.42
765.458	6752.69
765.795	6814.16
766.131	6682.18
766.467	6766.02
766.804	6696.65
767.14	6683.76
767.476	6696.65
767.812	6626.14
768.148	6622.3
768.485	6571.9
768.821	6521.06
769.157	6569.87
769.492	6552.69
769.828	6491.45
770.164	6473.37
770.5	6435.18
770.836	6409.87
771.171	6348.18
771.507	6384.79
771.842	6361.51
772.178	6361.29
772.513	6309.09
772.849	6316.77
773.184	6223.66
773.519	6338.92
773.855	6259.14
774.19	6228.18
774.525	6213.49
774.86	6181.86
775.195	6230.9
775.53	6163.55
775.865	6100.73
776.2	6156.55
776.535	6052.82
776.87	6021.41
777.205	6025.93
777.539	5974.41
777.874	5994.07
778.209	5966.72
778.543	5987.29
778.878	5931.02
779.212	5947.97
779.547	5868.42
779.881	5873.16
780.215	5854.41
780.55	5901.19
780.884	5753.62
781.218	5772.38
781.552	5801.53
781.886	5835.65
782.22	5745.94
782.554	5715.65
782.888	5713.62
783.222	5620.52
783.556	5632.27
783.889	5606.28
784.223	5576.68
784.557	5576.9
784.89	5586.62
785.224	5561.76
785.557	5549.33
785.891	5507.98
786.224	5513.85
786.558	5526.51
786.891	5485.6
787.224	5442.67
787.557	5444.93
787.891	5413.97
788.224	5378.71
788.557	5454.64
788.89	5404.93
789.223	5393.18
789.556	5276.57
789.888	5341.43
790.221	5302.56
790.554	5281.54
790.887	5285.61
791.219	5239.51
791.552	5244.25
791.884	5160.42
792.217	5196.57
792.549	5186.4
792.882	5128.1
793.214	5167.42
793.546	5236.57
793.879	5116.12
794.211	5064.6
794.543	5066.41
794.875	5070.02
795.207	5061.43
795.539	5029.8
795.871	5087.65
796.203	4999.74
796.535	4949.12
796.867	4987.99
797.198	4896.92
797.53	5010.81
797.862	4925.62
798.193	4962.91
798.525	4925.85
798.856	4889.69
799.188	4850.59
799.519	4852.4
799.85	4823.93
800.182	4866.19
800.513	4834.55
800.844	4801.33
801.175	4805.17
801.506	4785.74
801.837	4772.63
802.168	4797.26
802.499	4764.72
802.83	4729.47
803.161	4702.8
803.491	4734.66
803.822	4718.84
804.153	4640.2
804.483	4620.32
804.814	4649.69
805.145	4626.42
805.475	4597.49
805.805	4626.42
806.136	4630.26
806.466	4661.9
806.796	4620.32
807.126	4574.67
807.457	4545.29
807.787	4525.4
808.117	4540.54
808.447	4475.01
808.777	4511.62
809.107	4501
809.436	4508.68
809.766	4504.16
810.096	4496.03
810.426	4439.3
810.755	4422.81
811.085	4441.34
811.414	4418.74
811.744	4428.91
812.073	4379.64
812.403	4378.97
812.732	4360.44
813.061	4353.2
813.39	4345.97
813.719	4346.88
814.049	4395.24
814.378	4333.54
814.707	4309.14
815.036	4274.79
815.365	4285.86
815.693	4233.89
816.022	4221.23
816.351	4223.49
816.68	4215.36
817.008	4283.15
817.337	4210.61
817.665	4185.07
817.994	4151.4
818.322	4208.8
818.651	4199.54
818.979	4178.29
819.307	4184.17
819.636	4126.54
819.964	4133.55
820.292	4175.13
820.62	4144.62
820.948	4135.13
821.276	4140.1
821.604	4117.28
821.932	4101.46
822.259	4151.63
822.587	4143.94
822.915	4116.83
823.243	4126.32
823.57	4131.06
823.898	4153.21
824.225	4098.97
824.553	4136.71
824.88	4098.07
825.207	4134.91
825.535	4127
825.862	4141.91
826.189	4116.37
826.516	4136.71
826.843	4093.78
827.17	4112.53
827.497	4096.26
827.824	4134.23
828.151	4124.51
828.478	4077.96
828.805	4119.54
829.131	4125.87
829.458	4074.34
829.785	4101.69
830.111	4122.93
830.438	4108.01
830.764	4156.15
831.09	4098.75
831.417	4138.07
831.743	4113.21
832.069	4096.71
832.395	4067.56
832.722	4068.92
833.048	4084.06
833.374	4070.95
833.7	4068.01
834.026	4102.36
834.351	4078.86
834.677	4043.61
835.003	4098.75
835.329	4089.71
835.654	4080.67
835.98	4059.88
836.306	4055.13
836.631	4046.09
836.956	3996.15
837.282	3992.99
837.607	4009.26
837.932	4014.68
838.258	4012.42
838.583	4007.45
838.908	3993.21
839.233	3971.75
839.558	4042.48
839.883	4015.36
840.208	3989.15
840.533	3973.55
840.858	3969.71
841.182	3952.76
841.507	3941.01
841.832	3905.08
842.156	3916.83
842.481	3896.04
842.805	3934.46
843.13	3915.02
843.454	3917.06
843.778	3877.29
844.103	3884.29
844.427	3883.61
844.751	3853.78
845.075	3839.09
845.399	3844.52
845.723	3816.95
846.047	3819.89
846.371	3802.48
846.695	3828.02
847.019	3783.5
847.343	3790.96
847.666	3761.58
847.99	3723.84
848.313	3767.91
848.637	3692.21
848.96	3717.52
849.284	3696.05
849.607	3682.04
849.931	3689.04
850.254	3689.04
850.577	3616.5
850.9	3660.34
851.223	3603.62
851.546	3567.01
851.869	3590.51
852.192	3567.91
852.515	3555.94
852.838	3522.94
853.161	3523.85
853.483	3515.94
853.806	3504.41
854.129	3531.08
854.451	3495.83
854.774	3503.74
855.096	3470.29
855.419	3492.44
855.741	3444.75
856.063	3434.13
856.385	3434.58
856.708	3392.78
857.03	3412.44
857.352	3463.28
857.674	3433.23
857.996	3406.79
858.318	3382.61
858.64	3380.12
858.961	3334.47
859.283	3329.73
859.605	3331.76
859.926	3366.56
860.248	3317.75
860.57	3316.4
860.891	3301.71
861.212	3333.34
861.534	3311.42
861.855	3328.6
862.176	3300.58
862.498	3305.55
862.819	3292.89
863.14	3275.04
863.461	3276.85
863.782	3247.02
864.103	3254.25
864.424	3251.31
864.745	3269.39
865.065	3211.99
865.386	3209.73
865.707	3203.86
866.027	3209.05
866.348	3227.13
866.668	3237.98
866.989	3224.87
867.309	3167.7
867.63	3186.91
867.95	3173.57
868.27	3159.11
868.59	3170.19
868.91	3179.9
869.23	3172.22
869.55	3171.54
869.87	3167.47
870.19	3175.38
870.51	3184.87
870.83	3193.91
871.15	3190.07
871.469	3174.03
871.789	3146.46
872.109	3156.85
872.428	3090.19
872.748	3140.36
873.067	3129.73
873.386	3140.58
873.706	3122.5
874.025	3093.8
874.344	3132.45
874.663	3095.16
874.982	3089.06
875.301	3066.23
875.62	3096.51
875.939	3063.97
876.258	3055.39
876.577	3112.33
876.896	3060.13
877.214	3040.47
877.533	3078.21
877.852	3039.34
878.17	3016.74
878.489	3039.12
878.807	3045.89
879.125	3045.22
879.444	3023.97
879.762	2992.79
880.08	3012
880.398	2971.09
880.716	3002.28
881.034	2998.66
881.352	2982.17
881.67	2987.36
881.988	2997.31
882.306	2994.14
882.624	2979
882.941	2964.77
883.259	2957.31
883.577	2967.7
883.894	2949.85
884.212	2955.95
884.529	2935.84
884.846	2906.24
885.164	2911.89
885.481	2921.38
885.798	2930.42
886.115	2881.83
886.432	2898.78
886.75	2874.37
887.067	2910.53
887.383	2855.17
887.7	2901.27
888.017	2913.69
888.334	2895.62
888.651	2876.41
888.967	2881.38
889.284	2835.05
889.6	2832.79
889.917	2846.13
890.233	2838.22
890.55	2808.16
890.866	2800.93
891.182	2768.39
891.498	2776.75
891.815	2731.1
892.131	2782.17
892.447	2751.21
892.763	2732.91
893.079	2764.09
893.395	2718.67
893.71	2791.44
894.026	2704.43
894.342	2750.54
894.657	2715.73
894.973	2739.46
895.289	2718.9
895.604	2691.55
895.92	2677.32
896.235	2701.04
896.55	2670.54
896.865	2651.33
897.181	2641.84
897.496	2643.87
897.811	2662.63
898.126	2644.78
898.441	2651.1
898.756	2610.43
899.071	2599.13
899.386	2627.15
899.7	2601.16
900.015	2562.74
900.33	2569.97
900.644	2565.23
900.959	2581.27
901.273	2550.31
901.588	2551.22
901.902	2518.68
902.216	2540.15
902.531	2542.63
902.845	2547.15
903.159	2495.17
903.473	2493.82
903.787	2464.44
904.101	2480.49
904.415	2485.01
904.729	2456.53
905.042	2473.03
905.356	2438
905.67	2407.49
905.984	2467.38
906.297	2457.89
906.611	2445.46
906.924	2411.11
907.237	2392.13
907.551	2435.52
907.864	2397.78
908.177	2390.77
908.491	2360.26
908.804	2385.8
909.117	2356.87
909.43	2329.53
909.743	2346.25
910.056	2369.98
910.368	2327.72
910.681	2311.9
910.994	2306.25
911.307	2329.76
911.619	2268.29
911.932	2301.73
912.244	2277.55
912.557	2307.16
912.869	2293.6
913.181	2252.7
913.494	2255.86
913.806	2271
914.118	2236.2
914.43	2232.81
914.742	2228.06
915.054	2213.37
915.366	2199.14
915.678	2173.38
915.99	2172.25
916.302	2186.71
916.613	2175.63
916.925	2141.51
917.236	2161.85
917.548	2135.64
917.859	2133.38
918.171	2138.12
918.482	2134.96
918.794	2102.19
919.105	2121.4
919.416	2089.08
919.727	2107.16
920.038	2083.66
920.349	2087.95
920.66	2054.73
920.971	2054.06
921.282	2056.54
921.593	2074.62
921.903	2045.02
922.214	2036.43
922.525	2024
922.835	2024
923.146	1978.58
923.456	1973.38
923.767	2013.61
924.077	1987.39
924.387	1984.45
924.697	1995.07
925.008	1961.86
925.318	1981.74
925.628	1974.74
925.938	1960.27
926.248	1956.88
926.558	1930.44
926.867	1894.51
927.177	1922.53
927.487	1901.97
927.796	1917.11
928.106	1927.51
928.416	1898.81
928.725	1881.18
929.034	1875.08
929.344	1861.29
929.653	1874.63
929.962	1831.46
930.271	1829.66
930.581	1862.2
930.89	1833.05
931.199	1847.96
931.508	1796.66
931.817	1811.8
932.125	1795.76
932.434	1776.78
932.743	1772.48
933.051	1798.92
933.36	1772.71
933.669	1759.83
933.977	1760.96
934.286	1730.22
934.594	1763.67
934.902	1752.37
935.21	1731.58
935.519	1726.83
935.827	1727.06
936.135	1704.91
936.443	1713.73
936.751	1694.29
937.059	1681.41
937.367	1659.04
937.674	1691.58
937.982	1666.27
938.29	1679.15
938.597	1690
938.905	1679.38
939.213	1670.11
939.52	1672.37
939.827	1642.09
940.135	1629.43
940.442	1628.53
940.749	1650.68
941.056	1634.41
941.363	1598.47
941.67	1624.01
941.977	1596.44
942.284	1582.2
942.591	1610.9
942.898	1595.99
943.205	1576.55
943.511	1580.4
943.818	1593.73
944.125	1581.53
944.431	1564.8
944.738	1575.42
945.044	1558.7
945.35	1562.77
945.657	1544.01
945.963	1515.99
946.269	1528.65
946.575	1566.84
946.881	1515.09
947.187	1508.31
947.493	1483
947.799	1522.32
948.105	1493.62
948.41	1494.3
948.716	1468.53
949.022	1521.41
949.327	1496.56
949.633	1498.36
949.938	1466.5
950.244	1476.44
950.549	1449.1
950.854	1463.11
951.16	1441.64
951.465	1436.22
951.77	1425.82
952.075	1449.78
952.38	1449.33
952.685	1419.5
952.99	1398.71
953.294	1429.89
953.599	1420.17
953.904	1413.4
954.209	1390.12
954.513	1376.33
954.818	1405.03
955.122	1365.03
955.426	1353.28
955.731	1352.15
956.035	1368.2
956.339	1390.34
956.643	1339.5
956.948	1377.01
957.252	1346.96
957.556	1352.15
957.86	1353.74
958.163	1347.63
958.467	1330.46
958.771	1324.36
959.075	1318.48
959.378	1322.1
959.682	1319.39
959.985	1311.7
960.289	1315.54
960.592	1283.45
960.896	1285.04
961.199	1291.82
961.502	1277.13
961.805	1293.85
962.108	1304.02
962.411	1287.3
962.714	1266.05
963.017	1253.4
963.32	1253.85
963.623	1232.83
963.926	1237.13
964.228	1242.55
964.531	1278.94
964.833	1231.93
965.136	1243
965.438	1231.7
965.741	1225.6
966.043	1224.7
966.345	1215.89
966.648	1224.93
966.95	1189.45
967.252	1188.09
967.554	1209.11
967.856	1213.4
968.158	1180.18
968.46	1175.89
968.761	1183.8
969.063	1167.3
969.365	1195.32
969.666	1171.59
969.968	1168.88
970.269	1169.56
970.571	1161.2
970.872	1160.75
971.174	1144.02
971.475	1156.9
971.776	1145.38
972.077	1132.05
972.378	1172.5
972.679	1142.44
972.98	1139.96
973.281	1122.1
973.582	1122.78
973.883	1132.95
974.183	1115.1
974.484	1084.82
974.785	1123.01
975.085	1117.58
975.386	1090.01
975.686	1105.38
975.986	1113.29
976.287	1103.35
976.587	1110.8
976.887	1073.07
977.187	1056.34
977.487	1061.77
977.787	1064.7
978.087	1064.7
978.387	1055.44
978.687	1034.42
978.987	1050.24
979.286	1050.69
979.586	1031.71
979.885	1043.91
980.185	1061.54
980.484	1030.81
980.784	1025.38
981.083	1007.53
981.382	1033.74
981.682	1046.63
981.981	1019.51
982.28	1015.67
982.579	996
982.878	1011.82
983.177	998.94
983.475	1013.86
983.774	1004.37
984.073	966.18
984.372	989.23
984.67	989.68
984.969	980.41
985.267	964.59
985.566	979.06
985.864	964.82
986.162	977.25
986.461	974.99
986.759	964.14
987.057	958.27
987.355	978.15
987.653	942.67
987.951	962.56
988.249	946.06
988.547	959.4
988.844	931.15
989.142	942
989.44	924.37
989.737	914.43
990.035	925.5
990.332	917.36
990.63	909.68
990.927	923.69
991.224	910.58
991.521	896.57
991.819	904.26
992.116	907.87
992.413	927.31
992.71	895.89
993.006	914.43
993.303	908.32
993.6	890.47
993.897	873.75
994.193	887.99
994.49	865.84
994.787	878.27
995.083	878.72
995.379	887.08
995.676	854.77
995.972	858.16
996.268	866.52
996.565	865.84
996.861	843.69
997.157	869.45
997.453	840.75
997.749	865.61
998.044	861.55
998.34	833.98
998.636	845.73
998.932	837.59
999.227	856.8
999.523	837.36
999.818	818.61
1000.114	833.07
1000.409	828.1
1000.704	797.37
1001	800.76
1001.295	815.9
1001.59	818.38
1001.885	808.67
1002.18	829.46
1002.475	800.3
1002.77	780.87
1003.065	788.55
1003.359	778.84
1003.654	798.95
1003.949	806.18
1004.243	799.4
1004.538	780.42
1004.832	767.08
1005.127	754.88
1005.421	766.18
1005.715	744.71
1006.009	760.53
1006.304	757.59
1006.598	742
1006.892	778.16
1007.186	753.07
1007.48	747.88
1007.773	767.08
1008.067	756.01
1008.361	718.95
1008.655	717.37
1008.948	745.84
1009.242	734.32
1009.535	725.28
1009.829	736.12
1010.122	734.54
1010.415	724.6
1010.708	723.02
1011.001	706.07
1011.295	728.89
1011.588	723.02
1011.881	729.35
1012.173	692.28
1012.466	708.55
1012.759	701.55
1013.052	684.83
1013.344	705.62
1013.637	693.87
1013.93	690.25
1014.222	694.09
1014.514	668.33
1014.807	675.79
1015.099	687.54
1015.391	642.57
1015.683	668.56
1015.976	682.34
1016.268	659.74
1016.56	647.99
1016.851	643.02
1017.143	656.8
1017.435	667.2
1017.727	651.16
1018.018	659.52
1018.31	646.18
1018.602	619.74
1018.893	654.54
1019.185	637.6
1019.476	635.79
1019.767	638.95
1020.058	610.25
1020.35	632.4
1020.641	627.2
1020.932	610.48
1021.223	644.15
1021.514	615
1021.804	608.44
1022.095	607.09
1022.386	607.77
1022.677	615.22
1022.967	596.47
1023.258	593.08
1023.548	617.71
1023.839	596.47
1024.129	600.31
1024.419	577.26
1024.709	601.89
1025	570.71
1025.29	594.43
1025.58	583.59
1025.87	590.14
1026.16	566.19
1026.449	584.26
1026.739	587.88
1027.029	560.54
1027.319	589.69
1027.608	580.42
1027.898	559.63
1028.187	572.97
1028.477	568.22
1028.766	573.19
1029.055	560.99
1029.344	563.93
1029.634	531.84
1029.923	539.07
1030.212	532.51
1030.501	560.08
1030.79	529.58
1031.078	564.15
1031.367	571.16
1031.656	532.97
1031.945	566.19
1032.233	520.76
1032.522	551.72
1032.81	535.45
1033.099	527.99
1033.387	535.9
1033.675	507.66
1033.963	525.06
1034.251	545.17
1034.54	523.02
1034.828	516.7
1035.116	514.44
1035.403	504.27
1035.691	516.02
1035.979	514.66
1036.267	528.67
1036.554	518.28
1036.842	493.42
1037.129	513.08
1037.417	522.12
1037.704	499.29
1037.992	521.44
1038.279	516.92
1038.566	500.2
1038.853	500.2
1039.14	500.2
