Data from black_plastic_tray_FLMS001491_029.txt Node
Date: Tue Feb 07 10:39:32 GMT 2017
User: dcchb
Spectrometer: FLMS00149
Trigger mode: 0
Integration Time (sec): 2.000000E-2
Scans to average: 10
Electric dark correction enabled: true
Nonlinearity correction enabled: false
Boxcar width: 0
XAxis mode: Wavelengths
Number of Pixels in Spectrum: 2048
>>>>>Begin Spectral Data<<<<<
341.393	-21.48
341.776	-21.48
342.16	-21.48
342.543	-65.32
342.927	-65.78
343.31	-76.62
343.693	-70.29
344.077	-63.06
344.46	-43.63
344.843	-43.63
345.226	-49.73
345.61	-21.93
345.993	-29.84
346.376	2.25
346.759	-1.82
347.142	39.08
347.525	40.21
347.908	41.11
348.291	76.59
348.674	86.09
349.057	115.24
349.44	134.45
349.823	147.78
350.206	157.72
350.588	183.26
350.971	202.24
351.354	230.04
351.737	201.34
352.119	235.69
352.502	257.83
352.884	249.7
353.267	258.28
353.65	258.06
354.032	283.59
354.414	295.57
354.797	297.15
355.179	318.62
355.562	313.2
355.944	312.97
356.326	333.31
356.709	312.52
357.091	321.79
357.473	326.08
357.855	311.62
358.238	322.69
358.62	341.9
359.002	332.86
359.384	301.9
359.766	337.83
360.148	331.05
360.53	338.28
360.912	327.66
361.294	326.53
361.676	329.69
362.057	316.36
362.439	307.55
362.821	335.34
363.203	322.69
363.584	321.79
363.966	329.69
364.348	304.84
364.729	319.07
365.111	312.29
365.493	326.76
365.874	315.23
366.256	311.16
366.637	311.16
367.019	317.94
367.4	313.42
367.781	308
368.163	298.96
368.544	292.63
368.925	310.49
369.306	318.17
369.688	310.71
370.069	299.41
370.45	317.04
370.831	293.09
371.212	310.94
371.593	305.29
371.974	306.87
372.355	326.76
372.736	305.06
373.117	312.52
373.498	297.83
373.879	296.93
374.26	315.01
374.641	305.06
375.021	328.56
375.402	318.4
375.783	340.09
376.163	348.68
376.544	308
376.925	345.97
377.305	342.58
377.686	334.44
378.066	341.9
378.447	340.32
378.827	333.99
379.208	332.86
379.588	343.48
379.968	353.2
380.349	324.95
380.729	319.3
381.109	331.28
381.489	334.44
381.87	342.35
382.25	329.69
382.63	349.81
383.01	342.8
383.39	354.1
383.77	346.64
384.15	361.11
384.53	349.81
384.91	343.71
385.29	364.95
385.67	354.78
386.049	380.09
386.429	356.81
386.809	351.84
387.189	384.83
387.568	360.43
387.948	353.65
388.328	354.33
388.707	357.94
389.087	380.09
389.466	373.31
389.846	408.79
390.225	394.78
390.605	376.47
390.984	358.17
391.363	387.09
391.743	374.44
392.122	399.75
392.501	382.35
392.881	384.16
393.26	376.93
393.639	404.95
394.018	396.13
394.397	417.6
394.776	401.11
395.155	403.59
395.534	412.18
395.913	408.34
396.292	407.43
396.671	420.77
397.05	405.4
397.429	420.77
397.808	434.1
398.186	446.08
398.565	437.94
398.944	423.25
399.323	433.65
399.701	447.66
400.08	435.68
400.458	432.29
400.837	458.28
401.215	437.49
401.594	464.15
401.972	457.15
402.351	451.5
402.729	456.25
403.107	455.12
403.486	466.87
403.864	448.56
404.242	458.96
404.62	450.6
404.999	462.57
405.377	467.32
405.755	465.96
406.133	475.45
406.511	484.72
406.889	478.39
407.267	475.23
407.645	491.72
408.023	485.85
408.401	490.37
408.779	491.05
409.156	516.13
409.534	533.53
409.912	520.65
410.29	531.95
410.667	519.97
411.045	525.17
411.422	545.06
411.8	559.29
412.178	520.88
412.555	570.82
412.933	543.02
413.31	554.77
413.687	553.64
414.065	559.29
414.442	575.79
414.819	592.51
415.197	582.12
415.574	592.06
415.951	597.03
416.328	601.55
416.705	583.93
417.082	610.59
417.46	579.18
417.837	586.19
418.214	620.99
418.591	627.09
418.967	619.86
419.344	628.9
419.721	619.4
420.098	624.38
420.475	647.65
420.852	636.13
421.228	644.26
421.605	643.36
421.982	639.29
422.358	658.27
422.735	671.61
423.111	648.78
423.488	688.33
423.864	679.52
424.241	655.11
424.617	665.96
424.994	687.2
425.37	700.31
425.746	698.27
426.123	708.44
426.499	728.78
426.875	712.96
427.251	735.79
427.627	742.11
428.003	728.78
428.379	746.41
428.756	731.72
429.132	749.12
429.507	759.06
429.883	768.33
430.259	759.06
430.635	775.33
431.011	788.67
431.387	807.87
431.763	814.43
432.138	835.22
432.514	839.51
432.89	848.33
433.265	855.33
433.641	863.47
434.016	855.1
434.392	882.45
434.767	880.19
435.143	904.37
435.518	899.85
435.894	909.34
436.269	930.36
436.644	923.8
437.02	938.49
437.395	931.26
437.77	924.93
438.145	957.47
438.52	939.85
438.895	968.77
439.271	963.8
439.646	969.23
440.021	1007.42
440.395	998.15
440.77	985.5
441.145	1003.58
441.52	1009.68
441.895	1025.72
442.27	1026.17
442.645	1021.2
443.019	1059.17
443.394	1027.98
443.769	1037.25
444.143	1054.87
444.518	1083.8
444.892	1067.3
445.267	1077.02
445.641	1085.38
446.016	1071.6
446.39	1071.82
446.764	1109.34
447.139	1102.56
447.513	1105.27
447.887	1118.37
448.262	1114.53
448.636	1129.67
449.01	1153.63
449.384	1157.92
449.758	1163.35
450.132	1160.41
450.506	1162.67
450.88	1185.49
451.254	1178.03
451.628	1215.1
452.002	1169.67
452.376	1230.24
452.75	1221.2
453.123	1214.87
453.497	1249.44
453.871	1240.63
454.244	1278.6
454.618	1262.78
454.992	1321.31
455.365	1277.69
455.739	1326.73
456.112	1357.92
456.486	1356.79
456.859	1344.81
457.232	1385.03
457.606	1400.4
457.979	1389.78
458.352	1392.72
458.725	1430
459.099	1437.01
459.472	1487.18
459.845	1465.48
460.218	1476.33
460.591	1487.86
460.964	1510.91
461.337	1539.15
461.71	1552.94
462.083	1592.03
462.456	1612.82
462.829	1576.89
463.201	1600.4
463.574	1621.86
463.947	1624.8
464.32	1674.29
464.692	1691.01
465.065	1667.96
465.438	1704.12
465.81	1726.04
466.183	1740.96
466.555	1771.01
466.928	1829.99
467.3	1779.37
467.672	1837
468.045	1872.03
468.417	1879.94
468.789	1901.86
469.161	1924.46
469.534	1953.15
469.906	1964.91
470.278	1968.75
470.65	2027.28
471.022	2041.29
471.394	2071.34
471.766	2073.38
472.138	2123.55
472.51	2113.83
472.882	2186.82
473.253	2207.84
473.625	2216.65
473.997	2278.34
474.369	2273.82
474.74	2301.62
475.112	2321.96
475.484	2327.83
475.855	2399.24
476.227	2419.13
476.598	2489.86
476.97	2493.48
477.341	2580.48
477.713	2594.49
478.084	2620.03
478.455	2677.66
478.827	2696.19
479.198	2778.9
479.569	2782.06
479.94	2852.57
480.311	2854.37
480.682	2944.77
481.053	2987.25
481.424	3029.51
481.795	3087.36
482.166	3094.59
482.537	3142.73
482.908	3199.68
483.279	3215.27
483.65	3277.19
484.021	3363.74
484.391	3375.94
484.762	3379.33
485.133	3427.24
485.503	3508.37
485.874	3550.18
486.244	3587.46
486.615	3631.75
486.985	3683.73
487.356	3740.9
487.726	3784.07
488.097	3862.26
488.467	3885.31
488.837	3907.45
489.207	3972.99
489.578	3989.94
489.948	4084.85
490.318	4116.04
490.688	4134.57
491.058	4163.49
491.428	4223.38
491.798	4292.3
492.168	4384.73
492.538	4365.52
492.908	4402.81
493.278	4419.76
493.648	4472.41
494.017	4544.73
494.387	4568
494.757	4622.92
495.126	4660.65
495.496	4635.8
495.866	4725.96
496.235	4777.94
496.605	4825.17
496.974	4775.68
497.344	4967.76
497.713	4892.51
498.082	4955.34
498.452	4976.13
498.821	5006.63
499.19	4984.94
499.559	5152.84
499.928	5184.71
500.298	5147.42
500.667	5197.14
501.036	5197.59
501.405	5249.11
501.774	5259.51
502.143	5309.45
502.512	5322.56
502.88	5373.63
503.249	5326.85
503.618	5424.25
503.987	5454.53
504.356	5503.57
504.724	5588.77
505.093	5564.81
505.462	5573.4
505.83	5675.99
506.199	5671.25
506.567	5746.28
506.936	5747.18
507.304	5791.92
507.672	5864.46
508.041	5864.92
508.409	5922.99
508.777	5931.81
509.145	6019.71
509.514	6039.83
509.882	6085.93
510.25	6044.12
510.618	6150.33
510.986	6154.85
511.354	6218.13
511.722	6270.33
512.09	6351.23
512.458	6319.14
512.826	6383.77
513.193	6398.24
513.561	6473.49
513.929	6452.47
514.297	6542.64
514.664	6621.28
515.032	6611.79
515.4	6713.71
515.767	6678.23
516.135	6696.31
516.502	6711.9
516.869	6856.53
517.237	6909.18
517.604	6840.03
517.972	7026.02
518.339	6945.57
518.706	7047.03
519.073	7070.08
519.44	7206.8
519.808	7206.12
520.175	7188.5
520.542	7334.03
520.909	7337.87
521.276	7389.85
521.643	7451.54
522.009	7520.47
522.376	7574.93
522.743	7607.7
523.11	7751.19
523.477	7704.19
523.843	7786.22
524.21	7844.07
524.577	7902.83
524.943	7965.88
525.31	8025.31
525.676	8069.38
526.043	8107.12
526.409	8147.12
526.776	8268.02
527.142	8289.94
527.508	8374.23
527.874	8388.24
528.241	8396.38
528.607	8475.7
528.973	8590.04
529.339	8498.29
529.705	8683.83
530.071	8746.2
530.437	8825.97
530.803	8794.33
531.169	8835.46
531.535	8834.78
531.901	8921.56
532.267	8956.59
532.632	9032.52
532.998	9088.56
533.364	9114.55
533.73	9201.55
534.095	9187.99
534.461	9266.63
534.826	9322.68
535.192	9322.23
535.557	9412.62
535.923	9370.36
536.288	9518.38
536.653	9468.66
537.019	9489.91
537.384	9533.29
537.749	9579.85
538.114	9605.16
538.479	9633.86
538.845	9686.51
539.21	9725.38
539.575	9782.78
539.94	9708.21
540.305	9787.07
540.67	9794.98
541.034	9894.41
541.399	9887.64
541.764	9900.06
542.129	9948.42
542.494	10006.95
542.858	10006.28
543.223	10023.9
543.587	10101.19
543.952	10009.21
544.316	10164.46
544.681	10129.21
545.045	10209.43
545.41	10324.01
545.774	10271.13
546.138	10283.78
546.503	10340.5
546.867	10308.64
547.231	10409.43
547.595	10448.98
547.959	10571.69
548.324	10492.37
548.688	10542.31
549.052	10635.86
549.416	10578.24
549.779	10576.43
550.143	10681.29
550.507	10750.21
550.871	10772.36
551.235	10744.34
551.599	10788.4
551.962	10862.98
552.326	10906.59
552.689	10986.14
553.053	10919.25
553.417	11018.68
553.78	11122.63
554.143	11122.41
554.507	11065.01
554.87	11213.93
555.234	11328.28
555.597	11262.29
555.96	11237.88
556.323	11378.22
556.686	11364.21
557.05	11455.28
557.413	11392
557.776	11488.95
558.139	11556.29
558.502	11533.24
558.865	11639.45
559.228	11755.61
559.59	11736.63
559.953	11772.33
560.316	11895.04
560.679	11929.62
561.041	11930.52
561.404	11902.72
561.767	12037.86
562.129	12098.65
562.492	12222.49
562.854	12229.04
563.217	12167.35
563.579	12322.37
563.941	12435.59
564.304	12375.71
564.666	12362.6
565.028	12443.27
565.39	12452.09
565.753	12516.94
566.115	12552.42
566.477	12672.2
566.839	12774.11
567.201	12793.1
567.563	12789.48
567.925	12944.05
568.287	12885.07
568.648	12952.64
569.01	13059.76
569.372	13056.14
569.734	13045.97
570.095	13093.65
570.457	13161.67
570.819	13219.3
571.18	13202.12
571.542	13257.26
571.903	13300.2
572.265	13360.76
572.626	13446.19
572.987	13452.97
573.349	13487.31
573.71	13522.79
574.071	13552.62
574.432	13558.27
574.794	13628.33
575.155	13672.39
575.516	13542.23
575.877	13618.38
576.238	13587.43
576.599	13686.18
576.96	13735.9
577.32	13751.49
577.681	13793.97
578.042	13941.54
578.403	13822
578.763	13958.04
579.124	13966.85
579.485	13996.45
579.845	14050.01
580.206	14010.69
580.566	13951.94
580.927	13930.69
581.287	13922.56
581.648	14002.33
582.008	14030.35
582.368	14114.19
582.728	14137.92
583.089	14134.08
583.449	14043.46
583.809	14087.53
584.169	14139.5
584.529	14050.24
584.889	14205.04
585.249	14124.13
585.609	13991.93
585.969	14090.24
586.329	14070.35
586.688	14083.91
587.048	14120.07
587.408	14073.06
587.768	14137.47
588.127	14101.99
588.487	14123.46
588.846	14188.77
589.206	13966.4
589.565	13964.82
589.925	14169.1
590.284	14142.66
590.643	14044.59
591.003	14182.21
591.362	14171.82
591.721	14153.29
592.08	14130.91
592.44	14234.41
592.799	14253.85
593.158	14171.14
593.517	14215.88
593.876	14268.31
594.235	14269.22
594.593	14158.71
594.952	14194.19
595.311	14148.09
595.67	14132.5
596.029	14194.19
596.387	14243.68
596.746	14298.82
597.104	14196.9
597.463	14207.3
597.822	14179.95
598.18	14170.23
598.538	14229.22
598.897	14299.5
599.255	14109.45
599.613	14335.43
599.972	14268.09
600.33	14260.85
600.688	14349.89
601.046	14318.03
601.404	14403
601.762	14372.72
602.12	14397.12
602.478	14460.62
602.836	14393.96
603.194	14417.91
603.552	14446.39
603.91	14391.25
604.268	14408.65
604.625	14397.57
604.983	14416.56
605.341	14363.45
605.698	14432.83
606.056	14437.35
606.413	14348.54
606.771	14480.51
607.128	14499.49
607.485	14454.52
607.843	14454.3
608.2	14535.87
608.557	14595.08
608.914	14560.51
609.272	14548.3
609.629	14568.19
609.986	14581.52
610.343	14483.67
610.7	14601.86
611.057	14596.44
611.414	14684.8
611.771	14717.11
612.127	14741.29
612.484	14713.95
612.841	14765.02
613.198	14721.63
613.554	14774.96
613.911	14841.86
614.267	14788.52
614.624	14776.09
614.98	14853.83
615.337	14890.44
615.693	14812.03
616.05	14840.73
616.406	14823.32
616.762	14828.75
617.118	14885.47
617.475	14857.9
617.831	14997.11
618.187	14845.92
618.543	14933.38
618.899	14999.59
619.255	15002.3
619.611	15000.04
619.967	14993.04
620.323	15058.57
620.678	14984.68
621.034	14926.15
621.39	14987.39
621.746	14842.76
622.101	15038.01
622.457	14942.42
622.812	15026.03
623.168	15110.55
623.523	15054.05
623.879	15089.98
624.234	14972.7
624.589	15024.9
624.945	15042.08
625.3	15023.77
625.655	15055.41
626.01	15033.71
626.365	15012.25
626.72	14959.14
627.075	15033.04
627.43	15014.73
627.785	14974.96
628.14	14987.61
628.495	15048.86
628.85	15031.23
629.205	15038.23
629.559	15135.18
629.914	14936.99
630.269	14969.99
630.623	14929.76
630.978	14906.26
631.332	15004.11
631.687	14980.38
632.041	14963.43
632.396	14897.22
632.75	14792.14
633.104	14958.46
633.459	14791.01
633.813	14815.42
634.167	14780.16
634.521	14702.2
634.875	14764.8
635.229	14735.42
635.583	14629.88
635.937	14666.27
636.291	14581.3
636.645	14644.57
636.999	14504.69
637.352	14560.28
637.706	14485.93
638.06	14577
638.413	14474.18
638.767	14446.84
639.121	14523.45
639.474	14417.46
639.828	14440.74
640.181	14462.88
640.534	14453.39
640.888	14384.01
641.241	14404.35
641.594	14327.29
641.947	14405.48
642.301	14351.7
642.654	14372.72
643.007	14323.9
643.36	14309.89
643.713	14232.15
644.066	14332.49
644.419	14270.35
644.771	14146.05
645.124	14075.55
645.477	14060.41
645.83	13855.67
646.182	13831.03
646.535	13822
646.888	13777.25
647.24	13685.5
647.593	13744.71
647.945	13717.82
648.298	13644.82
648.65	13640.31
649.002	13627.65
649.355	13642.34
649.707	13611.38
650.059	13688.67
650.411	13879.85
650.763	13897.02
651.115	14020.86
651.467	13934.31
651.819	13995.78
652.171	13888.43
652.523	13864.03
652.875	13894.76
653.227	13844.59
653.578	13974.31
653.93	13852.95
654.282	13869
654.633	13770.92
654.985	13815.89
655.337	13801.88
655.688	13803.46
656.039	13831.26
656.391	13667.2
656.742	13756.46
657.094	13737.48
657.445	13716.46
657.796	13780.19
658.147	13771.38
658.498	13732.73
658.849	13713.75
659.2	13728.89
659.551	13702.68
659.902	13676.69
660.253	13724.37
660.604	13667.88
660.955	13636.92
661.306	13784.71
661.656	13568.44
662.007	13599.4
662.358	13560.08
662.708	13597.14
663.059	13496.58
663.409	13508.11
663.76	13524.38
664.11	13595.33
664.461	13658.16
664.811	13612.28
665.161	13643.69
665.511	13584.71
665.862	13559.63
666.212	13541.55
666.562	13554.21
666.912	13507.65
667.262	13455
667.612	13504.04
667.962	13559.18
668.312	13399.63
668.662	13519.86
669.011	13449.12
669.361	13445.73
669.711	13400.99
670.06	13332.74
670.41	13385.4
670.76	13333.87
671.109	13332.74
671.459	13335.45
671.808	13300.43
672.157	13325.96
672.507	13248.9
672.856	13318.73
673.205	13216.36
673.554	13342.46
673.904	13304.72
674.253	13334.32
674.602	13277.6
674.951	13089.81
675.3	12996.93
675.649	13301.56
675.998	13304.04
676.346	13323.25
676.695	13412.06
677.044	13194.89
677.393	13292.97
677.741	13155.35
678.09	13178.85
678.438	13131.84
678.787	13112.64
679.135	13172.52
679.484	13073.77
679.832	13131.17
680.181	13045.97
680.529	13121.45
680.877	13045.97
681.225	13090.04
681.573	13030.38
681.922	13029.47
682.27	12901.79
682.618	12953.32
682.966	13001.68
683.314	12986.99
683.661	12885.3
684.009	12896.6
684.357	12881
684.705	12835.81
685.053	12891.17
685.4	12869.93
685.748	12783.38
686.095	12688.01
686.443	12626.09
686.79	12638.98
687.138	12645.98
687.485	12662.03
687.832	12596.94
688.18	12666.32
688.527	12500.45
688.874	12503.16
689.221	12485.99
689.568	12429.94
689.915	12516.27
690.262	12419.09
690.609	12368.93
690.956	12295.26
691.303	12208.03
691.65	12217.07
691.997	12227.01
692.344	12120.8
692.69	12113.79
693.037	12187.24
693.383	12024.3
693.73	12128.93
694.077	12038.54
694.423	12069.73
694.769	12051.87
695.116	11939.56
695.462	11928.49
695.808	11914.47
696.155	11973.91
696.501	11822.95
696.847	11864.31
697.193	11729.17
697.539	11853.91
697.885	11694.82
698.231	11616.63
698.577	11631.54
698.923	11645.1
699.269	11562.85
699.614	11491.44
699.96	11497.31
700.306	11394.49
700.651	11441.27
700.997	11350.65
701.342	11377.77
701.688	11412.34
702.033	11306.81
702.379	11318.56
702.724	11366.69
703.069	11320.82
703.415	11203.53
703.76	11190.43
704.105	11197.88
704.45	11179.58
704.795	11103.42
705.14	11063.2
705.485	11060.26
705.83	11002.86
706.175	10964.9
706.52	10992.01
706.865	10934.61
707.209	10970.32
707.554	10943.2
707.899	10913.6
708.243	10865.01
708.588	10891
708.932	10799.93
709.277	10823.43
709.621	10795.86
709.966	10714.96
710.31	10787.72
710.654	10687.84
710.998	10697.11
711.342	10675.19
711.687	10659.82
712.031	10610.1
712.375	10522.65
712.719	10559.93
713.063	10501.18
713.407	10581.85
713.75	10500.05
714.094	10498.92
714.438	10430.67
714.782	10404.01
715.125	10381.86
715.469	10466.6
715.812	10319.04
716.156	10234.75
716.499	10240.17
716.843	10292.37
717.186	10283.56
717.53	10268.42
717.873	10303.67
718.216	10244.01
718.559	10259.15
718.902	10101.64
719.246	10222.77
719.589	10144.35
719.932	10083.34
720.275	10168.98
720.617	10149.1
720.96	10165.82
721.303	10037.24
721.646	10024.36
721.989	10032.26
722.331	10080.62
722.674	10043.79
723.016	9971.7
723.359	9946.17
723.701	9993.85
724.044	9942.55
724.386	9888.77
724.729	9845.38
725.071	9905.71
725.413	9801.54
725.755	9874.08
726.097	9729
726.439	9765.83
726.782	9760.86
727.124	9758.6
727.465	9782.78
727.807	9697.13
728.149	9766.06
728.491	9761.09
728.833	9748.43
729.175	9665.95
729.516	9657.13
729.858	9631.6
730.199	9617.59
730.541	9616.68
730.882	9591.6
731.224	9593.41
731.565	9489
731.906	9524.03
732.248	9492.62
732.589	9466.86
732.93	9425.05
733.271	9495.33
733.612	9465.73
733.953	9469.79
734.294	9447.42
734.635	9366.07
734.976	9401.77
735.317	9385.73
735.658	9361.55
735.999	9369.91
736.339	9277.48
736.68	9312.74
737.021	9284.94
737.361	9226.86
737.702	9309.35
738.042	9262.57
738.383	9252.62
738.723	9200.65
739.063	9221.44
739.404	9177.15
739.744	9175.11
740.084	9171.5
740.424	9182.8
740.764	9136.69
741.104	9117.94
741.444	9085.62
741.784	9084.27
742.124	9088.56
742.464	9034.32
742.804	9055.57
743.143	8989.35
743.483	9021.22
743.823	9003.59
744.162	8992.97
744.502	9053.99
744.841	8967.66
745.181	9006.75
745.52	8957.04
745.86	9014.66
746.199	8900.99
746.538	8870.94
746.877	8920.66
747.216	8932.18
747.556	8821
747.895	8833.65
748.234	8778.74
748.573	8909.13
748.911	8879.98
749.25	8792.75
749.589	8785.52
749.928	8725.18
750.267	8781.68
750.605	8741.9
750.944	8793.65
751.283	8660.32
751.621	8737.61
751.96	8708.91
752.298	8747.33
752.636	8648.35
752.975	8630.27
753.313	8608.35
753.651	8625.97
753.989	8573.77
754.327	8544.17
754.666	8578.52
755.004	8570.61
755.342	8559.76
755.679	8516.82
756.017	8474.57
756.355	8367.22
756.693	8350.73
757.031	8374.91
757.368	8354.12
757.706	8334.23
758.044	8297.17
758.381	8289.03
758.719	8293.55
759.056	8264.63
759.394	8241.13
759.731	8121.81
760.068	8183.73
760.405	8148.25
760.743	8088.36
761.08	8118.64
761.417	8055.59
761.754	8058.31
762.091	8035.71
762.428	7963.39
762.765	7984.41
763.102	8003.84
763.438	7954.58
763.775	7882.49
764.112	7902.6
764.449	7916.16
764.785	7840.91
765.122	7880
765.458	7799.78
765.795	7820.57
766.131	7800.68
766.467	7766.34
766.804	7738.77
767.14	7752.32
767.476	7656.06
767.812	7685.66
768.148	7675.04
768.485	7623.97
768.821	7585.1
769.157	7570.86
769.492	7536.51
769.828	7522.27
770.164	7465.1
770.5	7466.91
770.836	7455.16
771.171	7388.27
771.507	7398.89
771.842	7357.76
772.178	7336.52
772.513	7307.59
772.849	7295.16
773.184	7211.77
773.519	7189.4
773.855	7147.59
774.19	7136.75
774.525	7117.76
774.86	7197.76
775.195	7136.52
775.53	7131.78
775.865	7097.43
776.2	7018.11
776.535	6937.66
776.87	6995.51
777.205	6985.79
777.539	6935.17
777.874	6958.22
778.209	6901.95
778.543	6884.55
778.878	6795.74
779.212	6802.97
779.547	6769.53
779.881	6772.01
780.215	6743.76
780.55	6737.66
780.884	6640.72
781.218	6622.64
781.552	6640.49
781.886	6592.35
782.22	6536.99
782.554	6541.28
782.888	6495.86
783.222	6457.44
783.556	6488.63
783.889	6416.99
784.223	6457.67
784.557	6411.57
784.89	6433.26
785.224	6357.33
785.557	6338.8
785.891	6396.43
786.224	6341.97
786.558	6325.02
786.891	6251.12
787.224	6251.12
787.557	6220.16
787.891	6224.91
788.224	6220.39
788.557	6262.19
788.89	6199.37
789.223	6149.65
789.556	6167.06
789.888	6117.79
790.221	6103.33
790.554	6052.03
790.887	6078.92
791.219	6034.63
791.552	5974.52
791.884	5941.98
792.217	5969.32
792.549	5929.55
792.882	5905.59
793.214	5850.68
793.546	5859.04
793.879	5825.82
794.211	5838.02
794.543	5890.23
794.875	5800.74
795.207	5824.69
795.539	5776.78
795.871	5717.12
796.203	5755.31
796.535	5696.56
796.867	5709.67
797.198	5670.35
797.53	5641.42
797.862	5659.05
798.193	5634.87
798.525	5615.43
798.856	5585.38
799.188	5583.34
799.519	5547.86
799.85	5507.19
800.182	5496.79
800.513	5574.08
800.844	5482.55
801.175	5520.29
801.506	5472.61
801.837	5428.32
802.168	5464.7
802.499	5444.81
802.83	5388.54
803.161	5355.1
803.491	5345.83
803.822	5318.72
804.153	5339.51
804.483	5273.75
804.814	5256.12
805.145	5252.96
805.475	5269.9
805.805	5204.82
806.136	5191.94
806.466	5196.91
806.796	5230.58
807.126	5188.78
807.457	5190.81
807.787	5161.66
808.117	5142
808.447	5144.94
808.777	5169.12
809.107	5167.08
809.436	5113.75
809.766	5148.78
810.096	5063.13
810.426	5043.02
810.755	5007.99
811.085	5003.7
811.414	5005.96
811.744	5010.02
812.073	4970.25
812.403	4964.83
812.732	4944.04
813.061	4926.86
813.39	4951.04
813.719	4910.59
814.049	4932.96
814.378	4904.94
814.707	4939.07
815.036	4910.59
815.365	4849.12
815.693	4846.41
816.022	4854.1
816.351	4807.54
816.68	4714.66
817.008	4804.15
817.337	4794.21
817.665	4778.17
817.994	4773.65
818.322	4737.49
818.651	4738.17
818.979	4747.43
819.307	4731.39
819.636	4735
819.964	4696.59
820.292	4714.21
820.62	4661.11
820.948	4695.23
821.276	4690.03
821.604	4680.31
821.932	4703.37
822.259	4683.25
822.587	4672.41
822.915	4664.04
823.243	4692.52
823.57	4665.85
823.898	4623.14
824.225	4700.43
824.553	4709.92
824.88	4681.9
825.207	4705.4
825.535	4645.74
825.862	4738.84
826.189	4694.78
826.516	4753.76
826.843	4716.02
827.17	4705.85
827.497	4691.16
827.824	4652.97
828.151	4738.62
828.478	4699.07
828.805	4729.35
829.131	4683.93
829.458	4638.28
829.785	4681.44
830.111	4647.32
830.438	4633.99
830.764	4704.04
831.09	4685.96
831.417	4676.47
831.743	4640.77
832.069	4651.39
832.395	4687.55
832.722	4670.82
833.048	4650.94
833.374	4644.38
833.7	4626.98
834.026	4626.3
834.351	4665.17
834.677	4635.34
835.003	4601.45
835.329	4626.3
835.654	4596.02
835.98	4621.56
836.306	4600.32
836.631	4591.96
836.956	4640.54
837.282	4604.84
837.607	4624.05
837.932	4584.05
838.258	4597.83
838.583	4551.5
838.908	4516.25
839.233	4548.57
839.558	4530.04
839.883	4514.22
840.208	4514.44
840.533	4525.97
840.858	4529.36
841.182	4469.47
841.507	4440.32
841.832	4418.4
842.156	4437.61
842.481	4519.87
842.805	4444.39
843.13	4450.49
843.454	4436.93
843.778	4424.95
844.103	4453.43
844.427	4405.07
844.751	4374.33
845.075	4401
845.399	4321.68
845.723	4385.86
846.047	4388.35
846.371	4330.04
846.695	4326.2
847.019	4272.87
847.343	4259.31
847.666	4295.24
847.99	4190.16
848.313	4199.65
848.637	4219.99
848.96	4185.64
849.284	4208.24
849.607	4128.92
849.931	4094.34
850.254	4111.97
850.577	4103.83
850.9	4063.83
851.223	4091.18
851.546	4083.95
851.869	4036.72
852.192	4036.26
852.515	4016.15
852.838	3976.38
853.161	3954.01
853.483	3959.2
853.806	3920.56
854.129	3943.39
854.451	3924.4
854.774	3917.17
855.096	3925.53
855.419	3863.16
855.741	3899.09
856.063	3872.65
856.385	3898.87
856.708	3889.15
857.03	3858.19
857.352	3855.48
857.674	3813.22
857.996	3795.14
858.318	3776.84
858.64	3796.27
858.961	3808.93
859.283	3752.66
859.605	3758.31
859.926	3772.54
860.248	3735.25
860.57	3739.77
860.891	3752.66
861.212	3683.96
861.534	3718.98
861.855	3695.71
862.176	3710.62
862.498	3734.58
862.819	3701.36
863.14	3710.85
863.461	3678.76
863.782	3667.91
864.103	3648.93
864.424	3627.69
864.745	3655.71
865.065	3627.46
865.386	3652.55
865.707	3660.91
866.027	3652.77
866.348	3621.13
866.668	3633.56
866.989	3679.44
867.309	3596.73
867.63	3599.21
867.95	3615.94
868.27	3554.24
868.59	3607.8
868.91	3571.19
869.23	3577.07
869.55	3559.21
869.87	3565.54
870.19	3569.61
870.51	3577.74
870.83	3572.1
871.15	3542.72
871.469	3509.27
871.789	3530.06
872.109	3480.57
872.428	3493.91
872.748	3526.67
873.067	3531.42
873.386	3544.75
873.706	3510.4
874.025	3483.06
874.344	3482.61
874.663	3460.91
874.982	3443.96
875.301	3463.62
875.62	3460.91
875.939	3436.51
876.258	3391.54
876.577	3409.16
876.896	3425.88
877.214	3417.75
877.533	3382.27
877.852	3393.79
878.17	3425.88
878.489	3384.3
878.807	3441.48
879.125	3447.58
879.444	3408.48
879.762	3401.93
880.08	3365.32
880.398	3382.5
880.716	3408.03
881.034	3357.86
881.352	3367.13
881.67	3331.88
881.988	3396.96
882.306	3333.01
882.624	3314.93
882.941	3344.08
883.259	3355.38
883.577	3312.44
883.894	3303.85
884.212	3377.75
884.529	3362.16
884.846	3339.79
885.164	3316.73
885.481	3263.18
885.798	3274.02
886.115	3240.8
886.432	3255.49
886.75	3236.06
887.067	3232.67
887.383	3231.54
887.7	3199.9
888.017	3207.59
888.334	3228.15
888.651	3248.26
888.967	3151.09
889.284	3192.22
889.6	3167.36
889.917	3151.77
890.233	3158.32
890.55	3131.65
890.866	3180.24
891.182	3111.32
891.498	3126.46
891.815	3128.94
892.131	3119.68
892.447	3117.42
892.763	3092.79
893.079	3072.67
893.395	3091.2
893.71	3121.94
894.026	3036.52
894.342	3063.18
894.657	3017.08
894.973	3085.1
895.289	3035.84
895.604	3005.33
895.92	3018.44
896.235	3020.47
896.55	2990.42
896.865	3016.4
897.181	3000.36
897.496	2985.44
897.811	2994.03
898.126	2979.57
898.441	2924.65
898.756	2920.14
899.071	2900.7
899.386	2898.67
899.7	2908.16
900.015	2883.75
900.33	2859.8
900.644	2870.87
900.959	2851.21
901.273	2857.09
901.588	2820.02
901.902	2829.29
902.216	2814.38
902.531	2843.07
902.845	2813.92
903.159	2864.77
903.473	2773.02
903.787	2799.46
904.101	2717.65
904.415	2761.27
904.729	2745.68
905.042	2759.46
905.356	2781.38
905.67	2733.93
905.984	2752.46
906.297	2754.72
906.611	2718.56
906.924	2719.01
907.237	2697.54
907.551	2657.54
907.864	2690.76
908.177	2683.98
908.491	2672.46
908.804	2656.19
909.117	2634.94
909.43	2627.94
909.743	2594.49
910.056	2627.71
910.368	2614.38
910.681	2591.33
910.994	2591.1
911.307	2585.91
911.619	2548.85
911.932	2553.59
912.244	2580.71
912.557	2537.55
912.869	2552.24
913.181	2530.77
913.494	2520.37
913.806	2513.59
914.118	2490.77
914.43	2442.63
914.742	2486.7
915.054	2451.22
915.366	2435.85
915.678	2411.22
915.99	2445.57
916.302	2422.97
916.613	2385.91
916.925	2385.69
917.236	2400.6
917.548	2384.78
917.859	2367.16
918.171	2365.8
918.482	2354.5
918.794	2332.35
919.105	2356.08
919.416	2321.05
919.727	2334.16
920.038	2337.55
920.349	2299.36
920.66	2307.72
920.971	2328.96
921.282	2307.04
921.593	2264.33
921.903	2275.63
922.214	2265.91
922.525	2252.36
922.835	2274.28
923.146	2260.27
923.456	2248.29
923.767	2231.79
924.077	2215.52
924.387	2202.41
924.697	2197.67
925.008	2190.44
925.318	2170.55
925.628	2164.22
925.938	2150.44
926.248	2158.35
926.558	2115.41
926.867	2123.09
927.177	2151.57
927.487	2132.81
927.796	2102.3
928.106	2108.63
928.416	2117.22
928.725	2098.69
929.034	2067.05
929.344	2096.65
929.653	2066.6
929.962	2065.47
930.271	2069.31
930.581	2049.42
930.89	2055.75
931.199	2008.07
931.508	2033.83
931.817	2013.04
932.125	2028.41
932.434	2001.52
932.743	2000.84
933.051	1967.17
933.36	1979.82
933.669	1960.61
933.977	1929.2
934.286	1943.89
934.594	1969.43
934.902	1962.19
935.21	1948.41
935.519	1920.61
935.827	1947.73
936.135	1934.4
936.443	1915.64
936.751	1908.18
937.059	1904.12
937.367	1884.46
937.674	1882.87
937.982	1852.59
938.29	1856.21
938.597	1848.07
938.905	1843.78
939.213	1860.28
939.52	1826.6
939.827	1834.97
940.135	1817.57
940.442	1836.1
940.749	1793.61
941.056	1808.75
941.363	1760.84
941.67	1764.23
941.977	1763.78
942.284	1773.72
942.591	1765.14
942.898	1720.84
943.205	1738.47
943.511	1737.34
943.818	1730.34
944.125	1709.09
944.431	1724.91
944.738	1730.79
945.044	1707.96
945.35	1693.27
945.657	1707.96
945.963	1702.31
946.269	1699.83
946.575	1680.39
946.881	1663.22
947.187	1661.19
947.493	1684.91
947.799	1672.71
948.105	1669.55
948.41	1628.64
948.716	1637.91
949.022	1660.06
949.327	1660.73
949.633	1626.38
949.938	1624.58
950.244	1598.14
950.549	1629.55
950.854	1633.62
951.16	1585.48
951.465	1604.24
951.77	1575.99
952.075	1558.14
952.38	1585.93
952.685	1574.18
952.99	1567.85
953.294	1542.77
953.599	1558.81
953.904	1560.17
954.209	1519.72
954.513	1540.96
954.818	1534.86
955.122	1505.48
955.426	1532.37
955.731	1507.97
956.035	1509.32
956.339	1503.22
956.643	1486.5
956.948	1471.13
957.252	1510.23
957.556	1506.16
957.86	1495.77
958.163	1486.27
958.467	1492.83
958.771	1472.49
959.075	1435.43
959.378	1422.55
959.682	1459.83
959.985	1454.86
960.289	1427.07
960.592	1429.33
960.896	1431.13
961.199	1418.25
961.502	1415.77
961.805	1406.95
962.108	1409.89
962.411	1400.18
962.714	1398.82
963.017	1384.36
963.32	1364.92
963.623	1392.04
963.926	1373.06
964.228	1367.18
964.531	1375.77
964.833	1368.76
965.136	1359.95
965.438	1354.07
965.741	1349.1
966.043	1313.4
966.345	1347.97
966.648	1314.53
966.95	1316.79
967.252	1302.1
967.554	1302.55
967.856	1302.1
968.158	1286.05
968.46	1279.95
968.761	1299.84
969.063	1283.57
969.365	1257.13
969.666	1277.69
969.968	1237.69
970.269	1253.96
970.571	1250.35
970.872	1234.53
971.174	1260.74
971.475	1269.56
971.776	1254.87
972.077	1234.98
972.378	1244.7
972.679	1222.78
972.98	1256.45
973.281	1248.31
973.582	1199.95
973.883	1208.54
974.183	1213.06
974.484	1206.28
974.785	1201.76
975.085	1224.13
975.386	1189.79
975.686	1213.51
975.986	1180.97
976.287	1192.5
976.587	1174.64
976.887	1184.81
977.187	1161.99
977.487	1178.49
977.787	1159.05
978.087	1170.12
978.387	1165.38
978.687	1159.05
978.987	1157.24
979.286	1173.06
979.586	1139.39
979.885	1145.04
980.185	1153.4
980.484	1145.49
980.784	1121.09
981.083	1151.82
981.382	1117.47
981.682	1131.71
981.981	1116.34
982.28	1113.85
982.579	1081.54
982.878	1096.23
983.177	1093.97
983.475	1116.79
983.774	1088.77
984.073	1089.22
984.372	1055.1
984.67	1054.2
984.969	1089.9
985.267	1049.68
985.566	1039.05
985.864	1056.91
986.162	1056.23
986.461	1055.1
986.759	1057.13
987.057	1064.36
987.355	1040.18
987.653	1044.93
987.951	1023.46
988.249	1028.21
988.547	1020.07
988.844	1041.09
989.142	999.06
989.44	1006.06
989.737	1028.43
990.035	1004.93
990.332	993.41
990.63	998.38
990.927	990.24
991.224	1010.58
991.521	990.24
991.819	977.36
992.116	999.28
992.413	993.63
992.71	983.01
993.006	975.78
993.303	959.06
993.6	976.01
993.897	948.89
994.193	956.12
994.49	954.99
994.787	960.41
995.083	959.28
995.379	946.63
995.676	947.31
995.972	930.81
996.268	921.32
996.565	908.21
996.861	919.96
997.157	908.44
997.453	935.55
997.749	919.06
998.044	896.91
998.34	908.89
998.636	912.28
998.932	912.5
999.227	882.22
999.523	891.04
999.818	892.62
1000.114	897.59
1000.409	884.93
1000.704	877.7
1001	875.44
1001.295	895.33
1001.59	878.38
1001.885	865.5
1002.18	870.7
1002.475	863.47
1002.77	884.26
1003.065	865.95
1003.359	841.77
1003.654	853.3
1003.949	845.61
1004.243	855.78
1004.538	860.08
1004.832	839.96
1005.127	837.7
1005.421	810.81
1005.715	830.47
1006.009	790.25
1006.304	820.98
1006.598	821.89
1006.892	802.22
1007.186	786.63
1007.48	797.93
1007.773	809.23
1008.067	793.64
1008.361	796.12
1008.655	765.62
1008.948	798.83
1009.242	771.04
1009.535	782.79
1009.829	769.01
1010.122	767.88
1010.415	781.21
1010.708	755.9
1011.001	746.41
1011.295	747.54
1011.588	756.8
1011.881	746.86
1012.173	747.31
1012.466	755.45
1012.759	748.44
1013.052	763.13
1013.344	752.51
1013.637	737.82
1013.93	743.24
1014.222	742.57
1014.514	713.64
1014.807	736.92
1015.099	719.51
1015.391	723.58
1015.683	704.6
1015.976	718.39
1016.268	698.5
1016.56	703.47
1016.851	709.57
1017.143	698.05
1017.435	687.88
1017.727	698.72
1018.018	703.02
1018.31	690.36
1018.602	686.07
1018.893	665.05
1019.185	694.2
1019.476	681.78
1019.767	677.03
1020.058	678.84
1020.35	669.57
1020.641	662.79
1020.932	640.42
1021.223	663.7
1021.514	657.82
1021.804	667.31
1022.095	657.6
1022.386	650.82
1022.677	645.84
1022.967	635.9
1023.258	641.32
1023.548	628.9
1023.839	623.25
1024.129	640.2
1024.419	637.48
1024.709	649.46
1025	616.24
1025.29	610.37
1025.58	624.15
1025.87	622.79
1026.16	622.79
1026.449	617.6
1026.739	616.69
1027.029	610.59
1027.319	607.2
1027.608	611.27
1027.898	595.45
1028.187	588.44
1028.477	587.54
1028.766	605.17
1029.055	599.29
1029.344	613.53
1029.634	604.94
1029.923	571.72
1030.212	595.9
1030.501	602.46
1030.79	601.78
1031.078	607.65
1031.367	559.75
1031.656	564.72
1031.945	575.56
1032.233	564.49
1032.522	573.08
1032.81	569.46
1033.099	571.72
1033.387	544.38
1033.675	524.49
1033.963	545.73
1034.251	576.24
1034.54	543.25
1034.828	563.59
1035.116	555.9
1035.403	539.41
1035.691	548.22
1035.979	522.46
1036.267	531.72
1036.554	524.49
1036.842	510.25
1037.129	522.46
1037.417	520.42
1037.704	537.37
1037.992	520.88
1038.279	528.56
1038.566	495.79
1038.853	495.79
1039.14	495.79
