Data from black_metal_pc_casing_FLMS001491_00069.txt Node
Date: Wed Feb 08 14:33:19 GMT 2017
User: dcchb
Spectrometer: FLMS00149
Trigger mode: 0
Integration Time (sec): 2.000000E-2
Scans to average: 10
Electric dark correction enabled: true
Nonlinearity correction enabled: false
Boxcar width: 0
XAxis mode: Wavelengths
Number of Pixels in Spectrum: 2048
>>>>>Begin Spectral Data<<<<<
341.393	11.13
341.776	11.13
342.16	11.13
342.543	-73.61
342.927	-73.16
343.31	-64.8
343.693	-80.39
344.077	-35.2
344.46	-69.55
344.843	-53.73
345.226	-55.54
345.61	-35.87
345.993	-20.96
346.376	-16.21
346.759	-10.11
347.142	32.6
347.525	45.71
347.908	74.4
348.291	91.35
348.674	96.55
349.057	101.75
349.44	106.72
349.823	151.01
350.206	164.8
350.588	174.74
350.971	203.67
351.354	205.7
351.737	230.11
352.119	244.12
352.502	249.54
352.884	255.64
353.267	258.58
353.65	268.98
354.032	274.17
354.414	305.81
354.797	299.71
355.179	298.35
355.562	304.46
355.944	329.54
356.326	320.5
356.709	301.97
357.091	318.01
357.473	328.41
357.855	321.86
358.238	340.61
358.62	335.19
359.002	339.71
359.384	327.51
359.766	332.93
360.148	331.57
360.53	319.37
360.912	327.28
361.294	323.44
361.676	329.99
362.057	328.18
362.439	326.83
362.821	328.86
363.203	309.65
363.584	320.73
363.966	314.17
364.348	310.1
364.729	317.34
365.111	308.52
365.493	335.19
365.874	315.3
366.256	313.72
366.637	311.01
367.019	309.2
367.4	289.09
367.781	316.88
368.163	294.74
368.544	309.65
368.925	310.1
369.306	310.78
369.688	313.27
370.069	306.26
370.45	293.38
370.831	293.61
371.212	311.69
371.593	296.09
371.974	309.88
372.355	321.18
372.736	322.76
373.117	306.26
373.498	329.31
373.879	307.17
374.26	312.14
374.641	322.99
375.021	289.54
375.402	298.13
375.783	338.8
376.163	326.38
376.544	333.61
376.925	336.54
377.305	306.49
377.686	346.94
378.066	348.52
378.447	329.77
378.827	342.87
379.208	338.35
379.588	350.78
379.968	331.8
380.349	328.64
380.729	344.45
381.109	346.26
381.489	317.34
381.87	348.97
382.25	340.61
382.63	335.41
383.01	356.66
383.39	348.97
383.77	346.26
384.15	348.07
384.53	355.53
384.91	341.52
385.29	348.97
385.67	353.04
386.049	362.31
386.429	345.13
386.809	361.4
387.189	349.43
387.568	370.44
387.948	349.65
388.328	355.08
388.707	374.96
389.087	381.97
389.466	377.9
389.846	349.88
390.225	368.86
390.605	365.02
390.984	362.08
391.363	380.16
391.743	381.74
392.122	380.61
392.501	353.04
392.881	386.26
393.26	374.96
393.639	405.92
394.018	371.8
394.397	386.49
394.776	388.52
395.155	366.83
395.534	388.52
395.913	388.29
396.292	389.2
396.671	400.27
397.05	414.51
397.429	403.89
397.808	423.32
398.186	406.15
398.565	406.37
398.944	407.05
399.323	428.07
399.701	430.78
400.08	415.41
400.458	407.73
400.837	426.26
401.215	422.19
401.594	419.25
401.972	422.19
402.351	433.49
402.729	435.98
403.107	412.48
403.486	420.84
403.864	435.98
404.242	411.12
404.62	437.79
404.999	452.93
405.377	458.8
405.755	457.22
406.133	448.41
406.511	473.04
406.889	482.98
407.267	455.64
407.645	481.63
408.023	492.7
408.401	485.69
408.779	477.78
409.156	471
409.534	492.25
409.912	518.69
410.29	505.81
410.667	507.16
411.045	503.55
411.422	527.73
411.8	494.51
412.178	518.91
412.555	511.23
412.933	527.27
413.31	539.03
413.687	541.74
414.065	531.57
414.442	546.03
414.819	524.56
415.197	538.8
415.574	554.17
415.951	545.13
416.328	553.94
416.705	541.74
417.082	533.15
417.46	555.07
417.837	567.5
418.214	555.3
418.591	555.97
418.967	557.78
419.344	581.51
419.721	602.3
420.098	595.3
420.475	602.07
420.852	609.53
421.228	631.68
421.605	579.7
421.982	595.52
422.358	624.9
422.735	608.18
423.111	612.02
423.488	611.11
423.864	638.23
424.241	630.77
424.617	619.48
424.994	638.91
425.37	628.97
425.746	649.3
426.123	656.76
426.499	646.37
426.875	649.08
427.251	668.74
427.627	670.32
428.003	668.74
428.379	670.32
428.756	684.56
429.132	684.78
429.507	715.29
429.883	728.85
430.259	753.48
430.635	732.24
431.011	709.64
431.387	745.57
431.763	738.79
432.138	751.9
432.514	773.14
432.89	760.49
433.265	768.17
433.641	744.44
434.016	768.85
434.392	783.09
434.767	793.93
435.143	776.76
435.518	828.74
435.894	813.14
436.269	814.72
436.644	832.35
437.02	831
437.395	829.64
437.77	833.71
438.145	876.87
438.52	838
438.895	866.7
439.271	869.41
439.646	888.39
440.021	875.74
440.395	903.31
440.77	878.23
441.145	893.14
441.52	908.51
441.895	909.64
442.27	942.63
442.645	915.74
443.019	925.91
443.394	922.74
443.769	936.08
444.143	952.12
444.518	941.5
444.892	938.79
445.267	986.47
445.641	969.97
446.016	962.74
446.39	993.7
446.764	964.78
447.139	977.66
447.513	993.7
447.887	996.41
448.262	994.38
448.636	990.31
449.01	1020.82
449.384	1023.98
449.758	1038.9
450.132	1033.48
450.506	1043.87
450.88	1051.78
451.254	1017.43
451.628	1049.52
452.002	1077.09
452.376	1082.06
452.75	1058.33
453.123	1073.02
453.497	1112.34
453.871	1110.54
454.244	1116.86
454.618	1136.3
454.992	1165.9
455.365	1162.51
455.739	1171.1
456.112	1217.65
456.486	1191.44
456.859	1224.66
457.232	1209.52
457.606	1213.81
457.979	1231.44
458.352	1240.25
458.725	1244.77
459.099	1258.55
459.472	1313.69
459.845	1316.86
460.218	1293.58
460.591	1327.48
460.964	1310.08
461.337	1353.69
461.71	1352.34
462.083	1389.17
462.456	1388.95
462.829	1407.48
463.201	1424.88
463.574	1407.48
463.947	1473.92
464.32	1475.05
464.692	1462.16
465.065	1477.76
465.438	1525.89
465.81	1524.76
466.183	1562.95
466.555	1554.37
466.928	1545.1
467.3	1590.07
467.672	1574.93
468.045	1620.58
468.417	1640.92
468.789	1669.39
469.161	1677.75
469.534	1680.92
469.906	1740.12
470.278	1736.96
470.65	1753.68
471.022	1755.49
471.394	1811.53
471.766	1800.69
472.138	1827.35
472.51	1862.61
472.882	1849.95
473.253	1911.19
473.625	1945.99
473.997	1971.76
474.369	1996.61
474.74	2008.14
475.112	2030.74
475.484	2052.88
475.855	2088.82
476.227	2087.23
476.598	2144.86
476.97	2184.41
477.341	2206.78
477.713	2259.21
478.084	2269.15
478.455	2301.92
478.827	2310.05
479.198	2389.15
479.569	2363.38
479.94	2421.69
480.311	2465.08
480.682	2488.58
481.053	2568.58
481.424	2596.37
481.795	2617.16
482.166	2664.17
482.537	2704.62
482.908	2756.82
483.279	2787.1
483.65	2827.33
484.021	2891.05
484.391	2881.34
484.762	2891.96
485.133	2968.34
485.503	2991.84
485.874	3038.17
486.244	3085.4
486.615	3087.66
486.985	3158.62
487.356	3220.99
487.726	3224.83
488.097	3279.52
488.467	3322.91
488.837	3380.76
489.207	3431.83
489.578	3429.34
489.948	3437.93
490.318	3517.93
490.688	3544.6
491.058	3610.81
491.428	3613.07
491.798	3684.71
492.168	3745.49
492.538	3732.16
492.908	3773.97
493.278	3853.97
493.648	3846.96
494.017	3904.36
494.387	3942.1
494.757	3962.89
495.126	4002.89
495.496	3993.62
495.866	4038.14
496.235	4100.06
496.605	4087.41
496.974	4142.32
497.344	4190.23
497.713	4209.89
498.082	4209.44
498.452	4261.41
498.821	4265.26
499.19	4317.91
499.559	4348.64
499.928	4388.19
500.298	4418.47
500.667	4457.11
501.036	4450.33
501.405	4513.38
501.774	4497.11
502.143	4570.11
502.512	4601.52
502.88	4646.04
503.249	4592.03
503.618	4621.86
503.987	4691.23
504.356	4688.29
504.724	4717.45
505.093	4755.41
505.462	4765.81
505.83	4833.38
506.199	4837.67
506.567	4899.59
506.936	4898.68
507.304	4963.09
507.672	4986.59
508.041	5007.83
508.409	5016.2
508.777	5073.82
509.145	5110.2
509.514	5119.47
509.882	5159.92
510.25	5208.06
510.618	5218
510.986	5210.09
511.354	5295.51
511.722	5361.27
512.09	5462.06
512.458	5377.54
512.826	5429.29
513.193	5463.42
513.561	5519.69
513.929	5586.58
514.297	5592.68
514.664	5656.4
515.032	5679.68
515.4	5739.34
515.767	5724.88
516.135	5798.55
516.502	5775.95
516.869	5852.56
517.237	5868.15
517.604	5904.76
517.972	5911.54
518.339	5991.54
518.706	6043.74
519.073	6000.35
519.44	6117.18
519.808	6126
520.175	6192.66
520.542	6242.83
520.909	6215.26
521.276	6247.58
521.643	6355.82
522.009	6373.22
522.376	6471.75
522.743	6504.97
523.11	6537.29
523.477	6575.93
523.843	6679.88
524.21	6647.11
524.577	6756.94
524.943	6782.93
525.31	6816.15
525.676	6889.37
526.043	6919.42
526.409	6922.36
526.776	7008.91
527.142	7060.44
527.508	7099.08
527.874	7128
528.241	7226.31
528.607	7236.48
528.973	7300.43
529.339	7285.51
529.705	7327.77
530.071	7422.91
530.437	7396.47
530.803	7504.49
531.169	7534.32
531.535	7530.48
531.901	7497.71
532.267	7594.89
532.632	7688.22
532.998	7682.57
533.364	7759.4
533.73	7789.23
534.095	7915.33
534.461	7915.33
534.826	7967.53
535.192	7946.51
535.557	8095.21
535.923	7968.43
536.288	8085.72
536.653	8092.5
537.019	8102.22
537.384	8167.07
537.749	8157.13
538.114	8159.39
538.479	8226.96
538.845	8282.78
539.21	8290.69
539.575	8261.31
539.94	8321.65
540.305	8365.94
540.67	8385.37
541.034	8394.41
541.399	8413.39
541.764	8489.55
542.129	8518.25
542.494	8556.22
542.858	8549.21
543.223	8603.22
543.587	8648.87
543.952	8578.81
544.316	8611.36
544.681	8675.99
545.045	8669.21
545.41	8761.86
545.774	8779.94
546.138	8740.84
546.503	8826.27
546.867	8817.45
547.231	8929.77
547.595	8921.86
547.959	8915.08
548.324	8973.61
548.688	8960.95
549.052	9050.67
549.416	9078.24
549.779	9107.39
550.143	9067.39
550.507	9104.9
550.871	9143.32
551.235	9153.71
551.599	9247.72
551.962	9264.67
552.326	9271.68
552.689	9340.83
553.053	9352.13
553.417	9287.5
553.78	9505.34
554.143	9508.73
554.507	9457.66
554.87	9530.2
555.234	9637.77
555.597	9576.08
555.96	9600.71
556.323	9693.81
556.686	9698.56
557.05	9752.12
557.413	9770.42
557.776	9850.19
558.139	9823.53
558.502	9883.19
558.865	9958.89
559.228	10072.11
559.59	10058.55
559.953	10087.7
560.316	10160.24
560.679	10087.47
561.041	10196.17
561.404	10261.03
561.767	10306.23
562.129	10349.39
562.492	10326.79
562.854	10366.79
563.217	10438.43
563.579	10501.48
563.941	10510.51
564.304	10562.04
564.666	10660.12
565.028	10632.09
565.39	10682.04
565.753	10743.95
566.115	10801.13
566.477	10899.88
566.839	10904.85
567.201	10950.28
567.563	10958.86
567.925	10977.39
568.287	11035.7
568.648	10992.76
569.01	11138.75
569.372	11258.97
569.734	11218.29
570.095	11239.08
570.457	11322.47
570.819	11413.54
571.18	11263.94
571.542	11439.08
571.903	11466.87
572.265	11495.57
572.626	11495.8
572.987	11566.76
573.349	11547.55
573.71	11640.2
574.071	11607.43
574.432	11672.97
574.794	11780.09
575.155	11748.45
575.516	11693.08
575.877	11718.39
576.238	11806.3
576.599	11808.11
576.96	11772.85
577.32	11944.15
577.681	11933.75
578.042	11904.38
578.403	11956.13
578.763	11922.45
579.124	11971.72
579.485	11970.82
579.845	12098.27
580.206	11977.37
580.566	12060.08
580.927	12053.52
581.287	12085.61
581.648	12090.81
582.008	12163.8
582.368	12094.43
582.728	12083.13
583.089	12082.9
583.449	12173.97
583.809	12045.16
584.169	12120.42
584.529	12201.54
584.889	12162.67
585.249	12233.86
585.609	12077.48
585.969	12174.65
586.329	12155.9
586.688	12178.72
587.048	12217.59
587.408	12122.9
587.768	12172.84
588.127	12136.01
588.487	12107.53
588.846	12224.37
589.206	12235.44
589.565	12122.68
589.925	12184.14
590.284	12220.07
590.643	12202.67
591.003	12183.24
591.362	12252.84
591.721	12228.44
592.08	12237.02
592.44	12304.82
592.799	12223.46
593.158	12247.42
593.517	12237.7
593.876	12211.03
594.235	12133.75
594.593	12172.39
594.952	12231.6
595.311	12247.42
595.67	12284.03
596.029	12330.35
596.387	12319.28
596.746	12350.47
597.104	12263.24
597.463	12302.33
597.822	12374.42
598.18	12314.31
598.538	12317.47
598.897	12441.31
599.255	12323.12
599.613	12500.97
599.972	12405.61
600.33	12361.77
600.688	12365.38
601.046	12445.38
601.404	12505.72
601.762	12446.06
602.12	12475.89
602.478	12488.54
602.836	12472.72
603.194	12437.47
603.552	12403.8
603.91	12446.06
604.268	12510.91
604.625	12540.29
604.983	12550.91
605.341	12498.94
605.698	12540.74
606.056	12613.51
606.413	12617.35
606.771	12570.12
607.128	12617.35
607.485	12641.53
607.843	12563.79
608.2	12719.04
608.557	12722.89
608.914	12658.25
609.272	12766.5
609.629	12710
609.986	12755.65
610.343	12695.77
610.7	12868.87
611.057	12753.17
611.414	12774.64
611.771	12742.77
612.127	12829.78
612.484	12857.12
612.841	12814.18
613.198	12726.73
613.554	12801.08
613.911	12895.31
614.267	12875.65
614.624	12844.92
614.98	12907.06
615.337	12987.96
615.693	12933.5
616.05	12975.99
616.406	13016.21
616.762	13038.81
617.118	12948.42
617.475	13039.49
617.831	13122.2
618.187	13068.41
618.543	13030.45
618.899	13132.59
619.255	13105.93
619.611	13099.83
619.967	13123.55
620.323	13183.21
620.678	13069.54
621.034	13042.88
621.39	12992.26
621.746	13061.18
622.101	13127.62
622.457	13138.69
622.812	13078.58
623.168	13215.75
623.523	13215.08
623.879	13204.46
624.234	13048.98
624.589	13197.45
624.945	13149.09
625.3	13113.61
625.655	13181.4
626.01	13164.23
626.365	13160.39
626.72	13174.85
627.075	13099.37
627.43	13117.23
627.785	13074.97
628.14	13099.83
628.495	13090.33
628.85	13101.41
629.205	13025.93
629.559	13076.55
629.914	13077.9
630.269	13071.35
630.623	13044.01
630.978	13004.01
631.332	13164
631.687	12990.68
632.041	13025.25
632.396	13037.45
632.75	12971.69
633.104	13042.43
633.459	12885.37
633.813	12940.96
634.167	12942.77
634.521	12873.62
634.875	12888.08
635.229	12897.12
635.583	12791.58
635.937	12764.47
636.291	12777.35
636.645	12859.61
636.999	12727.18
637.352	12851.02
637.706	12730.57
638.06	12784.13
638.413	12731.47
638.767	12657.58
639.121	12783
639.474	12657.8
639.828	12654.19
640.181	12691.25
640.534	12650.57
640.888	12696.67
641.241	12595.21
641.594	12625.26
641.947	12668.42
642.301	12641.08
642.654	12538.94
643.007	12703.45
643.36	12543.23
643.713	12540.97
644.066	12607.18
644.419	12490.35
644.771	12409
645.124	12233.86
645.477	12255.78
645.83	12184.59
646.182	12144.14
646.535	12023.02
646.888	12128.33
647.24	12069.8
647.593	12072.28
647.945	12085.16
648.298	11954.09
648.65	12013.3
649.002	11968.33
649.355	12056.69
649.707	11975.56
650.059	12040.19
650.411	12217.59
650.763	12239.51
651.115	12311.82
651.467	12292.39
651.819	12316.12
652.171	12308.43
652.523	12295.78
652.875	12088.78
653.227	12174.65
653.578	12270.69
653.93	12244.03
654.282	12241.09
654.633	12112.96
654.985	12137.36
655.337	12150.25
655.688	12117.93
656.039	12296.23
656.391	12074.09
656.742	12143.69
657.094	12072.96
657.445	12167.19
657.796	12133.97
658.147	12115.9
658.498	12025.5
658.849	12104.6
659.2	12010.36
659.551	12083.58
659.902	12087.65
660.253	12063.24
660.604	12116.8
660.955	11984.37
661.306	12086.29
661.656	11989.12
662.007	11972.17
662.358	11982.57
662.708	12071.15
663.059	11938.73
663.409	11912.51
663.76	11990.02
664.11	11980.08
664.461	12010.14
664.811	11877.71
665.161	11927.43
665.511	11896.47
665.862	11965.84
666.212	11988.22
666.562	11955.45
666.912	11906.86
667.262	11926.75
667.612	11934.43
667.962	11918.39
668.312	11876.58
668.662	11945.73
669.011	11851.95
669.361	11753.19
669.711	11885.39
670.06	11856.24
670.41	11811.5
670.76	11813.53
671.109	11856.92
671.459	11871.61
671.808	11818.73
672.157	11947.31
672.507	11665.96
672.856	11770.37
673.205	11814.21
673.554	11789.58
673.904	11718.39
674.253	11812.85
674.602	11744.61
674.951	11596.14
675.3	11560.2
675.649	11759.97
675.998	11750.26
676.346	11714.1
676.695	11734.89
677.044	11635.46
677.393	11658.73
677.741	11642.46
678.09	11699.64
678.438	11710.94
678.787	11660.54
679.135	11588.9
679.484	11547.1
679.832	11654.89
680.181	11503.93
680.529	11593.88
680.877	11607.66
681.225	11606.3
681.573	11569.47
681.922	11562.69
682.27	11428.68
682.618	11575.12
682.966	11423.48
683.314	11471.39
683.661	11365.18
684.009	11366.76
684.357	11445.86
684.705	11350.27
685.053	11443.15
685.4	11347.33
685.748	11224.62
686.095	11286.31
686.443	11163.15
686.79	11196.6
687.138	11231.63
687.485	11216.26
687.832	11218.74
688.18	11144.4
688.527	11169.25
688.874	11085.64
689.221	11121.12
689.568	11065.3
689.915	11007.22
690.262	11029.15
690.609	10993.67
690.956	11038.18
691.303	10898.53
691.65	10937.4
691.997	10869.6
692.344	10812.43
692.69	10807.46
693.037	10846.32
693.383	10747.8
693.73	10722.94
694.077	10701.92
694.423	10694.01
694.769	10655.6
695.116	10648.59
695.462	10569.27
695.808	10597.29
696.155	10630.74
696.501	10533.79
696.847	10543.28
697.193	10449.95
697.539	10494.02
697.885	10507.12
698.231	10419.9
698.577	10352.55
698.923	10346
699.269	10298.77
699.614	10354.13
699.96	10353.91
700.306	10282.95
700.651	10250.86
700.997	10183.74
701.342	10200.01
701.688	10206.12
702.033	10097.87
702.379	10127.25
702.724	10092.9
703.069	10127.25
703.415	9980.36
703.76	9983.75
704.105	10018.55
704.45	9929.06
704.795	9908.5
705.14	9913.47
705.485	9933.35
705.83	9833.7
706.175	9850.64
706.52	9765
706.865	9818.56
707.209	9773.13
707.554	9780.82
707.899	9772.45
708.243	9693.13
708.588	9664.66
708.932	9676.86
709.277	9635.06
709.621	9631.89
709.966	9574.95
710.31	9576.98
710.654	9504.44
710.998	9565
711.342	9520.48
711.687	9485.23
712.031	9453.59
712.375	9383.99
712.719	9425.57
713.063	9371.34
713.407	9498.79
713.75	9338.57
714.094	9409.3
714.438	9409.75
714.782	9387.15
715.125	9335.86
715.469	9339.47
715.812	9259.93
716.156	9245.01
716.499	9298.57
716.843	9263.32
717.186	9236.2
717.53	9233.03
717.873	9221.73
718.216	9220.15
718.559	9173.15
718.902	9083.21
719.246	9160.72
719.589	9126.37
719.932	8982.42
720.275	9054.28
720.617	8993.27
720.96	9016.32
721.303	9017.9
721.646	8994.62
721.989	9000.05
722.331	8953.72
722.674	8959.14
723.016	8890.44
723.359	8910.78
723.701	8972.93
724.044	8926.15
724.386	8874.63
724.729	8896.77
725.071	8868.52
725.413	8857.68
725.755	8851.12
726.097	8876.43
726.439	8709.66
726.782	8773.39
727.124	8795.53
727.465	8733.39
727.807	8740.84
728.149	8777.9
728.491	8675.99
728.833	8735.87
729.175	8574.75
729.516	8613.62
729.858	8664.24
730.199	8618.36
730.541	8655.42
730.882	8605.93
731.224	8646.83
731.565	8495.2
731.906	8572.03
732.248	8610.68
732.589	8510.34
732.93	8514.86
733.271	8516.44
733.612	8566.38
733.953	8510.34
734.294	8459.95
734.635	8438.7
734.976	8468.76
735.317	8475.31
735.658	8429.67
735.999	8384.92
736.339	8366.84
736.68	8425.37
737.021	8366.84
737.361	8331.81
737.702	8313.74
738.042	8351.25
738.383	8295.43
738.723	8346.05
739.063	8338.14
739.404	8377.69
739.744	8333.85
740.084	8266.28
740.424	8303.34
740.764	8245.49
741.104	8256.11
741.444	8231.7
741.784	8212.72
742.124	8239.16
742.464	8186.06
742.804	8281.42
743.143	8198.71
743.483	8131.14
743.823	8123.68
744.162	8125.27
744.502	8114.65
744.841	8100.86
745.181	8087.08
745.52	8065.61
745.86	8037.13
746.199	8082.33
746.538	8014.31
746.877	8119.17
747.216	8086.62
747.556	8021.54
747.895	8097.7
748.234	8043.01
748.573	7951.26
748.911	7949.45
749.25	8022.22
749.589	7879.85
749.928	7965.95
750.267	7943.35
750.605	7859.06
750.944	7918.72
751.283	7813.64
751.621	7890.24
751.96	7838.27
752.298	7818.38
752.636	7783.13
752.975	7779.06
753.313	7741.77
753.651	7730.7
753.989	7732.06
754.327	7671.49
754.666	7662
755.004	7684.37
755.342	7672.4
755.679	7614.55
756.017	7634.88
756.355	7662.23
756.693	7559.63
757.031	7638.73
757.368	7549.01
757.706	7563.47
758.044	7504.04
758.381	7583.36
758.719	7454.78
759.056	7509.46
759.394	7470.59
759.731	7348.79
760.068	7410.94
760.405	7351.28
760.743	7356.47
761.08	7356.25
761.417	7278.96
761.754	7299.07
762.091	7296.14
762.428	7258.85
762.765	7225.18
763.102	7292.07
763.438	7198.29
763.775	7182.47
764.112	7202.8
764.449	7227.21
764.785	7210.49
765.122	7097.05
765.458	7092.3
765.795	7058.4
766.131	7050.94
766.467	7062.47
766.804	6991.74
767.14	6972.75
767.476	6963.94
767.812	6870.38
768.148	6909.25
768.485	6879.42
768.821	6879.88
769.157	6846.88
769.492	6810.27
769.828	6834
770.164	6760.78
770.5	6786.32
770.836	6763.72
771.171	6679.43
771.507	6709.26
771.842	6643.5
772.178	6673.78
772.513	6595.59
772.849	6575.48
773.184	6597.62
773.519	6579.77
773.855	6539.55
774.19	6496.38
774.525	6502.03
774.86	6520.11
775.195	6451.64
775.53	6457.51
775.865	6427.46
776.2	6388.59
776.535	6302.72
776.87	6333
777.205	6304.75
777.539	6275.82
777.874	6219.1
778.209	6207.58
778.543	6197.41
778.878	6166
779.212	6170.29
779.547	6160.57
779.881	6170.97
780.215	6125.32
780.55	6080.57
780.884	6048.71
781.218	6062.5
781.552	6029.73
781.886	6005.32
782.22	5979.11
782.554	5948.37
782.888	5914.25
783.222	5899.11
783.556	5921.03
783.889	5877.64
784.223	5848.94
784.557	5835.16
784.89	5874.03
785.224	5803.75
785.557	5803.75
785.891	5746.12
786.224	5752.9
786.558	5763.29
786.891	5711.77
787.224	5716.06
787.557	5662.96
787.891	5666.35
788.224	5627.25
788.557	5617.99
788.89	5606.46
789.223	5602.17
789.556	5576.18
789.888	5526.69
790.221	5516.97
790.554	5523.08
790.887	5508.84
791.219	5493.7
791.552	5439.01
791.884	5476.07
792.217	5425.9
792.549	5424.55
792.882	5369.63
793.214	5362.18
793.546	5380.03
793.879	5316.75
794.211	5326.92
794.543	5331.67
794.875	5282.63
795.207	5269.75
795.539	5265.68
795.871	5273.82
796.203	5208.73
796.535	5227.26
796.867	5206.02
797.198	5162.18
797.53	5184.78
797.862	5106.59
798.193	5162.63
798.525	5143.65
798.856	5109.53
799.188	5080.83
799.519	5011
799.85	5039.02
800.182	5048.29
800.513	5042.18
800.844	5031.11
801.175	4994.73
801.506	4957.21
801.837	4984.78
802.168	4993.15
802.499	4979.59
802.83	4907.05
803.161	4902.75
803.491	4860.49
803.822	4901.62
804.153	4825.69
804.483	4827.5
804.814	4831.12
805.145	4808.97
805.475	4860.95
805.805	4824.34
806.136	4814.17
806.466	4836.54
806.796	4756.77
807.126	4718.58
807.457	4760.16
807.787	4738.01
808.117	4712.93
808.447	4647.39
808.777	4714.96
809.107	4722.42
809.436	4676.32
809.766	4651.01
810.096	4630.44
810.426	4611.46
810.755	4625.25
811.085	4587.96
811.414	4631.12
811.744	4550.9
812.073	4543.67
812.403	4542.31
812.732	4480.84
813.061	4556.32
813.39	4500.96
813.719	4515.19
814.049	4556.09
814.378	4509.99
814.707	4487.62
815.036	4489.66
815.365	4451.24
815.693	4442.65
816.022	4435.19
816.351	4426.61
816.68	4373.27
817.008	4403.33
817.337	4360.85
817.665	4361.75
817.994	4384.12
818.322	4357
818.651	4351.35
818.979	4318.81
819.307	4346.16
819.636	4345.03
819.964	4305.48
820.292	4352.94
820.62	4362.2
820.948	4305.48
821.276	4327.4
821.604	4302.77
821.932	4298.25
822.259	4343.9
822.587	4324.91
822.915	4276.33
823.243	4327.4
823.57	4284.92
823.898	4272.71
824.225	4302.54
824.553	4265.03
824.88	4274.07
825.207	4296.67
825.535	4270
825.862	4291.47
826.189	4304.35
826.516	4263.9
826.843	4330.34
827.17	4249.21
827.497	4338.02
827.824	4286.05
828.151	4272.03
828.478	4303.9
828.805	4340.51
829.131	4282.43
829.458	4247.4
829.785	4270.68
830.111	4264.58
830.438	4248.76
830.764	4292.6
831.09	4285.59
831.417	4239.04
831.743	4261.19
832.069	4270.23
832.395	4236.33
832.722	4274.29
833.048	4229.78
833.374	4246.27
833.7	4236.1
834.026	4253.05
834.351	4270.23
834.677	4228.19
835.003	4239.95
835.329	4246.95
835.654	4182.77
835.98	4193.62
836.306	4194.3
836.631	4179.38
836.956	4148.87
837.282	4140.74
837.607	4165.82
837.932	4173.73
838.258	4146.16
838.583	4151.13
838.908	4135.77
839.233	4180.29
839.558	4147.29
839.883	4124.69
840.208	4100.97
840.533	4090.8
840.858	4093.28
841.182	4114.98
841.507	4138.25
841.832	4058.03
842.156	4086.73
842.481	4067.52
842.805	4062.1
843.13	4015.54
843.454	4065.71
843.778	4067.07
844.103	4072.27
844.427	4022.78
844.751	4060.06
845.075	3969.67
845.399	4035.2
845.723	4003.34
846.047	3945.26
846.371	3975.32
846.695	3940.52
847.019	3937.81
847.343	3892.61
847.666	3905.04
847.99	3900.29
848.313	3836.79
848.637	3861.65
848.96	3847.19
849.284	3849.22
849.607	3872.27
849.931	3823.68
850.254	3781.88
850.577	3796.57
850.9	3780.75
851.223	3783.69
851.546	3717.92
851.869	3706.85
852.192	3701.65
852.515	3670.69
852.838	3670.69
853.161	3685.84
853.483	3633.63
853.806	3660.53
854.129	3626.85
854.451	3633.41
854.774	3624.59
855.096	3560.19
855.419	3594.31
855.741	3556.57
856.063	3553.18
856.385	3584.82
856.708	3535.1
857.03	3551.6
857.352	3514.54
857.674	3486.29
857.996	3509.12
858.318	3493.75
858.64	3495.11
858.961	3506.18
859.283	3442.45
859.605	3434.32
859.926	3468.44
860.248	3454.43
860.57	3434.09
860.891	3437.93
861.212	3439.29
861.534	3425.28
861.855	3418.95
862.176	3418.5
862.498	3391.38
862.819	3386.86
863.14	3402.68
863.461	3397.03
863.782	3380.08
864.103	3371.04
864.424	3341.66
864.745	3347.31
865.065	3353.64
865.386	3330.59
865.707	3362
866.027	3362
866.348	3324.49
866.668	3326.3
866.989	3317.26
867.309	3281.55
867.63	3277.48
867.95	3305.96
868.27	3300.53
868.59	3251.72
868.91	3312.51
869.23	3282.23
869.55	3277.71
869.87	3307.99
870.19	3239.29
870.51	3284.72
870.83	3271.83
871.15	3253.76
871.469	3220.54
871.789	3242.23
872.109	3239.07
872.428	3259.41
872.748	3244.49
873.067	3235.9
873.386	3233.19
873.706	3258.28
874.025	3192.74
874.344	3193.19
874.663	3218.5
874.982	3217.6
875.301	3200.88
875.62	3208.56
875.939	3184.83
876.258	3218.73
876.577	3192.06
876.896	3208.56
877.214	3128.11
877.533	3159.97
877.852	3166.07
878.17	3174.66
878.489	3188.22
878.807	3206.53
879.125	3097.15
879.444	3149.8
879.762	3134.44
880.08	3157.04
880.398	3142.57
880.716	3122.01
881.034	3117.94
881.352	3139.18
881.67	3100.99
881.988	3078.39
882.306	3087.43
882.624	3075.23
882.941	3126.08
883.259	3062.8
883.577	3085.85
883.894	3047.43
884.212	3075.91
884.529	3056.7
884.846	3074.78
885.164	3000.2
885.481	3010.37
885.798	2982.8
886.115	2999.53
886.432	2994.78
886.75	2986.87
887.067	2994.1
887.383	3001.56
887.7	2990.94
888.017	2964.27
888.334	2995.01
888.651	2953.43
888.967	2927.21
889.284	2949.81
889.6	2915.69
889.917	2912.3
890.233	2876.59
890.55	2931.73
890.866	2902.58
891.182	2901.22
891.498	2901.9
891.815	2921.79
892.131	2899.64
892.447	2853.54
892.763	2848.57
893.079	2873.43
893.395	2832.75
893.71	2845.63
894.026	2835.69
894.342	2808.12
894.657	2823.49
894.973	2803.6
895.289	2799.76
895.604	2794.11
895.92	2755.24
896.235	2760.21
896.55	2767.67
896.865	2753.43
897.181	2727.22
897.496	2745.52
897.811	2713.88
898.126	2694.45
898.441	2754.33
898.756	2720.66
899.071	2693.09
899.386	2705.07
899.7	2686.09
900.015	2700.55
900.33	2621.46
900.644	2640.21
900.959	2652.87
901.273	2651.51
901.588	2611.97
901.902	2625.07
902.216	2609.03
902.531	2633.66
902.845	2597.95
903.159	2581.01
903.473	2606.77
903.787	2557.28
904.101	2575.36
904.415	2564.51
904.729	2562.93
905.042	2545.75
905.356	2552.08
905.67	2494.45
905.984	2563.15
906.297	2498.97
906.611	2500.56
906.924	2478.41
907.237	2477.28
907.551	2477.05
907.864	2471.18
908.177	2496.49
908.491	2476.15
908.804	2457.17
909.117	2416.26
909.43	2439.77
909.743	2414.46
910.056	2412.2
910.368	2429.6
910.681	2399.09
910.994	2398.41
911.307	2397.51
911.619	2371.75
911.932	2325.65
912.244	2342.37
912.557	2353.21
912.869	2392.08
913.181	2311.63
913.494	2327.45
913.806	2327
914.118	2304.18
914.43	2286.1
914.742	2278.41
915.054	2273.67
915.366	2254.46
915.678	2269.38
915.99	2245.2
916.302	2202.26
916.613	2248.36
916.925	2223.73
917.236	2201.81
917.548	2197.06
917.859	2250.62
918.171	2210.62
918.482	2209.04
918.794	2177.17
919.105	2194.8
919.416	2168.14
919.727	2193.45
920.038	2152.77
920.349	2171.3
920.66	2142.83
920.971	2169.72
921.282	2131.3
921.593	2101.02
921.903	2082.94
922.214	2097.18
922.525	2107.12
922.835	2074.58
923.146	2084.3
923.456	2073
923.767	2070.74
924.077	2055.14
924.387	2076.16
924.697	2085.2
925.008	2056.27
925.318	2039.1
925.628	2035.03
925.938	2001.36
926.248	2016.5
926.558	2015.82
926.867	1970.17
927.177	2000.46
927.487	1995.03
927.796	1956.84
928.106	1975.37
928.416	1944.64
928.725	1941.25
929.034	1952.77
929.344	1954.13
929.653	1936.05
929.962	1933.34
930.271	1912.55
930.581	1909.84
930.89	1912.1
931.199	1885.2
931.508	1876.17
931.817	1881.81
932.125	1849.05
932.434	1876.62
932.743	1841.59
933.051	1858.99
933.36	1856.05
933.669	1849.5
933.977	1814.92
934.286	1808.37
934.594	1839.33
934.902	1795.49
935.21	1787.35
935.519	1794.59
935.827	1792.55
936.135	1760.46
936.443	1738.54
936.751	1742.84
937.059	1747.36
937.367	1769.05
937.674	1733.8
937.982	1761.59
938.29	1751.2
938.597	1739.67
938.905	1722.5
939.213	1712.1
939.52	1701.25
939.827	1691.76
940.135	1699.22
940.442	1660.8
940.749	1690.18
941.056	1676.17
941.363	1640.92
941.67	1692.67
941.977	1644.98
942.284	1664.65
942.591	1665.78
942.898	1644.98
943.205	1664.65
943.511	1624.87
943.818	1627.13
944.125	1630.07
944.431	1624.87
944.738	1604.76
945.044	1611.09
945.35	1585.1
945.657	1585.78
945.963	1584.87
946.269	1591.88
946.575	1568.38
946.881	1579
947.187	1589.39
947.493	1556.85
947.799	1502.84
948.105	1551.2
948.41	1531.09
948.716	1550.75
949.022	1526.57
949.327	1532.9
949.633	1486.57
949.938	1494.71
950.244	1494.48
950.549	1500.36
950.854	1507.14
951.16	1475.72
951.465	1495.84
951.77	1493.8
952.075	1476.18
952.38	1450.87
952.685	1447.25
952.99	1431.88
953.294	1458.78
953.599	1447.25
953.904	1450.64
954.209	1461.04
954.513	1439.79
954.818	1406.35
955.122	1376.29
955.426	1454.03
955.731	1418.1
956.035	1407.48
956.339	1386.23
956.643	1392.79
956.948	1385.78
957.252	1391.88
957.556	1396.86
957.86	1394.14
958.163	1350.98
958.467	1372.9
958.771	1389.85
959.075	1362.05
959.378	1365.44
959.682	1360.02
959.985	1339.46
960.289	1350.53
960.592	1339.91
960.896	1315.73
961.199	1319.57
961.502	1341.94
961.805	1301.94
962.108	1328.61
962.411	1303.07
962.714	1300.81
963.017	1302.62
963.32	1290.87
963.623	1291.77
963.926	1292
964.228	1268.72
964.531	1274.83
964.833	1258.55
965.136	1282.28
965.438	1273.47
965.741	1256.75
966.043	1241.83
966.345	1227.14
966.648	1223.98
966.95	1262.4
967.252	1221.49
967.554	1223.75
967.856	1256.29
968.158	1226.01
968.46	1203.87
968.761	1195.51
969.063	1222.62
969.365	1198.9
969.666	1210.65
969.968	1192.34
970.269	1202.28
970.571	1172.23
970.872	1186.92
971.174	1190.31
971.475	1172.46
971.776	1180.59
972.077	1163.87
972.378	1151.66
972.679	1191.66
972.98	1179.91
973.281	1152.34
973.582	1128.84
973.883	1158.67
974.183	1158.67
974.484	1134.26
974.785	1116.41
975.085	1134.04
975.386	1136.07
975.686	1130.65
975.986	1113.7
976.287	1120.25
976.587	1114.6
976.887	1082.29
977.187	1114.15
977.487	1108.73
977.787	1096.3
978.087	1103.98
978.387	1105.56
978.687	1085.9
978.987	1067.6
979.286	1072.34
979.586	1096.3
979.885	1079.12
980.185	1087.49
980.484	1060.37
980.784	1054.49
981.083	1059.01
981.382	1053.36
981.682	1052.91
981.981	1069.41
982.28	1064.21
982.579	1032.35
982.878	1023.76
983.177	1049.29
983.475	1032.57
983.774	1013.14
984.073	1032.35
984.372	1008.84
984.67	1025.34
984.969	1005.23
985.267	983.08
985.566	1009.07
985.864	1004.1
986.162	963.2
986.461	990.54
986.759	980.6
987.057	1001.39
987.355	955.74
987.653	978.56
987.951	971.56
988.249	941.73
988.547	986.7
988.844	942.4
989.142	975.17
989.44	956.87
989.737	931.11
990.035	966.58
990.332	957.09
990.63	926.36
990.927	917.77
991.224	917.09
991.521	939.24
991.819	946.47
992.116	933.37
992.413	930.43
992.71	920.71
993.006	934.72
993.303	900.37
993.6	913.25
993.897	909.41
994.193	903.31
994.49	884.55
994.787	897.21
995.083	905.8
995.379	878.9
995.676	915.74
995.972	910.32
996.268	887.72
996.565	890.88
996.861	885.23
997.157	893.37
997.453	866.02
997.749	857.66
998.044	865.8
998.34	844.55
998.636	858.79
998.932	865.8
999.227	893.59
999.523	848.4
999.818	826.02
1000.114	859.47
1000.409	839.36
1000.704	821.96
1001	844.55
1001.295	833.03
1001.59	817.44
1001.885	843.2
1002.18	823.09
1002.475	827.15
1002.77	804.33
1003.065	792.8
1003.359	806.59
1003.654	804.33
1003.949	803.2
1004.243	798.68
1004.538	801.39
1004.832	772.69
1005.127	762.3
1005.421	828.51
1005.715	772.69
1006.009	784.22
1006.304	782.86
1006.598	799.81
1006.892	768.85
1007.186	756.65
1007.48	765.69
1007.773	790.54
1008.067	741.73
1008.361	761.62
1008.655	737.21
1008.948	747.83
1009.242	770.21
1009.535	743.09
1009.829	738.79
1010.122	750.77
1010.415	747.16
1010.708	751.45
1011.001	746.93
1011.295	738.79
1011.588	726.14
1011.881	725.46
1012.173	696.54
1012.466	717.55
1012.759	725.01
1013.052	701.96
1013.344	730.43
1013.637	743.54
1013.93	687.72
1014.222	683.43
1014.514	707.38
1014.807	686.14
1015.099	695.18
1015.391	718
1015.683	706.93
1015.976	681.17
1016.268	674.84
1016.56	690.66
1016.851	692.47
1017.143	669.42
1017.435	691.79
1017.727	663.77
1018.018	666.71
1018.31	679.59
1018.602	649.76
1018.893	658.57
1019.185	647.27
1019.476	653.15
1019.767	645.69
1020.058	661.73
1020.35	638.91
1020.641	657.21
1020.932	645.01
1021.223	632.13
1021.514	636.42
1021.804	652.47
1022.095	631.45
1022.386	635.97
1022.677	613.15
1022.967	633.71
1023.258	643.2
1023.548	620.15
1023.839	609.98
1024.129	639.36
1024.419	618.35
1024.709	599.36
1025	601.17
1025.29	596.65
1025.58	613.6
1025.87	607.27
1026.16	603.66
1026.449	577.67
1026.739	572.02
1027.029	585.58
1027.319	584
1027.608	588.06
1027.898	586.26
1028.187	573.83
1028.477	582.87
1028.766	554.62
1029.055	571.79
1029.344	571.79
1029.634	575.86
1029.923	552.13
1030.212	581.96
1030.501	563.88
1030.79	560.49
1031.078	542.64
1031.367	544.45
1031.656	538.35
1031.945	547.16
1032.233	558.91
1032.522	543.09
1032.81	526.37
1033.099	520.72
1033.387	532.02
1033.675	536.99
1033.963	539.93
1034.251	535.86
1034.54	509.65
1034.828	534.51
1035.116	524.34
1035.403	542.19
1035.691	519.14
1035.979	512.13
1036.267	513.26
1036.554	491.57
1036.842	495.18
1037.129	508.29
1037.417	511.68
1037.704	511.68
1037.992	500.38
1038.279	524.34
1038.566	509.87
1038.853	509.87
1039.14	509.87
