Data from black_metal_pc_casing_FLMS001491_00093.txt Node
Date: Wed Feb 08 14:33:47 GMT 2017
User: dcchb
Spectrometer: FLMS00149
Trigger mode: 0
Integration Time (sec): 2.000000E-2
Scans to average: 10
Electric dark correction enabled: true
Nonlinearity correction enabled: false
Boxcar width: 0
XAxis mode: Wavelengths
Number of Pixels in Spectrum: 2048
>>>>>Begin Spectral Data<<<<<
341.393	-16.45
341.776	-16.45
342.16	-16.45
342.543	-54.19
342.927	-39.05
343.31	-82.67
343.693	-48.77
344.077	-53.97
344.46	-49
344.843	-49.45
345.226	-29.56
345.61	-41.09
345.993	-38.83
346.376	17.22
346.759	4.34
347.142	45.69
347.525	18.57
347.908	60.83
348.291	57.89
348.674	88.63
349.057	100.15
349.44	117.55
349.823	129.3
350.206	159.13
350.588	192.58
350.971	193.48
351.354	213.6
351.737	236.65
352.119	228.51
352.502	246.59
352.884	268.51
353.267	279.81
353.65	284.1
354.032	282.97
354.414	300.6
354.797	306.02
355.179	311.9
355.562	308.51
355.944	313.03
356.326	319.81
356.709	343.76
357.091	332.01
357.473	350.54
357.855	320.71
358.238	315.74
358.62	329.98
359.002	334.72
359.384	328.85
359.766	339.47
360.148	340.37
360.53	319.13
360.912	333.82
361.294	343.54
361.676	305.57
362.057	330.66
362.439	335.17
362.821	320.71
363.203	328.17
363.584	313.48
363.966	317.32
364.348	320.49
364.729	327.27
365.111	332.91
365.493	325.68
365.874	315.74
366.256	317.55
366.637	313.93
367.019	323.65
367.4	299.02
367.781	310.77
368.163	340.15
368.544	313.71
368.925	308.73
369.306	335.4
369.688	324.33
370.069	313.03
370.45	316.64
370.831	319.58
371.212	312.8
371.593	314.16
371.974	322.97
372.355	324.1
372.736	322.52
373.117	333.14
373.498	321.39
373.879	296.53
374.26	317.77
374.641	317.1
375.021	299.02
375.402	309.19
375.783	334.27
376.163	339.24
376.544	341.28
376.925	335.85
377.305	334.04
377.686	325.01
378.066	342.18
378.447	323.65
378.827	335.4
379.208	329.07
379.588	350.77
379.968	334.5
380.349	338.56
380.729	351.9
381.109	351.67
381.489	341.73
381.87	344.21
382.25	360.26
382.63	360.48
383.01	355.74
383.39	363.42
383.77	387.6
384.15	362.74
384.53	372.69
384.91	364.55
385.29	375.17
385.67	357.55
386.049	380.37
386.429	380.37
386.809	377.66
387.189	383.08
387.568	396.19
387.948	371.78
388.328	395.29
388.707	384.89
389.087	385.12
389.466	387.15
389.846	395.29
390.225	405.68
390.605	389.41
390.984	408.62
391.363	397.32
391.743	408.85
392.122	411.56
392.501	407.72
392.881	428.51
393.26	400.26
393.639	433.48
394.018	420.37
394.397	426.92
394.776	438.45
395.155	424.89
395.534	425.12
395.913	414.27
396.292	429.64
396.671	436.87
397.05	426.02
397.429	442.06
397.808	450.88
398.186	430.09
398.565	437.09
398.944	445.91
399.323	430.31
399.701	451.1
400.08	428.73
400.458	436.19
400.837	454.95
401.215	467.37
401.594	458.56
401.972	470.76
402.351	468.5
402.729	458.56
403.107	461.27
403.486	486.13
403.864	476.64
404.242	472.8
404.62	473.7
404.999	480.26
405.377	483.42
405.755	514.38
406.133	519.58
406.511	516.41
406.889	506.47
407.267	515.06
407.645	534.72
408.023	534.04
408.401	534.94
408.779	521.84
409.156	548.73
409.534	542.4
409.912	525.68
410.29	544.89
410.667	543.3
411.045	571.1
411.422	558.45
411.8	557.99
412.178	577.88
412.555	586.69
412.933	574.04
413.31	570.2
413.687	579.46
414.065	570.2
414.442	590.08
414.819	607.71
415.197	618.78
415.574	624.43
415.951	624.66
416.328	620.37
416.705	616.75
417.082	642.74
417.46	650.87
417.837	657.65
418.214	641.83
418.591	642.74
418.967	657.43
419.344	660.82
419.721	663.3
420.098	682.06
420.475	672.79
420.852	671.21
421.228	687.03
421.605	710.31
421.982	685
422.358	698.78
422.735	690.87
423.111	709.63
423.488	703.3
423.864	712.57
424.241	702.4
424.617	753.47
424.994	735.16
425.37	748.27
425.746	779.23
426.123	756.63
426.499	752.34
426.875	789.85
427.251	759.34
427.627	776.29
428.003	763.41
428.379	793.24
428.756	783.3
429.132	800.47
429.507	822.85
429.883	835.95
430.259	837.99
430.635	830.08
431.011	857.65
431.387	874.14
431.763	878.44
432.138	887.48
432.514	887.48
432.89	903.3
433.265	894.26
433.641	910.3
434.016	909.17
434.392	939.68
434.767	946.23
435.143	949.62
435.518	945.78
435.894	983.29
436.269	993.91
436.644	995.04
437.02	975.38
437.395	998.21
437.77	1012.45
438.145	1021.03
438.52	1051.99
438.895	1030.3
439.271	1038.43
439.646	1056.06
440.021	1072.78
440.395	1063.29
440.77	1063.97
441.145	1067.81
441.52	1067.81
441.895	1100.58
442.27	1115.72
442.645	1110.52
443.019	1121.82
443.394	1135.38
443.769	1134.02
444.143	1167.24
444.518	1159.56
444.892	1154.14
445.267	1154.81
445.641	1132.67
446.016	1176.96
446.39	1191.65
446.764	1189.84
447.139	1199.56
447.513	1200.91
447.887	1213.34
448.262	1218.77
448.636	1186.23
449.01	1246.56
449.384	1231.42
449.758	1251.31
450.132	1253.12
450.506	1276.17
450.88	1285.88
451.254	1250.4
451.628	1256.51
452.002	1287.92
452.376	1307.58
452.75	1326.11
453.123	1324.75
453.497	1367.69
453.871	1359.55
454.244	1391.19
454.618	1379.44
454.992	1371.31
455.365	1393.68
455.739	1442.26
456.112	1432.55
456.486	1443.62
456.859	1451.3
457.232	1469.38
457.606	1499.44
457.979	1502.6
458.352	1536.27
458.725	1542.37
459.099	1575.14
459.472	1587.57
459.845	1628.47
460.218	1622.6
460.591	1633.9
460.964	1639.1
461.337	1677.29
461.71	1679.77
462.083	1727.68
462.456	1689.72
462.829	1704.18
463.201	1756.61
463.574	1758.19
463.947	1781.92
464.32	1812.42
464.692	1821.01
465.065	1871.86
465.438	1861.24
465.81	1887
466.183	1895.59
466.555	1945.53
466.928	1982.59
467.3	1956.6
467.672	1970.61
468.045	2012.64
468.417	2048.58
468.789	2047.9
469.161	2094
469.534	2087.9
469.906	2131.51
470.278	2170.61
470.65	2175.8
471.022	2257.84
471.394	2261.9
471.766	2284.28
472.138	2330.6
472.51	2366.99
472.882	2401.56
473.253	2392.97
473.625	2427.32
473.997	2466.64
474.369	2468.23
474.74	2491.73
475.112	2536.92
475.484	2582.35
475.855	2616.47
476.227	2655.79
476.598	2709.58
476.97	2746.86
477.341	2811.95
477.713	2841.32
478.084	2859.4
478.455	2931.94
478.827	2929.23
479.198	3030.47
479.569	3029.79
479.94	3121.99
480.311	3127.42
480.682	3175.1
481.053	3275.89
481.424	3304.14
481.795	3346.4
482.166	3395.43
482.537	3417.81
482.908	3488.31
483.279	3548.88
483.65	3590.46
484.021	3668.87
484.391	3645.82
484.762	3710.23
485.133	3773.5
485.503	3839.94
485.874	3909.54
486.244	3947.74
486.615	4011.24
486.985	4068.64
487.356	4089.43
487.726	4140.5
488.097	4201.06
488.467	4257.56
488.837	4354.28
489.207	4427.95
489.578	4438.57
489.948	4434.95
490.318	4517.44
490.688	4550.43
491.058	4577.32
491.428	4681.05
491.798	4741.84
492.168	4834.27
492.538	4801.72
492.908	4893.25
493.278	4963.98
493.648	4926.92
494.017	4987.71
494.387	5045.33
494.757	5107.93
495.126	5126.91
495.496	5187.25
495.866	5201.94
496.235	5298.21
496.605	5344.76
496.974	5353.8
497.344	5392.67
497.713	5401.93
498.082	5470.18
498.452	5494.36
498.821	5572.78
499.19	5549.95
499.559	5629.5
499.928	5664.98
500.298	5738.65
500.667	5714.92
501.036	5781.36
501.405	5814.35
501.774	5794.92
502.143	5855.93
502.512	5884.86
502.88	5948.81
503.249	5951.3
503.618	6065.19
503.987	6059.77
504.356	6071.52
504.724	6184.29
505.093	6099.99
505.462	6235.13
505.83	6218.64
506.199	6243.04
506.567	6348.58
506.936	6334.11
507.304	6416.14
507.672	6448.01
508.041	6552.41
508.409	6542.24
508.777	6580.89
509.145	6655.23
509.514	6679.19
509.882	6738.17
510.25	6759.86
510.618	6758.06
510.986	6830.6
511.354	6906.75
511.722	6890.48
512.09	7026.75
512.458	7035.11
512.826	7047.54
513.193	7069.91
513.561	7138.61
513.929	7204.6
514.297	7273.98
514.664	7365.95
515.032	7334.99
515.4	7431.94
515.767	7487.08
516.135	7480.3
516.502	7517.81
516.869	7656.56
517.237	7651.82
517.604	7653.85
517.972	7757.35
518.339	7870.12
518.706	7856.11
519.073	7918.93
519.44	7922.32
519.808	8043.9
520.175	8040.73
520.542	8138.36
520.909	8171.13
521.276	8204.57
521.643	8272.59
522.009	8355.98
522.376	8433.27
522.743	8435.3
523.11	8511.46
523.477	8600.95
523.843	8664.9
524.21	8747.38
524.577	8799.59
524.943	8916.64
525.31	8944.89
525.676	8994.83
526.043	9046.36
526.409	9096.07
526.776	9181.27
527.142	9226.01
527.508	9350.76
527.874	9393.69
528.241	9401.38
528.607	9482.5
528.973	9524.76
529.339	9584.42
529.705	9694.48
530.071	9725.66
530.437	9800.24
530.803	9856.28
531.169	9875.26
531.535	9936.28
531.901	9938.99
532.267	9988.25
532.632	10056.73
532.998	10064.18
533.364	10192.54
533.73	10166.33
534.095	10294.23
534.461	10354.57
534.826	10389.37
535.192	10468.47
535.557	10545.75
535.923	10546.88
536.288	10547.79
536.653	10623.94
537.019	10630.5
537.384	10692.42
537.749	10728.12
538.114	10730.16
538.479	10825.07
538.845	10795.46
539.21	10821.68
539.575	10825.75
539.94	10843.37
540.305	10975.35
540.67	11030.26
541.034	11038.62
541.399	11064.84
541.764	11053.31
542.129	11170.6
542.494	11278.39
542.858	11275.23
543.223	11281.1
543.587	11338.28
543.952	11366.52
544.316	11439.74
544.681	11410.59
545.045	11450.81
545.41	11571.94
545.774	11512.96
546.138	11540.53
546.503	11590.25
546.867	11666.4
547.231	11710.47
547.595	11799.96
547.959	11786.63
548.324	11865.72
548.688	11814.42
549.052	11874.76
549.416	11934.87
549.779	11899.16
550.143	11905.49
550.507	12052.61
550.871	12103.45
551.235	12084.24
551.599	12232.49
551.962	12275.65
552.326	12233.62
552.689	12395.87
553.053	12379.38
553.417	12434.97
553.78	12519.04
554.143	12517.68
554.507	12531.24
554.87	12561.97
555.234	12745.7
555.597	12802.19
555.96	12761.51
556.323	12768.97
556.686	12795.86
557.05	12967.61
557.413	12965.35
557.776	13031.56
558.139	13082.86
558.502	13079.47
558.865	13115.86
559.228	13185.68
559.59	13277.21
559.953	13330.54
560.316	13442.85
560.679	13380.48
561.041	13507.48
561.404	13579.8
561.767	13650.3
562.129	13711.09
562.492	13795.16
562.854	13845.33
563.217	13792.67
563.579	13872.22
563.941	14017.75
564.304	14025.44
564.666	14164.42
565.028	14089.39
565.39	14138.88
565.753	14222.04
566.115	14351.08
566.477	14318.76
566.839	14403.28
567.201	14485.99
567.563	14523.05
567.925	14686.44
568.287	14603.73
568.648	14632.43
569.01	14742.71
569.372	14895.24
569.734	14772.31
570.095	14965.52
570.457	14990.38
570.819	15086.65
571.18	14983.15
571.542	15212.75
571.903	15145.41
572.265	15245.97
572.626	15361.9
572.987	15241.68
573.349	15302.92
573.71	15402.58
574.071	15375.23
574.432	15493.65
574.794	15651.38
575.155	15596.02
575.516	15535.23
575.877	15582.46
576.238	15602.8
576.599	15712.4
576.96	15645.28
577.32	15722.79
577.681	15723.92
578.042	15842.56
578.403	15845.95
578.763	15829.68
579.124	15964.59
579.485	15906.74
579.845	15982.22
580.206	15919.62
580.566	15982.67
580.927	15980.41
581.287	16137.7
581.648	16029.68
582.008	16094.08
582.368	16048.66
582.728	16059.73
583.089	16145.61
583.449	16049.11
583.809	16130.24
584.169	16118.26
584.529	16126.85
584.889	16208.2
585.249	16116.23
585.609	16136.57
585.969	16155.1
586.329	16118.94
586.688	16108.77
587.048	16154.42
587.408	16174.08
587.768	16106.74
588.127	16155.55
588.487	16156.68
588.846	16236.23
589.206	16144.25
589.565	16177.47
589.925	16290.69
590.284	16164.36
590.643	16234.19
591.003	16326.17
591.362	16294.53
591.721	16223.12
592.08	16251.37
592.44	16271.48
592.799	16266.73
593.158	16264.02
593.517	16275.32
593.876	16278.48
594.235	16200.07
594.593	16267.64
594.952	16243.68
595.311	16290.46
595.67	16402.32
596.029	16453.4
596.387	16433.96
596.746	16433.06
597.104	16377.69
597.463	16309.9
597.822	16413.17
598.18	16386.96
598.538	16355.32
598.897	16458.82
599.255	16411.59
599.613	16644.58
599.972	16470.57
600.33	16572.04
600.688	16454.75
601.046	16492.49
601.404	16546.95
601.762	16481.64
602.12	16585.82
602.478	16641.64
602.836	16602.77
603.194	16573.84
603.552	16595.99
603.91	16499.72
604.268	16704.69
604.625	16629.89
604.983	16642.77
605.341	16614.29
605.698	16736.1
606.056	16763.44
606.413	16707.4
606.771	16795.76
607.128	16825.36
607.485	16661.98
607.843	16735.2
608.2	16815.65
608.557	16863.1
608.914	16843.89
609.272	16905.36
609.629	16908.52
609.986	16968.18
610.343	16968.18
610.7	17129.31
611.057	17043.21
611.414	17019.48
611.771	17074.62
612.127	17049.09
612.484	17048.41
612.841	17087.95
613.198	17061.51
613.554	17028.52
613.911	17257.22
614.267	17116.65
614.624	17123.89
614.98	17147.84
615.337	17260.15
615.693	17235.97
616.05	17150.78
616.406	17362.07
616.762	17288.18
617.118	17336.54
617.475	17279.14
617.831	17310.1
618.187	17324.11
618.543	17322.52
618.899	17386.03
619.255	17440.04
619.611	17393.71
619.967	17470.09
620.323	17486.36
620.678	17340.6
621.034	17370.89
621.39	17422.18
621.746	17365.01
622.101	17564.55
622.457	17391.45
622.812	17424.44
623.168	17516.42
623.523	17464.67
623.879	17517.32
624.234	17313.49
624.589	17565.23
624.945	17466.48
625.3	17581.05
625.655	17484.78
626.01	17455.85
626.365	17521.62
626.72	17463.31
627.075	17523.2
627.43	17536.3
627.785	17442.52
628.14	17537.66
628.495	17539.47
628.85	17437.32
629.205	17405.91
629.559	17483.65
629.914	17416.08
630.269	17392.35
630.623	17394.84
630.978	17314.84
631.332	17369.76
631.687	17448.17
632.041	17289.76
632.396	17390.77
632.75	17231.23
633.104	17316.42
633.459	17264.9
633.813	17283.66
634.167	17276.42
634.521	17206.82
634.875	17164.11
635.229	17200.04
635.583	17170.44
635.937	17099.48
636.291	17061.51
636.645	17176.09
636.999	17047.28
637.352	17087.95
637.706	17108.07
638.06	17082.76
638.413	17088.41
638.767	17101.74
639.121	16970.22
639.474	16872.59
639.828	16904
640.181	16931.12
640.534	16947.62
640.888	16923.67
641.241	16777.45
641.594	16857.23
641.947	16882.31
642.301	16812.71
642.654	16871.46
643.007	16821.97
643.36	16866.94
643.713	16830.11
644.066	16807.28
644.419	16728.19
644.771	16542.88
645.124	16503.11
645.477	16369.33
645.83	16278.03
646.182	16224.47
646.535	16240.75
646.888	16214.98
647.24	16150.13
647.593	16188.54
647.945	16139.73
648.298	16068.09
648.65	16120.75
649.002	16008.89
649.355	16164.36
649.707	16045.72
650.059	16117.36
650.411	16345.38
650.763	16305.15
651.115	16489.78
651.467	16336.79
651.819	16387.41
652.171	16391.25
652.523	16385.15
652.875	16359.61
653.227	16163.01
653.578	16336.56
653.93	16248.2
654.282	16198.03
654.633	16133.4
654.985	16205.27
655.337	16334.53
655.688	16207.53
656.039	16254.53
656.391	16135.89
656.742	16268.99
657.094	16176.57
657.445	16184.25
657.796	16238.49
658.147	16208.43
658.498	16081.2
658.849	16158.04
659.2	16109.22
659.551	16061.77
659.902	16185.15
660.253	16145.38
660.604	16029.9
660.955	16037.81
661.306	16034.87
661.656	16048.43
662.007	15999.17
662.358	16006.85
662.708	16029.23
663.059	15981.77
663.409	15845.73
663.76	16006.18
664.11	16013.18
664.461	16037.36
664.811	15986.06
665.161	15946.97
665.511	15897.93
665.862	15925.05
666.212	15954.65
666.562	15961.43
666.912	15890.7
667.262	15807.76
667.612	15899.51
667.962	15803.24
668.312	15959.4
668.662	16039.17
669.011	15890.25
669.361	15915.78
669.711	15935.44
670.06	15913.52
670.41	15879.4
670.76	15902.9
671.109	15835.11
671.459	15835.33
671.808	15756.46
672.157	15856.12
672.507	15774.99
672.856	15720.76
673.205	15737.93
673.554	15797.82
673.904	15803.69
674.253	15806.63
674.602	15678.95
674.951	15494.55
675.3	15490.03
675.649	15686.86
675.998	15627.2
676.346	15695.22
676.695	15680.99
677.044	15521.44
677.393	15620.87
677.741	15555.79
678.09	15566.64
678.438	15482.8
678.787	15575.23
679.135	15521.44
679.484	15433.99
679.832	15445.06
680.181	15408.45
680.529	15479.64
680.877	15436.47
681.225	15398.51
681.573	15493.87
681.922	15419.98
682.27	15291.62
682.618	15227.44
682.966	15327.1
683.314	15377.27
683.661	15289.58
684.009	15245.52
684.357	15250.49
684.705	15100.89
685.053	15171.17
685.4	15114.45
685.748	15016.37
686.095	15007.56
686.443	14996.03
686.79	15005.52
687.138	15008.69
687.485	15038.07
687.832	14891.18
688.18	14993.32
688.527	14852.31
688.874	14877.62
689.221	14774.34
689.568	14753.55
689.915	14716.94
690.262	14664.06
690.609	14681.24
690.956	14585.87
691.303	14568.7
691.65	14652.76
691.997	14524.86
692.344	14415.48
692.69	14415.48
693.037	14477.63
693.383	14417.52
693.73	14448.25
694.077	14408.48
694.423	14307.24
694.769	14274.47
695.116	14249.84
695.462	14114.25
695.808	14105.21
696.155	14074.02
696.501	14030.18
696.847	13983.4
697.193	13941.37
697.539	13955.38
697.885	13908.6
698.231	13971.88
698.577	13848.94
698.923	13796.52
699.269	13799.68
699.614	13689.85
699.96	13747.25
700.306	13696.18
700.651	13625.9
700.997	13532.34
701.342	13575.28
701.688	13510.87
702.033	13445.79
702.379	13521.95
702.724	13445.34
703.069	13436.3
703.415	13285.57
703.76	13342.74
704.105	13246.02
704.45	13272.01
704.795	13170.77
705.14	13220.94
705.485	13182.97
705.83	13143.65
706.175	13165.35
706.52	13117.21
706.865	13041.28
707.209	13051.22
707.554	13008.74
707.899	12981.62
708.243	12952.02
708.588	12935.75
708.932	12892.36
709.277	12887.39
709.621	12796.54
709.966	12696.43
710.31	12748.86
710.654	12582.54
710.998	12737.11
711.342	12668.86
711.687	12634.51
712.031	12630.9
712.375	12580.05
712.719	12537.57
713.063	12507.96
713.407	12611.46
713.75	12401.75
714.094	12505.93
714.438	12468.42
714.782	12456.21
715.125	12454.63
715.469	12384.58
715.812	12309.32
716.156	12255.09
716.499	12296.22
716.843	12296.89
717.186	12210.12
717.53	12307.06
717.873	12206.28
718.216	12231.13
718.559	12131.02
718.902	12156.33
719.246	12109.33
719.589	12088.54
719.932	11995.66
720.275	12038.6
720.617	12013.06
720.96	12023.23
721.303	11986.62
721.646	12025.04
721.989	11909.79
722.331	11970.35
722.674	11909.79
723.016	11882.22
723.359	11866.62
723.701	11890.8
724.044	11854.19
724.386	11729
724.729	11824.82
725.071	11851.71
725.413	11721.77
725.755	11738.04
726.097	11685.16
726.439	11656.69
726.782	11659.85
727.124	11654.65
727.465	11673.86
727.807	11589.34
728.149	11624.82
728.491	11523.13
728.833	11644.71
729.175	11658.49
729.516	11474.32
729.858	11511.83
730.199	11499.18
730.541	11521.77
730.882	11486.75
731.224	11514.99
731.565	11408.33
731.906	11427.99
732.248	11448.55
732.589	11350.25
732.93	11247.88
733.271	11302.57
733.612	11306.41
733.953	11342.34
734.294	11322.91
734.635	11244.94
734.976	11252.85
735.317	11177.38
735.658	11235.23
735.999	11211.95
736.339	11174.44
736.68	11232.29
737.021	11142.12
737.361	11174.66
737.702	11140.09
738.042	11056.7
738.383	11127.89
738.723	11158.85
739.063	11087.43
739.404	11119.07
739.744	11085.63
740.084	11032.52
740.424	10995.01
740.764	11016.48
741.104	11038.17
741.444	10990.26
741.784	10892.19
742.124	10942.35
742.464	10940.55
742.804	10895.35
743.143	10900.55
743.483	10883.37
743.823	10863.94
744.162	10796.14
744.502	10806.09
744.841	10785.75
745.181	10854.22
745.52	10771.06
745.86	10825.97
746.199	10743.71
746.538	10663.04
746.877	10703.94
747.216	10755.69
747.556	10642.47
747.895	10651.06
748.234	10583.49
748.573	10698.52
748.911	10562.02
749.25	10623.27
749.589	10511.63
749.928	10556.83
750.267	10602.93
750.605	10500.56
750.944	10504.62
751.283	10445.42
751.621	10480.44
751.96	10344.4
752.298	10343.05
752.636	10338.3
752.975	10317.06
753.313	10202.49
753.651	10301.69
753.989	10271.18
754.327	10254.91
754.666	10231.19
755.004	10158.42
755.342	10191.19
755.679	10207.01
756.017	10123.39
756.355	10134.24
756.693	10094.01
757.031	10073.45
757.368	10019.67
757.706	10044.3
758.044	10045.43
758.381	10034.58
758.719	9929.72
759.056	9963.17
759.394	9903.96
759.731	9864.19
760.068	9795.49
760.405	9770.63
760.743	9797.52
761.08	9752.33
761.417	9745.77
761.754	9633.01
762.091	9707.13
762.428	9615.16
762.765	9599.11
763.102	9560.02
763.438	9553.24
763.775	9475.73
764.112	9482.5
764.449	9473.24
764.785	9446.12
765.122	9402.51
765.458	9346.01
765.795	9336.97
766.131	9296.52
766.467	9294.94
766.804	9265.11
767.14	9266.47
767.476	9254.71
767.812	9196.86
768.148	9279.35
768.485	9151.44
768.821	9122.29
769.157	9126.36
769.492	9049.07
769.828	9121.84
770.164	8957.32
770.5	8931.78
770.836	9002.97
771.171	8947.83
771.507	8894.27
771.842	8817.66
772.178	8800.71
772.513	8788.74
772.849	8804.78
773.184	8753.26
773.519	8734.28
773.855	8677.55
774.19	8633.71
774.525	8557.56
774.86	8648.63
775.195	8675.29
775.53	8523.66
775.865	8500.61
776.2	8488.63
776.535	8451.8
776.87	8407.5
777.205	8341.29
777.539	8343.55
777.874	8374.06
778.209	8268.07
778.543	8254.06
778.878	8171.35
779.212	8225.14
779.547	8172.93
779.881	8145.82
780.215	8126.38
780.55	8132.48
780.884	8040.51
781.218	8012.04
781.552	8017.46
781.886	8012.71
782.22	7963.45
782.554	7899.27
782.888	7831.02
783.222	7836.22
783.556	7824.7
783.889	7758.71
784.223	7706.73
784.557	7682.78
784.89	7759.84
785.224	7641.65
785.557	7647.07
785.891	7648.43
786.224	7587.64
786.558	7605.49
786.891	7541.54
787.224	7554.19
787.557	7568.2
787.891	7499.05
788.224	7487.98
788.557	7484.37
788.89	7420.86
789.223	7382.45
789.556	7351.71
789.888	7334.99
790.221	7297.25
790.554	7313.3
790.887	7302.22
791.219	7206.41
791.552	7198.95
791.884	7177.48
792.217	7145.17
792.549	7187.88
792.882	7132.74
793.214	7077.37
793.546	7087.31
793.879	7009.35
794.211	6996.47
794.543	6980.88
794.875	7001.89
795.207	6990.82
795.539	6908.79
795.871	6980.65
796.203	6877.38
796.535	6862.69
796.867	6805.29
797.198	6786.53
797.53	6814.78
797.862	6730.94
798.193	6823.37
798.525	6751.28
798.856	6804.16
799.188	6647.33
799.519	6651.17
799.85	6605.52
800.182	6644.61
800.513	6632.41
800.844	6567.1
801.175	6601.68
801.506	6561.9
801.837	6536.37
802.168	6550.83
802.499	6512.41
802.83	6542.7
803.161	6530.72
803.491	6438.97
803.822	6443.04
804.153	6392.87
804.483	6426.31
804.814	6382.02
805.145	6300.89
805.475	6331.18
805.805	6289.14
806.136	6373.89
806.466	6301.8
806.796	6276.94
807.126	6231.74
807.457	6299.76
807.787	6239.43
808.117	6208.47
808.447	6186.77
808.777	6198.07
809.107	6152.42
809.436	6124.18
809.766	6121.92
810.096	6079.2
810.426	6078.53
810.755	6110.62
811.085	6035.59
811.414	6067
811.744	6050.73
812.073	6026.78
812.403	6060.45
812.732	5967.8
813.061	5991.75
813.39	5927.57
813.719	5914.24
814.049	5958.98
814.378	5928.02
814.707	5875.59
815.036	5902.03
815.365	5874.24
815.693	5823.39
816.022	5814.13
816.351	5803.05
816.68	5795.6
817.008	5801.92
817.337	5785.43
817.665	5750.17
817.994	5746.11
818.322	5747.24
818.651	5731.42
818.979	5695.26
819.307	5690.74
819.636	5685.77
819.964	5653.23
820.292	5654.13
820.62	5723.96
820.948	5621.59
821.276	5647.35
821.604	5634.02
821.932	5643.74
822.259	5657.52
822.587	5661.14
822.915	5599.44
823.243	5635.6
823.57	5634.24
823.898	5635.6
824.225	5621.36
824.553	5576.62
824.88	5600.8
825.207	5626.56
825.535	5629.27
825.862	5635.15
826.189	5618.43
826.516	5617.75
826.843	5628.14
827.17	5629.95
827.497	5616.39
827.824	5624.75
828.151	5579.33
828.478	5614.13
828.805	5620.01
829.131	5568.03
829.458	5590.4
829.785	5574.81
830.111	5600.12
830.438	5630.63
830.764	5600.8
831.09	5635.37
831.417	5567.35
831.743	5561.93
832.069	5599.67
832.395	5580.46
832.722	5591.31
833.048	5610.52
833.374	5636.73
833.7	5547.02
834.026	5533
834.351	5557.86
834.677	5512.44
835.003	5556.96
835.329	5596.96
835.654	5540.01
835.98	5533.91
836.306	5533.23
836.631	5542.95
836.956	5528.71
837.282	5540.01
837.607	5496.62
837.932	5495.49
838.258	5496.62
838.583	5469.5
838.908	5447.36
839.233	5432.89
839.558	5513.34
839.883	5478.54
840.208	5435.61
840.533	5438.54
840.858	5377.75
841.182	5409.17
841.507	5400.13
841.832	5376.17
842.156	5354.25
842.481	5311.99
842.805	5330.3
843.13	5370.07
843.454	5355.61
843.778	5330.52
844.103	5283.07
844.427	5341.14
844.751	5335.5
845.075	5302.95
845.399	5259.79
845.723	5200.58
846.047	5274.48
846.371	5148.61
846.695	5168.49
847.019	5130.08
847.343	5144.99
847.666	5105.44
847.99	5047.37
848.313	5065.22
848.637	5066.35
848.96	5049.85
849.284	5081.04
849.607	5010.31
849.931	4996.97
850.254	4966.01
850.577	4949.52
850.9	4923.75
851.223	4937.31
851.546	4857.99
851.869	4810.54
852.192	4848.95
852.515	4826.36
852.838	4805.34
853.161	4846.24
853.483	4797.43
853.806	4818.22
854.129	4757.43
854.451	4771.22
854.774	4724.89
855.096	4733.25
855.419	4734.38
855.741	4695.96
856.063	4650.77
856.385	4689.41
856.708	4690.31
857.03	4645.57
857.352	4610.99
857.674	4643.99
857.996	4630.66
858.318	4599.24
858.64	4581.16
858.961	4555.4
859.283	4556.31
859.605	4517.66
859.926	4526.93
860.248	4472.02
860.57	4519.92
860.891	4540.04
861.212	4522.41
861.534	4535.74
861.855	4517.44
862.176	4472.24
862.498	4503.88
862.819	4438.57
863.14	4432.47
863.461	4404.9
863.782	4385.92
864.103	4413.03
864.424	4405.35
864.745	4444.67
865.065	4369.42
865.386	4388.4
865.707	4359.93
866.027	4361.06
866.348	4359.48
866.668	4383.66
866.989	4342.75
867.309	4338.01
867.63	4341.85
867.95	4349.08
868.27	4319.02
868.59	4325.13
868.91	4335.07
869.23	4288.52
869.55	4268.86
869.87	4319.02
870.19	4284.9
870.51	4252.81
870.83	4260.72
871.15	4234.73
871.469	4240.61
871.789	4230.21
872.109	4238.57
872.428	4179.37
872.748	4225.02
873.067	4230.89
873.386	4263.66
873.706	4222.3
874.025	4195.19
874.344	4150.89
874.663	4152.25
874.982	4177.79
875.301	4183.66
875.62	4164.23
875.939	4149.31
876.258	4101.18
876.577	4145.02
876.896	4153.61
877.214	4081.52
877.533	4119.26
877.852	4134.85
878.17	4107.73
878.489	4129.88
878.807	4128.75
879.125	4090.33
879.444	4145.02
879.762	4117.9
880.08	4120.39
880.398	4093.04
880.716	4084.68
881.034	4076.09
881.352	4058.69
881.67	4060.27
881.988	4048.75
882.306	4052.82
882.624	4079.94
882.941	4041.29
883.259	3996.77
883.577	3989.09
883.894	3985.02
884.212	3947.06
884.529	3997.9
884.846	3952.03
885.164	3946.83
885.481	3950.22
885.798	3975.08
886.115	3917.23
886.432	3914.52
886.75	3907.51
887.067	3882.43
887.383	3932.82
887.7	3900.05
888.017	3854.18
888.334	3890.34
888.651	3876.32
888.967	3845.36
889.284	3801.3
889.6	3831.81
889.917	3807.4
890.233	3760.62
890.55	3794.07
890.866	3818.25
891.182	3824.35
891.498	3802.88
891.815	3787.29
892.131	3766.27
892.447	3759.49
892.763	3719.94
893.079	3682.66
893.395	3695.09
893.71	3726.95
894.026	3672.04
894.342	3670.45
894.657	3651.47
894.973	3637.01
895.289	3623.22
895.604	3679.04
895.92	3660.96
896.235	3639.95
896.55	3603.11
896.865	3628.2
897.181	3604.24
897.496	3609.89
897.811	3566.28
898.126	3580.74
898.441	3566.05
898.756	3515.43
899.071	3497.8
899.386	3515.66
899.7	3483.11
900.015	3443.79
900.33	3478.37
900.644	3388.88
900.959	3472.49
901.273	3457.58
901.588	3413.51
901.902	3396.11
902.216	3441.31
902.531	3410.35
902.845	3371.93
903.159	3359.28
903.473	3347.98
903.787	3312.05
904.101	3329.9
904.415	3325.38
904.729	3318.15
905.042	3294.19
905.356	3272.05
905.67	3267.75
905.984	3274.53
906.297	3274.53
906.611	3242.44
906.924	3213.52
907.237	3199.96
907.551	3209
907.864	3171.03
908.177	3162.22
908.491	3133.52
908.804	3171.71
909.117	3165.38
909.43	3134.65
909.743	3159.73
910.056	3124.48
910.368	3103.46
910.681	3082.45
910.994	3101.2
911.307	3029.34
911.619	3044.93
911.932	3027.99
912.244	3054.2
912.557	3049.45
912.869	3047.65
913.181	2992.96
913.494	2980.08
913.806	2970.59
914.118	2966.52
914.43	2949.8
914.742	2947.08
915.054	2969
915.366	2968.33
915.678	2896.24
915.99	2885.62
916.302	2901.66
916.613	2860.08
916.925	2870.93
917.236	2861.66
917.548	2836.8
917.859	2826.18
918.171	2842.68
918.482	2843.13
918.794	2809.69
919.105	2783.92
919.416	2791.61
919.727	2804.49
920.038	2791.83
920.349	2742.12
920.66	2738.95
920.971	2739.86
921.282	2736.47
921.593	2714.77
921.903	2696.92
922.214	2707.54
922.525	2700.54
922.835	2689.24
923.146	2662.57
923.456	2637.49
923.767	2655.79
924.077	2630.93
924.387	2639.97
924.697	2612.63
925.008	2605.4
925.318	2642.46
925.628	2582.12
925.938	2570.6
926.248	2557.49
926.558	2551.39
926.867	2524.72
927.177	2516.59
927.487	2514.55
927.796	2490.6
928.106	2524.27
928.416	2488.11
928.725	2509.13
929.034	2446.76
929.344	2471.39
929.653	2486.08
929.962	2437.94
930.271	2407.21
930.581	2422.8
930.89	2424.61
931.199	2399.98
931.508	2385.97
931.817	2412.18
932.125	2416.7
932.434	2375.12
932.743	2336.03
933.051	2362.24
933.36	2367.21
933.669	2317.27
933.977	2303.26
934.286	2319.53
934.594	2301
934.902	2282.24
935.21	2274.33
935.519	2304.84
935.827	2302.81
936.135	2268.23
936.443	2230.72
936.751	2251.73
937.059	2232.53
937.367	2240.66
937.674	2206.99
937.982	2216.71
938.29	2207.44
938.597	2192.98
938.905	2187.78
939.213	2166.99
939.52	2169.48
939.827	2186.2
940.135	2141.45
940.442	2124.73
940.749	2148.69
941.056	2135.13
941.363	2113.21
941.67	2126.54
941.977	2124.96
942.284	2082.25
942.591	2075.02
942.898	2090.83
943.205	2075.24
943.511	2081.57
943.818	2106.43
944.125	2036.37
944.431	2044.96
944.738	2015.58
945.044	2025.75
945.35	2004.74
945.657	2008.35
945.963	1986.43
946.269	1984.4
946.575	1997.28
946.881	1990.05
947.187	2002.48
947.493	1949.6
947.799	1951.4
948.105	1978.75
948.41	1944.17
948.716	1953.89
949.022	1914.12
949.327	1921.57
949.633	1884.74
949.938	1896.49
950.244	1925.87
950.549	1885.64
950.854	1898.52
951.16	1867.34
951.465	1856.49
951.77	1873.44
952.075	1875.93
952.38	1855.13
952.685	1861.01
952.99	1846.55
953.294	1863.04
953.599	1835.7
953.904	1813.1
954.209	1825.08
954.513	1802.93
954.818	1840.9
955.122	1790.5
955.426	1792.54
955.731	1753.44
956.035	1772.43
956.339	1763.84
956.643	1745.31
956.948	1755.48
957.252	1742.14
957.556	1727
957.86	1737.4
958.163	1748.7
958.467	1745.08
958.771	1721.35
959.075	1725.87
959.378	1703.95
959.682	1719.55
959.985	1691.75
960.289	1703.73
960.592	1648.13
960.896	1677.51
961.199	1670.96
961.502	1664.18
961.805	1694.46
962.108	1644.07
962.411	1638.87
962.714	1625.99
963.017	1643.39
963.32	1640
963.623	1619.43
963.926	1618.76
964.228	1604.07
964.531	1586.67
964.833	1591.86
965.136	1610.17
965.438	1582.37
965.741	1617.17
966.043	1579.89
966.345	1545.09
966.648	1572.43
966.95	1552.54
967.252	1540.57
967.554	1563.39
967.856	1533.56
968.158	1511.87
968.46	1496.05
968.761	1524.97
969.063	1526.1
969.365	1519.1
969.666	1494.69
969.968	1499.21
970.269	1505.09
970.571	1482.94
970.872	1459.89
971.174	1468.03
971.475	1485.2
971.776	1455.82
972.077	1473
972.378	1447.01
972.679	1452.43
972.98	1449.04
973.281	1440.23
973.582	1448.14
973.883	1423.96
974.183	1400.01
974.484	1418.99
974.785	1386.22
975.085	1404.53
975.386	1406.79
975.686	1399.78
975.986	1379.22
976.287	1389.16
976.587	1389.84
976.887	1375.15
977.187	1342.15
977.487	1357.52
977.787	1372.89
978.087	1373.34
978.387	1354.81
978.687	1334.47
978.987	1327.92
979.286	1339.22
979.586	1307.35
979.885	1324.53
980.185	1340.12
980.484	1345.54
980.784	1313.23
981.083	1308.48
981.382	1287.69
981.682	1302.38
981.981	1318.2
982.28	1287.92
982.579	1276.62
982.878	1293.79
983.177	1272.1
983.475	1274.81
983.774	1246.79
984.073	1259.22
984.372	1256.28
984.67	1226
984.969	1229.16
985.267	1232.78
985.566	1221.71
985.864	1237.52
986.162	1242.27
986.461	1222.61
986.759	1248.6
987.057	1202.27
987.355	1202.5
987.653	1204.3
987.951	1194.36
988.249	1196.17
988.547	1198.65
988.844	1195.94
989.142	1178.99
989.44	1177.64
989.737	1164.53
990.035	1167.24
990.332	1173.12
990.63	1166.57
990.927	1141.03
991.224	1136.51
991.521	1168.37
991.819	1147.81
992.116	1137.64
992.413	1089.73
992.71	1132.44
993.006	1144.19
993.303	1123.18
993.6	1129.96
993.897	1105.1
994.193	1100.35
994.49	1097.87
994.787	1122.95
995.083	1102.84
995.379	1101.48
995.676	1074.59
995.972	1085.21
996.268	1082.5
996.565	1071.88
996.861	1074.14
997.157	1053.57
997.453	1082.73
997.749	1046.12
998.044	1048.38
998.34	1040.24
998.636	1056.74
998.932	1040.69
999.227	1019.45
999.523	1037.3
999.818	994.14
1000.114	1012.9
1000.409	1013.35
1000.704	994.37
1001	995.04
1001.295	1002.05
1001.59	1000.69
1001.885	1005.44
1002.18	980.58
1002.475	971.09
1002.77	979.23
1003.065	962.05
1003.359	962.73
1003.654	989.62
1003.949	969.28
1004.243	949.4
1004.538	959.57
1004.832	984.2
1005.127	954.59
1005.421	942.62
1005.715	933.13
1006.009	942.16
1006.304	917.31
1006.598	933.8
1006.892	921.37
1007.186	944.65
1007.48	919.34
1007.773	912.79
1008.067	901.94
1008.361	906.91
1008.655	896.74
1008.948	894.93
1009.242	909.62
1009.535	895.16
1009.829	880.02
1010.122	898.78
1010.415	865.78
1010.708	869.17
1011.001	896.29
1011.295	881.15
1011.588	837.53
1011.881	844.31
1012.173	827.82
1012.466	851.09
1012.759	858.55
1013.052	841.6
1013.344	798.89
1013.637	853.81
1013.93	820.59
1014.222	813.81
1014.514	813.58
1014.807	804.99
1015.099	816.29
1015.391	821.72
1015.683	829.63
1015.976	806.35
1016.268	829.63
1016.56	811.09
1016.851	787.59
1017.143	796.63
1017.435	767.48
1017.727	774.03
1018.018	751.89
1018.31	781.72
1018.602	786.24
1018.893	778.1
1019.185	768.38
1019.476	763.86
1019.767	767.93
1020.058	745.33
1020.35	736.29
1020.641	734.71
1020.932	744.2
1021.223	731.32
1021.514	732.68
1021.804	732
1022.095	711.89
1022.386	725.22
1022.677	710.08
1022.967	717.99
1023.258	708.27
1023.548	684.09
1023.839	722.74
1024.129	703.07
1024.419	693.58
1024.709	710.08
1025	699.91
1025.29	685.45
1025.58	702.4
1025.87	672.57
1026.16	677.54
1026.449	685
1026.739	668.27
1027.029	663.98
1027.319	692.45
1027.608	675.96
1027.898	677.54
1028.187	634.83
1028.477	653.36
1028.766	656.75
1029.055	643.19
1029.344	658.56
1029.634	651.32
1029.923	627.37
1030.212	646.35
1030.501	659.01
1030.79	614.49
1031.078	661.49
1031.367	628.05
1031.656	619.91
1031.945	630.31
1032.233	607.03
1032.522	621.49
1032.81	620.14
1033.099	605.22
1033.387	618.11
1033.675	605.68
1033.963	615.39
1034.251	615.39
1034.54	627.82
1034.828	624.43
1035.116	594.15
1035.403	599.35
1035.691	619.24
1035.979	590.54
1036.267	594.15
1036.554	579.69
1036.842	596.41
1037.129	579.46
1037.417	575.85
1037.704	595.73
1037.992	582.85
1038.279	561.16
1038.566	541.5
1038.853	541.5
1039.14	541.5
