Data from black_plastic_tray_FLMS001491_014.txt Node
Date: Tue Feb 07 10:39:21 GMT 2017
User: dcchb
Spectrometer: FLMS00149
Trigger mode: 0
Integration Time (sec): 2.000000E-2
Scans to average: 10
Electric dark correction enabled: true
Nonlinearity correction enabled: false
Boxcar width: 0
XAxis mode: Wavelengths
Number of Pixels in Spectrum: 2048
>>>>>Begin Spectral Data<<<<<
341.393	-8.94
341.776	-8.94
342.16	-8.94
342.543	-77.41
342.927	-75.61
343.31	-78.32
343.693	-50.07
344.077	-63.85
344.46	-53.91
344.843	-53.01
345.226	-47.36
345.61	-32.22
345.993	-40.58
346.376	-13.91
346.759	4.17
347.142	30.15
347.525	54.79
347.908	65.63
348.291	78.97
348.674	75.8
349.057	123.71
349.44	139.98
349.823	132.98
350.206	140.43
350.588	188.12
350.971	192.18
351.354	211.17
351.737	210.71
352.119	226.08
352.502	229.92
352.884	243.03
353.267	249.58
353.65	264.5
354.032	284.16
354.414	276.7
354.797	291.39
355.179	309.7
355.562	307.44
355.944	318.96
356.326	294.55
356.709	313.08
357.091	321.9
357.473	331.84
357.855	298.17
358.238	333.2
358.62	315.8
359.002	317.83
359.384	313.54
359.766	335.91
360.148	329.36
360.53	316.25
360.912	312.86
361.294	305.18
361.676	326.64
362.057	314.67
362.439	296.81
362.821	303.14
363.203	310.6
363.584	291.16
363.966	302.69
364.348	312.18
364.729	294.78
365.111	310.15
365.493	321.45
365.874	288.45
366.256	292.29
366.637	279.64
367.019	268.11
367.4	288.9
367.781	297.49
368.163	297.49
368.544	285.74
368.925	286.42
369.306	283.26
369.688	306.08
370.069	306.31
370.45	293.2
370.831	291.62
371.212	282.35
371.593	293.2
371.974	302.01
372.355	294.55
372.736	300.2
373.117	285.06
373.498	291.16
373.879	312.86
374.26	280.54
374.641	286.19
375.021	314.67
375.402	305.85
375.783	310.6
376.163	323.71
376.544	312.63
376.925	315.8
377.305	309.24
377.686	303.37
378.066	304.05
378.447	318.96
378.827	319.86
379.208	316.25
379.588	326.64
379.968	331.16
380.349	322.12
380.729	345.63
381.109	316.93
381.489	332.75
381.87	313.31
382.25	316.25
382.63	331.62
383.01	317.6
383.39	339.3
383.77	329.81
384.15	322.58
384.53	335.68
384.91	340.65
385.29	333.65
385.67	335.23
386.049	340.88
386.429	323.03
386.809	344.04
387.189	338.62
387.568	333.88
387.948	337.94
388.328	334.33
388.707	347.43
389.087	341.11
389.466	377.94
389.846	346.3
390.225	361.22
390.605	354.44
390.984	349.47
391.363	368.9
391.743	353.31
392.122	348.34
392.501	354.21
392.881	364.16
393.26	369.13
393.639	344.04
394.018	351.5
394.397	353.99
394.776	368
395.155	360.32
395.534	388.56
395.913	369.58
396.292	370.71
396.671	377.49
397.05	383.14
397.429	382.24
397.808	379.3
398.186	390.15
398.565	401.44
398.944	366.87
399.323	375.46
399.701	379.98
400.08	396.92
400.458	377.94
400.837	388.79
401.215	378.17
401.594	356.02
401.972	400.09
402.351	393.53
402.729	389.24
403.107	411.61
403.486	406.42
403.864	411.84
404.242	413.2
404.62	424.72
404.999	396.47
405.377	415.68
405.755	415.91
406.133	408.9
406.511	421.78
406.889	413.2
407.267	433.99
407.645	431.27
408.023	409.58
408.401	449.35
408.779	459.75
409.156	440.77
409.534	452.97
409.912	454.32
410.29	442.8
410.667	461.78
411.045	447.09
411.422	466.53
411.8	464.27
412.178	437.38
412.555	465.62
412.933	469.24
413.31	483.02
413.687	491.39
414.065	495
414.442	471.95
414.819	471.05
415.197	504.72
415.574	510.82
415.951	508.33
416.328	493.87
416.705	508.33
417.082	487.54
417.46	499.75
417.837	500.2
418.214	522.8
418.591	526.64
418.967	506.3
419.344	530.03
419.721	530.71
420.098	534.77
420.475	532.97
420.852	536.81
421.228	511.05
421.605	556.24
421.982	538.16
422.358	566.64
422.735	541.55
423.111	557.15
423.488	561.44
423.864	572.97
424.241	558.28
424.617	581.55
424.994	576.81
425.37	574.32
425.746	597.82
426.123	577.94
426.499	585.62
426.875	616.58
427.251	602.12
427.627	597.37
428.003	597.82
428.379	595.56
428.756	627.88
429.132	615.22
429.507	637.82
429.883	621.1
430.259	643.02
430.635	646.18
431.011	653.64
431.387	645.73
431.763	666.3
432.138	646.86
432.514	662.23
432.89	667.65
433.265	685.73
433.641	701.55
434.016	694.09
434.392	704.71
434.767	703.58
435.143	717.37
435.518	712.4
435.894	722.11
436.269	739.06
436.644	744.03
437.02	734.09
437.395	740.87
437.77	764.37
438.145	748.78
438.52	764.82
438.895	776.12
439.271	779.51
439.646	774.99
440.021	782.9
440.395	798.04
440.77	806.86
441.145	796.69
441.52	813.86
441.895	811.15
442.27	809.12
442.645	826.07
443.019	829
443.394	808.67
443.769	836.01
444.143	818.38
444.518	848.66
444.892	822.45
445.267	852.05
445.641	845.5
446.016	839.62
446.39	847.08
446.764	851.83
447.139	858.16
447.513	852.28
447.887	862.9
448.262	884.37
448.636	868.1
449.01	897.7
449.384	899.96
449.758	899.74
450.132	906.29
450.506	918.49
450.88	903.35
451.254	911.71
451.628	937.7
452.002	944.48
452.376	944.25
452.75	972.73
453.123	953.07
453.497	972.73
453.871	988.77
454.244	981.09
454.618	995.55
454.992	976.12
455.365	1001.88
455.739	1017.93
456.112	1045.95
456.486	1022.22
456.859	1037.59
457.232	1075.55
457.606	1100.63
457.979	1090.47
458.352	1094.99
458.725	1108.54
459.099	1098.6
459.472	1111.26
459.845	1135.44
460.218	1155.1
460.591	1178.15
460.964	1165.27
461.337	1190.8
461.71	1184.47
462.083	1205.94
462.456	1205.72
462.829	1210.91
463.201	1250.46
463.574	1233.74
463.947	1260.18
464.32	1243
464.692	1282.1
465.065	1290.91
465.438	1337.92
465.81	1327.97
466.183	1338.59
466.555	1364.81
466.928	1369.1
467.3	1341.76
467.672	1385.15
468.045	1408.42
468.417	1412.72
468.789	1424.92
469.161	1443
469.534	1473.73
469.906	1481.42
470.278	1491.81
470.65	1505.82
471.022	1555.31
471.394	1558.93
471.766	1554.18
472.138	1587.63
472.51	1621.3
472.882	1658.59
473.253	1647.29
473.625	1647.29
473.997	1722.09
474.369	1712.6
474.74	1716.66
475.112	1767.96
475.484	1776.55
475.855	1809.99
476.227	1816.77
476.598	1884.57
476.97	1853.84
477.341	1926.38
477.713	1913.95
478.084	1954.17
478.455	1985.81
478.827	2012.93
479.198	2059.25
479.569	2051.12
479.94	2136.31
480.311	2109.87
480.682	2151.68
481.053	2186.48
481.424	2250.21
481.795	2253.6
482.166	2294.28
482.537	2298.8
482.908	2355.74
483.279	2401.39
483.65	2423.54
484.021	2488.62
484.391	2479.81
484.762	2510.99
485.133	2534.5
485.503	2576.75
485.874	2642.06
486.244	2631.22
486.615	2692.01
486.985	2716.19
487.356	2771.1
487.726	2780.59
488.097	2815.62
488.467	2846.8
488.837	2916.18
489.207	2894.71
489.578	2950.53
489.948	3005.67
490.318	3016.97
490.688	2992.11
491.058	3066.91
491.428	3101.71
491.798	3176.29
492.168	3215.16
492.538	3209.51
492.908	3289.5
493.278	3250.18
493.648	3286.34
494.017	3317.3
494.387	3359.78
494.757	3394.13
495.126	3457.41
495.496	3432.33
495.866	3451.99
496.235	3499.44
496.605	3491.08
496.974	3555.94
497.344	3572.66
497.713	3619.44
498.082	3650.85
498.452	3695.37
498.821	3717.29
499.19	3645.2
499.559	3738.31
499.928	3722.94
500.298	3785.08
500.667	3845.87
501.036	3834.57
501.405	3854.46
501.774	3867.79
502.143	3880.22
502.512	3927.68
502.88	3939.43
503.249	3944.18
503.618	3976.94
503.987	3992.08
504.356	4044.96
504.724	4103.27
505.093	4118.63
505.462	4076.15
505.83	4133.55
506.199	4166.99
506.567	4183.94
506.936	4214.68
507.304	4221.46
507.672	4281.79
508.041	4274.79
508.409	4352.53
508.777	4330.61
509.145	4389.81
509.514	4413.54
509.882	4419.42
510.25	4460.77
510.618	4487.89
510.986	4550.94
511.354	4596.14
511.722	4564.27
512.09	4591.16
512.458	4628.45
512.826	4638.62
513.193	4726.98
513.561	4712.97
513.929	4735.12
514.297	4773.08
514.664	4849.24
515.032	4820.76
515.4	4877.26
515.767	4912.06
516.135	4956.58
516.502	4934.43
516.869	5022.11
517.237	5061.21
517.604	5073.64
517.972	5094.65
518.339	5128.33
518.706	5148.44
519.073	5117.03
519.44	5213.52
519.808	5223.69
520.175	5256.23
520.542	5346.85
520.909	5381.65
521.276	5358.15
521.643	5511.14
522.009	5436.34
522.376	5508.88
522.743	5554.3
523.11	5570.12
523.477	5641.08
523.843	5652.15
524.21	5721.53
524.577	5796.56
524.943	5859.38
525.31	5838.59
525.676	5918.36
526.043	5926.72
526.409	5954.74
526.776	6051.47
527.142	6077.68
527.508	6035.65
527.874	6129.66
528.241	6172.82
528.607	6174.63
528.973	6243.55
529.339	6241.29
529.705	6297.79
530.071	6348.18
530.437	6384.56
530.803	6408.07
531.169	6487.84
531.535	6448.74
531.901	6529.64
532.267	6548.4
532.632	6564.22
532.998	6621.39
533.364	6603.09
533.73	6621.85
534.095	6696.65
534.461	6753.59
534.826	6702.3
535.192	6792.91
535.557	6820.03
535.923	6828.17
536.288	6897.54
536.653	6834.72
537.019	6882.86
537.384	6966.7
537.749	6982.51
538.114	6974.38
538.479	6965.11
538.845	7072.23
539.21	7064.55
539.575	7044.21
539.94	7120.14
540.305	7107.48
540.67	7167.82
541.034	7168.95
541.399	7210.53
541.764	7244.65
542.129	7287.14
542.494	7246.69
542.858	7368.27
543.223	7366.01
543.587	7378.66
543.952	7387.02
544.316	7386.57
544.681	7369.85
545.045	7449.17
545.41	7525.55
545.774	7509.28
546.138	7490.07
546.503	7555.61
546.867	7586.34
547.231	7652.33
547.595	7713.57
547.959	7691.42
548.324	7687.81
548.688	7719.67
549.052	7754.25
549.416	7775.94
549.779	7747.92
550.143	7831.31
550.507	7895.26
550.871	7882.38
551.235	7842.15
551.599	7886.22
551.962	7930.74
552.326	7963.73
552.689	8026.1
553.053	7928.48
553.417	8070.4
553.78	8166.66
554.143	8088.02
554.507	8138.19
554.87	8131.86
555.234	8235.14
555.597	8227.23
555.96	8326.21
556.323	8293.67
556.686	8337.51
557.05	8382.93
557.413	8407.79
557.776	8410.27
558.139	8483.04
558.502	8490.95
558.865	8503.83
559.228	8631.96
559.59	8646.88
559.953	8639.65
560.316	8726.42
560.679	8774.56
561.041	8797.38
561.404	8760.77
561.767	8826.76
562.129	8834.44
562.492	8919.86
562.854	8982.69
563.217	8969.35
563.579	9049.58
563.941	9008.45
564.304	9078.73
564.666	9126.41
565.028	9120.31
565.39	9144.72
565.753	9248.44
566.115	9254.54
566.477	9297.26
566.839	9334.77
567.201	9359.85
567.563	9380.42
567.925	9434.88
568.287	9457.25
568.648	9461.09
569.01	9545.38
569.372	9661.99
569.734	9604.82
570.095	9635.33
570.457	9695.44
570.819	9701.76
571.18	9736.79
571.542	9774.08
571.903	9773.63
572.265	9800.75
572.626	9836.9
572.987	9909.44
573.349	9921.42
573.71	9864.92
574.071	9963.9
574.432	9974.07
574.794	10007.75
575.155	9978.82
575.516	10036.22
575.877	10056.78
576.238	10028.76
576.599	10133.17
576.96	10122.77
577.32	10172.71
577.681	10116.22
578.042	10228.3
578.403	10153.73
578.763	10291.35
579.124	10249.32
579.485	10310.11
579.845	10301.97
580.206	10278.7
580.566	10265.37
580.927	10313.5
581.287	10344.91
581.648	10248.64
582.008	10414.74
582.368	10280.51
582.728	10368.87
583.089	10348.53
583.449	10337.91
583.809	10378.13
584.169	10385.81
584.529	10381.29
584.889	10486.38
585.249	10411.58
585.609	10340.62
585.969	10390.79
586.329	10349.88
586.688	10341.97
587.048	10385.36
587.408	10301.97
587.768	10335.65
588.127	10411.35
588.487	10318.7
588.846	10421.97
589.206	10353.72
589.565	10306.49
589.925	10357.11
590.284	10438.24
590.643	10336.78
591.003	10444.12
591.362	10455.64
591.721	10428.3
592.08	10467.17
592.44	10422.65
592.799	10469.43
593.158	10449.32
593.517	10466.49
593.876	10446.38
594.235	10437.79
594.593	10524.34
594.952	10441.63
595.311	10429.43
595.67	10458.81
596.029	10495.19
596.387	10525.25
596.746	10572.25
597.104	10476.21
597.463	10477.79
597.822	10511.46
598.18	10447.51
598.538	10464.23
598.897	10579.26
599.255	10452.25
599.613	10570.22
599.972	10537.9
600.33	10623.32
600.688	10495.42
601.046	10525.47
601.404	10616.54
601.762	10642.3
602.12	10732.02
602.478	10691.57
602.836	10683.66
603.194	10607.28
603.552	10564.57
603.91	10631.23
604.268	10644.56
604.625	10579.93
604.983	10706.03
605.341	10602.98
605.698	10662.87
606.056	10727.5
606.413	10675.75
606.771	10710.55
607.128	10741.51
607.485	10636.66
607.843	10707.61
608.2	10779.93
608.557	10787.61
608.914	10792.58
609.272	10798.23
609.629	10818.57
609.986	10813.6
610.343	10706.48
610.7	10825.58
611.057	10867.84
611.414	10856.99
611.771	10806.82
612.127	10849.53
612.484	10867.38
612.841	10874.84
613.198	10918
613.554	10902.86
613.911	10915.52
614.267	10962.3
614.624	10928.17
614.98	10969.53
615.337	10988.74
615.693	10986.48
616.05	10993.03
616.406	11011.11
616.762	10973.6
617.118	11007.72
617.475	10985.12
617.831	11042.07
618.187	11041.39
618.543	11094.5
618.899	11143.99
619.255	11127.72
619.611	11118
619.967	11176.3
620.323	11161.61
620.678	11156.87
621.034	11113.48
621.39	11174.95
621.746	11093.37
622.101	11175.62
622.457	11101.05
622.812	11118.9
623.168	11121.16
623.523	11144.44
623.879	11143.08
624.234	11092.69
624.589	11061.95
624.945	11138.34
625.3	11146.47
625.655	11082.29
626.01	11098.11
626.365	11105.57
626.72	11100.82
627.075	11134.5
627.43	11093.37
627.785	11073.71
628.14	11101.5
628.495	11143.99
628.85	11137.21
629.205	11078.68
629.559	11102.18
629.914	11146.02
630.269	11155.51
630.623	11031.67
630.978	11034.39
631.332	11063.08
631.687	11110.77
632.041	10982.63
632.396	11033.93
632.75	10972.47
633.104	11048.17
633.459	10992.13
633.813	10863.32
634.167	10918.23
634.521	10890.89
634.875	10927.72
635.229	10936.99
635.583	10832.13
635.937	10794.17
636.291	10825.35
636.645	10835.07
636.999	10741.06
637.352	10846.82
637.706	10701.29
638.06	10843.43
638.413	10753.94
638.767	10682.53
639.121	10745.13
639.474	10662.19
639.828	10750.55
640.181	10700.83
640.534	10638.69
640.888	10631.01
641.241	10648.41
641.594	10598.69
641.947	10657.45
642.301	10692.02
642.654	10603.66
643.007	10587.39
643.36	10598.01
643.713	10567.5
644.066	10635.53
644.419	10571.57
644.771	10487.51
645.124	10442.31
645.477	10460.61
645.83	10305.36
646.182	10275.99
646.535	10277.34
646.888	10299.94
647.24	10154.18
647.593	10212.71
647.945	10204.35
648.298	10069.21
648.65	10091.58
649.002	10043
649.355	10126.39
649.707	10133.62
650.059	10158.48
650.411	10323.67
650.763	10221.53
651.115	10486.83
651.467	10427.17
651.819	10346.49
652.171	10355.98
652.523	10312.82
652.875	10390.33
653.227	10284.12
653.578	10306.49
653.93	10357.11
654.282	10232.6
654.633	10191.24
654.985	10272.82
655.337	10168.65
655.688	10262.88
656.039	10339.04
656.391	10153.73
656.742	10175.88
657.094	10190.11
657.445	10234.63
657.796	10226.27
658.147	10167.06
658.498	10144.01
658.849	10310.79
659.2	10190.79
659.551	10146.27
659.902	10259.72
660.253	10183.56
660.604	10127.52
660.955	10159.61
661.306	10133.84
661.656	10135.43
662.007	10108.99
662.358	10113.51
662.708	10088.87
663.059	10066.27
663.409	9932.49
663.76	10129.55
664.11	10066.5
664.461	10073.51
664.811	10084.81
665.161	10019.95
665.511	10064.02
665.862	10085.03
666.212	10074.41
666.562	10073.73
666.912	10094.3
667.262	10046.16
667.612	9970.68
667.962	10061.08
668.312	10031.93
668.662	9983.11
669.011	10061.98
669.361	10006.16
669.711	10002.32
670.06	10035.77
670.41	10011.81
670.76	9965.94
671.109	9973.17
671.459	9916
671.808	10015.65
672.157	9897.92
672.507	9917.8
672.856	9849.11
673.205	9987.41
673.554	9937.92
673.904	9905.83
674.253	9937.01
674.602	9860.63
674.951	9678.49
675.3	9731.14
675.649	9828.99
675.998	9787.41
676.346	9885.04
676.695	9920.52
677.044	9875.32
677.393	9872.83
677.741	9886.17
678.09	9857.92
678.438	9847.98
678.787	9822.67
679.135	9756.45
679.484	9712.61
679.832	9804.59
680.181	9699.05
680.529	9767.53
680.877	9693.63
681.225	9696.57
681.573	9751.25
681.922	9647.75
682.27	9637.13
682.618	9644.82
682.966	9625.61
683.314	9681.88
683.661	9655.66
684.009	9556.46
684.357	9596.68
684.705	9560.07
685.053	9581.99
685.4	9536.8
685.748	9450.7
686.095	9471.26
686.443	9358.04
686.79	9408.67
687.138	9420.42
687.485	9381.77
687.832	9412.96
688.18	9372.96
688.527	9270.82
688.874	9341.32
689.221	9264.26
689.568	9225.17
689.915	9263.13
690.262	9320.08
690.609	9194.66
690.956	9167.09
691.303	9130.48
691.65	9108.79
691.997	9089.13
692.344	9115.79
692.69	9068.79
693.037	9038.51
693.383	9034.21
693.73	9004.38
694.077	8998.28
694.423	9019.3
694.769	8907.44
695.116	8958.96
695.462	8940.43
695.808	8824.5
696.155	8908.79
696.501	8843.71
696.847	8821.11
697.193	8796.48
697.539	8729.13
697.885	8738.4
698.231	8707.21
698.577	8639.87
698.923	8569.82
699.269	8666.76
699.614	8611.4
699.96	8548.57
700.306	8565.3
700.651	8479.65
700.997	8526.88
701.342	8443.72
701.688	8458.41
702.033	8481.91
702.379	8465.41
702.724	8408.24
703.069	8434.68
703.415	8345.19
703.76	8346.32
704.105	8361.23
704.45	8364.17
704.795	8263.38
705.14	8268.81
705.485	8314.23
705.83	8259.77
706.175	8210.05
706.52	8195.36
706.865	8184.29
707.209	8168.7
707.554	8109.04
707.899	8200.56
708.243	8124.18
708.588	8061.13
708.932	8006.89
709.277	8014.13
709.621	8028.36
709.966	8037.63
710.31	8049.83
710.654	8001.7
710.998	8014.13
711.342	7952.21
711.687	7981.36
712.031	7920.12
712.375	7878.31
712.719	7901.81
713.063	7931.64
713.407	7887.58
713.75	7900.23
714.094	7794.47
714.438	7770.06
714.782	7758.99
715.125	7785.43
715.469	7793.57
715.812	7690.29
716.156	7678.77
716.499	7700.24
716.843	7604.42
717.186	7683.96
717.53	7694.13
717.873	7649.39
718.216	7619.56
718.559	7584.31
718.902	7593.8
719.246	7578.43
719.589	7569.39
719.932	7566.91
720.275	7644.42
720.617	7576.85
720.96	7505.89
721.303	7542.05
721.646	7577.3
721.989	7563.06
722.331	7505.89
722.674	7508.38
723.016	7385.89
723.359	7440.58
723.701	7452.78
724.044	7382.5
724.386	7381.37
724.729	7342.28
725.071	7331.88
725.413	7382.5
725.755	7333.69
726.097	7333.01
726.439	7254.82
726.782	7228.16
727.124	7276.97
727.465	7254.15
727.807	7248.04
728.149	7228.84
728.491	7221.38
728.833	7228.38
729.175	7188.84
729.516	7138.44
729.858	7126.47
730.199	7165.11
730.541	7160.81
730.882	7197.2
731.224	7182.06
731.565	7096.86
731.906	7119.23
732.248	7064.32
732.589	7096.18
732.93	7048.5
733.271	7085.79
733.612	7088.27
733.953	7046.24
734.294	7035.85
734.635	6961.5
734.976	7005.11
735.317	6956.53
735.658	6968.96
735.999	6969.86
736.339	6996.07
736.68	7017.32
737.021	6981.61
737.361	6853.25
737.702	6986.13
738.042	6921.05
738.383	6873.14
738.723	6938.22
739.063	6871.78
739.404	6880.37
739.744	6868.62
740.084	6815.74
740.424	6888.05
740.764	6805.34
741.104	6847.83
741.444	6843.53
741.784	6766.02
742.124	6792.24
742.464	6822.29
742.804	6761.5
743.143	6722.18
743.483	6774.38
743.823	6724.89
744.162	6755.85
744.502	6746.81
744.841	6710.66
745.181	6702.52
745.52	6692.13
745.86	6659.58
746.199	6656.42
746.538	6665.91
746.877	6670.43
747.216	6647.83
747.556	6622.98
747.895	6568.29
748.234	6550.21
748.573	6584.11
748.911	6549.08
749.25	6580.49
749.589	6568.29
749.928	6600.38
750.267	6579.13
750.605	6533.49
750.944	6536.65
751.283	6544.33
751.621	6518.8
751.96	6426.37
752.298	6433.83
752.636	6505.46
752.975	6406.48
753.313	6378.91
753.651	6389.31
753.989	6368.97
754.327	6375.3
754.666	6316.09
755.004	6328.29
755.342	6320.61
755.679	6337.33
756.017	6289.88
756.355	6289.2
756.693	6234.74
757.031	6269.54
757.368	6272.48
757.706	6228.41
758.044	6152.93
758.381	6185.02
758.719	6140.28
759.056	6158.13
759.394	6136.21
759.731	6118.36
760.068	6113.84
760.405	6125.81
760.743	6066.38
761.08	6059.83
761.417	6015.08
761.754	6072.03
762.091	6004.23
762.428	6025.93
762.765	5971.69
763.102	5972.15
763.438	5920.62
763.775	5906.38
764.112	5902.99
764.449	5911.58
764.785	5840.17
765.122	5820.74
765.458	5802.66
765.795	5849.89
766.131	5856.89
766.467	5821.87
766.804	5746.16
767.14	5765.37
767.476	5737.58
767.812	5772.38
768.148	5736.67
768.485	5682.21
768.821	5686.05
769.157	5648.76
769.492	5648.09
769.828	5619.16
770.164	5632.27
770.5	5601.99
770.836	5565.38
771.171	5543.46
771.507	5532.83
771.842	5495.32
772.178	5529.45
772.513	5478.6
772.849	5475.44
773.184	5446.74
773.519	5462.33
773.855	5423.69
774.19	5359.51
774.525	5352.27
774.86	5364.93
775.195	5381.43
775.53	5292.16
775.865	5320.18
776.2	5277.93
776.535	5241.99
776.87	5206.29
777.205	5226.85
777.539	5204.03
777.874	5182.11
778.209	5206.06
778.543	5156.12
778.878	5152.28
779.212	5123.35
779.547	5097.14
779.881	5122.9
780.215	5086.29
780.55	5042.9
780.884	5016.69
781.218	5000.65
781.552	4998.61
781.886	5005.62
782.22	4949.8
782.554	4986.63
782.888	4894.21
783.222	4899.18
783.556	4894.21
783.889	4834.55
784.223	4860.76
784.557	4842.68
784.89	4895.56
785.224	4833.42
785.557	4760.88
785.891	4796.13
786.224	4818.28
786.558	4726.98
786.891	4706.87
787.224	4725.62
787.557	4695.79
787.891	4740.99
788.224	4723.82
788.557	4692.86
788.89	4646.08
789.223	4679.3
789.556	4616.93
789.888	4618.28
790.221	4630.49
790.554	4549.36
790.887	4618.28
791.219	4533.99
791.552	4552.97
791.884	4534.44
792.217	4517.72
792.549	4438.4
792.882	4513.2
793.214	4438.63
793.546	4442.47
793.879	4391.17
794.211	4393.66
794.543	4453.09
794.875	4422.81
795.207	4379.19
795.539	4363.15
795.871	4354.79
796.203	4347.33
796.535	4305.97
796.867	4319.76
797.198	4267.56
797.53	4291.29
797.862	4237.73
798.193	4270.5
798.525	4221
798.856	4228.91
799.188	4205.64
799.519	4178.75
799.85	4142.81
800.182	4157.05
800.513	4185.98
800.844	4120.89
801.175	4184.62
801.506	4174.9
801.837	4118.86
802.168	4102.36
802.499	4090.61
802.83	4095.58
803.161	4071.4
803.491	4062.36
803.822	4068.69
804.153	4014
804.483	4035.7
804.814	4014.46
805.145	3996.83
805.475	3995.47
805.805	3947.57
806.136	3978.75
806.466	4002.71
806.796	4005.42
807.126	3961.12
807.457	3928.13
807.787	3931.97
808.117	3903.27
808.447	3884.97
808.777	3917.28
809.107	3897.4
809.436	3887.68
809.766	3867.12
810.096	3869.38
810.426	3850.85
810.755	3837.29
811.085	3812.43
811.414	3808.13
811.744	3780.56
812.073	3848.36
812.403	3745.31
812.732	3771.07
813.061	3781.02
813.39	3770.62
813.719	3715.03
814.049	3738.53
814.378	3697.4
814.707	3754.8
815.036	3708.93
815.365	3669.83
815.693	3660.12
816.022	3690.85
816.351	3660.79
816.68	3687.46
817.008	3686.56
817.337	3609.27
817.665	3619.89
817.994	3592.55
818.322	3630.51
818.651	3623.51
818.979	3624.41
819.307	3630.29
819.636	3585.77
819.964	3563.62
820.292	3541.93
820.62	3590.74
820.948	3557.29
821.276	3574.02
821.604	3556.84
821.932	3582.6
822.259	3552.55
822.587	3598.87
822.915	3557.97
823.243	3532.89
823.57	3561.36
823.898	3574.24
824.225	3551.64
824.553	3583.96
824.88	3570.17
825.207	3574.47
825.535	3563.17
825.862	3510.29
826.189	3543.96
826.516	3523.62
826.843	3510.97
827.17	3577.41
827.497	3564.75
827.824	3580.34
828.151	3592.09
828.478	3569.04
828.805	3563.17
829.131	3522.04
829.458	3566.11
829.785	3542.83
830.111	3520.91
830.438	3549.84
830.764	3502.15
831.09	3554.13
831.417	3533.57
831.743	3528.37
832.069	3550.97
832.395	3536.73
832.722	3502.15
833.048	3532.66
833.374	3519.55
833.7	3530.4
834.026	3499.67
834.351	3508.48
834.677	3490.85
835.003	3508.71
835.329	3521.36
835.654	3487.01
835.98	3480.46
836.306	3476.39
836.631	3481.59
836.956	3475.94
837.282	3461.25
837.607	3495.83
837.932	3442.49
838.258	3451.76
838.583	3443.85
838.908	3439.33
839.233	3437.97
839.558	3423.51
839.883	3391.87
840.208	3413.79
840.533	3409.95
840.858	3423.29
841.182	3448.82
841.507	3409.27
841.832	3366.34
842.156	3389.61
842.481	3343.29
842.805	3389.84
843.13	3354.13
843.454	3347.36
843.778	3356.17
844.103	3357.98
844.427	3359.11
844.751	3347.81
845.075	3338.09
845.399	3299.22
845.723	3272.1
846.047	3327.69
846.371	3273.69
846.695	3251.76
847.019	3254.02
847.343	3250.63
847.666	3239.56
847.99	3181.48
848.313	3237.53
848.637	3199.56
848.96	3201.6
849.284	3187.59
849.607	3197.08
849.931	3116.63
850.254	3134.93
850.577	3121.6
850.9	3116.85
851.223	3068.04
851.546	3058.32
851.869	3025.56
852.192	3116.18
852.515	3041.83
852.838	3041.37
853.161	3027.14
853.483	3037.76
853.806	3027.14
854.129	3008.61
854.451	3005.9
854.774	2998.21
855.096	2960.02
855.419	2968.83
855.741	2991.21
856.063	2985.33
856.385	2950.08
856.708	2929.29
857.03	2952.11
857.352	2919.34
857.674	2915.05
857.996	2940.59
858.318	2897.88
858.64	2890.19
858.961	2876.18
859.283	2880.02
859.605	2874.6
859.926	2927.71
860.248	2902.85
860.57	2883.41
860.891	2846.13
861.212	2851.78
861.534	2834.37
861.855	2807.03
862.176	2895.39
862.498	2839.12
862.819	2840.7
863.14	2835.96
863.461	2811.32
863.782	2805.22
864.103	2765.68
864.424	2773.59
864.745	2812.23
865.065	2798.67
865.386	2769.29
865.707	2817.43
866.027	2772.91
866.348	2780.14
866.668	2748.05
866.989	2721.61
867.309	2740.82
867.63	2746.24
867.95	2726.35
868.27	2733.36
868.59	2755.28
868.91	2735.39
869.23	2762.96
869.55	2716.41
869.87	2748.95
870.19	2729.97
870.51	2729.07
870.83	2719.12
871.15	2697.88
871.469	2721.38
871.789	2679.35
872.109	2716.19
872.428	2694.72
872.748	2688.39
873.067	2678.22
873.386	2680.93
873.706	2677.54
874.025	2615.17
874.344	2666.92
874.663	2643.87
874.982	2648.16
875.301	2630.99
875.62	2671.44
875.939	2587.38
876.258	2632.35
876.577	2626.7
876.896	2636.19
877.214	2619.92
877.533	2619.92
877.852	2629.86
878.17	2647.49
878.489	2635.74
878.807	2640.26
879.125	2601.16
879.444	2567.04
879.762	2593.7
880.08	2626.24
880.398	2589.41
880.716	2568.84
881.034	2592.57
881.352	2592.8
881.67	2598.45
881.988	2565.68
882.306	2580.37
882.624	2565.23
882.941	2529.3
883.259	2549.41
883.577	2549.41
883.894	2563.87
884.212	2521.61
884.529	2518.22
884.846	2503.31
885.164	2546.7
885.481	2504.67
885.798	2517.32
886.115	2461.05
886.432	2508.28
886.75	2507.38
887.067	2492.24
887.383	2475.97
887.7	2482.97
888.017	2466.93
888.334	2472.8
888.651	2445.23
888.967	2460.6
889.284	2475.97
889.6	2445.68
889.917	2429.87
890.233	2433.93
890.55	2428.74
890.866	2470.09
891.182	2427.15
891.498	2411.11
891.815	2408.4
892.131	2396.87
892.447	2393.93
892.763	2371.79
893.079	2380.15
893.395	2381.73
893.71	2366.36
894.026	2382.18
894.342	2373.37
894.657	2354.61
894.973	2331.11
895.289	2332.01
895.604	2328.63
895.92	2311.68
896.235	2304.9
896.55	2342.41
896.865	2308.96
897.181	2287.27
897.496	2264.45
897.811	2266.93
898.126	2238.01
898.441	2256.54
898.756	2255.41
899.071	2276.42
899.386	2245.24
899.7	2230.32
900.015	2218.12
900.33	2236.2
900.644	2223.54
900.959	2210.66
901.273	2250.44
901.588	2205.01
901.902	2189.19
902.216	2196.65
902.531	2166.37
902.845	2162.53
903.159	2149.42
903.473	2143.32
903.787	2136.31
904.101	2178.8
904.415	2148.74
904.729	2144.45
905.042	2121.4
905.356	2142.87
905.67	2144.68
905.984	2134.51
906.297	2109.65
906.611	2077.78
906.924	2087.95
907.237	2097.9
907.551	2089.76
907.864	2075.98
908.177	2081.85
908.491	2072.59
908.804	2049.76
909.117	2040.5
909.43	2029.42
909.743	2026.94
910.056	2023.1
910.368	1990.78
910.681	1996.66
910.994	2001.63
911.307	1983.55
911.619	1957.79
911.932	1991.68
912.244	1996.2
912.557	1983.32
912.869	1980.84
913.181	1962.99
913.494	1923.44
913.806	1926.6
914.118	1906.26
914.43	1898.81
914.742	1893.38
915.054	1912.82
915.366	1891.35
915.678	1893.61
915.99	1868.07
916.302	1852.71
916.613	1887.96
916.925	1854.51
917.236	1853.16
917.548	1845.25
917.859	1850.45
918.171	1823.55
918.482	1852.93
918.794	1829.43
919.105	1832.59
919.416	1862.65
919.727	1810.9
920.038	1792.59
920.349	1809.77
920.66	1785.14
920.971	1791.69
921.282	1758.7
921.593	1732.93
921.903	1763.67
922.214	1786.27
922.525	1752.82
922.835	1753.95
923.146	1747.4
923.456	1713.05
923.767	1724.57
924.077	1715.53
924.387	1727.51
924.697	1686.16
925.008	1698.59
925.318	1717.79
925.628	1704.46
925.938	1716.44
926.248	1702.65
926.558	1645.03
926.867	1653.39
927.177	1688.87
927.487	1667.17
927.796	1644.12
928.106	1664.01
928.416	1649.77
928.725	1626.95
929.034	1662.65
929.344	1619.72
929.653	1594.18
929.962	1586.72
930.271	1601.64
930.581	1588.53
930.89	1584.69
931.199	1578.14
931.508	1560.51
931.817	1572.49
932.125	1563.45
932.434	1596.89
932.743	1572.03
933.051	1543.56
933.36	1559.83
933.669	1559.38
933.977	1545.37
934.286	1530.68
934.594	1544.47
934.902	1513.96
935.21	1501.53
935.519	1511.7
935.827	1505.37
936.135	1509.66
936.443	1482.09
936.751	1480.06
937.059	1499.49
937.367	1503.79
937.674	1501.08
937.982	1452.94
938.29	1463.34
938.597	1476.9
938.905	1459.5
939.213	1460.85
939.52	1465.6
939.827	1483.22
940.135	1447.52
940.442	1436.67
940.749	1446.61
941.056	1461.3
941.363	1414.07
941.67	1419.27
941.977	1446.39
942.284	1413.85
942.591	1382.89
942.898	1408.2
943.205	1382.66
943.511	1386.96
943.818	1375.88
944.125	1353.96
944.431	1376.33
944.738	1351.25
945.044	1341.98
945.35	1312.15
945.657	1329.78
945.963	1341.08
946.269	1337.69
946.575	1352.38
946.881	1337.01
947.187	1309.22
947.493	1334.98
947.799	1297.69
948.105	1307.41
948.41	1315.32
948.716	1316
949.022	1287.75
949.327	1316.67
949.633	1292.72
949.938	1301.53
950.244	1276.22
950.549	1260.18
950.854	1253.4
951.16	1278.71
951.465	1267.41
951.77	1267.41
952.075	1240.07
952.38	1246.17
952.685	1263.12
952.99	1237.58
953.294	1248.65
953.599	1240.07
953.904	1237.81
954.209	1218.15
954.513	1229.67
954.818	1197.13
955.122	1213.17
955.426	1204.14
955.731	1210.46
956.035	1206.17
956.339	1217.24
956.643	1198.71
956.948	1187.86
957.252	1174.08
957.556	1180.18
957.86	1186.51
958.163	1155.55
958.467	1168.2
958.771	1151.71
959.075	1162.78
959.378	1133.63
959.682	1173.4
959.985	1126.85
960.289	1141.54
960.592	1145.38
960.896	1170.69
961.199	1115.78
961.502	1146.06
961.805	1134.76
962.108	1108.77
962.411	1119.17
962.714	1106.06
963.017	1104.93
963.32	1132.05
963.623	1109.67
963.926	1115.55
964.228	1077.36
964.531	1106.28
964.833	1104.48
965.136	1089.79
965.438	1075.55
965.741	1070.58
966.043	1047.75
966.345	1089.56
966.648	1047.3
966.95	1044.14
967.252	1057.02
967.554	1054.76
967.856	1074.19
968.158	1048.21
968.46	1024.25
968.761	1078.94
969.063	1024.25
969.365	1031.94
969.666	1059.05
969.968	1018.38
970.269	1022.22
970.571	1019.73
970.872	999.62
971.174	1035.55
971.475	1032.39
971.776	1024.25
972.077	1015.89
972.378	1022.22
972.679	1037.59
972.98	1024.93
973.281	1000.75
973.582	1010.47
973.883	983.8
974.183	989.9
974.484	974.99
974.785	973.63
975.085	994.42
975.386	978.15
975.686	986.97
975.986	972.5
976.287	980.64
976.587	963.92
976.887	953.75
977.187	951.71
977.487	950.13
977.787	965.05
978.087	963.46
978.387	949.68
978.687	931.6
978.987	955.1
979.286	931.6
979.586	922.33
979.885	946.97
980.185	925.05
980.484	912.39
980.784	922.79
981.083	913.97
981.382	901.32
981.682	900.19
981.981	913.75
982.28	904.93
982.579	890.02
982.878	916.68
983.177	897.93
983.475	909.91
983.774	887.53
984.073	901.77
984.372	887.99
984.67	875.78
984.969	871.26
985.267	882.56
985.566	880.08
985.864	886.63
986.162	857.93
986.461	864.03
986.759	839.85
987.057	825.16
987.355	843.47
987.653	843.01
987.951	843.01
988.249	871.26
988.547	851.6
988.844	827.87
989.142	827.65
989.44	814.54
989.737	813.64
990.035	843.24
990.332	816.8
990.63	829
990.927	832.62
991.224	812.05
991.521	823.13
991.819	809.34
992.116	835.33
992.413	824.26
992.71	828.1
993.006	809.57
993.303	801.43
993.6	805.95
993.897	809.12
994.193	815.22
994.49	807.31
994.787	796.46
995.083	773.19
995.379	790.59
995.676	753.53
995.972	780.42
996.268	757.59
996.565	771.6
996.861	760.53
997.157	752.4
997.453	755.33
997.749	754.88
998.044	758.72
998.34	747.2
998.636	744.03
998.932	744.49
999.227	735.45
999.523	738.84
999.818	760.76
1000.114	759.17
1000.409	737.03
1000.704	744.03
1001	710.81
1001.295	724.83
1001.59	720.76
1001.885	746.07
1002.18	723.92
1002.475	724.37
1002.77	720.31
1003.065	712.62
1003.359	728.44
1003.654	708.33
1003.949	717.14
1004.243	709.23
1004.538	715.79
1004.832	699.06
1005.127	713.07
1005.421	682.11
1005.715	693.64
1006.009	665.39
1006.304	679.18
1006.598	670.36
1006.892	666.52
1007.186	699.06
1007.48	665.17
1007.773	675.11
1008.067	687.54
1008.361	646.18
1008.655	670.59
1008.948	648.9
1009.242	651.61
1009.535	656.58
1009.829	681.44
1010.122	664.04
1010.415	639.4
1010.708	630.14
1011.001	648.67
1011.295	640.31
1011.588	648.22
1011.881	643.25
1012.173	632.62
1012.466	619.29
1012.759	625.62
1013.052	634.21
1013.344	651.83
1013.637	618.61
1013.93	640.08
1014.222	612.29
1014.514	613.42
1014.807	623.13
1015.099	644.38
1015.391	638.73
1015.683	623.59
1015.976	617.26
1016.268	624.49
1016.56	592.17
1016.851	627.2
1017.143	591.27
1017.435	604.6
1017.727	603.7
1018.018	609.57
1018.31	586.52
1018.602	607.31
1018.893	587.88
1019.185	589.24
1019.476	588.56
1019.767	588.78
1020.058	594.43
1020.35	586.98
1020.641	572.29
1020.932	589.91
1021.223	555.11
1021.514	565.73
1021.804	571.61
1022.095	565.28
1022.386	537.26
1022.677	569.58
1022.967	568.67
1023.258	559.86
1023.548	572.74
1023.839	542.46
1024.129	537.71
1024.419	554.21
1024.709	566.19
1025	549.01
1025.29	553.98
1025.58	532.74
1025.87	543.36
1026.16	526.41
1026.449	532.51
1026.739	521.22
1027.029	517.15
1027.319	521.44
1027.608	529.8
1027.898	497.71
1028.187	515.79
1028.477	513.98
1028.766	541.78
1029.055	525.73
1029.344	514.44
1029.634	506.98
1029.923	504.72
1030.212	520.99
1030.501	507.43
1030.79	530.03
1031.078	488.22
1031.367	477.6
1031.656	514.44
1031.945	493.42
1032.233	490.93
1032.522	499.29
1032.81	506.3
1033.099	485.74
1033.387	482.8
1033.675	486.87
1033.963	471.72
1034.251	478.96
1034.54	497.26
1034.828	485.74
1035.116	485.96
1035.403	480.31
1035.691	462.23
1035.979	469.01
1036.267	466.98
1036.554	463.82
1036.842	448.22
1037.129	469.01
1037.417	469.24
1037.704	461.33
1037.992	490.93
1038.279	458.39
1038.566	467.43
1038.853	467.43
1039.14	467.43
