Data from black_plastic_tray_FLMS001491_008.txt Node
Date: Tue Feb 07 10:39:10 GMT 2017
User: dcchb
Spectrometer: FLMS00149
Trigger mode: 0
Integration Time (sec): 2.000000E-2
Scans to average: 10
Electric dark correction enabled: true
Nonlinearity correction enabled: false
Boxcar width: 0
XAxis mode: Wavelengths
Number of Pixels in Spectrum: 2048
>>>>>Begin Spectral Data<<<<<
341.393	-12.82
341.776	-12.82
342.16	-12.82
342.543	-63.22
342.927	-87.17
343.31	-81.3
343.693	-61.18
344.077	-74.74
344.46	-52.15
344.843	-51.92
345.226	-51.47
345.61	-27.06
345.993	0.73
346.376	-11.69
346.759	4.35
347.142	21.52
347.525	42.09
347.908	74.63
348.291	63.33
348.674	97.23
349.057	107.62
349.44	116.89
349.823	155.31
350.206	162.76
350.588	162.31
350.971	183.1
351.354	206.6
351.737	210.22
352.119	219.71
352.502	225.59
352.884	251.35
353.267	270.78
353.65	295.19
354.032	282.08
354.414	285.7
354.797	285.47
355.179	295.64
355.562	298.13
355.944	299.03
356.326	323.66
356.709	321.4
357.091	287.73
357.473	324.79
357.855	301.07
358.238	315.98
358.62	310.78
359.002	333.16
359.384	325.02
359.766	324.79
360.148	330.67
360.53	315.75
360.912	328.41
361.294	310.78
361.676	320.73
362.057	312.59
362.439	294.51
362.821	303.1
363.203	309.2
363.584	324.79
363.966	299.71
364.348	290.44
364.729	308.52
365.111	304.23
365.493	317.11
365.874	305.59
366.256	303.55
366.637	303.78
367.019	290.9
367.4	297.22
367.781	294.96
368.163	289.09
368.544	294.29
368.925	312.36
369.306	321.18
369.688	287.73
370.069	309.88
370.45	290.9
370.831	308.07
371.212	294.96
371.593	301.97
371.974	287.28
372.355	293.83
372.736	311.46
373.117	316.66
373.498	313.95
373.879	327.51
374.26	274.85
374.641	297
375.021	307.85
375.402	305.59
375.783	332.03
376.163	314.17
376.544	306.26
376.925	310.56
377.305	310.56
377.686	334.28
378.066	307.39
378.447	318.24
378.827	342.42
379.208	314.85
379.588	303.1
379.968	323.66
380.349	310.78
380.729	337.67
381.109	340.16
381.489	327.05
381.87	330.9
382.25	313.72
382.63	326.83
383.01	329.54
383.39	323.21
383.77	331.57
384.15	333.16
384.53	346.49
384.91	362.98
385.29	344.91
385.67	354.62
386.049	333.83
386.429	359.6
386.809	357.34
387.189	358.69
387.568	355.75
387.948	350.78
388.328	352.59
388.707	347.84
389.087	340.84
389.466	357.56
389.846	355.08
390.225	363.66
390.605	353.95
390.984	365.7
391.363	361.4
391.743	361.4
392.122	373.83
392.501	352.82
392.881	370.22
393.26	391.46
393.639	394.4
394.018	386.71
394.397	384.23
394.776	367.96
395.155	379.48
395.534	374.51
395.913	387.39
396.292	377.9
396.671	394.17
397.05	391.01
397.429	407.96
397.808	414.28
398.186	404.34
398.565	391.01
398.944	401.63
399.323	391.46
399.701	403.89
400.08	414.51
400.458	395.3
400.837	403.44
401.215	438.46
401.594	404.79
401.972	405.7
402.351	441.63
402.729	403.44
403.107	434.4
403.486	447.28
403.864	445.24
404.242	454.06
404.62	444.79
404.999	442.08
405.377	445.92
405.755	416.32
406.133	454.28
406.511	456.54
406.889	448.41
407.267	437.33
407.645	442.08
408.023	468.74
408.401	486.37
408.779	473.26
409.156	452.7
409.534	505.13
409.912	477.56
410.29	503.77
410.667	463.1
411.045	486.6
411.422	473.26
411.8	477.78
412.178	517.56
412.555	524.34
412.933	480.5
413.31	502.87
413.687	517.33
414.065	519.59
414.442	533.6
414.819	522.53
415.197	520.95
415.574	527.5
415.951	539.03
416.328	534.51
416.705	528.4
417.082	531.79
417.46	547.39
417.837	551.45
418.214	553.26
418.591	564.79
418.967	563.88
419.344	567.95
419.721	555.52
420.098	576.76
420.475	543.32
420.852	580.15
421.228	562.53
421.605	551.91
421.982	575.86
422.358	589.42
422.735	609.53
423.111	586.26
423.488	613.6
423.864	621.51
424.241	627.38
424.617	623.09
424.994	604.11
425.37	618.57
425.746	627.38
426.123	636.2
426.499	634.62
426.875	665.8
427.251	663.09
427.627	669.42
428.003	659.47
428.379	674.39
428.756	677.1
429.132	692.02
429.507	678.91
429.883	686.37
430.259	696.99
430.635	688.4
431.011	704.22
431.387	735.18
431.763	743.99
432.138	708.74
432.514	742.41
432.89	773.14
433.265	751.68
433.641	776.08
434.016	757.55
434.392	776.76
434.767	810.43
435.143	793.48
435.518	804.56
435.894	807.04
436.269	790.32
436.644	801.62
437.02	820.15
437.395	811.56
437.77	848.17
438.145	830.77
438.52	835.97
438.895	830.54
439.271	875.51
439.646	850.2
440.021	868.06
440.395	866.7
440.77	888.85
441.145	889.52
441.52	882.97
441.895	896.76
442.27	918.9
442.645	908.96
443.019	910.09
443.394	911.67
443.769	930.65
444.143	941.95
444.518	950.77
444.892	927.04
445.267	939.92
445.641	941.27
446.016	956.64
446.39	957.77
446.764	989.63
447.139	973.82
447.513	954.38
447.887	976.75
448.262	986.47
448.636	965.91
449.01	1015.62
449.384	997.54
449.758	986.92
450.132	1012.01
450.506	1014.04
450.88	1029.18
451.254	1027.37
451.628	1037.09
452.002	1065.57
452.376	1043.19
452.75	1045
453.123	1079.12
453.497	1089.29
453.871	1098.56
454.244	1113.25
454.618	1139.91
454.992	1140.59
455.365	1119.8
455.739	1161.16
456.112	1144.43
456.486	1188.95
456.859	1172.91
457.232	1176.3
457.606	1223.53
457.979	1211.32
458.352	1238.22
458.725	1247.03
459.099	1241.61
459.472	1277.99
459.845	1305.56
460.218	1317.08
460.591	1333.58
460.964	1323.86
461.337	1346.69
461.71	1348.95
462.083	1366.35
462.456	1384.43
462.829	1377.42
463.201	1435.27
463.574	1421.94
463.947	1437.98
464.32	1466.68
464.692	1492.22
465.065	1506.23
465.438	1473.01
465.81	1479.79
466.183	1523.86
466.555	1538.77
466.928	1572.22
467.3	1527.02
467.672	1570.86
468.045	1612.22
468.417	1630.97
468.789	1626
469.161	1664.65
469.534	1650.63
469.906	1714.59
470.278	1721.82
470.65	1747.36
471.022	1751.65
471.394	1754.13
471.766	1786
472.138	1833.91
472.51	1817.86
472.882	1863.51
473.253	1896.73
473.625	1943.73
473.997	1990.06
474.369	1973.56
474.74	1970.63
475.112	2034.35
475.484	2083.39
475.855	2081.58
476.227	2109.83
476.598	2138.08
476.97	2181.47
477.341	2187.34
477.713	2254.46
478.084	2219.89
478.455	2316.38
478.827	2341.92
479.198	2364.51
479.569	2412.65
479.94	2460.1
480.311	2435.02
480.682	2503.72
481.053	2541.91
481.424	2581.46
481.795	2625.52
482.166	2664.17
482.537	2681.34
482.908	2717.73
483.279	2797.05
483.65	2763.15
484.021	2837.5
484.391	2835.01
484.762	2906.87
485.133	2955.68
485.503	2948.23
485.874	2995.68
486.244	3113.87
486.615	3108.68
486.985	3171.05
487.356	3197.49
487.726	3216.92
488.097	3288.56
488.467	3288.78
488.837	3370.36
489.207	3419.4
489.578	3414.88
489.948	3513.18
490.318	3519.06
490.688	3513.86
491.058	3579.85
491.428	3663.46
491.798	3614.65
492.168	3711.37
492.538	3690.13
492.908	3758.83
493.278	3828.2
493.648	3910.91
494.017	3905.04
494.387	3869.11
494.757	3961.76
495.126	3957.69
495.496	3996.56
495.866	4015.77
496.235	4061.64
496.605	4139.83
496.974	4104.36
497.344	4152.72
497.713	4185.94
498.082	4210.79
498.452	4286.05
498.821	4284.46
499.19	4336.67
499.559	4368.76
499.928	4359.94
500.298	4392.94
500.667	4461.63
501.036	4455.76
501.405	4500.73
501.774	4451.92
502.143	4521.97
502.512	4547.28
502.88	4616.43
503.249	4624.57
503.618	4614.85
503.987	4667.96
504.356	4669.99
504.724	4721.97
505.093	4741.85
505.462	4778.69
505.83	4796.99
506.199	4832.92
506.567	4893.26
506.936	4882.87
507.304	4990.21
507.672	4965.58
508.041	5022.52
508.409	5004.67
508.777	5077.89
509.145	5148.62
509.514	5114.05
509.882	5137.1
510.25	5153.82
510.618	5200.15
510.986	5194.27
511.354	5283.31
511.722	5332.8
512.09	5375.96
512.458	5398.33
512.826	5475.39
513.193	5428.61
513.561	5499.12
513.929	5551.77
514.297	5555.16
514.664	5618.89
515.032	5671.55
515.4	5705.44
515.767	5734.82
516.135	5802.16
516.502	5736.63
516.869	5806.01
517.237	5836.51
517.604	5869.05
517.972	5924.65
518.339	5937.08
518.706	5952.44
519.073	6030.18
519.44	6020.69
519.808	6074.93
520.175	6175.04
520.542	6219.55
520.909	6204.64
521.276	6258.87
521.643	6298.87
522.009	6364.41
522.376	6361.25
522.743	6472.88
523.11	6539.32
523.477	6583.84
523.843	6594.23
524.21	6662.71
524.577	6726.89
524.943	6757.39
525.31	6796.04
525.676	6864.73
526.043	6908.8
526.409	6953.09
526.776	7024.5
527.142	7038.06
527.508	7040.1
527.874	7101.56
528.241	7183.6
528.607	7241.67
528.973	7290.94
529.339	7243.71
529.705	7311.5
530.071	7362.12
530.437	7382.46
530.803	7425.17
531.169	7487.54
531.535	7559.63
531.901	7585.85
532.267	7659.74
532.632	7665.39
532.998	7695.9
533.364	7705.39
533.73	7769.57
534.095	7840.08
534.461	7865.16
534.826	7949.23
535.192	7880.3
535.557	7999.85
535.923	8006.63
536.288	8088.66
536.653	8089.56
537.019	8032.61
537.384	8066.51
537.749	8133.18
538.114	8183.34
538.479	8140.63
538.845	8187.86
539.21	8159.84
539.575	8226.05
539.94	8230.35
540.305	8283.91
540.67	8284.81
541.034	8290.91
541.399	8417.24
541.764	8444.13
542.129	8466.05
542.494	8423.34
542.858	8448.2
543.223	8516.22
543.587	8579.04
543.952	8553.28
544.316	8602.99
544.681	8568.87
545.045	8617.23
545.41	8759.83
545.774	8813.84
546.138	8766.83
546.503	8792.82
546.867	8774.29
547.231	8907.17
547.595	8956.88
547.959	8953.72
548.324	8937.22
548.688	9033.72
549.052	8960.5
549.416	9052.7
549.779	9048.86
550.143	9131.57
550.507	9087.73
550.871	9130.44
551.235	9083.89
551.599	9176.31
551.962	9228.74
552.326	9236.65
552.689	9287.95
553.053	9265.35
553.417	9326.14
553.78	9422.41
554.143	9365.91
554.507	9482.97
554.87	9498.56
555.234	9528.39
555.597	9536.3
555.96	9611.33
556.323	9645
556.686	9597.77
557.05	9670.99
557.413	9736.3
557.776	9808.61
558.139	9852.45
558.502	9857.42
558.865	9926.58
559.228	9986.69
559.59	9967.03
559.953	10025.56
560.316	10139.68
560.679	10152.78
561.041	10158.21
561.404	10232.78
561.767	10271.88
562.129	10255.15
562.492	10379.67
562.854	10330.63
563.217	10407.01
563.579	10468.71
563.941	10479.33
564.304	10510.74
564.666	10602.04
565.028	10539.21
565.39	10552.32
565.753	10584.18
566.115	10721.13
566.477	10710.06
566.839	10722.26
567.201	10787.34
567.563	10917.28
567.925	10926.1
568.287	10928.58
568.648	10925.64
569.01	11084.06
569.372	11102.82
569.734	11089.93
570.095	11182.14
570.457	11285.41
570.819	11260.55
571.18	11248.8
571.542	11332.87
571.903	11375.35
572.265	11406.31
572.626	11390.72
572.987	11479.98
573.349	11501.45
573.71	11505.74
574.071	11516.59
574.432	11607.21
574.794	11651.73
575.155	11649.92
575.516	11634.1
575.877	11615.8
576.238	11653.08
576.599	11760.65
576.96	11686.08
577.32	11684.27
577.681	11692.4
578.042	11797.49
578.403	11808.79
578.763	11811.27
579.124	11799.07
579.485	11784.38
579.845	11864.83
580.206	11892.63
580.566	11821.89
580.927	11824.38
581.287	11905.28
581.648	11880.87
582.008	12004.94
582.368	11970.59
582.728	12010.36
583.089	11997.71
583.449	12026.41
583.809	12081.55
584.169	12106.63
584.529	12004.94
584.889	12084.26
585.249	11985.5
585.609	12020.76
585.969	12053.98
586.329	12001.1
586.688	12018.05
587.048	12073.41
587.408	12001.77
587.768	12044.94
588.127	11975.11
588.487	11999.97
588.846	12095.11
589.206	11952.96
589.565	11939.18
589.925	12002
590.284	11972.17
590.643	11947.76
591.003	12037.93
591.362	12006.52
591.721	11992.06
592.08	12017.14
592.44	12019.18
592.799	11944.38
593.158	11873.87
593.517	11999.06
593.876	12077.25
594.235	11989.35
594.593	12078.61
594.952	12036.58
595.311	12029.57
595.67	12162.45
596.029	12167.87
596.387	12141.88
596.746	12140.98
597.104	12067.31
597.463	12060.3
597.822	12197.02
598.18	12160.19
598.538	12144.6
598.897	12237.02
599.255	12144.6
599.613	12347.08
599.972	12238.6
600.33	12300.07
600.688	12222.56
601.046	12326.29
601.404	12275.44
601.762	12266.17
602.12	12376.23
602.478	12292.84
602.836	12392.27
603.194	12244.03
603.552	12338.72
603.91	12199.96
604.268	12300.75
604.625	12280.41
604.983	12303.91
605.341	12261.88
605.698	12224.59
606.056	12302.56
606.413	12350.92
606.771	12314.76
607.128	12364.93
607.485	12323.12
607.843	12318.38
608.2	12330.35
608.557	12419.16
608.914	12427.53
609.272	12439.05
609.629	12531.7
609.986	12461.2
610.343	12457.13
610.7	12559.95
611.057	12465.27
611.414	12527.18
611.771	12524.47
612.127	12598.14
612.484	12634.98
612.841	12650.35
613.198	12633.17
613.554	12655.09
613.911	12675.66
614.267	12670.68
614.624	12622.1
614.98	12735.31
615.337	12709.78
615.693	12696.9
616.05	12655.99
616.406	12742.77
616.762	12629.33
617.118	12759.5
617.475	12710.46
617.831	12665.03
618.187	12795.43
618.543	12762.21
618.899	12812.6
619.255	12821.19
619.611	12794.3
619.967	12894.41
620.323	12862.54
620.678	12832.71
621.034	12773.51
621.39	12804.24
621.746	12792.26
622.101	12923.78
622.457	12775.09
622.812	12844.24
623.168	12841.75
623.523	12892.82
623.879	12892.37
624.234	12770.57
624.589	12802.88
624.945	12883.56
625.3	12906.38
625.655	12867.29
626.01	12880.62
626.365	12766.73
626.72	12856.22
627.075	12822.09
627.43	12819.83
627.785	12906.16
628.14	12842.2
628.495	12923.78
628.85	12843.56
629.205	12840.17
629.559	12858.02
629.914	12816.89
630.269	12805.6
630.623	12801.75
630.978	12745.94
631.332	12870.68
631.687	12828.65
632.041	12727.86
632.396	12823.9
632.75	12678.59
633.104	12735.54
633.459	12635.66
633.813	12672.72
634.167	12572.61
634.521	12625.71
634.875	12579.61
635.229	12615.32
635.583	12521.31
635.937	12473.85
636.291	12516.11
636.645	12554.75
636.999	12406.51
637.352	12490.12
637.706	12420.75
638.06	12389.34
638.413	12399.73
638.767	12404.93
639.121	12380.97
639.474	12327.42
639.828	12377.81
640.181	12360.41
640.534	12328.09
640.888	12305.04
641.241	12335.55
641.594	12268.43
641.947	12369
642.301	12191.15
642.654	12275.21
643.007	12282.22
643.36	12246.74
643.713	12303.69
644.066	12283.58
644.419	12155.9
644.771	12095.33
645.124	12069.34
645.477	12081.55
645.83	11900.99
646.182	11879.29
646.535	11824.6
646.888	11818.5
647.24	11775.79
647.593	11786.64
647.945	11747.54
648.298	11773.31
648.65	11762.23
649.002	11632.07
649.355	11737.37
649.707	11729.92
650.059	11683.37
650.411	11812.4
650.763	11943.92
651.115	11928.56
651.467	11927.65
651.819	11830.93
652.171	11882.46
652.523	11885.62
652.875	11858.5
653.227	11859.18
653.578	11965.17
653.93	11764.72
654.282	11808.56
654.633	11749.35
654.985	11765.4
655.337	11839.97
655.688	11786.64
656.039	11848.78
656.391	11760.43
656.742	11791.38
657.094	11873.19
657.445	11768.79
657.796	11775.11
658.147	11712.97
658.498	11772.4
658.849	11816.69
659.2	11821.89
659.551	11760.43
659.902	11738.73
660.253	11730.6
660.604	11779.41
660.955	11659.86
661.306	11787.09
661.656	11704.61
662.007	11707.55
662.358	11640.88
662.708	11690.6
663.059	11603.37
663.409	11623.25
663.76	11544.61
664.11	11665.96
664.461	11626.42
664.811	11584.16
665.161	11641.78
665.511	11524.95
665.862	11575.8
666.212	11642.01
666.562	11649.69
666.912	11571.5
667.262	11524.73
667.612	11495.8
667.962	11564.72
668.312	11392.07
668.662	11574.89
669.011	11482.47
669.361	11479.53
669.711	11493.99
670.06	11527.89
670.41	11476.14
670.76	11409.02
671.109	11504.61
671.459	11411.06
671.808	11396.37
672.157	11439.08
672.507	11343.49
672.856	11389.59
673.205	11374.22
673.554	11465.97
673.904	11389.14
674.253	11479.3
674.602	11400.89
674.951	11202.93
675.3	11195.24
675.649	11407.89
675.998	11404.95
676.346	11336.03
676.695	11439.98
677.044	11266.65
677.393	11292.64
677.741	11365.63
678.09	11258.07
678.438	11275.47
678.787	11233.21
679.135	11270.04
679.484	11164.28
679.832	11246.54
680.181	11212.42
680.529	11214
680.877	11222.36
681.225	11239.31
681.573	11259.65
681.922	11152.31
682.27	11145.75
682.618	11119.99
682.966	11116.6
683.314	11094.45
683.661	11049.94
684.009	10941.69
684.357	10986.21
684.705	10983.5
685.053	11007.45
685.4	10969.26
685.748	10842.48
686.095	10854.69
686.443	10774.69
686.79	10815.59
687.138	10765.65
687.485	10753.22
687.832	10780.34
688.18	10827.57
688.527	10640.68
688.874	10685.88
689.221	10631.42
689.568	10690.62
689.915	10649.95
690.262	10619.66
690.609	10608.82
690.956	10585.09
691.303	10586.22
691.65	10429.39
691.997	10479.33
692.344	10399.11
692.69	10452.66
693.037	10396.17
693.383	10367.92
693.73	10388.26
694.077	10376.73
694.423	10387.13
694.769	10284.31
695.116	10232.1
695.462	10244.98
695.808	10217.41
696.155	10240.92
696.501	10155.04
696.847	10208.38
697.193	10120.92
697.539	10139.9
697.885	10105.33
698.231	10040.24
698.577	10099.68
698.923	9987.36
699.269	9927.25
699.614	9955.27
699.96	9852.68
700.306	9897.65
700.651	9877.54
700.997	9819.23
701.342	9768.84
701.688	9744.21
702.033	9693.36
702.379	9750.99
702.724	9708.95
703.069	9702.85
703.415	9633.02
703.76	9597.54
704.105	9636.64
704.45	9599.58
704.795	9550.99
705.14	9498.56
705.485	9479.36
705.83	9506.25
706.175	9449.53
706.52	9407.49
706.865	9400.71
707.209	9368.85
707.554	9320.26
707.899	9327.72
708.243	9252.47
708.588	9288.63
708.932	9275.07
709.277	9220.83
709.621	9296.54
709.966	9161.85
710.31	9203.2
710.654	9125.92
710.998	9225.8
711.342	9172.7
711.687	9170.44
712.031	9129.99
712.375	9061.74
712.719	9071
713.063	9082.08
713.407	9104.68
713.75	9000.05
714.094	8988.97
714.438	9060.16
714.782	8992.81
715.125	8946.94
715.469	9027.16
715.812	8918.24
716.156	8866.49
716.499	8854.96
716.843	8863.78
717.186	8765.93
717.53	8875.3
717.873	8867.39
718.216	8815.19
718.559	8739.71
718.902	8774.52
719.246	8782.65
719.589	8730.45
719.932	8750.56
720.275	8695.65
720.617	8676.21
720.96	8667.63
721.303	8606.61
721.646	8570
721.989	8571.13
722.331	8574.52
722.674	8596.67
723.016	8580.85
723.359	8545.14
723.701	8577.23
724.044	8494.52
724.386	8422.89
724.729	8458.59
725.071	8404.58
725.413	8437.57
725.755	8490.45
726.097	8370.68
726.439	8410.23
726.782	8361.19
727.124	8355.99
727.465	8327.75
727.807	8344.24
728.149	8325.04
728.491	8384.92
728.833	8353.51
729.175	8279.39
729.516	8234.42
729.858	8269.44
730.199	8319.16
730.541	8266.51
730.882	8166.4
731.224	8276.68
731.565	8222.89
731.906	8235.77
732.248	8189.22
732.589	8156.45
732.93	8136.79
733.271	8174.3
733.612	8186.28
733.953	8166.62
734.294	8094.53
734.635	8137.24
734.976	8069
735.317	8097.47
735.658	8066.29
735.999	8085.72
736.339	8073.52
736.68	8057.92
737.021	8035.78
737.361	8003.24
737.702	8058.83
738.042	8007.3
738.383	8003.24
738.723	7983.8
739.063	7898.15
739.404	7957.81
739.744	7906.29
740.084	7896.12
740.424	7921.88
740.764	7951.26
741.104	7857.7
741.444	7803.92
741.784	7840.3
742.124	7838.49
742.464	7775.45
742.804	7783.81
743.143	7762.34
743.483	7758.27
743.823	7771.38
744.162	7683.47
744.502	7728.67
744.841	7737.71
745.181	7738.84
745.52	7713.98
745.86	7677.37
746.199	7692.28
746.538	7641.44
746.877	7631.95
747.216	7598.95
747.556	7666.3
747.895	7618.39
748.234	7602.57
748.573	7555.79
748.911	7573.87
749.25	7575.45
749.589	7559.63
749.928	7522.8
750.267	7578.39
750.605	7544.72
750.944	7539.97
751.283	7442.12
751.621	7494.55
751.96	7415.45
752.298	7451.61
752.636	7427.21
752.975	7410.48
753.313	7366.64
753.651	7403.93
753.989	7370.26
754.327	7381.11
754.666	7331.84
755.004	7284.16
755.342	7309.92
755.679	7264.27
756.017	7236.02
756.355	7233.76
756.693	7248
757.031	7170.04
757.368	7182.47
757.706	7128.46
758.044	7116.93
758.381	7111.06
758.719	7163.71
759.056	7097.5
759.394	7118.97
759.731	7032.41
760.068	7007.56
760.405	6953.32
760.743	6984.51
761.08	7000.1
761.417	6998.06
761.754	6948.35
762.091	6943.6
762.428	6922.36
762.765	6926.43
763.102	6914.68
763.438	6888.91
763.775	6850.5
764.112	6864.28
764.449	6807.34
764.785	6827.45
765.122	6752.42
765.458	6770.95
765.795	6777.05
766.131	6715.59
766.467	6709.71
766.804	6640.79
767.14	6592.43
767.476	6638.75
767.812	6541.81
768.148	6549.71
768.485	6521.92
768.821	6527.57
769.157	6518.08
769.492	6502.26
769.828	6480.79
770.164	6464.52
770.5	6452.54
770.836	6382.04
771.171	6337.74
771.507	6360.57
771.842	6274.69
772.178	6302.94
772.513	6248.03
772.849	6262.49
773.184	6279.67
773.519	6225.43
773.855	6232.66
774.19	6158.54
774.525	6171.65
774.86	6170.52
775.195	6152.89
775.53	6117.86
775.865	6092.55
776.2	6048.26
776.535	6017.3
776.87	6023.85
777.205	5970.07
777.539	6001.71
777.874	5940.47
778.209	5982.27
778.543	5941.14
778.878	5879.22
779.212	5914.93
779.547	5846.91
779.881	5850.98
780.215	5777.31
780.55	5741.83
780.884	5744.76
781.218	5771.88
781.552	5756.52
781.886	5738.44
782.22	5683.07
782.554	5715.61
782.888	5627.25
783.222	5570.53
783.556	5602.62
783.889	5646.91
784.223	5540.48
784.557	5569.4
784.89	5573.24
785.224	5542.96
785.557	5516.97
785.891	5491.66
786.224	5462.96
786.558	5467.26
786.891	5449.4
787.224	5434.49
787.557	5401.95
787.891	5373.47
788.224	5402.17
788.557	5398.11
788.89	5354.04
789.223	5347.94
789.556	5312.01
789.888	5267.71
790.221	5267.49
790.554	5258.9
790.887	5203.76
791.219	5204.89
791.552	5190.43
791.884	5156.08
792.217	5096.65
792.549	5142.07
792.882	5160.82
793.214	5108.17
793.546	5099.36
793.879	5133.71
794.211	5079.7
794.543	5046.93
794.875	5075.63
795.207	5048.74
795.539	5013.26
795.871	5049.42
796.203	4971.9
796.535	4915.41
796.867	4880.38
797.198	4942.53
797.53	4908.18
797.862	4878.57
798.193	4868.63
798.525	4835.18
798.856	4808.07
799.188	4801.29
799.519	4775.07
799.85	4747.73
800.182	4747.95
800.513	4720.38
800.844	4693.27
801.175	4705.7
801.506	4757.67
801.837	4696.66
802.168	4714.96
802.499	4671.12
802.83	4697.79
803.161	4671.8
803.491	4679.93
803.822	4613.72
804.153	4582.31
804.483	4583.21
804.814	4557
805.145	4567.39
805.475	4555.42
805.805	4534.17
806.136	4560.61
806.466	4530.33
806.796	4539.82
807.126	4437
807.457	4503.21
807.787	4479.71
808.117	4471.8
808.447	4463.22
808.777	4470.45
809.107	4474.97
809.436	4447.85
809.766	4433.84
810.096	4418.02
810.426	4410.34
810.755	4423.44
811.085	4389.32
811.414	4388.87
811.744	4412.37
812.073	4317.68
812.403	4313.84
812.732	4297.34
813.061	4263.45
813.39	4237.91
813.719	4277.46
814.049	4304.58
814.378	4298.25
814.707	4279.94
815.036	4270
815.365	4257.8
815.693	4209.66
816.022	4173.05
816.351	4212.6
816.68	4142.55
817.008	4175.54
817.337	4169.66
817.665	4155.2
817.994	4133.96
818.322	4112.94
818.651	4104.36
818.979	4061.87
819.307	4106.16
819.636	4109.55
819.964	4097.58
820.292	4064.36
820.62	4087.41
820.948	4043.11
821.276	4105.94
821.604	4089.44
821.932	4092.6
822.259	4109.78
822.587	4116.56
822.915	4079.95
823.243	4058.25
823.57	4048.99
823.898	4112.94
824.225	4029.33
824.553	4067.07
824.88	4105.03
825.207	4078.37
825.535	4069.55
825.862	4105.26
826.189	4079.05
826.516	4081.08
826.843	4062.77
827.17	4086.05
827.497	4088.54
827.824	4088.31
828.151	4085.82
828.478	4055.32
828.805	4055.09
829.131	4034.3
829.458	4057.8
829.785	4070.68
830.111	4081.98
830.438	4116.78
830.764	4063.68
831.09	4108.65
831.417	4060.74
831.743	4077.46
832.069	4079.5
832.395	4029.78
832.722	4074.07
833.048	4077.24
833.374	4095.32
833.7	4044.7
834.026	3997.92
834.351	4003.57
834.677	3995.88
835.003	4022.1
835.329	4030.23
835.654	4022.1
835.98	4039.72
836.306	4009.67
836.631	3985.49
836.956	4032.49
837.282	4001.76
837.607	3976
837.932	3976.45
838.258	3971.25
838.583	3951.82
838.908	3911.82
839.233	3947.52
839.558	3946.17
839.883	3952.49
840.208	3882.21
840.533	3922.89
840.858	3943.68
841.182	3938.48
841.507	3896.23
841.832	3870.01
842.156	3892.84
842.481	3901.65
842.805	3857.81
843.13	3827.98
843.454	3867.53
843.778	3841.09
844.103	3837.92
844.427	3811.48
844.751	3856.45
845.075	3823.01
845.399	3793.4
845.723	3747.3
846.047	3809
846.371	3813.29
846.695	3791.6
847.019	3751.6
847.343	3752.27
847.666	3691.26
847.99	3682.22
848.313	3692.16
848.637	3657.14
848.96	3650.36
849.284	3606.97
849.607	3617.81
849.931	3606.52
850.254	3594.99
850.577	3595.89
850.9	3571.26
851.223	3574.43
851.546	3488.55
851.869	3520.64
852.192	3550.47
852.515	3484.94
852.838	3479.29
853.161	3483.13
853.483	3428.44
853.806	3423.92
854.129	3440.64
854.451	3430.7
854.774	3395
855.096	3431.83
855.419	3423.02
855.741	3404.26
856.063	3374.43
856.385	3414.66
856.708	3399.06
857.03	3350.7
857.352	3360.87
857.674	3348.22
857.996	3353.87
858.318	3310.7
858.64	3325.17
858.961	3332.62
859.283	3303.25
859.605	3271.16
859.926	3266.41
860.248	3301.44
860.57	3301.89
860.891	3284.04
861.212	3281.55
861.534	3242.23
861.855	3266.19
862.176	3286.75
862.498	3253.08
862.819	3236.58
863.14	3230.93
863.461	3243.81
863.782	3234.77
864.103	3230.71
864.424	3176.7
864.745	3168.79
865.065	3224.6
865.386	3203.81
865.707	3194.77
866.027	3243.14
866.348	3166.98
866.668	3139.86
866.989	3174.66
867.309	3162.69
867.63	3123.82
867.95	3174.89
868.27	3145.51
868.59	3137.38
868.91	3136.25
869.23	3159.3
869.55	3091.27
869.87	3134.44
870.19	3120.43
870.51	3106.87
870.83	3135.12
871.15	3068.9
871.469	3091.5
871.789	3101.22
872.109	3094.21
872.428	3071.84
872.748	3079.3
873.067	3064.61
873.386	3080.65
873.706	3053.54
874.025	3023.25
874.344	3028.68
874.663	3030.94
874.982	3026.42
875.301	3034.78
875.62	3032.52
875.939	3022.35
876.258	3006.08
876.577	2983.25
876.896	2998.17
877.214	2974.22
877.533	2998.85
877.852	2992.97
878.17	2983.25
878.489	2989.13
878.807	2960.2
879.125	2994.55
879.444	2949.58
879.762	2938.74
880.08	2965.85
880.398	2962.24
880.716	2929.92
881.034	2945.52
881.352	2976.02
881.67	2944.84
881.988	2918.17
882.306	2943.26
882.624	2908
882.941	2943.03
883.259	2932.86
883.577	2905.97
883.894	2905.74
884.212	2897.16
884.529	2913.43
884.846	2894.44
885.164	2928.57
885.481	2861.9
885.798	2832.98
886.115	2847.21
886.432	2832.98
886.75	2843.82
887.067	2861.9
887.383	2840.43
887.7	2813.99
888.017	2784.39
888.334	2867.33
888.651	2780.77
888.967	2817.16
889.284	2772.41
889.6	2744.84
889.917	2753.66
890.233	2797.95
890.55	2768.35
890.866	2760.66
891.182	2731.51
891.498	2758.85
891.815	2758.18
892.131	2757.5
892.447	2719.31
892.763	2700.32
893.079	2736.48
893.395	2713.43
893.71	2710.27
894.026	2694.22
894.342	2700.1
894.657	2657.39
894.973	2709.14
895.289	2644.05
895.604	2628.24
895.92	2614.68
896.235	2634.79
896.55	2680.21
896.865	2624.17
897.181	2639.99
897.496	2638.41
897.811	2579.88
898.126	2601.8
898.441	2588.24
898.756	2576.26
899.071	2555.92
899.386	2546.43
899.7	2547.11
900.015	2564.51
900.33	2541.23
900.644	2526.77
900.959	2509.82
901.273	2493.1
901.588	2525.41
901.902	2483.38
902.216	2513.21
902.531	2488.13
902.845	2473.44
903.159	2447
903.473	2442.25
903.787	2458.97
904.101	2437.51
904.415	2427.11
904.729	2465.3
905.042	2414.91
905.356	2405.19
905.67	2390.28
905.984	2402.25
906.297	2399.54
906.611	2342.59
906.924	2366.32
907.237	2357.51
907.551	2371.75
907.864	2350.05
908.177	2351.63
908.491	2336.04
908.804	2295.14
909.117	2284.29
909.43	2275.7
909.743	2259.21
910.056	2292.43
910.368	2324.97
910.681	2271.86
910.994	2275.93
911.307	2236.83
911.619	2239.32
911.932	2234.35
912.244	2240.45
912.557	2214.46
912.869	2204.07
913.181	2201.58
913.494	2180.34
913.806	2190.28
914.118	2178.76
914.43	2153.67
914.742	2152.54
915.054	2158.87
915.366	2134.92
915.678	2157.29
915.99	2173.78
916.302	2122.94
916.613	2108.93
916.925	2136.72
917.236	2102.37
917.548	2103.28
917.859	2094.46
918.171	2083.39
918.482	2087.01
918.794	2106.44
919.105	2058.99
919.416	2057.63
919.727	2066.22
920.038	2045.43
920.349	2051.98
920.66	2035.71
920.971	2007.69
921.282	1995.26
921.593	1995.94
921.903	1988.48
922.214	1974.69
922.525	1989.61
922.835	1996.61
923.146	1981.47
923.456	1956.84
923.767	1946.9
924.077	1962.49
924.387	1936.28
924.697	1928.14
925.008	1904.87
925.318	1917.52
925.628	1895.6
925.938	1903.96
926.248	1877.75
926.558	1906.67
926.867	1921.14
927.177	1878.88
927.487	1869.39
927.796	1857.18
928.106	1888.82
928.416	1868.26
928.725	1847.69
929.034	1841.36
929.344	1848.37
929.653	1843.85
929.962	1806.34
930.271	1789.39
930.581	1785.55
930.89	1806.79
931.199	1778.09
931.508	1783.51
931.817	1764.53
932.125	1762.27
932.434	1755.26
932.743	1749.84
933.051	1758.43
933.36	1764.98
933.669	1734.93
933.977	1737.86
934.286	1725.66
934.594	1712.55
934.902	1726.34
935.21	1733.34
935.519	1733.57
935.827	1715.49
936.135	1682.05
936.443	1688.15
936.751	1675.94
937.059	1685.89
937.367	1664.87
937.674	1676.62
937.982	1663.52
938.29	1630.3
938.597	1636.17
938.905	1626
939.213	1620.35
939.52	1627.58
939.827	1612.67
940.135	1629.84
940.442	1608.83
940.749	1584.65
941.056	1607.92
941.363	1574.7
941.67	1567.47
941.977	1556.85
942.284	1570.64
942.591	1523.41
942.898	1532.67
943.205	1544.42
943.511	1543.07
943.818	1547.59
944.125	1515.5
944.431	1545.33
944.738	1524.54
945.044	1515.95
945.35	1494.71
945.657	1522.5
945.963	1499
946.269	1497.64
946.575	1483.86
946.881	1491.32
947.187	1466.23
947.493	1469.62
947.799	1482.5
948.105	1436.4
948.41	1464.2
948.716	1479.11
949.022	1455.61
949.327	1469.4
949.633	1444.54
949.938	1441.15
950.244	1457.65
950.549	1423.52
950.854	1435.72
951.16	1422.17
951.465	1427.59
951.77	1414.93
952.075	1406.35
952.38	1411.09
952.685	1392.11
952.99	1382.62
953.294	1388.95
953.599	1385.56
953.904	1354.15
954.209	1358.21
954.513	1363.64
954.818	1383.3
955.122	1382.39
955.426	1352.79
955.731	1341.94
956.035	1314.37
956.339	1340.59
956.643	1337.65
956.948	1337.65
957.252	1320.7
957.556	1332.22
957.86	1326.12
958.163	1304.65
958.467	1282.06
958.771	1318.21
959.075	1302.17
959.378	1300.36
959.682	1313.47
959.985	1292.45
960.289	1287.25
960.592	1263.07
960.896	1272.57
961.199	1237.99
961.502	1271.44
961.805	1261.94
962.108	1243.64
962.411	1234.83
962.714	1251.55
963.017	1253.58
963.32	1237.99
963.623	1252.9
963.926	1226.46
964.228	1226.92
964.531	1259.68
964.833	1234.83
965.136	1190.31
965.438	1212.23
965.741	1189.63
966.043	1209.97
966.345	1173.36
966.648	1193.7
966.95	1174.94
967.252	1176.52
967.554	1185.79
967.856	1171.33
968.158	1195.51
968.46	1161.61
968.761	1168.39
969.063	1163.19
969.365	1129.29
969.666	1136.98
969.968	1155.05
970.269	1141.5
970.571	1142.4
970.872	1140.82
971.174	1116.19
971.475	1114.15
971.776	1101.27
972.077	1131.1
972.378	1108.95
972.679	1110.99
972.98	1119.8
973.281	1112.12
973.582	1107.82
973.883	1113.47
974.183	1090.2
974.484	1090.42
974.785	1046.58
975.085	1056.3
975.386	1078.9
975.686	1071.21
975.986	1058.11
976.287	1068.5
976.587	1053.81
976.887	1080.48
977.187	1071.44
977.487	1027.37
977.787	1041.61
978.087	1052.23
978.387	1005.23
978.687	1041.61
978.987	1030.99
979.286	1028.28
979.586	1048.84
979.885	1042.06
980.185	1008.17
980.484	1028.5
980.784	1026.47
981.083	1028.28
981.382	1007.26
981.682	1003.19
981.981	971.78
982.28	996.19
982.579	1007.71
982.878	1009.52
983.177	972.69
983.475	991.22
983.774	972.23
984.073	964.55
984.372	991.44
984.67	964.1
984.969	974.27
985.267	945.79
985.566	965.23
985.864	945.34
986.162	951.22
986.461	963.2
986.759	931.56
987.057	953.48
987.355	946.02
987.653	945.12
987.951	929.07
988.249	928.85
988.547	924.55
988.844	936.53
989.142	930.43
989.44	938.34
989.737	907.83
990.035	929.75
990.332	908.06
990.63	912.35
990.927	896.76
991.224	914.16
991.521	883.2
991.819	907.83
992.116	884.1
992.413	882.97
992.71	883.88
993.006	887.72
993.303	855.63
993.6	899.24
993.897	879.36
994.193	889.3
994.49	855.85
994.787	873.48
995.083	862.86
995.379	880.94
995.676	875.06
995.972	861.5
996.268	842.07
996.565	862.41
996.861	845.91
997.157	862.18
997.453	852.24
997.749	846.59
998.044	838.9
998.34	836.64
998.636	841.16
998.932	847.49
999.227	833.71
999.523	833.71
999.818	803.2
1000.114	798.45
1000.409	812.24
1000.704	801.84
1001	808.85
1001.295	813.37
1001.59	801.84
1001.885	833.03
1002.18	791.9
1002.475	792.13
1002.77	795.74
1003.065	771.34
1003.359	763.88
1003.654	750.77
1003.949	781.05
1004.243	764.33
1004.538	751.68
1004.832	774.73
1005.127	768.62
1005.421	740.6
1005.715	749.87
1006.009	757.1
1006.304	773.14
1006.598	751.9
1006.892	743.99
1007.186	722.52
1007.48	725.69
1007.773	724.11
1008.067	752.81
1008.361	758
1008.655	724.56
1008.948	724.56
1009.242	724.56
1009.535	741.28
1009.829	723.2
1010.122	704.67
1010.415	710.09
1010.708	696.76
1011.001	700.38
1011.295	711.22
1011.588	706.03
1011.881	695.63
1012.173	700.38
1012.466	688.4
1012.759	696.76
1013.052	671.23
1013.344	686.37
1013.637	669.64
1013.93	675.52
1014.222	677.78
1014.514	657.89
1014.807	690.21
1015.099	657.44
1015.391	669.42
1015.683	654.28
1015.976	663.77
1016.268	645.69
1016.56	638.91
1016.851	648.4
1017.143	650.89
1017.435	645.92
1017.727	650.89
1018.018	631
1018.31	644.56
1018.602	653.82
1018.893	621.28
1019.185	608.4
1019.476	613.37
1019.767	625.58
1020.058	630.77
1020.35	614.28
1020.641	613.6
1020.932	609.08
1021.223	622.41
1021.514	620.38
1021.804	607.5
1022.095	616.99
1022.386	611.79
1022.677	601.17
1022.967	590.55
1023.258	586.93
1023.548	612.02
1023.839	585.8
1024.129	581.28
1024.419	597.33
1024.709	572.92
1025	572.24
1025.29	601.62
1025.58	557.1
1025.87	558.69
1026.16	570.89
1026.449	572.24
1026.739	553.94
1027.029	545.58
1027.319	551.68
1027.608	559.36
1027.898	576.09
1028.187	555.07
1028.477	553.04
1028.766	555.75
1029.055	543.09
1029.344	538.35
1029.634	541.29
1029.923	553.94
1030.212	553.26
1030.501	536.09
1030.79	536.54
1031.078	560.49
1031.367	536.31
1031.656	522.98
1031.945	525.92
1032.233	506.03
1032.522	528.63
1032.81	546.48
1033.099	520.72
1033.387	509.2
1033.675	513.04
1033.963	510.55
1034.251	511.23
1034.54	513.04
1034.828	497.44
1035.116	500.16
1035.403	483.66
1035.691	481.4
1035.979	493.83
1036.267	493.38
1036.554	506.03
1036.842	489.08
1037.129	494.05
1037.417	478.91
1037.704	480.5
1037.992	497.44
1038.279	499.48
1038.566	482.53
1038.853	482.53
1039.14	482.53
