Data from black_plastic_tray_FLMS001491_039.txt Node
Date: Tue Feb 07 10:39:43 GMT 2017
User: dcchb
Spectrometer: FLMS00149
Trigger mode: 0
Integration Time (sec): 2.000000E-2
Scans to average: 10
Electric dark correction enabled: true
Nonlinearity correction enabled: false
Boxcar width: 0
XAxis mode: Wavelengths
Number of Pixels in Spectrum: 2048
>>>>>Begin Spectral Data<<<<<
341.393	-22.02
341.776	-22.02
342.16	-22.02
342.543	-65.63
342.927	-64.96
343.31	-74.45
343.693	-72.19
344.077	-72.41
344.46	-45.52
344.843	-40.55
345.226	-34.45
345.61	-41.45
345.993	-9.59
346.376	-9.59
346.759	22.95
347.142	26.12
347.525	33.57
347.908	67.02
348.291	73.12
348.674	67.47
349.057	109.95
349.44	127.58
349.823	135.04
350.206	162.83
350.588	200.12
350.971	191.99
351.354	199.9
351.737	216.84
352.119	233.57
352.502	263.4
352.884	273.11
353.267	263.62
353.65	262.72
354.032	307.92
354.414	295.94
354.797	295.26
355.179	312.66
355.562	321.47
355.944	308.59
356.326	314.92
356.709	339.55
357.091	345.88
357.473	343.62
357.855	321.25
358.238	326.67
358.62	333.68
359.002	329.38
359.384	332.77
359.766	324.19
360.148	344.52
360.53	336.39
360.912	309.05
361.294	314.02
361.676	318.08
362.057	351.98
362.439	342.27
362.821	337.07
363.203	312.89
363.584	337.97
363.966	312.66
364.348	328.03
364.729	317.86
365.111	326.45
365.493	320.34
365.874	315.83
366.256	325.77
366.637	321.7
367.019	327.35
367.4	333.68
367.781	330.29
368.163	330.06
368.544	324.86
368.925	319.21
369.306	337.52
369.688	283.74
370.069	315.83
370.45	325.09
370.831	329.38
371.212	319.67
371.593	319.89
371.974	332.1
372.355	318.76
372.736	333.9
373.117	330.74
373.498	338.88
373.879	324.19
374.26	327.12
374.641	321.25
375.021	335.03
375.402	345.65
375.783	326.67
376.163	348.14
376.544	339.55
376.925	353.79
377.305	333
377.686	342.49
378.066	347.24
378.447	356.95
378.827	361.02
379.208	351.76
379.588	354.69
379.968	344.3
380.349	333.68
380.729	341.81
381.109	363.06
381.489	364.86
381.87	361.47
382.25	351.08
382.63	358.99
383.01	375.71
383.39	381.59
383.77	350.4
384.15	355.82
384.53	363.06
384.91	383.17
385.29	378.42
385.67	375.03
386.049	399.44
386.429	405.31
386.809	387.01
387.189	391.08
387.568	374.35
387.948	413.68
388.328	404.64
388.707	400.12
389.087	398.99
389.466	388.14
389.846	415.03
390.225	404.41
390.605	431.98
390.984	407.8
391.363	446.9
391.743	401.7
392.122	428.14
392.501	430.4
392.881	410.96
393.26	431.98
393.639	446.67
394.018	421.58
394.397	453.9
394.776	441.47
395.155	441.47
395.534	440.57
395.913	444.64
396.292	448.93
396.671	453.45
397.05	472.88
397.429	475.37
397.808	488.93
398.186	454.35
398.565	459.32
398.944	470.62
399.323	456.16
399.701	478.76
400.08	506.33
400.458	471.53
400.837	492.54
401.215	518.31
401.594	505.2
401.972	480.11
402.351	499.77
402.729	487.12
403.107	491.64
403.486	495.48
403.864	509.72
404.242	504.97
404.62	517.4
404.999	514.69
405.377	524.18
405.755	521.92
406.133	532.32
406.511	540.23
406.889	550.4
407.267	549.94
407.645	558.76
408.023	552.88
408.401	578.64
408.779	569.15
409.156	581.58
409.534	577.97
409.912	586.1
410.29	601.47
410.667	601.24
411.045	599.43
411.422	582.94
411.8	610.96
412.178	615.25
412.555	633.1
412.933	641.69
413.31	627.46
413.687	628.13
414.065	631.07
414.442	656.38
414.819	653.9
415.197	636.49
415.574	665.42
415.951	686.21
416.328	688.7
416.705	677.85
417.082	671.3
417.46	695.02
417.837	696.38
418.214	676.49
418.591	697.51
418.967	689.6
419.344	721.24
419.721	745.42
420.098	731.63
420.475	737.73
420.852	743.61
421.228	740.9
421.605	734.57
421.982	759.43
422.358	769.6
422.735	769.37
423.111	762.59
423.488	766.66
423.864	795.13
424.241	784.97
424.617	813.44
424.994	813.44
425.37	841.69
425.746	810.05
426.123	835.36
426.499	793.55
426.875	856.38
427.251	856.15
427.627	852.99
428.003	879.2
428.379	873.78
428.756	886.21
429.132	921.23
429.507	904.74
429.883	924.4
430.259	921.23
430.635	959.88
431.011	925.75
431.387	956.94
431.763	977.95
432.138	980.89
432.514	988.8
432.89	987.45
433.265	1032.64
433.641	1005.07
434.016	1031.29
434.392	1052.53
434.767	1038.07
435.143	1052.98
435.518	1074
435.894	1090.95
436.269	1096.82
436.644	1102.02
437.02	1132.07
437.395	1096.14
437.77	1128.91
438.145	1123.04
438.52	1156.25
438.895	1142.7
439.271	1152.19
439.646	1180.66
440.021	1179.31
440.395	1191.06
440.77	1181.79
441.145	1176.14
441.52	1186.76
441.895	1222.24
442.27	1227.21
442.645	1209.59
443.019	1237.16
443.394	1233.09
443.769	1244.61
444.143	1257.95
444.518	1282.35
444.892	1273.77
445.267	1286.42
445.641	1307.89
446.016	1299.3
446.39	1324.39
446.764	1329.81
447.139	1306.99
447.513	1335.91
447.887	1356.93
448.262	1370.49
448.636	1371.39
449.01	1366.64
449.384	1368.23
449.758	1364.84
450.132	1423.14
450.506	1406.19
450.88	1438.06
451.254	1417.04
451.628	1455
452.002	1443.03
452.376	1491.61
452.75	1470.37
453.123	1504.49
453.497	1516.47
453.871	1548.33
454.244	1548.33
454.618	1556.7
454.992	1573.65
455.365	1604.6
455.739	1628.78
456.112	1629.01
456.486	1641.89
456.859	1675.79
457.232	1689.35
457.606	1698.61
457.979	1706.97
458.352	1753.3
458.725	1758.72
459.099	1796.69
459.472	1798.27
459.845	1833.3
460.218	1817.03
460.591	1869
460.964	1886.63
461.337	1915.56
461.71	1907.87
462.083	1953.75
462.456	1953.52
462.829	1975.67
463.201	2023.12
463.574	2016.57
463.947	2041.43
464.32	2077.59
464.692	2079.39
465.065	2119.85
465.438	2127.75
465.81	2158.49
466.183	2192.16
466.555	2214.53
466.928	2196.68
467.3	2203.23
467.672	2247.53
468.045	2321.42
468.417	2337.69
468.789	2369.1
469.161	2400.06
469.534	2443
469.906	2414.07
470.278	2494.3
470.65	2480.97
471.022	2540.17
471.394	2573.39
471.766	2587.86
472.138	2627.63
472.51	2676.44
472.882	2722.32
473.253	2735.65
473.625	2793.73
473.997	2847.06
474.369	2838.02
474.74	2883.67
475.112	2898.81
475.484	3014.06
475.855	3062.19
476.227	3054.06
476.598	3123.43
476.97	3149.87
477.341	3213.6
477.713	3248.4
478.084	3299.7
478.455	3378.8
478.827	3410.66
479.198	3488.85
479.569	3501.96
479.94	3577.66
480.311	3630.99
480.682	3694.49
481.053	3780.14
481.424	3823.3
481.795	3835.28
482.166	3900.14
482.537	3961.38
482.908	4056.97
483.279	4115.05
483.65	4168.83
484.021	4210.64
484.391	4271.43
484.762	4301.03
485.133	4363.4
485.503	4444.3
485.874	4491.53
486.244	4551.19
486.615	4623.96
486.985	4684.75
487.356	4778.98
487.726	4807.01
488.097	4897.85
488.467	4922.71
488.837	5008.36
489.207	5069.37
489.578	5141.01
489.948	5202.48
490.318	5262.14
490.688	5266.66
491.058	5296.49
491.428	5362.02
491.798	5442.7
492.168	5562.47
492.538	5559.75
492.908	5612.86
493.278	5730.6
493.648	5707.32
494.017	5808.56
494.387	5846.53
494.757	5900.76
495.126	5896.7
495.496	5985.05
495.866	6025.28
496.235	6085.16
496.605	6162.22
496.974	6246.97
497.344	6249.68
497.713	6285.61
498.082	6332.84
498.452	6303.46
498.821	6395.44
499.19	6453.74
499.559	6522.44
499.928	6514.53
500.298	6593.17
500.667	6659.61
501.036	6612.16
501.405	6686.96
501.774	6754.07
502.143	6838.37
502.512	6868.87
502.88	6911.13
503.249	6901.19
503.618	6960.62
503.987	7011.69
504.356	7025.48
504.724	7091.47
505.093	7117.45
505.462	7190.9
505.83	7257.34
506.199	7329.65
506.567	7326.94
506.936	7345.92
507.304	7466.37
507.672	7523.77
508.041	7576.65
508.409	7578.91
508.777	7643.09
509.145	7645.58
509.514	7747.95
509.882	7754.05
510.25	7818.45
510.618	7879.47
510.986	7861.84
511.354	7950.65
511.722	8079.01
512.09	8097.32
512.458	8149.97
512.826	8231.1
513.193	8187.48
513.561	8237.2
513.929	8298.21
514.297	8419.11
514.664	8466.35
515.032	8461.83
515.4	8619.79
515.767	8650.07
516.135	8683.06
516.502	8634.02
516.869	8817.52
517.237	8836.73
517.604	8815.26
517.972	8921.25
518.339	9029.27
518.706	9043.51
519.073	9064.97
519.44	9162.6
519.808	9260.22
520.175	9297.51
520.542	9457.51
520.909	9458.64
521.276	9506.54
521.643	9538.86
522.009	9642.59
522.376	9655.69
522.743	9864.27
523.11	9876.03
523.477	10000.32
523.843	10062.46
524.21	10104.04
524.577	10230.59
524.943	10267.2
525.31	10301.78
525.676	10456.35
526.043	10386.52
526.409	10569.79
526.776	10616.8
527.142	10681.43
527.508	10737.92
527.874	10820.86
528.241	10880.07
528.607	10905.38
528.973	11058.37
529.339	10979.05
529.705	11207.52
530.071	11194.41
530.437	11253.16
530.803	11352.15
531.169	11436.89
531.535	11400.28
531.901	11434.63
532.267	11585.59
532.632	11566.6
532.998	11644.11
533.364	11748.74
533.73	11842.75
534.095	11882.75
534.461	11993.03
534.826	11954.16
535.192	12020.38
535.557	12189.19
535.923	12053.82
536.288	12155.51
536.653	12208.85
537.019	12227.38
537.384	12311.67
537.749	12402.74
538.114	12373.59
538.479	12414.04
538.845	12533.13
539.21	12431.66
539.575	12573.58
539.94	12604.32
540.305	12604.09
540.67	12659.23
541.034	12667.59
541.399	12724.31
541.764	12808.38
542.129	12841.37
542.494	12864.65
542.858	12930.63
543.223	12915.27
543.587	13006.79
543.952	13063.06
544.316	13045.21
544.681	13034.59
545.045	13070.97
545.41	13123.17
545.774	13214.24
546.138	13264.64
546.503	13290.4
546.867	13407.46
547.231	13530.39
547.595	13581.69
547.959	13485.65
548.324	13533.56
548.688	13574.69
549.052	13636.38
549.416	13587.57
549.779	13746.21
550.143	13742.82
550.507	13832.76
550.871	13840.89
551.235	13901.46
551.599	13950.72
551.962	13958.63
552.326	13975.13
552.689	14112.07
553.053	14076.37
553.417	14231.39
553.78	14373.76
554.143	14351.16
554.507	14427.77
554.87	14411.27
555.234	14565.17
555.597	14479.97
555.96	14575.11
556.323	14618.95
556.686	14746.63
557.05	14751.6
557.413	14805.84
557.776	14949.56
558.139	14950.02
558.502	15011.94
558.865	15009.22
559.228	15140.07
559.59	15239.95
559.953	15291.25
560.316	15368.31
560.679	15459.16
561.041	15405.15
561.404	15559.04
561.767	15620.06
562.129	15616.89
562.492	15658.25
562.854	15792.25
563.217	15764.01
563.579	15880.61
563.941	16031.12
564.304	15999.71
564.666	16148.4
565.028	16126.03
565.39	16137.78
565.753	16188.63
566.115	16330.09
566.477	16390.66
566.839	16462.97
567.201	16499.35
567.563	16530.99
567.925	16678.56
568.287	16660.03
568.648	16729.18
569.01	16792.91
569.372	16891.43
569.734	16913.13
570.095	17019.57
570.457	17180.47
570.819	17128.72
571.18	17178.66
571.542	17332.55
571.903	17276.73
572.265	17305.66
572.626	17411.42
572.987	17464.53
573.349	17518.99
573.71	17533.23
574.071	17576.84
574.432	17578.2
574.794	17800.34
575.155	17743.16
575.516	17815.93
575.877	17740.23
576.238	17846.21
576.599	17925.76
576.96	17972.08
577.32	17816.16
577.681	18020.44
578.042	18078.07
578.403	18111.97
578.763	18175.02
579.124	18130.72
579.485	18110.16
579.845	18218.18
580.206	18184.06
580.566	18193.77
580.927	18158.52
581.287	18193.55
581.648	18190.16
582.008	18334.79
582.368	18280.78
582.728	18254.56
583.089	18149.25
583.449	18121.68
583.809	18255.47
584.169	18346.76
584.529	18168.24
584.889	18504.05
585.249	18239.42
585.609	18181.12
585.969	18394.9
586.329	18300.89
586.688	18405.52
587.048	18295.01
587.408	18274
587.768	18220.89
588.127	18313.32
588.487	18282.58
588.846	18338.63
589.206	18189.03
589.565	18197.16
589.925	18336.82
590.284	18228.35
590.643	18289.14
591.003	18359.64
591.362	18262.7
591.721	18311.96
592.08	18321
592.44	18419.53
592.799	18384.28
593.158	18375.01
593.517	18433.77
593.876	18436.93
594.235	18361.23
594.593	18404.84
594.952	18435.8
595.311	18433.77
595.67	18410.26
596.029	18582.92
596.387	18437.16
596.746	18559.87
597.104	18466.08
597.463	18428.57
597.822	18464.73
598.18	18404.61
598.538	18408.91
598.897	18582.46
599.255	18346.76
599.613	18617.26
599.972	18600.09
600.33	18653.65
600.688	18585.85
601.046	18548.11
601.404	18656.59
601.762	18651.61
602.12	18837.37
602.478	18664.95
602.836	18800.76
603.194	18629.02
603.552	18651.84
603.91	18658.39
604.268	18700.88
604.625	18777.94
604.983	18771.84
605.341	18649.58
605.698	18770.48
606.056	18736.81
606.413	18698.17
606.771	18821.55
607.128	18752.63
607.485	18701.1
607.843	18785.17
608.2	18816.36
608.557	18983.81
608.914	18857.03
609.272	18922.79
609.629	19044.82
609.986	19013.86
610.343	18877.14
610.7	19069.46
611.057	19048.21
611.414	19101.09
611.771	19128.21
612.127	19246.63
612.484	19115.56
612.841	19308.09
613.198	19194.42
613.554	19177.7
613.911	19311.03
614.267	19271.26
614.624	19257.93
614.98	19227.19
615.337	19249.11
615.693	19252.28
616.05	19295.44
616.406	19387.87
616.762	19264.71
617.118	19285.27
617.475	19361.43
617.831	19454.53
618.187	19402.1
618.543	19475.55
618.899	19567.52
619.255	19608.43
619.611	19555.32
619.967	19587.86
620.323	19666.95
620.678	19608.2
621.034	19489.11
621.39	19552.38
621.746	19405.94
622.101	19721.64
622.457	19508.54
622.812	19595.77
623.168	19671.93
623.523	19540.63
623.879	19650.23
624.234	19535.88
624.589	19580.4
624.945	19579.95
625.3	19686.16
625.655	19649.78
626.01	19668.08
626.365	19626.5
626.72	19560.29
627.075	19593.96
627.43	19515.77
627.785	19529.11
628.14	19625.6
628.495	19511.93
628.85	19453.85
629.205	19509.44
629.559	19574.53
629.914	19584.47
630.269	19504.7
630.623	19392.61
630.978	19436
631.332	19519.16
631.687	19612.49
632.041	19434.64
632.396	19532.27
632.75	19465.6
633.104	19473.74
633.459	19353.97
633.813	19335.21
634.167	19312.16
634.521	19363.69
634.875	19347.87
635.229	19258.38
635.583	19153.07
635.937	19120.08
636.291	19142.45
636.645	19132.05
636.999	18970.93
637.352	19104.03
637.706	18857.48
638.06	19004.15
638.413	19051.15
638.767	18961.66
639.121	19017.03
639.474	18930.93
639.828	18907.65
640.181	18894.09
640.534	18834.89
640.888	18773.19
641.241	18680.54
641.594	18788.56
641.947	18716.25
642.301	18579.75
642.654	18660.88
643.007	18653.65
643.36	18590.37
643.713	18585.85
644.066	18709.47
644.419	18524.61
644.771	18495.46
645.124	18310.61
645.477	18215.02
645.83	18112.87
646.182	17973.89
646.535	17957.4
646.888	18056.38
647.24	17763.28
647.593	17989.03
647.945	17805.76
648.298	17753.11
648.65	17693.45
649.002	17702.03
649.355	17710.62
649.707	17749.26
650.059	17827.91
650.411	18088.01
650.763	18180.67
651.115	18216.37
651.467	18215.69
651.819	18150.84
652.171	18178.86
652.523	18100.89
652.875	18088.92
653.227	18110.84
653.578	18125.98
653.93	18115.81
654.282	17952.65
654.633	17952.65
654.985	17954.46
655.337	18055.7
655.688	17939.32
656.039	18039.65
656.391	17828.36
656.742	17909.03
657.094	17869.04
657.445	17929.83
657.796	17865.19
658.147	17847.79
658.498	17833.1
658.849	17914.91
659.2	17829.49
659.551	17844.18
659.902	17906.55
660.253	17846.44
660.604	17821.13
660.955	17726.89
661.306	17828.13
661.656	17646.89
662.007	17722.6
662.358	17669.94
662.708	17672.88
663.059	17695.93
663.409	17493.23
663.76	17674.01
664.11	17672.43
664.461	17667.46
664.811	17660.91
665.161	17711.07
665.511	17570.29
665.862	17505.66
666.212	17648.48
666.562	17546.33
666.912	17582.72
667.262	17583.17
667.612	17471.08
667.962	17558.31
668.312	17433.79
668.662	17390.18
669.011	17449.39
669.361	17413.23
669.711	17380.69
670.06	17411.65
670.41	17336.39
670.76	17276.06
671.109	17375.94
671.459	17299.79
671.808	17297.75
672.157	17309.73
672.507	17341.59
672.856	17238.77
673.205	17253.46
673.554	17268.15
673.904	17284.87
674.253	17286.45
674.602	17210.3
674.951	16999.23
675.3	16882.62
675.649	17142.73
675.998	17191.31
676.346	17194.7
676.695	17245.78
677.044	17135.27
677.393	17162.16
677.741	17080.58
678.09	17080.36
678.438	16995.16
678.787	17125.55
679.135	17027.02
679.484	16858.44
679.832	17056.18
680.181	16935.5
680.529	17005.56
680.877	16967.14
681.225	16927.82
681.573	16974.6
681.922	16790.19
682.27	16675.39
682.618	16858.44
682.966	16826.13
683.314	16855.96
683.661	16734.6
684.009	16660.71
684.357	16624.77
684.705	16516.75
685.053	16616.64
685.4	16656.64
685.748	16538.22
686.095	16519.69
686.443	16348.4
686.79	16378.91
687.138	16359.7
687.485	16330.77
687.832	16336.65
688.18	16289.19
688.527	16133.04
688.874	16168.29
689.221	16068.63
689.568	16127.84
689.915	16149.98
690.262	16071.57
690.609	16048.74
690.956	16013.49
691.303	15806.72
691.65	15802.2
691.997	15857.56
692.344	15611.02
692.69	15663.67
693.037	15753.61
693.383	15641.52
693.73	15764.46
694.077	15703.67
694.423	15591.36
694.769	15591.13
695.116	15536.89
695.462	15408.31
695.808	15388.2
696.155	15445.37
696.501	15313.85
696.847	15353.4
697.193	15164.7
697.539	15288.99
697.885	15108.2
698.231	15121.99
698.577	14999.51
698.923	15041.09
699.269	14947.76
699.614	14916.8
699.96	14871.6
700.306	14891.26
700.651	14821.88
700.997	14761.09
701.342	14703.92
701.688	14733.98
702.033	14665.96
702.379	14719.06
702.724	14676.35
703.069	14778.5
703.415	14508.67
703.76	14563.13
704.105	14566.52
704.45	14451.27
704.795	14421.44
705.14	14312.52
705.485	14389.13
705.83	14345.29
706.175	14351.16
706.52	14300.54
706.865	14202.01
707.209	14089.25
707.554	14114.11
707.899	14140.32
708.243	14156.59
708.588	14080.89
708.932	14038.4
709.277	13994.11
709.621	14015.8
709.966	13905.98
710.31	13963.83
710.654	13779.2
710.998	13738.75
711.342	13772.65
711.687	13764.74
712.031	13691.97
712.375	13722.03
712.719	13640.45
713.063	13565.19
713.407	13649.26
713.75	13573.33
714.094	13487.23
714.438	13515.25
714.782	13522.26
715.125	13403.84
715.469	13432.77
715.812	13361.58
716.156	13306.22
716.499	13224.41
716.843	13229.84
717.186	13207.46
717.53	13270.74
717.873	13275.26
718.216	13254.24
718.559	13196.62
718.902	13164.07
719.246	13240.91
719.589	13202.72
719.932	13066.9
720.275	13081.82
720.617	13023.74
720.96	12903.74
721.303	12911.2
721.646	12981.71
721.989	12908.04
722.331	12943.97
722.674	12845.21
723.016	12852.44
723.359	12797.76
723.701	12891.54
724.044	12797.98
724.386	12713.24
724.729	12811.77
725.071	12762.96
725.413	12693.8
725.755	12646.35
726.097	12614.03
726.439	12609.51
726.782	12569.06
727.124	12545.11
727.465	12549.4
727.807	12488.84
728.149	12543.53
728.491	12488.39
728.833	12537.88
729.175	12494.71
729.516	12380.59
729.858	12484.09
730.199	12432.79
730.541	12418.33
730.882	12380.14
731.224	12414.04
731.565	12290.2
731.906	12313.93
732.248	12258.11
732.589	12226.92
732.93	12192.8
733.271	12257.88
733.612	12274.38
733.953	12193.93
734.294	12123.2
734.635	12148.73
734.976	12071.67
735.317	12132.46
735.658	12115.29
735.999	12059.02
736.339	12086.81
736.68	12056.31
737.021	12014.05
737.361	12000.26
737.702	12075.29
738.042	12060.15
738.383	11978.57
738.723	12012.69
739.063	11842.3
739.404	11941.73
739.744	11832.58
740.084	11823.55
740.424	11782.42
740.764	11756.43
741.104	11817.67
741.444	11702.64
741.784	11714.17
742.124	11744
742.464	11741.51
742.804	11648.41
743.143	11578.13
743.483	11648.63
743.823	11635.08
744.162	11643.89
744.502	11641.63
744.841	11594.17
745.181	11668.97
745.52	11621.52
745.86	11580.39
746.199	11521.41
746.538	11527.51
746.877	11511.01
747.216	11433.27
747.556	11468.07
747.895	11426.49
748.234	11335.2
748.573	11349.43
748.911	11322.99
749.25	11354.63
749.589	11305.14
749.928	11282.09
750.267	11332.94
750.605	11214.75
750.944	11247.51
751.283	11127.74
751.621	11234.41
751.96	11145.82
752.298	11059.05
752.636	11106.5
752.975	11062.66
753.313	11017.46
753.651	11089.78
753.989	11058.82
754.327	10946.51
754.666	10943.57
755.004	10941.99
755.342	10879.39
755.679	10870.8
756.017	10816.34
756.355	10778.15
756.693	10725.72
757.031	10860.41
757.368	10696.57
757.706	10787.64
758.044	10713.97
758.381	10609.34
758.719	10682.33
759.056	10608.44
759.394	10667.87
759.731	10539.06
760.068	10492.05
760.405	10421.55
760.743	10446.41
761.08	10404.37
761.417	10345.84
761.754	10409.8
762.091	10379.29
762.428	10358.95
762.765	10320.53
763.102	10331.15
763.438	10196.92
763.775	10092.52
764.112	10162.57
764.449	10151.5
764.785	10116.25
765.122	10029.24
765.458	10014.78
765.795	9933.43
766.131	9959.64
766.467	9936.81
766.804	9845.97
767.14	9829.02
767.476	9843.71
767.812	9845.29
768.148	9860.66
768.485	9708.8
768.821	9689.59
769.157	9656.82
769.492	9630.38
769.828	9661.79
770.164	9516.94
770.5	9611.4
770.836	9583.83
771.171	9542.25
771.507	9516.71
771.842	9439.2
772.178	9419.31
772.513	9354.91
772.849	9330.28
773.184	9279.21
773.519	9222.94
773.855	9187
774.19	9162.6
774.525	9135.71
774.86	9147.01
775.195	9165.76
775.53	9132.99
775.865	8975.03
776.2	8970.96
776.535	8960.8
776.87	8913.11
777.205	8937.07
777.539	8924.41
777.874	8874.47
778.209	8829.05
778.543	8794.47
778.878	8683.51
779.212	8671.09
779.547	8643.52
779.881	8692.33
780.215	8596.06
780.55	8528.26
780.884	8502.95
781.218	8454.59
781.552	8534.14
781.886	8456.85
782.22	8374.37
782.554	8391.77
782.888	8288.72
783.222	8259.12
783.556	8267.93
783.889	8218.22
784.223	8184.32
784.557	8187.93
784.89	8228.39
785.224	8143.42
785.557	8118.78
785.891	8065.68
786.224	8074.72
786.558	8041.72
786.891	8006.24
787.224	7949.97
787.557	7967.38
787.891	7962.86
788.224	7938.45
788.557	7934.83
788.89	7876.08
789.223	7910.43
789.556	7820.26
789.888	7855.29
790.221	7838.57
790.554	7795.63
790.887	7755.4
791.219	7689.42
791.552	7619.59
791.884	7557.89
792.217	7598.8
792.549	7523.77
792.882	7460.72
793.214	7482.87
793.546	7474.28
793.879	7410.78
794.211	7442.87
794.543	7387.96
794.875	7346.15
795.207	7382.98
795.539	7343.44
795.871	7322.87
796.203	7265.02
796.535	7186.83
796.867	7146.83
797.198	7190.45
797.53	7151.58
797.862	7152.26
798.193	7129.88
798.525	7128.53
798.856	7072.26
799.188	7025.93
799.519	6974.63
799.85	7044.46
800.182	7050.79
800.513	7041.07
800.844	6914.52
801.175	6961.98
801.506	6944.8
801.837	6874.07
802.168	6932.37
802.499	6889.66
802.83	6834.98
803.161	6824.58
803.491	6728.99
803.822	6745.94
804.153	6721.98
804.483	6671.14
804.814	6681.08
805.145	6624.13
805.475	6654.87
805.805	6610.57
806.136	6644.02
806.466	6610.57
806.796	6632.04
807.126	6558.37
807.457	6525.15
807.787	6544.14
808.117	6533.51
808.447	6554.76
808.777	6576.23
809.107	6545.72
809.436	6559.28
809.766	6522.44
810.096	6482.89
810.426	6390.69
810.755	6386.17
811.085	6375.55
811.414	6408.55
811.744	6296.91
812.073	6404.25
812.403	6326.51
812.732	6295.55
813.061	6302.33
813.39	6241.77
813.719	6162.68
814.049	6269.57
814.378	6247.42
814.707	6222.34
815.036	6182.34
815.365	6183.92
815.693	6109.57
816.022	6178.95
816.351	6170.81
816.68	6094.43
817.008	6126.07
817.337	6061.44
817.665	6070.02
817.994	6045.39
818.322	6082.45
818.651	6011.49
818.979	6008.78
819.307	6030.93
819.636	5966.75
819.964	5991.83
820.292	5968.56
820.62	5911.16
820.948	5924.94
821.276	5959.97
821.604	5938.28
821.932	5995.9
822.259	5980.99
822.587	6031.83
822.915	5965.39
823.243	5987.54
823.57	5922.68
823.898	5905.28
824.225	5922.68
824.553	5915.9
824.88	5939.41
825.207	5981.21
825.535	5892.18
825.862	5959.97
826.189	5958.84
826.516	5951.16
826.843	5959.29
827.17	5949.58
827.497	5924.94
827.824	5953.87
828.151	5991.83
828.478	5916.36
828.805	5905.96
829.131	5962.91
829.458	5937.37
829.785	5900.08
830.111	5936.92
830.438	5916.58
830.764	5938.73
831.09	5936.69
831.417	5900.31
831.743	5872.52
832.069	5893.53
832.395	5891.27
832.722	5872.74
833.048	5888.11
833.374	5845.17
833.7	5882.68
834.026	5851.95
834.351	5870.93
834.677	5868
835.003	5835
835.329	5807.66
835.654	5796.58
835.98	5794.78
836.306	5821.89
836.631	5796.36
836.956	5808.79
837.282	5797.26
837.607	5781.22
837.932	5754.78
838.258	5723.14
838.583	5743.25
838.908	5710.49
839.233	5697.38
839.558	5747.32
839.883	5683.37
840.208	5678.62
840.533	5634.78
840.858	5731.05
841.182	5695.34
841.507	5658.74
841.832	5670.71
842.156	5620.09
842.481	5623.03
842.805	5623.48
843.13	5617.15
843.454	5585.74
843.778	5543.26
844.103	5568.79
844.427	5550.94
844.751	5564.5
845.075	5546.42
845.399	5550.26
845.723	5537.16
846.047	5475.69
846.371	5452.19
846.695	5425.07
847.019	5466.65
847.343	5418.97
847.666	5363.15
847.99	5380.55
848.313	5361.79
848.637	5322.47
848.96	5316.37
849.284	5271.17
849.607	5220.78
849.931	5237.28
850.254	5255.81
850.577	5127
850.9	5158.64
851.223	5151.63
851.546	5113.66
851.869	5077.96
852.192	5087.68
852.515	5052.88
852.838	5077.28
853.161	5038.86
853.483	4988.92
853.806	4969.49
854.129	4972.65
854.451	4962.03
854.774	4945.53
855.096	4917.29
855.419	4882.03
855.741	4904.86
856.063	4901.24
856.385	4868.02
856.708	4845.65
857.03	4886.78
857.352	4849.27
857.674	4819.66
857.996	4803.16
858.318	4823.28
858.64	4802.03
858.961	4771.3
859.283	4758.19
859.605	4739.66
859.926	4786.22
860.248	4724.97
860.57	4696.73
860.891	4692.21
861.212	4669.61
861.534	4702.15
861.855	4675.26
862.176	4674.58
862.498	4689.27
862.819	4671.64
863.14	4657.41
863.461	4633.23
863.782	4665.32
864.103	4639.1
864.424	4535.38
864.745	4607.24
865.065	4618.31
865.386	4572.89
865.707	4562.72
866.027	4646.56
866.348	4566.79
866.668	4523.4
866.989	4523.4
867.309	4483.85
867.63	4520.23
867.95	4508.03
868.27	4535.38
868.59	4531.53
868.91	4527.69
869.23	4522.95
869.55	4510.97
869.87	4503.06
870.19	4501.7
870.51	4523.85
870.83	4473.68
871.15	4435.49
871.469	4476.62
871.789	4464.42
872.109	4477.3
872.428	4424.87
872.748	4436.39
873.067	4384.87
873.386	4443.17
873.706	4388.26
874.025	4403.4
874.344	4391.65
874.663	4416.73
874.982	4372.89
875.301	4354.81
875.62	4337.64
875.939	4391.65
876.258	4332.44
876.577	4330.63
876.896	4323.86
877.214	4347.13
877.533	4336.06
877.852	4312.33
878.17	4327.92
878.489	4313.01
878.807	4353.68
879.125	4292.67
879.444	4246.12
879.762	4292.9
880.08	4275.04
880.398	4306.23
880.716	4284.99
881.034	4229.17
881.352	4271.65
881.67	4208.83
881.988	4248.38
882.306	4201.82
882.624	4175.38
882.941	4174.71
883.259	4188.27
883.577	4168.83
883.894	4155.95
884.212	4197.76
884.529	4178.55
884.846	4117.31
885.164	4130.87
885.481	4091.77
885.798	4097.87
886.115	4125.22
886.432	4061.49
886.75	4015.16
887.067	4103.52
887.383	4043.41
887.7	4044.09
888.017	4004.32
888.334	3998.89
888.651	4005.22
888.967	4022.39
889.284	3983.98
889.6	3984.66
889.917	3959.8
890.233	4011.77
890.55	3958.67
890.866	3962.28
891.182	3981.04
891.498	3958.22
891.815	3951.44
892.131	3897.88
892.447	3900.14
892.763	3839.12
893.079	3887.26
893.395	3845.9
893.71	3889.29
894.026	3861.72
894.342	3847.71
894.657	3821.04
894.973	3837.99
895.289	3799.12
895.604	3810.65
895.92	3773.59
896.235	3741.05
896.55	3738.56
896.865	3750.31
897.181	3751.67
897.496	3777.43
897.811	3701.5
898.126	3689.97
898.441	3632.57
898.756	3623.08
899.071	3628.05
899.386	3617.43
899.7	3633.25
900.015	3621.05
900.33	3619.92
900.644	3622.63
900.959	3639.13
901.273	3618.56
901.588	3557.1
901.902	3564.1
902.216	3579.92
902.531	3576.98
902.845	3541.5
903.159	3541.5
903.473	3499.92
903.787	3474.61
904.101	3477.78
904.415	3485.69
904.729	3471.22
905.042	3400.04
905.356	3422.18
905.67	3392.35
905.984	3411.11
906.297	3394.16
906.611	3420.83
906.924	3369.76
907.237	3387.38
907.551	3360.26
907.864	3365.91
908.177	3332.92
908.491	3342.86
908.804	3292.24
909.117	3286.59
909.43	3296.76
909.743	3295.41
910.056	3290.89
910.368	3235.07
910.681	3221.29
910.994	3192.36
911.307	3221.51
911.619	3184
911.932	3194.17
912.244	3192.13
912.557	3197.56
912.869	3138.8
913.181	3150.78
913.494	3184.68
913.806	3128.86
914.118	3165.69
914.43	3089.31
914.742	3068.3
915.054	3060.61
915.366	3088.18
915.678	3033.72
915.99	3030.78
916.302	2984.91
916.613	2981.29
916.925	2973.38
917.236	3000.5
917.548	2965.92
917.859	3001.18
918.171	2959.6
918.482	2939.03
918.794	2896.77
919.105	2927.06
919.416	2913.5
919.727	2898.81
920.038	2855.87
920.349	2885.7
920.66	2829.88
920.971	2847.06
921.282	2852.48
921.593	2843.44
921.903	2798.92
922.214	2811.13
922.525	2812.93
922.835	2775.65
923.146	2756.89
923.456	2772.03
923.767	2732.71
924.077	2696.33
924.387	2693.84
924.697	2697.68
925.008	2718.47
925.318	2713.05
925.628	2668.08
925.938	2694.75
926.248	2678.25
926.558	2685.48
926.867	2633.96
927.177	2655.2
927.487	2624.92
927.796	2616.78
928.106	2613.62
928.416	2566.39
928.725	2590.12
929.034	2550.34
929.344	2593.73
929.653	2542.66
929.962	2477.35
930.271	2501.53
930.581	2579.04
930.89	2499.04
931.199	2529.33
931.508	2485.26
931.817	2482.32
932.125	2498.82
932.434	2477.58
932.743	2469.89
933.051	2438.93
933.36	2420.18
933.669	2433.74
933.977	2420.85
934.286	2386.51
934.594	2419.95
934.902	2390.57
935.21	2416.56
935.519	2365.26
935.827	2373.85
936.135	2384.47
936.443	2321.42
936.751	2372.72
937.059	2356.22
937.367	2285.94
937.674	2309.22
937.982	2342.89
938.29	2272.38
938.597	2290.69
938.905	2276.45
939.213	2243.23
939.52	2295.89
939.827	2282.33
940.135	2268.54
940.442	2254.08
940.749	2220.63
941.056	2229
941.363	2175.66
941.67	2184.48
941.977	2207.3
942.284	2185.83
942.591	2174.53
942.898	2155.1
943.205	2152.39
943.511	2127.75
943.818	2120.52
944.125	2127.75
944.431	2100.64
944.738	2133.18
945.044	2085.04
945.35	2124.82
945.657	2100.86
945.963	2106.96
946.269	2070.36
946.575	2095.89
946.881	2075.55
947.187	2052.73
947.493	1978.61
947.799	1975.89
948.105	2012.05
948.41	1983.8
948.716	1989.23
949.022	1983.13
949.327	1981.54
949.633	2004.37
949.938	1951.26
950.244	1983.58
950.549	1942.45
950.854	1944.26
951.16	1947.19
951.465	1950.36
951.77	1934.77
952.075	1919.4
952.38	1943.35
952.685	1912.17
952.99	1913.98
953.294	1931.38
953.599	1893.18
953.904	1890.7
954.209	1876.91
954.513	1875.11
954.818	1864.48
955.122	1849.8
955.426	1848.89
955.731	1853.64
956.035	1812.96
956.339	1836.69
956.643	1818.16
956.948	1792.4
957.252	1823.36
957.556	1807.76
957.86	1809.57
958.163	1796.01
958.467	1789.01
958.771	1775.22
959.075	1764.37
959.378	1765.96
959.682	1756.01
959.985	1760.76
960.289	1766.86
960.592	1699.74
960.896	1728.22
961.199	1711.72
961.502	1718.5
961.805	1727.09
962.108	1701.78
962.411	1665.62
962.714	1691.16
963.017	1694.55
963.32	1689.8
963.623	1657.71
963.926	1688.9
964.228	1668.78
964.531	1660.65
964.833	1672.17
965.136	1673.53
965.438	1648.45
965.741	1616.36
966.043	1642.12
966.345	1625.17
966.648	1606.41
966.95	1638.05
967.252	1600.31
967.554	1578.84
967.856	1597.83
968.158	1602.12
968.46	1570.48
968.761	1577.49
969.063	1545.4
969.365	1559.63
969.666	1552.63
969.968	1526.19
970.269	1539.97
970.571	1548.33
970.872	1518.51
971.174	1504.95
971.475	1549.46
971.776	1495.91
972.077	1500.2
972.378	1465.17
972.679	1485.06
972.98	1495.91
973.281	1490.26
973.582	1460.88
973.883	1486.19
974.183	1445.06
974.484	1477.6
974.785	1441.9
975.085	1416.36
975.386	1456.36
975.686	1426.76
975.986	1401.22
976.287	1426.08
976.587	1418.62
976.887	1392.86
977.187	1419.07
977.487	1401.67
977.787	1433.99
978.087	1395.57
978.387	1411.16
978.687	1372.97
978.987	1370.71
979.286	1358.74
979.586	1382.46
979.885	1372.97
980.185	1360.32
980.484	1334.56
980.784	1325.74
981.083	1355.57
981.382	1351.05
981.682	1309.7
981.981	1333.43
982.28	1327.78
982.579	1330.49
982.878	1314.44
983.177	1317.15
983.475	1318.74
983.774	1286.19
984.073	1318.74
984.372	1310.38
984.67	1276.48
984.969	1293.65
985.267	1278.74
985.566	1276.93
985.864	1287.78
986.162	1249.81
986.461	1232.64
986.759	1245.52
987.057	1223.15
987.355	1219.76
987.653	1270.38
987.951	1251.39
988.249	1238.74
988.547	1224.5
988.844	1222.02
989.142	1216.82
989.44	1188.34
989.737	1200.77
990.035	1184.73
990.332	1210.26
990.63	1219.3
990.927	1167.78
991.224	1184.5
991.521	1177.27
991.819	1198.29
992.116	1189.7
992.413	1176.59
992.71	1154
993.006	1148.12
993.303	1165.97
993.6	1153.09
993.897	1114.45
994.193	1162.58
994.49	1129.36
994.787	1123.26
995.083	1111.28
995.379	1118.74
995.676	1123.94
995.972	1119.65
996.268	1100.21
996.565	1104.28
996.861	1112.64
997.157	1090.72
997.453	1076.03
997.749	1088.91
998.044	1085.75
998.34	1054.79
998.636	1065.64
998.932	1059.76
999.227	1053.66
999.523	1053.21
999.818	1070.61
1000.114	1049.59
1000.409	1068.8
1000.704	1020.44
1001	1047.56
1001.295	1032.19
1001.59	1021.34
1001.885	1015.47
1002.18	1031.29
1002.475	1034.45
1002.77	1021.57
1003.065	1026.77
1003.359	1040.33
1003.654	1018.41
1003.949	990.16
1004.243	996.94
1004.538	1018.41
1004.832	1022.93
1005.127	982.02
1005.421	970.27
1005.715	951.74
1006.009	982.47
1006.304	964.62
1006.598	920.78
1006.892	940.89
1007.186	934.34
1007.48	921.01
1007.773	944.28
1008.067	970.95
1008.361	921.68
1008.655	910.39
1008.948	904.96
1009.242	925.98
1009.535	911.29
1009.829	890.95
1010.122	908.13
1010.415	898.18
1010.708	912.19
1011.001	908.13
1011.295	883.95
1011.588	886.88
1011.881	888.92
1012.173	890.27
1012.466	877.84
1012.759	845.98
1013.052	860.44
1013.344	867.9
1013.637	865.19
1013.93	861.8
1014.222	848.69
1014.514	836.26
1014.807	833.78
1015.099	827.22
1015.391	839.88
1015.683	835.59
1015.976	836.26
1016.268	827.68
1016.56	821.12
1016.851	826.32
1017.143	821.8
1017.435	812.76
1017.727	815.25
1018.018	826.77
1018.31	811.63
1018.602	810.5
1018.893	811.41
1019.185	777.96
1019.476	789.71
1019.767	785.19
1020.058	763.27
1020.35	770.73
1020.641	770.05
1020.932	753.55
1021.223	745.87
1021.514	750.62
1021.804	759.88
1022.095	764.85
1022.386	742.25
1022.677	748.13
1022.967	723.27
1023.258	747.23
1023.548	724.63
1023.839	740.67
1024.129	735.7
1024.419	713.33
1024.709	748.81
1025	700
1025.29	733.67
1025.58	704.52
1025.87	709.71
1026.16	683.95
1026.449	689.15
1026.739	679.43
1027.029	667.45
1027.319	691.86
1027.608	669.49
1027.898	692.54
1028.187	683.95
1028.477	688.92
1028.766	674.23
1029.055	685.31
1029.344	665.42
1029.634	671.75
1029.923	678.53
1030.212	671.52
1030.501	667
1030.79	671.3
1031.078	627
1031.367	633.33
1031.656	636.04
1031.945	641.47
1032.233	640.79
1032.522	636.04
1032.81	634.69
1033.099	623.84
1033.387	623.61
1033.675	613.44
1033.963	614.35
1034.251	622.26
1034.54	624.52
1034.828	592.2
1035.116	592.43
1035.403	603.5
1035.691	596.27
1035.979	595.59
1036.267	603.95
1036.554	585.65
1036.842	594.69
1037.129	582.26
1037.417	581.13
1037.704	592.43
1037.992	580.9
1038.279	568.25
1038.566	581.58
1038.853	581.58
1039.14	581.58
