Data from black_metal_pc_casing_FLMS001491_00071.txt Node
Date: Wed Feb 08 14:33:28 GMT 2017
User: dcchb
Spectrometer: FLMS00149
Trigger mode: 0
Integration Time (sec): 2.000000E-2
Scans to average: 10
Electric dark correction enabled: true
Nonlinearity correction enabled: false
Boxcar width: 0
XAxis mode: Wavelengths
Number of Pixels in Spectrum: 2048
>>>>>Begin Spectral Data<<<<<
341.393	-11.64
341.776	-11.64
342.16	-11.64
342.543	-62.71
342.927	-74.01
343.31	-77.4
343.693	-71.3
344.077	-73.56
344.46	-63.39
344.843	-51.64
345.226	-52.54
345.61	-15.48
345.993	-16.38
346.376	3.95
346.759	-3.28
347.142	30.17
347.525	53.67
347.908	50.73
348.291	76.72
348.674	102.48
349.057	107.23
349.44	123.5
349.823	140.22
350.206	167.57
350.588	205.31
350.971	201.01
351.354	228.81
351.737	238.52
352.119	246.21
352.502	269.26
352.884	268.35
353.267	276.72
353.65	275.36
354.032	282.37
354.414	283.72
354.797	290.05
355.179	318.97
355.562	305.87
355.944	315.36
356.326	325.53
356.709	336.15
357.091	313.55
357.473	319.88
357.855	313.78
358.238	338.64
358.62	333.66
359.002	344.28
359.384	356.71
359.766	339.54
360.148	339.99
360.53	337.05
360.912	332.76
361.294	342.93
361.676	343.15
362.057	316.94
362.439	326.21
362.821	314.23
363.203	287.56
363.584	336.15
363.966	309.03
364.348	325.75
364.729	329.6
365.111	311.29
365.493	323.49
365.874	344.51
366.256	302.03
366.637	307.9
367.019	311.07
367.4	321.01
367.781	304.51
368.163	309.48
368.544	278.98
368.925	316.04
369.306	298.18
369.688	291.18
370.069	319.2
370.45	306.77
370.831	318.07
371.212	307.68
371.593	321.69
371.974	325.75
372.355	324.62
372.736	292.99
373.117	314.23
373.498	314.91
373.879	310.84
374.26	297.28
374.641	322.36
375.021	324.62
375.402	342.02
375.783	330.27
376.163	332.31
376.544	341.8
376.925	324.85
377.305	339.54
377.686	347.9
378.066	340.22
378.447	338.86
378.827	347.45
379.208	341.35
379.588	353.1
379.968	345.64
380.349	341.12
380.729	362.59
381.109	328.69
381.489	345.41
381.87	348.13
382.25	340.89
382.63	342.7
383.01	360.33
383.39	367.11
383.77	369.59
384.15	345.41
384.53	356.49
384.91	382.02
385.29	339.31
385.67	353.78
386.049	356.26
386.429	367.79
386.809	376.15
387.189	370.95
387.568	368.46
387.948	371.18
388.328	369.14
388.707	391.52
389.087	378.18
389.466	376.15
389.846	386.09
390.225	386.32
390.605	382.25
390.984	400.33
391.363	393.55
391.743	391.29
392.122	371.18
392.501	403.04
392.881	408.69
393.26	424.51
393.639	390.61
394.018	403.49
394.397	403.94
394.776	418.41
395.155	409.59
395.534	407.79
395.913	422.7
396.292	411.18
396.671	424.73
397.05	423.38
397.429	429.03
397.808	427.22
398.186	427.9
398.565	429.25
398.944	435.81
399.323	447.56
399.701	472.19
400.08	425.64
400.458	435.36
400.837	435.13
401.215	472.42
401.594	444.62
401.972	458.86
402.351	438.52
402.729	456.15
403.107	490.04
403.486	453.43
403.864	457.05
404.242	483.26
404.62	483.72
404.999	480.55
405.377	469.71
405.755	490.04
406.133	494.56
406.511	483.04
406.889	497.28
407.267	501.12
407.645	512.64
408.023	493.43
408.401	511.29
408.779	506.54
409.156	511.51
409.534	522.13
409.912	534.34
410.29	529.36
410.667	546.77
411.045	526.65
411.422	566.65
411.8	563.04
412.178	552.19
412.555	543.6
412.933	576.6
413.31	565.75
413.687	584.28
414.065	568.46
414.442	587.44
414.819	580.44
415.197	598.29
415.574	581.79
415.951	608.46
416.328	592.19
416.705	612.53
417.082	596.71
417.46	606.88
417.837	617.27
418.214	618.4
418.591	619.31
418.967	622.92
419.344	610.94
419.721	646.88
420.098	633.09
420.475	645.97
420.852	643.94
421.228	658.85
421.605	650.27
421.982	660.66
422.358	636.25
422.735	675.58
423.111	667.21
423.488	692.3
423.864	689.36
424.241	688.23
424.617	669.47
424.994	686.42
425.37	665.18
425.746	682.58
426.123	723.71
426.499	708.57
426.875	725.07
427.251	737.27
427.627	729.59
428.003	763.26
428.379	749.02
428.756	751.28
429.132	758.51
429.507	760.09
429.883	797.38
430.259	782.24
430.635	786.76
431.011	784.05
431.387	804.61
431.763	810.26
432.138	832.18
432.514	821.33
432.89	840.77
433.265	871.5
433.641	877.15
434.016	843.71
434.392	866.98
434.767	890.26
435.143	878.51
435.518	892.97
435.894	910.37
436.269	906.76
436.644	934.1
437.02	922.35
437.395	924.38
437.77	939.3
438.145	947.21
438.52	948.34
438.895	958.96
439.271	953.76
439.646	979.97
440.021	997.37
440.395	1012.52
440.77	997.83
441.145	961.9
441.52	1010.93
441.895	1049.12
442.27	1037.83
442.645	1015
443.019	1024.49
443.394	1063.36
443.769	1031.05
444.143	1046.41
444.518	1053.19
444.892	1058.84
445.267	1023.36
445.641	1088.22
446.016	1099.75
446.39	1097.71
446.764	1083.25
447.139	1104.72
447.513	1111.04
447.887	1099.07
448.262	1104.94
448.636	1133.87
449.01	1145.39
449.384	1155.34
449.758	1145.85
450.132	1171.16
450.506	1163.7
450.88	1190.36
451.254	1184.71
451.628	1205.05
452.002	1204.15
452.376	1213.19
452.75	1222.68
453.123	1226.75
453.497	1235.56
453.871	1270.14
454.244	1268.33
454.618	1258.84
454.992	1306.07
455.365	1308.78
455.739	1306.29
456.112	1311.04
456.486	1354.65
456.859	1329.34
457.232	1367.76
457.606	1336.58
457.979	1370.92
458.352	1408.66
458.725	1405.73
459.099	1447.31
459.472	1431.71
459.845	1464.48
460.218	1492.5
460.591	1514.42
460.964	1480.53
461.337	1541.99
461.71	1535.44
462.083	1553.74
462.456	1540.19
462.829	1557.13
463.201	1596.46
463.574	1620.41
463.947	1633.29
464.32	1654.98
464.692	1648.88
465.065	1658.6
465.438	1694.08
465.81	1714.64
466.183	1714.64
466.555	1779.05
466.928	1763.46
467.3	1792.83
467.672	1788.77
468.045	1859.73
468.417	1857.92
468.789	1863.34
469.161	1901.98
469.534	1887.52
469.906	1939.95
470.278	2011.59
470.65	1987.63
471.022	2012.49
471.394	2061.53
471.766	2072.83
472.138	2085.48
472.51	2107.18
472.882	2152.15
473.253	2185.14
473.625	2211.13
473.997	2217.46
474.369	2232.14
474.74	2267.85
475.112	2300.39
475.484	2333.84
475.855	2396.89
476.227	2398.92
476.598	2437.34
476.97	2481.18
477.341	2546.03
477.713	2567.28
478.084	2593.94
478.455	2635.98
478.827	2708.29
479.198	2707.84
479.569	2704.22
479.94	2788.29
480.311	2812.69
480.682	2864.9
481.053	2926.59
481.424	2954.16
481.795	3014.95
482.166	3056.3
482.537	3061.5
482.908	3147.15
483.279	3201.38
483.65	3253.13
484.021	3309.4
484.391	3316.86
484.762	3364.32
485.133	3399.35
485.503	3413.81
485.874	3498.78
486.244	3507.82
486.615	3565.89
486.985	3652.22
487.356	3705.55
487.726	3694.25
488.097	3774.7
488.467	3780.13
488.837	3868.03
489.207	3901.25
489.578	3948.26
489.948	3976.73
490.318	4017.86
490.688	4078.2
491.058	4126.56
491.428	4183.28
491.798	4210.85
492.168	4337.4
492.538	4328.13
492.908	4354.57
493.278	4437.28
493.648	4394.12
494.017	4475.02
494.387	4530.84
494.757	4522.03
495.126	4597.05
495.496	4617.84
495.866	4651.97
496.235	4725.19
496.605	4745.07
496.974	4763.83
497.344	4812.42
497.713	4852.64
498.082	4869.14
498.452	4959.3
498.821	4936.03
499.19	4967.67
499.559	5000.43
499.928	5069.36
500.298	5036.36
500.667	5129.92
501.036	5140.54
501.405	5139.19
501.774	5169.02
502.143	5237.04
502.512	5263.03
502.88	5304.61
503.249	5305.06
503.618	5365.4
503.987	5351.84
504.356	5387.09
504.724	5429.12
505.093	5406.07
505.462	5512.96
505.83	5558.16
506.199	5599.29
506.567	5668.89
506.936	5671.83
507.304	5695.56
507.672	5736.23
508.041	5799.51
508.409	5826.17
508.777	5869.34
509.145	5911.37
509.514	5915.44
509.882	5951.14
510.25	5974.65
510.618	6031.82
510.986	6020.07
511.354	6127.86
511.722	6138.26
512.09	6271.13
512.458	6168.99
512.826	6284.92
513.193	6330.57
513.561	6333.05
513.929	6432.94
514.297	6473.16
514.664	6515.42
515.032	6518.81
515.4	6575.99
515.767	6620.73
516.135	6622.31
516.502	6624.8
516.869	6758.35
517.237	6799.93
517.604	6816.66
517.972	6819.14
518.339	6946.6
518.706	6898.01
519.073	6952.25
519.44	7036.99
519.808	7095.07
520.175	7169.64
520.542	7165.8
520.909	7255.97
521.276	7278.57
521.643	7286.02
522.009	7363.54
522.376	7418.22
522.743	7469.3
523.11	7550.42
523.477	7607.6
523.843	7683.3
524.21	7743.86
524.577	7775.95
524.943	7827.25
525.31	7867.7
525.676	7988.15
526.043	8001.71
526.409	7982.28
526.776	8137.07
527.142	8161.71
527.508	8203.06
527.874	8234.25
528.241	8300.23
528.607	8329.16
528.973	8420
529.339	8461.13
529.705	8496.84
530.071	8597.18
530.437	8613.45
530.803	8621.81
531.169	8709.49
531.535	8666.78
531.901	8754.23
532.267	8810.5
532.632	8846.43
532.998	8885.3
533.364	8899.54
533.73	8993.32
534.095	9055.02
534.461	9092.3
534.826	9129.36
535.192	9220.44
535.557	9287.55
535.923	9266.08
536.288	9242.36
536.653	9332.07
537.019	9289.13
537.384	9433.31
537.749	9450.94
538.114	9492.52
538.479	9483.93
538.845	9537.94
539.21	9532.07
539.575	9572.97
539.94	9601.44
540.305	9706.98
540.67	9623.81
541.034	9713.98
541.399	9770.48
541.764	9759.18
542.129	9814.09
542.494	9822.23
542.858	9863.13
543.223	9881.21
543.587	9964.82
543.952	9995.78
544.316	10031.94
544.681	10037.36
545.045	10092.73
545.41	10129.11
545.774	10198.94
546.138	10158.26
546.503	10203.01
546.867	10186.96
547.231	10348.77
547.595	10359.39
547.959	10357.81
548.324	10387.86
548.688	10378.6
549.052	10490.01
549.416	10498.37
549.779	10484.81
550.143	10507.41
550.507	10614.07
550.871	10664.01
551.235	10635.31
551.599	10737.46
551.962	10774.07
552.326	10855.87
552.689	10840.96
553.053	10774.07
553.417	10861.07
553.78	10985.59
554.143	11020.61
554.507	11047.51
554.87	11084.57
555.234	11133.83
555.597	11130.44
555.96	11179.25
556.323	11206.15
556.686	11338.12
557.05	11371.11
557.413	11285.24
557.776	11381.73
558.139	11488.62
558.502	11478.91
558.865	11546.02
559.228	11633.48
559.59	11637.1
559.953	11700.14
560.316	11845.9
560.679	11749.18
561.041	11819.69
561.404	11910.31
561.767	11976.52
562.129	12020.14
562.492	12121.83
562.854	12077.76
563.217	12090.19
563.579	12204.09
563.941	12314.82
564.304	12332.67
564.666	12370.86
565.028	12434.59
565.39	12491.31
565.753	12545.77
566.115	12568.6
566.477	12566.56
566.839	12647.92
567.201	12727.01
567.563	12751.19
567.925	12892.66
568.287	12831.19
568.648	12849.72
569.01	12988.7
569.372	13037.96
569.734	13011.97
570.095	13095.81
570.457	13153.44
570.819	13209.48
571.18	13177.39
571.542	13257.84
571.903	13225.53
572.265	13343.04
572.626	13370.38
572.987	13416.94
573.349	13386.65
573.71	13508.68
574.071	13497.61
574.432	13523.83
574.794	13704.39
575.155	13597.95
575.516	13527.89
575.877	13629.13
576.238	13715.91
576.599	13710.26
576.96	13734.44
577.32	13869.13
577.681	13824.61
578.042	13888.34
578.403	13938.28
578.763	13937.6
579.124	13913.87
579.485	14011.72
579.845	13983.47
580.206	13989.8
580.566	13985.51
580.927	14081.1
581.287	14132.62
581.648	13978.28
582.008	14117.26
582.368	14012.4
582.728	14099.4
583.089	14107.09
583.449	14072.74
583.809	14171.04
584.169	14068.22
584.529	14098.73
584.889	14193.41
585.249	14099.4
585.609	14134.2
585.969	14215.78
586.329	14070.48
586.688	14226.41
587.048	14240.64
587.408	14169.23
587.768	14153.41
588.127	14156.8
588.487	14093.08
588.846	14183.02
589.206	14168.1
589.565	14211.04
589.925	14257.59
590.284	14193.86
590.643	14207.88
591.003	14207.2
591.362	14293.97
591.721	14259.63
592.08	14238.16
592.44	14302.56
592.799	14225.28
593.158	14206.52
593.517	14212.17
593.876	14237.48
594.235	14204.71
594.593	14317.7
594.952	14248.55
595.311	14240.19
595.67	14254.65
596.029	14328.78
596.387	14348.21
596.746	14333.3
597.104	14253.52
597.463	14335.33
597.822	14380.07
598.18	14309.57
598.538	14329.91
598.897	14399.73
599.255	14269.12
599.613	14506.4
599.972	14394.76
600.33	14395.44
600.688	14436.57
601.046	14481.31
601.404	14526.96
601.762	14471.82
602.12	14620.97
602.478	14490.13
602.836	14475.21
603.194	14494.65
603.552	14575.55
603.91	14542.1
604.268	14584.36
604.625	14566.74
604.983	14673.17
605.341	14521.31
605.698	14738.71
606.056	14717.24
606.413	14606.96
606.771	14657.81
607.128	14717.47
607.485	14672.72
607.843	14677.47
608.2	14764.92
608.557	14805.6
608.914	14720.18
609.272	14781.87
609.629	14716.79
609.986	14881.76
610.343	14775.77
610.7	14922.21
611.057	14789.78
611.414	14800.85
611.771	14899.83
612.127	14950.68
612.484	14856.67
612.841	14962.21
613.198	14892.83
613.554	14953.39
613.911	15006.72
614.267	15046.95
614.624	15010.11
614.98	15100.28
615.337	15063.67
615.693	15100.28
616.05	15072.03
616.406	15158.81
616.762	15086.72
617.118	15083.56
617.475	15140.51
617.831	15127.85
618.187	15249.43
618.543	15195.65
618.899	15273.38
619.255	15203.78
619.611	15218.24
619.967	15259.15
620.323	15250.33
620.678	15176.89
621.034	15197.23
621.39	15196.78
621.746	15165.82
622.101	15286.72
622.457	15184.8
622.812	15247.85
623.168	15326.04
623.523	15299.15
623.879	15376.88
624.234	15281.52
624.589	15315.19
624.945	15320.39
625.3	15187.51
625.655	15326.04
626.01	15251.46
626.365	15274.51
626.72	15328.75
627.075	15302.99
627.43	15221.18
627.785	15242.2
628.14	15265.02
628.495	15192.93
628.85	15214.85
629.205	15227.74
629.559	15333.95
629.914	15105.48
630.269	15159.04
630.623	15136.44
630.978	15181.86
631.332	15269.09
631.687	15211.01
632.041	15188.41
632.396	15114.29
632.75	15119.94
633.104	15075.65
633.459	15064.8
633.813	15088.98
634.167	15094.86
634.521	15042.66
634.875	15038.59
635.229	15024.58
635.583	14895.54
635.937	14898.03
636.291	15042.88
636.645	14936.67
636.999	14933.05
637.352	15010.11
637.706	14915.65
638.06	14883.56
638.413	14899.83
638.767	14880.85
639.121	14910.46
639.474	14788.2
639.828	14750.01
640.181	14798.82
640.534	14855.32
640.888	14786.16
641.241	14617.58
641.594	14709.33
641.947	14751.36
642.301	14660.74
642.654	14682.66
643.007	14710.23
643.36	14669.11
643.713	14689.67
644.066	14626.17
644.419	14598.37
644.771	14523.12
645.124	14303.47
645.477	14338.27
645.83	14230.25
646.182	14032.06
646.535	14110.7
646.888	14093.3
647.24	14024.38
647.593	14138.95
647.945	14084.04
648.298	13980.76
648.65	13957.49
649.002	14030.25
649.355	14060.53
649.707	13990.48
650.059	14049.01
650.411	14265.27
650.763	14238.16
651.115	14377.14
651.467	14194.09
651.819	14292.39
652.171	14228.89
652.523	14211.72
652.875	14175.79
653.227	14134.88
653.578	14245.39
653.93	14251.94
654.282	14105.05
654.633	14115.22
654.985	14188.89
655.337	14150.25
655.688	14098.27
656.039	14179.63
656.391	14025.51
656.742	14066.86
657.094	14063.92
657.445	14117.03
657.796	13991.16
658.147	14028.9
658.498	14023.47
658.849	14073.64
659.2	13967.66
659.551	13992.74
659.902	13958.39
660.253	13986.86
660.604	14027.99
660.955	13900.09
661.306	13949.58
661.656	13858.73
662.007	13950.71
662.358	13994.1
662.708	13933.31
663.059	13954.32
663.409	13872.29
663.76	13987.99
664.11	13887.88
664.461	14007.88
664.811	13913.19
665.161	13898.5
665.511	13856.47
665.862	13921.55
666.212	13921.33
666.562	13908.45
666.912	13950.03
667.262	13862.12
667.612	13841.78
667.962	13831.16
668.312	13883.82
668.662	13882.46
669.011	13845.62
669.361	13766.53
669.711	13825.06
670.06	13798.62
670.41	13801.11
670.76	13743.25
671.109	13850.14
671.459	13798.39
671.808	13741.45
672.157	13839.07
672.507	13625.52
672.856	13724.5
673.205	13764.95
673.554	13857.83
673.904	13757.04
674.253	13830.48
674.602	13720.66
674.951	13538.97
675.3	13506.2
675.649	13715.23
675.998	13579.19
676.346	13641.56
676.695	13731.96
677.044	13632.75
677.393	13604.95
677.741	13615.8
678.09	13547.33
678.438	13543.94
678.787	13589.13
679.135	13601.34
679.484	13444.05
679.832	13584.84
680.181	13408.12
680.529	13507.55
680.877	13432.3
681.225	13339.2
681.573	13532.19
681.922	13390.27
682.27	13371.96
682.618	13379.2
682.966	13309.59
683.314	13354.56
683.661	13266.88
684.009	13282.93
684.357	13268.24
684.705	13241.35
685.053	13192.76
685.4	13154.8
685.748	13182.37
686.095	13180.11
686.443	13043.16
686.79	13145.98
687.138	13077.96
687.485	13089.94
687.832	13043.84
688.18	13048.81
688.527	12921.81
688.874	12898.3
689.221	12880.68
689.568	12902.6
689.915	12873.45
690.262	12852.2
690.609	12789.38
690.956	12772.66
691.303	12789.83
691.65	12693.79
691.997	12725.43
692.344	12522.72
692.69	12593.68
693.037	12546.9
693.383	12475.72
693.73	12623.28
694.077	12463.74
694.423	12478.88
694.769	12439.79
695.116	12487.92
695.462	12416.74
695.808	12391.2
696.155	12353.46
696.501	12262.62
696.847	12260.36
697.193	12098.33
697.539	12206.12
697.885	12029.4
698.231	12111.43
698.577	12043.86
698.923	12098.1
699.269	11924.77
699.614	11895.39
699.96	11948.05
700.306	11980.36
700.651	11929.52
700.997	11777.2
701.342	11800.93
701.688	11760.03
702.033	11782.18
702.379	11715.29
702.724	11740.82
703.069	11809.97
703.415	11547.83
703.76	11562.29
704.105	11689.52
704.45	11596.19
704.795	11501.28
705.14	11473.03
705.485	11447.72
705.83	11445.01
706.175	11403.43
706.52	11315.3
706.865	11344.22
707.209	11355.29
707.554	11308.97
707.899	11300.38
708.243	11255.86
708.588	11268.29
708.932	11225.81
709.277	11195.98
709.621	11158.92
709.966	11195.75
710.31	11090.89
710.654	11054.29
710.998	11094.51
711.342	11060.39
711.687	11057.45
712.031	11021.07
712.375	10917.57
712.719	10941.52
713.063	10961.63
713.407	10933.61
713.75	10936.55
714.094	10901.75
714.438	10819.94
714.782	10807.51
715.125	10785.14
715.469	10771.58
715.812	10778.36
716.156	10711.02
716.499	10714.18
716.843	10692.26
717.186	10625.14
717.53	10621.75
717.873	10676.44
718.216	10620.4
718.559	10624.69
718.902	10544.92
719.246	10598.93
719.589	10475.32
719.932	10480.52
720.275	10553.51
720.617	10467.63
720.96	10462.21
721.303	10420.86
721.646	10517.35
721.989	10414.3
722.331	10444.13
722.674	10364.81
723.016	10420.86
723.359	10308.99
723.701	10341.76
724.044	10300.63
724.386	10281.88
724.729	10261.76
725.071	10324.36
725.413	10222.44
725.755	10288.2
726.097	10170.24
726.439	10142.45
726.782	10205.95
727.124	10198.26
727.465	10175.66
727.807	10090.24
728.149	10087.76
728.491	10103.35
728.833	10075.33
729.175	10039.4
729.516	10062.9
729.858	9987.2
730.199	10020.19
730.541	10017.02
730.882	10027.65
731.224	9958.04
731.565	9916.01
731.906	9909.68
732.248	9965.27
732.589	9889.12
732.93	9819.06
733.271	9894.99
733.612	9909.68
733.953	9815.67
734.294	9779.06
734.635	9775
734.976	9799.18
735.317	9805.28
735.658	9763.02
735.999	9780.87
736.339	9730.7
736.68	9702.23
737.021	9750.82
737.361	9696.81
737.702	9662.23
738.042	9731.38
738.383	9727.77
738.723	9697.94
739.063	9690.71
739.404	9660.2
739.744	9616.81
740.084	9565.06
740.424	9634.66
740.764	9629.24
741.104	9629.24
741.444	9515.79
741.784	9467.89
742.124	9553.08
742.464	9499.52
742.804	9455.91
743.143	9471.05
743.483	9430.83
743.823	9411.16
744.162	9369.81
744.502	9405.97
744.841	9408.45
745.181	9407.78
745.52	9375.91
745.86	9423.59
746.199	9370.04
746.538	9336.14
746.877	9363.93
747.216	9339.98
747.556	9276.93
747.895	9325.52
748.234	9301.11
748.573	9282.35
748.911	9259.76
749.25	9261.56
749.589	9255.01
749.928	9190.61
750.267	9166.43
750.605	9104.05
750.944	9126.88
751.283	9111.06
751.621	9059.99
751.96	9075.35
752.298	9023.38
752.636	9056.82
752.975	9000.1
753.313	8932.31
753.651	9000.55
753.989	8977.28
754.327	8909.48
754.666	8865.87
755.004	8867.45
755.342	8916.26
755.679	8885.08
756.017	8785.64
756.355	8818.41
756.693	8836.49
757.031	8873.1
757.368	8754.01
757.706	8823.38
758.044	8720.11
758.381	8754.91
758.719	8683.27
759.056	8679.21
759.394	8636.95
759.731	8579.1
760.068	8556.5
760.405	8568.48
760.743	8536.84
761.08	8500.68
761.417	8475.82
761.754	8439.67
762.091	8457.52
762.428	8396.95
762.765	8389.27
763.102	8394.02
763.438	8282.61
763.775	8270.63
764.112	8291.87
764.449	8259.33
764.785	8257.97
765.122	8215.26
765.458	8135.04
765.795	8194.93
766.131	8159.22
766.467	8237.18
766.804	8104.08
767.14	8089.84
767.476	8075.83
767.812	8008.94
768.148	8055.49
768.485	7975.5
768.821	7999.22
769.157	7946.34
769.492	7913.58
769.828	7899.11
770.164	7815.05
770.5	7758.55
770.836	7775.5
771.171	7733.24
771.507	7808.04
771.842	7659.12
772.178	7661.15
772.513	7695.73
772.849	7661.15
773.184	7581.83
773.519	7616.86
773.855	7574.83
774.19	7551.33
774.525	7542.97
774.86	7492.12
775.195	7432.23
775.53	7458.22
775.865	7436.08
776.2	7348.62
776.535	7364.44
776.87	7324.89
777.205	7266.81
777.539	7235.18
777.874	7262.52
778.209	7173.71
778.543	7209.64
778.878	7112.24
779.212	7138.91
779.547	7096.88
779.881	7168.29
780.215	7020.95
780.55	7100.49
780.884	6987.95
781.218	7024.79
781.552	6984.79
781.886	6956.31
782.22	6879.71
782.554	6949.08
782.888	6848.29
783.222	6849.88
783.556	6777.11
783.889	6804
784.223	6775.75
784.557	6740.5
784.89	6722.42
785.224	6695.3
785.557	6690.78
785.891	6611.46
786.224	6640.39
786.558	6586.38
786.891	6607.4
787.224	6549.32
787.557	6563.78
787.891	6511.81
788.224	6536.21
788.557	6511.13
788.89	6477.91
789.223	6452.6
789.556	6425.48
789.888	6470.68
790.221	6392.94
790.554	6310.68
790.887	6386.39
791.219	6366.27
791.552	6351.81
791.884	6277.69
792.217	6278.82
792.549	6237.92
792.882	6154.75
793.214	6145.04
793.546	6158.14
793.879	6136.22
794.211	6114.53
794.543	6123.34
794.875	6114.08
795.207	6074.08
795.539	5981.2
795.871	6048.32
796.203	6021.88
796.535	6010.12
796.867	5973.74
797.198	5966.74
797.53	5974.87
797.862	5963.57
798.193	5952.5
798.525	5896.23
798.856	5894.42
799.188	5818.72
799.519	5842.67
799.85	5746.18
800.182	5780.53
800.513	5824.37
800.844	5742.79
801.175	5780.98
801.506	5735.56
801.837	5714.54
802.168	5682
802.499	5726.52
802.83	5625.73
803.161	5662.79
803.491	5645.16
803.822	5606.52
804.153	5611.49
804.483	5585.28
804.814	5560.42
805.145	5510.48
805.475	5514.09
805.805	5516.13
806.136	5512.51
806.466	5505.73
806.796	5524.94
807.126	5451.04
807.457	5457.14
807.787	5457.14
808.117	5425.51
808.447	5415.79
808.777	5444.49
809.107	5413.3
809.436	5340.31
809.766	5367.88
810.096	5356.36
810.426	5334.21
810.755	5343.48
811.085	5311.16
811.414	5330.14
811.744	5255.12
812.073	5273.42
812.403	5205.85
812.732	5228
813.061	5243.59
813.39	5209.47
813.719	5184.61
814.049	5226.64
814.378	5220.99
814.707	5166.08
815.036	5126.53
815.365	5128.11
815.693	5141.67
816.022	5126.98
816.351	5057.38
816.68	5023.94
817.008	5041.34
817.337	5080.88
817.665	4983.48
817.994	5019.87
818.322	5061.45
818.651	5038.85
818.979	4987.55
819.307	5072.97
819.636	5002.69
819.964	4958.85
820.292	4982.81
820.62	4997.27
820.948	4948.46
821.276	4953.66
821.604	4968.12
821.932	4938.97
822.259	4955.01
822.587	4934.22
822.915	4920.44
823.243	4933.09
823.57	4921.57
823.898	4948.23
824.225	4952.75
824.553	4910.04
824.88	4927.44
825.207	4945.97
825.535	4943.94
825.862	4916.59
826.189	4928.34
826.516	4945.97
826.843	4975.12
827.17	4952.3
827.497	4921.11
827.824	4988.68
828.151	4959.3
828.478	4971.73
828.805	4944.16
829.131	4922.7
829.458	4920.89
829.785	4863.94
830.111	4890.61
830.438	4951.4
830.764	4869.36
831.09	4907.55
831.417	4900.32
831.743	4884.05
832.069	4918.18
832.395	4901.91
832.722	4916.37
833.048	4883.37
833.374	4882.47
833.7	4859.65
834.026	4866.43
834.351	4874.34
834.677	4828.69
835.003	4891.96
835.329	4881.79
835.654	4860.78
835.98	4803.6
836.306	4807.44
836.631	4789.59
836.956	4849.7
837.282	4889.7
837.607	4788.69
837.932	4751.4
838.258	4810.83
838.583	4809.25
838.908	4727.22
839.233	4796.37
839.558	4779.65
839.883	4720.89
840.208	4770.84
840.533	4746.88
840.858	4742.14
841.182	4762.02
841.507	4715.24
841.832	4760.67
842.156	4723.6
842.481	4731.74
842.805	4707.56
843.13	4654.91
843.454	4684.28
843.778	4698.29
844.103	4673.66
844.427	4612.65
844.751	4607.22
845.075	4586.21
845.399	4616.49
845.723	4602.93
846.047	4597.51
846.371	4547.56
846.695	4531.97
847.019	4505.98
847.343	4472.31
847.666	4482.71
847.99	4434.12
848.313	4428.92
848.637	4398.42
848.96	4398.42
849.284	4414.69
849.607	4412.2
849.931	4372.43
850.254	4344.18
850.577	4347.34
850.9	4274.35
851.223	4287.91
851.546	4299.66
851.869	4283.84
852.192	4245.43
852.515	4259.44
852.838	4192.09
853.161	4243.84
853.483	4196.61
853.806	4170.17
854.129	4183.96
854.451	4157.29
854.774	4139.89
855.096	4104.19
855.419	4080.23
855.741	4070.51
856.063	4064.86
856.385	4106.22
856.708	4089.5
857.03	4026.22
857.352	4026
857.674	4030.74
857.996	4017.41
858.318	4011.76
858.64	3989.61
858.961	3986.22
859.283	3940.12
859.605	3983.51
859.926	3950.52
860.248	3968.82
860.57	3907.13
860.891	3961.14
861.212	3905.1
861.534	3940.57
861.855	3912.55
862.176	3904.64
862.498	3933.57
862.819	3869.39
863.14	3890.41
863.461	3882.04
863.782	3866.45
864.103	3901.93
864.424	3887.92
864.745	3891.76
865.065	3903.29
865.386	3845.44
865.707	3858.32
866.027	3840.24
866.348	3833.68
866.668	3845.44
866.989	3832.55
867.309	3800.69
867.63	3844.76
867.95	3811.99
868.27	3745.33
868.59	3818.54
868.91	3801.14
869.23	3781.03
869.55	3760.92
869.87	3717.08
870.19	3746
870.51	3757.08
870.83	3767.25
871.15	3726.57
871.469	3718.21
871.789	3657.19
872.109	3661.26
872.428	3667.59
872.748	3740.35
873.067	3719.34
873.386	3696.96
873.706	3665.1
874.025	3705.1
874.344	3646.8
874.663	3662.39
874.982	3681.82
875.301	3687.7
875.62	3648.6
875.939	3671.2
876.258	3627.36
876.577	3641.15
876.896	3676.63
877.214	3649.73
877.533	3608.15
877.852	3607.02
878.17	3616.06
878.489	3589.85
878.807	3652.9
879.125	3589.17
879.444	3610.19
879.762	3593.01
880.08	3637.98
880.398	3581.71
880.716	3600.02
881.034	3533.58
881.352	3549.17
881.67	3556.4
881.988	3539
882.306	3539.45
882.624	3532.22
882.941	3483.41
883.259	3519.12
883.577	3474.82
883.894	3508.95
884.212	3478.89
884.529	3489.96
884.846	3497.2
885.164	3504.2
885.481	3540.36
885.798	3456.29
886.115	3437.76
886.432	3452.9
886.75	3441.83
887.067	3426.69
887.383	3422.17
887.7	3412
888.017	3380.59
888.334	3390.08
888.651	3388.05
888.967	3373.36
889.284	3397.54
889.6	3356.41
889.917	3362.51
890.233	3354.38
890.55	3343.53
890.866	3364.09
891.182	3386.01
891.498	3313.92
891.815	3284.32
892.131	3302.4
892.447	3271.44
892.763	3244.32
893.079	3270.31
893.395	3286.81
893.71	3246.36
894.026	3199.12
894.342	3258.56
894.657	3213.36
894.973	3205.23
895.289	3178.56
895.604	3202.97
895.92	3183.53
896.235	3172.01
896.55	3191.67
896.865	3157.77
897.181	3188.73
897.496	3131.33
897.811	3157.09
898.126	3110.77
898.441	3142.18
898.756	3070.77
899.071	3064.67
899.386	3046.59
899.7	3078.9
900.015	3061.95
900.33	3053.37
900.644	3035.97
900.959	3039.58
901.273	3039.58
901.588	2988.28
901.902	2986.25
902.216	3044.78
902.531	2986.93
902.845	2999.58
903.159	3007.94
903.473	2949.87
903.787	2923.65
904.101	2900.6
904.415	2926.14
904.729	2929.75
905.042	2903.99
905.356	2900.15
905.67	2870.77
905.984	2892.47
906.297	2890.88
906.611	2866.7
906.924	2834.61
907.237	2853.15
907.551	2833.71
907.864	2804.56
908.177	2805.91
908.491	2810.89
908.804	2793.49
909.117	2788.74
909.43	2801.17
909.743	2781.06
910.056	2748.97
910.368	2750.55
910.681	2713.49
910.994	2707.39
911.307	2666.71
911.619	2709.65
911.932	2679.36
912.244	2686.14
912.557	2639.14
912.869	2665.81
913.181	2643.21
913.494	2643.89
913.806	2636.2
914.118	2602.08
914.43	2643.43
914.742	2589.88
915.054	2603.43
915.366	2597.11
915.678	2534.28
915.99	2528.18
916.302	2530.22
916.613	2501.29
916.925	2517.33
917.236	2517.79
917.548	2481.4
917.859	2495.64
918.171	2509.43
918.482	2474.17
918.794	2494.28
919.105	2469.88
919.416	2449.99
919.727	2442.76
920.038	2440.95
920.349	2411.8
920.66	2419.03
920.971	2403.89
921.282	2402.54
921.593	2409.99
921.903	2382.65
922.214	2362.54
922.525	2397.11
922.835	2402.76
923.146	2313.95
923.456	2355.08
923.767	2321.63
924.077	2339.49
924.387	2339.26
924.697	2314.4
925.008	2318.24
925.318	2280.05
925.628	2277.79
925.938	2286.15
926.248	2255.42
926.558	2255.19
926.867	2261.52
927.177	2245.48
927.487	2202.09
927.796	2205.03
928.106	2201.19
928.416	2173.84
928.725	2220.39
929.034	2184.46
929.344	2196.21
929.653	2159.15
929.962	2154.18
930.271	2139.94
930.581	2144.24
930.89	2153.73
931.199	2136.78
931.508	2122.77
931.817	2130.45
932.125	2139.04
932.434	2148.53
932.743	2098.36
933.051	2093.62
933.36	2083
933.669	2080.06
933.977	2078.93
934.286	2049.78
934.594	2063.11
934.902	2046.39
935.21	2043.45
935.519	2043.22
935.827	2002.09
936.135	1997.35
936.443	2009.1
936.751	2006.61
937.059	1961.64
937.367	2007.52
937.674	1972.26
937.982	1965.94
938.29	1954.86
938.597	1944.92
938.905	1936.11
939.213	1918.93
939.52	1901.31
939.827	1957.12
940.135	1955.09
940.442	1941.76
940.749	1894.3
941.056	1899.27
941.363	1893.4
941.67	1882.78
941.977	1869.67
942.284	1871.48
942.591	1849.78
942.898	1863.79
943.205	1844.58
943.511	1810.91
943.818	1816.34
944.125	1812.95
944.431	1831.7
944.738	1812.04
945.044	1803.91
945.35	1821.53
945.657	1804.59
945.963	1785.83
946.269	1743.8
946.575	1767.3
946.881	1765.72
947.187	1734.3
947.493	1770.69
947.799	1737.47
948.105	1743.12
948.41	1726.17
948.716	1700.86
949.022	1723.46
949.327	1692.05
949.633	1670.35
949.938	1746.06
950.244	1701.54
950.549	1662.22
950.854	1671.71
951.16	1657.24
951.465	1689.11
951.77	1661.31
952.075	1671.03
952.38	1651.59
952.685	1614.76
952.99	1656.79
953.294	1656.57
953.599	1627.64
953.904	1621.54
954.209	1585.61
954.513	1595.55
954.818	1620.86
955.122	1583.8
955.426	1577.7
955.731	1590.13
956.035	1542.67
956.339	1599.17
956.643	1565.04
956.948	1548.77
957.252	1551.03
957.556	1568.89
957.86	1525.27
958.163	1562.11
958.467	1546.51
958.771	1525.5
959.075	1528.89
959.378	1532.05
959.682	1518.72
959.985	1521.2
960.289	1492.05
960.592	1485.5
960.896	1483.24
961.199	1479.17
961.502	1468.55
961.805	1480.07
962.108	1458.61
962.411	1447.98
962.714	1454.76
963.017	1463.58
963.32	1412.96
963.623	1431.04
963.926	1445.5
964.228	1440.08
964.531	1430.81
964.833	1428.32
965.136	1452.73
965.438	1395.33
965.741	1398.49
966.043	1411.38
966.345	1396.01
966.648	1381.09
966.95	1406.18
967.252	1377.25
967.554	1367.08
967.856	1368.21
968.158	1346.52
968.46	1376.12
968.761	1349.68
969.063	1358.72
969.365	1339.96
969.666	1323.24
969.968	1315.78
970.269	1324.82
970.571	1296.12
970.872	1305.16
971.174	1300.42
971.475	1324.6
971.776	1306.97
972.077	1291.83
972.378	1303.36
972.679	1302.68
972.98	1302.23
973.281	1293.64
973.582	1271.04
973.883	1249.8
974.183	1279.4
974.484	1288.89
974.785	1272.62
975.085	1247.31
975.386	1245.05
975.686	1245.05
975.986	1234.66
976.287	1223.58
976.587	1236.46
976.887	1232.17
977.187	1253.19
977.487	1234.88
977.787	1220.65
978.087	1211.61
978.387	1202.57
978.687	1214.32
978.987	1182.68
979.286	1203.25
979.586	1205.73
979.885	1191.95
980.185	1190.82
980.484	1164.6
980.784	1173.87
981.083	1150.82
981.382	1160.76
981.682	1179.97
981.981	1149.69
982.28	1137.94
982.579	1142.46
982.878	1144.04
983.177	1150.14
983.475	1151.27
983.774	1145.39
984.073	1102
984.372	1110.14
984.67	1125.28
984.969	1116.92
985.267	1125.73
985.566	1130.25
985.864	1129.12
986.162	1093.19
986.461	1084.38
986.759	1092.06
987.057	1087.77
987.355	1088.67
987.653	1084.83
987.951	1051.84
988.249	1073.08
988.547	1045.96
988.844	1062.68
989.142	1057.03
989.44	1080.76
989.737	1036.7
990.035	1044.61
990.332	1065.17
990.63	1050.93
990.927	1036.24
991.224	1034.66
991.521	1029.92
991.819	1022.46
992.116	1040.31
992.413	996.47
992.71	1000.54
993.006	1011.16
993.303	1015.91
993.6	1000.54
993.897	1016.13
994.193	1007.32
994.49	987.66
994.787	992.18
995.083	986.53
995.379	999.63
995.676	972.29
995.972	980.2
996.268	960.09
996.565	961.44
996.861	951.05
997.157	959.64
997.453	961.9
997.749	948.34
998.044	937.94
998.34	956.47
998.636	936.59
998.932	953.53
999.227	955.12
999.523	946.98
999.818	952.63
1000.114	921.44
1000.409	910.6
1000.704	939.07
1001	918.51
1001.295	904.72
1001.59	880.77
1001.885	929.35
1002.18	889.36
1002.475	913.31
1002.77	894.55
1003.065	885.29
1003.359	861.56
1003.654	865.85
1003.949	876.7
1004.243	863.59
1004.538	875.34
1004.832	873.54
1005.127	858.62
1005.421	861.56
1005.715	849.58
1006.009	854.1
1006.304	831.05
1006.598	843.03
1006.892	837.15
1007.186	844.16
1007.48	874.21
1007.773	835.12
1008.067	794.89
1008.361	823.37
1008.655	823.37
1008.948	826.53
1009.242	808.45
1009.535	815.23
1009.829	802.8
1010.122	812.75
1010.415	773.65
1010.708	815.46
1011.001	789.92
1011.295	785.86
1011.588	801.67
1011.881	771.62
1012.173	799.87
1012.466	790.37
1012.759	753.99
1013.052	762.13
1013.344	774.78
1013.637	786.31
1013.93	765.97
1014.222	753.99
1014.514	766.42
1014.807	760.32
1015.099	746.99
1015.391	755.57
1015.683	745.63
1015.976	737.49
1016.268	738.62
1016.56	723.26
1016.851	730.26
1017.143	732.98
1017.435	698.4
1017.727	732.07
1018.018	728.68
1018.31	719.19
1018.602	713.54
1018.893	695.46
1019.185	712.18
1019.476	718.29
1019.767	692.07
1020.058	688.46
1020.35	698.4
1020.641	704.5
1020.932	702.24
1021.223	703.82
1021.514	674.45
1021.804	695.46
1022.095	672.64
1022.386	671.96
1022.677	673.99
1022.967	658.17
1023.258	650.27
1023.548	649.14
1023.839	643.49
1024.129	649.81
1024.419	629.7
1024.709	653.88
1025	661.11
1025.29	636.03
1025.58	629.25
1025.87	631.96
1026.16	638.74
1026.449	631.06
1026.739	634.9
1027.029	612.53
1027.319	617.95
1027.608	602.81
1027.898	603.03
1028.187	619.98
1028.477	588.8
1028.766	593.54
1029.055	598.52
1029.344	610.49
1029.634	597.39
1029.923	621.79
1030.212	585.86
1030.501	625.86
1030.79	602.36
1031.078	613.66
1031.367	604.62
1031.656	589.25
1031.945	603.03
1032.233	614.79
1032.522	561.23
1032.81	580.66
1033.099	575.47
1033.387	565.3
1033.675	586.54
1033.963	557.16
1034.251	557.16
1034.54	549.25
1034.828	569.82
1035.116	572.08
1035.403	573.21
1035.691	547.22
1035.979	536.6
1036.267	545.64
1036.554	546.09
1036.842	542.25
1037.129	554.45
1037.417	533.43
1037.704	538.18
1037.992	526.43
1038.279	515.35
1038.566	531.17
1038.853	531.17
1039.14	531.17
