Data from black_plastic_tray_FLMS001491_052.txt Node
Date: Tue Feb 07 10:40:09 GMT 2017
User: dcchb
Spectrometer: FLMS00149
Trigger mode: 0
Integration Time (sec): 2.000000E-2
Scans to average: 10
Electric dark correction enabled: true
Nonlinearity correction enabled: false
Boxcar width: 0
XAxis mode: Wavelengths
Number of Pixels in Spectrum: 2048
>>>>>Begin Spectral Data<<<<<
341.393	-19.25
341.776	-19.25
342.16	-19.25
342.543	-63.09
342.927	-78.68
343.31	-78.68
343.693	-79.81
344.077	-49.76
344.46	-58.57
344.843	-49.08
345.226	-50.66
345.61	-48.85
345.993	-14.51
346.376	-0.27
346.759	26.62
347.142	6.29
347.525	46.96
347.908	60.3
348.291	79.73
348.674	105.04
349.057	105.27
349.44	114.98
349.823	140.29
350.206	161.76
350.588	189.56
350.971	204.47
351.354	198.14
351.737	230.91
352.119	238.82
352.502	238.37
352.884	253.96
353.267	250.12
353.65	253.28
354.032	291.48
354.414	298.25
354.797	287.41
355.179	308.42
355.562	292.61
355.944	312.72
356.326	322.21
356.709	339.38
357.091	341.19
357.473	325.37
357.855	323.79
358.238	329.21
358.62	306.62
359.002	331.02
359.384	325.6
359.766	331.7
360.148	335.32
360.53	338.71
360.912	339.61
361.294	316.56
361.676	313.4
362.057	317.92
362.439	324.24
362.821	329.44
363.203	297.8
363.584	326.73
363.966	324.02
364.348	320.18
364.729	302.32
365.111	302.77
365.493	312.49
365.874	321.53
366.256	304.58
366.637	299.61
367.019	303.23
367.4	311.59
367.781	295.32
368.163	323.56
368.544	294.19
368.925	307.52
369.306	330.8
369.688	299.61
370.069	315.66
370.45	303.45
370.831	324.69
371.212	299.61
371.593	319.5
371.974	307.29
372.355	310.23
372.736	323.11
373.117	304.36
373.498	318.37
373.879	301.64
374.26	306.39
374.641	320.63
375.021	315.43
375.402	307.75
375.783	307.29
376.163	323.11
376.544	317.01
376.925	325.82
377.305	328.76
377.686	344.58
378.066	342.32
378.447	327.86
378.827	333.51
379.208	340.74
379.588	337.58
379.968	344.36
380.349	351.59
380.729	336.22
381.109	349.1
381.489	354.3
381.87	350.91
382.25	319.5
382.63	337.58
383.01	339.16
383.39	336.67
383.77	365.37
384.15	361.98
384.53	340.51
384.91	353.39
385.29	353.17
385.67	364.69
386.049	356.78
386.429	355.65
386.809	355.43
387.189	392.26
387.568	372.38
387.948	358.37
388.328	384.35
388.707	366.73
389.087	365.37
389.466	381.42
389.846	400.63
390.225	392.26
390.605	393.62
390.984	385.71
391.363	379.83
391.743	383.45
392.122	409.89
392.501	411.7
392.881	402.21
393.26	430.68
393.639	400.4
394.018	399.5
394.397	405.82
394.776	422.09
395.155	431.13
395.534	407.63
395.913	425.48
396.292	411.25
396.671	430.68
397.05	432.49
397.429	448.31
397.808	424.81
398.186	429.1
398.565	436.1
398.944	450.79
399.323	424.58
399.701	429.32
400.08	443.79
400.458	438.36
400.837	441.08
401.215	443.34
401.594	465.71
401.972	470.23
402.351	459.83
402.729	461.64
403.107	477.91
403.486	458.02
403.864	461.19
404.242	484.92
404.62	479.72
404.999	493.28
405.377	483.11
405.755	480.62
406.133	474.3
406.511	486.27
406.889	495.54
407.267	484.46
407.645	498.25
408.023	524.46
408.401	521.53
408.779	535.08
409.156	517.68
409.534	528.53
409.912	526.05
410.29	559.49
410.667	544.58
411.045	556.1
411.422	547.97
411.8	552.94
412.178	557.91
412.555	558.14
412.933	569.66
413.31	561.98
413.687	581.41
414.065	591.81
414.442	585.93
414.819	572.37
415.197	610.79
415.574	587.51
415.951	611.47
416.328	598.59
416.705	616.66
417.082	620.51
417.46	600.39
417.837	621.41
418.214	602.65
418.591	622.31
418.967	635.42
419.344	642.2
419.721	654.4
420.098	644.46
420.475	650.56
420.852	662.09
421.228	673.61
421.605	665.02
421.982	667.06
422.358	662.77
422.735	689.88
423.111	703.44
423.488	683.1
423.864	701.86
424.241	709.09
424.617	692.14
424.994	741.63
425.37	735.98
425.746	743.21
426.123	733.95
426.499	732.14
426.875	772.82
427.251	764.46
427.627	761.52
428.003	792.93
428.379	778.02
428.756	774.63
429.132	802.87
429.507	807.17
429.883	824.12
430.259	815.08
430.635	833.16
431.011	824.57
431.387	845.59
431.763	859.82
432.138	893.04
432.514	875.41
432.89	854.85
433.265	907.28
433.641	899.82
434.016	908.63
434.392	909.09
434.767	940.95
435.143	920.16
435.518	931.01
435.894	956.54
436.269	982.08
436.644	977.33
437.02	997.22
437.395	983.21
437.77	992.47
438.145	991.57
438.52	1008.97
438.895	1025.02
439.271	1017.56
439.646	1036.31
440.021	1023.43
440.395	1050.33
440.77	1060.04
441.145	1057.78
441.52	1046.26
441.895	1093.04
442.27	1077.67
442.645	1096.65
443.019	1111.57
443.394	1092.36
443.769	1107.73
444.143	1114.5
444.518	1090.32
444.892	1118.57
445.267	1143.66
445.641	1130.32
446.016	1127.16
446.39	1140.27
446.764	1153.15
447.139	1124.67
447.513	1171.45
447.887	1158.8
448.262	1192.24
448.636	1192.24
449.01	1174.62
449.384	1208.29
449.758	1209.19
450.132	1211.45
450.506	1220.94
450.88	1246.03
451.254	1258.46
451.628	1241.96
452.002	1242.41
452.376	1275.86
452.75	1284.44
453.123	1280.6
453.497	1305.69
453.871	1336.42
454.244	1342.52
454.618	1371.22
454.992	1375.29
455.365	1373.93
455.739	1425.68
456.112	1397.89
456.486	1449.41
456.859	1460.03
457.232	1471.33
457.606	1457.55
457.979	1509.07
458.352	1521.27
458.725	1526.92
459.099	1534.83
459.472	1564.89
459.845	1573.25
460.218	1590.2
460.591	1627.94
460.964	1622.74
461.337	1628.84
461.71	1695.05
462.083	1687.82
462.456	1694.15
462.829	1682.85
463.201	1704.09
463.574	1735.05
463.947	1760.82
464.32	1799.91
464.692	1835.62
465.065	1796.75
465.438	1826.8
465.81	1876.29
466.183	1868.38
466.555	1870.19
466.928	1895.05
467.3	1921.49
467.672	1937.99
468.045	1998.55
468.417	2025.67
468.789	2043.29
469.161	2019.34
469.534	2074.48
469.906	2099.34
470.278	2122.16
470.65	2147.25
471.022	2203.06
471.394	2202.61
471.766	2220.46
472.138	2259.33
472.51	2313.8
472.882	2320.35
473.253	2365.55
473.625	2412.55
473.997	2476.5
474.369	2462.72
474.74	2488.71
475.112	2514.24
475.484	2547.24
475.855	2606.67
476.227	2601.25
476.598	2693.22
476.97	2676.27
477.341	2762.14
477.713	2800.11
478.084	2831.3
478.455	2896.15
478.827	2914.01
479.198	2997.39
479.569	2993.55
479.94	3087.11
480.311	3063.83
480.682	3139.99
481.053	3207.78
481.424	3281
481.795	3307.89
482.166	3371.62
482.537	3373.65
482.908	3468.79
483.279	3508.57
483.65	3550.37
484.021	3600.99
484.391	3640.99
484.762	3683.25
485.133	3728
485.503	3760.99
485.874	3863.81
486.244	3871.72
486.615	3930.7
486.985	3985.16
487.356	4065.84
487.726	4057.25
488.097	4152.84
488.467	4199.4
488.837	4262.67
489.207	4295.21
489.578	4352.39
489.948	4421.99
490.318	4448.2
490.688	4470.12
491.058	4543.34
491.428	4590.8
491.798	4614.3
492.168	4763.22
492.538	4712.83
492.908	4792.83
493.278	4841.19
493.648	4927.29
494.017	4873.5
494.387	4895.87
494.757	4994.63
495.126	5098.58
495.496	5081.41
495.866	5101.07
496.235	5209.09
496.605	5221.52
496.974	5247.73
497.344	5309.87
497.713	5354.39
498.082	5387.84
498.452	5380.16
498.821	5459.25
499.19	5509.87
499.559	5504.9
499.928	5562.52
500.298	5625.57
500.667	5666.02
501.036	5644.78
501.405	5708.73
501.774	5718.68
502.143	5748.51
502.512	5824.21
502.88	5904.66
503.249	5901.05
503.618	5942.85
503.987	5955.96
504.356	5993.47
504.724	6002.29
505.093	6035.96
505.462	6060.59
505.83	6126.12
506.199	6178.55
506.567	6238.44
506.936	6262.62
507.304	6362.95
507.672	6345.33
508.041	6376.29
508.409	6444.31
508.777	6494.25
509.145	6557.3
509.514	6571.31
509.882	6595.04
510.25	6656.05
510.618	6653.79
510.986	6715.26
511.354	6811.08
511.722	6900.12
512.09	6960.23
512.458	6945.76
512.826	6954.8
513.193	6986.67
513.561	7037.06
513.929	7124.52
514.297	7140.11
514.664	7201.58
515.032	7228.02
515.4	7346.43
515.767	7357.96
516.135	7403.6
516.502	7328.8
516.869	7546.43
517.237	7576.26
517.604	7548.01
517.972	7682.24
518.339	7668.46
518.706	7741.22
519.073	7741.9
519.44	7771.73
519.808	7895.57
520.175	7934.89
520.542	8043.36
520.909	8127.43
521.276	8067.54
521.643	8109.35
522.009	8259.18
522.376	8319.29
522.743	8355.22
523.11	8360.64
523.477	8422.79
523.843	8489
524.21	8616.23
524.577	8647.64
524.943	8709.11
525.31	8730.8
525.676	8962.66
526.043	8855.77
526.409	9019.61
526.776	9090.79
527.142	9063.45
527.508	9141.86
527.874	9198.81
528.241	9290.33
528.607	9305.7
528.973	9382.54
529.339	9451.46
529.705	9483.78
530.071	9566.71
530.437	9607.61
530.803	9646.48
531.169	9712.7
531.535	9724.67
531.901	9767.61
532.267	9795.86
532.632	9864.56
532.998	9908.17
533.364	9959.02
533.73	10033.37
534.095	10141.16
534.461	10065.91
534.826	10163.76
535.192	10185
535.557	10278.56
535.923	10280.59
536.288	10292.34
536.653	10382.51
537.019	10351.78
537.384	10420.47
537.749	10487.59
538.114	10505.44
538.479	10618.44
538.845	10630.41
539.21	10634.48
539.575	10708.6
539.94	10664.76
540.305	10677.42
540.67	10749.51
541.034	10822.95
541.399	10773.69
541.764	10904.53
542.129	10933.91
542.494	10988.14
542.858	10915.38
543.223	10976.17
543.587	11033.34
543.952	10995.83
544.316	11080.8
544.681	11128.48
545.045	11184.3
545.41	11237.18
545.774	11238.98
546.138	11302.49
546.503	11347.68
546.867	11376.61
547.231	11481.69
547.595	11448.7
547.959	11532.99
548.324	11490.95
548.688	11548.58
549.052	11647.33
549.416	11651.4
549.779	11622.02
550.143	11702.25
550.507	11727.56
550.871	11849.36
551.235	11779.99
551.599	11862.47
551.962	12023.82
552.326	12028.12
552.689	12049.81
553.053	12060.43
553.417	12089.36
553.78	12227.43
554.143	12233.31
554.507	12276.25
554.87	12389.24
555.234	12441.21
555.597	12405.96
555.96	12454.09
556.323	12409.57
556.686	12479.4
557.05	12571.6
557.413	12682.34
557.776	12654.99
558.139	12766.18
558.502	12730.92
558.865	12847.3
559.228	12958.03
559.59	12946.06
559.953	12998.26
560.316	13120.29
560.679	13056.79
561.041	13193.06
561.404	13224.47
561.767	13273.05
562.129	13290
562.492	13375.88
562.854	13505.37
563.217	13475.99
563.579	13593.95
563.941	13657
564.304	13653.16
564.666	13826.94
565.028	13730.9
565.39	13849.54
565.753	13895.19
566.115	13906.94
566.477	14020.83
566.839	13997.33
567.201	14048.4
567.563	14147.61
567.925	14183.77
568.287	14185.12
568.648	14223.09
569.01	14321.16
569.372	14386.92
569.734	14438.45
570.095	14526.13
570.457	14625.34
570.819	14686.8
571.18	14616.97
571.542	14789.63
571.903	14672.11
572.265	14778.55
572.626	14787.37
572.987	14824.43
573.349	14805.9
573.71	14933.58
574.071	14973.58
574.432	14959.34
574.794	15063.29
575.155	15161.37
575.516	15116.85
575.877	15106.91
576.238	15171.54
576.599	15188.03
576.96	15223.29
577.32	15248.37
577.681	15375.37
578.042	15406.56
578.403	15309.39
578.763	15386.22
579.124	15442.49
579.485	15477.06
579.845	15435.03
580.206	15470.29
580.566	15513.9
580.927	15367.92
581.287	15458.53
581.648	15422.38
582.008	15590.28
582.368	15542.6
582.728	15546.44
583.089	15538.98
583.449	15477.97
583.809	15611.3
584.169	15623.95
584.529	15492.88
584.889	15622.15
585.249	15596.16
585.609	15468.03
585.969	15533.11
586.329	15545.54
586.688	15631.86
587.048	15615.37
587.408	15652.65
587.768	15612.43
588.127	15621.69
588.487	15585.08
588.846	15668.7
589.206	15497.18
589.565	15493.79
589.925	15627.8
590.284	15600.68
590.643	15585.08
591.003	15659.66
591.362	15727.23
591.721	15643.39
592.08	15675.25
592.44	15669.38
592.799	15714.12
593.158	15601.81
593.517	15746.21
593.876	15818.98
594.235	15763.38
594.593	15709.38
594.952	15756.15
595.311	15658.98
595.67	15759.32
596.029	15795.02
596.387	15794.34
596.746	15821.46
597.104	15800.22
597.463	15656.72
597.822	15753.22
598.18	15645.42
598.538	15611.98
598.897	15920.89
599.255	15683.39
599.613	15890.39
599.972	15802.93
600.33	15894
600.688	15871.63
601.046	15958.86
601.404	15969.48
601.762	15809.03
602.12	16025.3
602.478	16016.26
602.836	16100.55
603.194	15919.77
603.552	15953.44
603.91	15932.87
604.268	16021.23
604.625	15981.01
604.983	15952.08
605.341	15917.73
605.698	16003.38
606.056	16077.28
606.413	15983.94
606.771	16076.6
607.128	16030.95
607.485	16008.35
607.843	16029.14
608.2	16166.99
608.557	16181.68
608.914	16146.2
609.272	16218.51
609.629	16173.09
609.986	16210.38
610.343	16037.05
610.7	16247.89
611.057	16324.95
611.414	16227.1
611.771	16352.3
612.127	16330.38
612.484	16386.65
612.841	16374.22
613.198	16314.78
613.554	16382.35
613.911	16463.48
614.267	16422.12
614.624	16433.65
614.98	16362.01
615.337	16568.79
615.693	16389.36
616.05	16373.09
616.406	16578.96
616.762	16547.09
617.118	16501.44
617.475	16524.04
617.831	16670.93
618.187	16535.57
618.543	16667.99
618.899	16743.02
619.255	16653.98
619.611	16745.96
619.967	16679.97
620.323	16759.06
620.678	16692.4
621.034	16625.51
621.39	16727.65
621.746	16608.33
622.101	16751.16
622.457	16650.37
622.812	16870.02
623.168	16763.81
623.523	16744.6
623.879	16823.02
624.234	16597.94
624.589	16710.25
624.945	16704.38
625.3	16729.91
625.655	16801.1
626.01	16737.14
626.365	16696.02
626.72	16772.4
627.075	16764.49
627.43	16734.88
627.785	16716.35
628.14	16740.76
628.495	16772.85
628.85	16818.05
629.205	16672.97
629.559	16859.4
629.914	16642.91
630.269	16670.48
630.623	16640.65
630.978	16534.44
631.332	16631.84
631.687	16686.75
632.041	16728.33
632.396	16734.66
632.75	16640.42
633.104	16598.17
633.459	16536.25
633.813	16432.52
634.167	16451.73
634.521	16450.6
634.875	16461.45
635.229	16396.59
635.583	16336.48
635.937	16305.97
636.291	16350.94
636.645	16269.13
636.999	16161.11
637.352	16266.65
637.706	16166.31
638.06	16258.06
638.413	16193.2
638.767	16161.11
639.121	16116.6
639.474	16108.69
639.828	16095.58
640.181	16169.93
640.534	16090.38
640.888	16011.51
641.241	15932.42
641.594	16037.73
641.947	16111.4
642.301	15919.99
642.654	15965.41
643.007	15906.66
643.36	15927.22
643.713	15859.2
644.066	15877.73
644.419	15805.87
644.771	15656.04
645.124	15603.62
645.477	15637.96
645.83	15404.3
646.182	15316.62
646.535	15271.87
646.888	15395.49
647.24	15287.92
647.593	15315.94
647.945	15343.51
648.298	15232.55
648.65	15141.03
649.002	15198.65
649.355	15135.83
649.707	15187.58
650.059	15164.3
650.411	15427.12
650.763	15406.33
651.115	15584.86
651.467	15562.26
651.819	15493.11
652.171	15445.88
652.523	15411.98
652.875	15440
653.227	15346.45
653.578	15476.39
653.93	15441.13
654.282	15395.49
654.633	15344.64
654.985	15352.32
655.337	15385.77
655.688	15281.59
656.039	15330.18
656.391	15275.26
656.742	15286.79
657.094	15289.73
657.445	15383.73
657.796	15217.41
658.147	15342.83
658.498	15328.59
658.849	15295.37
659.2	15232.33
659.551	15292.44
659.902	15290.4
660.253	15285.88
660.604	15232.1
660.955	15160.01
661.306	15146.23
661.656	15112.78
662.007	15154.81
662.358	15009.73
662.708	15104.65
663.059	15139.9
663.409	14957.76
663.76	15145.55
664.11	15110.52
664.461	15242.49
664.811	15104.65
665.161	15164.98
665.511	15012.9
665.862	15050.41
666.212	15076.85
666.562	15059.9
666.912	15054.48
667.262	15051.54
667.612	14975.61
667.962	14934.71
668.312	14969.51
668.662	14978.55
669.011	14913.24
669.361	14994.14
669.711	14905.78
670.06	14904.2
670.41	14880.24
670.76	14887.48
671.109	14941.26
671.459	14899
671.808	14920.02
672.157	14873.01
672.507	14786.91
672.856	14743.98
673.205	14738.78
673.554	14911.43
673.904	14840.02
674.253	14856.74
674.602	14800.7
674.951	14571.55
675.3	14470.99
675.649	14717.08
675.998	14721.38
676.346	14796.4
676.695	14756.63
677.044	14685.22
677.393	14702.17
677.741	14690.87
678.09	14605
678.438	14640.02
678.787	14532.23
679.135	14532
679.484	14449.07
679.832	14587.37
680.181	14524.55
680.529	14559.57
680.877	14491.1
681.225	14444.78
681.573	14559.12
681.922	14389.41
682.27	14412.01
682.618	14336.08
682.966	14331.78
683.314	14458.11
683.661	14332.24
684.009	14247.94
684.357	14305.12
684.705	14241.62
685.053	14285.23
685.4	14339.02
685.748	14222.86
686.095	14101.73
686.443	14092.02
686.79	14065.12
687.138	14015.41
687.485	14000.72
687.832	14018.12
688.18	14071
688.527	13949.65
688.874	13926.37
689.221	13903.09
689.568	13858.35
689.915	13874.85
690.262	13820.16
690.609	13707.17
690.956	13741.74
691.303	13692.7
691.65	13600.96
691.997	13567.96
692.344	13525.03
692.69	13538.13
693.037	13467.4
693.383	13468.08
693.73	13438.02
694.077	13446.38
694.423	13438.47
694.769	13385.14
695.116	13358.02
695.462	13367.52
695.808	13247.29
696.155	13259.95
696.501	13163.68
696.847	13228.08
697.193	13077.81
697.539	13155.09
697.885	13077.58
698.231	12974.53
698.577	12943.35
698.923	12936.34
699.269	12831.48
699.614	12810.02
699.96	12817.93
700.306	12791.26
700.651	12701.54
700.997	12694.54
701.342	12725.5
701.688	12657.7
702.033	12614.32
702.379	12696.35
702.724	12654.54
703.069	12652.05
703.415	12490.25
703.76	12494.77
704.105	12572.51
704.45	12508.56
704.795	12454.09
705.14	12440.53
705.485	12363.7
705.83	12301.1
706.175	12284.83
706.52	12236.92
706.865	12222.91
707.209	12266.08
707.554	12183.37
707.899	12195.57
708.243	12115.57
708.588	12168
708.932	12089.58
709.277	12117.83
709.621	12113.09
709.966	11977.95
710.31	11965.52
710.654	11871.28
710.998	11904.05
711.342	11840.55
711.687	11859.76
712.031	11814.34
712.375	11744.96
712.719	11697.05
713.063	11651.63
713.407	11687.79
713.75	11568.47
714.094	11701.8
714.438	11662.7
714.782	11631.74
715.125	11533.67
715.469	11638.97
715.812	11519.43
716.156	11453.44
716.499	11459.54
716.843	11478.3
717.186	11374.12
717.53	11403.27
717.873	11443.95
718.216	11477.4
718.559	11425.65
718.902	11367.79
719.246	11325.76
719.589	11287.34
719.932	11259.77
720.275	11239.21
720.617	11236.5
720.96	11227.69
721.303	11184.75
721.646	11170.06
721.989	11084.86
722.331	11177.74
722.674	11101.36
723.016	11052.32
723.359	11180.23
723.701	11118.76
724.044	11034.47
724.386	11007.35
724.729	11011.19
725.071	10960.12
725.413	10974.81
725.755	10965.55
726.097	10862.04
726.439	10932.55
726.782	10735.95
727.124	10847.36
727.465	10846.45
727.807	10803.29
728.149	10802.39
728.491	10800.8
728.833	10779.34
729.175	10693.24
729.516	10758.77
729.858	10700.69
730.199	10739.34
730.541	10771.88
730.882	10736.85
731.224	10765.32
731.565	10603.97
731.906	10664.54
732.248	10609.62
732.589	10542.51
732.93	10499.34
733.271	10569.4
733.612	10508.38
733.953	10633.35
734.294	10552.22
734.635	10471.55
734.976	10582.28
735.317	10503.86
735.658	10467.93
735.999	10390.42
736.339	10389.97
736.68	10327.82
737.021	10368.72
737.361	10292.34
737.702	10416.18
738.042	10313.58
738.383	10314.94
738.723	10330.08
739.063	10301.61
739.404	10316.75
739.744	10263.64
740.084	10220.48
740.424	10250.99
740.764	10146.36
741.104	10255.06
741.444	10205.79
741.784	10107.49
742.124	10092.35
742.464	10129.63
742.804	10108.39
743.143	10050.54
743.483	10121.73
743.823	9993.14
744.162	10135.51
744.502	10041.5
744.841	10076.3
745.181	10071.11
745.52	10087.15
745.86	10061.39
746.199	9997.43
746.538	10014.16
746.877	9946.14
747.216	9816.87
747.556	9822.52
747.895	9904.33
748.234	9873.14
748.573	9906.59
748.911	9797.44
749.25	9817.78
749.589	9803.77
749.928	9821.17
750.267	9772.58
750.605	9738.01
750.944	9733.49
751.283	9670.89
751.621	9765.35
751.96	9656.2
752.298	9694.39
752.636	9663.88
752.975	9607.16
753.313	9577.78
753.651	9611.68
753.989	9559.03
754.327	9565.58
754.666	9459.14
755.004	9464.34
755.342	9474.51
755.679	9418.92
756.017	9407.39
756.355	9412.14
756.693	9341.18
757.031	9418.92
757.368	9314.97
757.706	9361.29
758.044	9219.15
758.381	9325.59
758.719	9318.81
759.056	9258.02
759.394	9267.74
759.731	9168.76
760.068	9156.78
760.405	9033.39
760.743	9050.34
761.08	9062.77
761.417	9031.58
761.754	9021.87
762.091	8999.5
762.428	8933.06
762.765	8933.51
763.102	9027.74
763.438	8871.81
763.775	8839.27
764.112	8869.55
764.449	8863.91
764.785	8813.51
765.122	8760.86
765.458	8728.99
765.795	8731.93
766.131	8663.91
766.467	8656.68
766.804	8536.91
767.14	8602.44
767.476	8555.44
767.812	8499.17
768.148	8472.73
768.485	8494.88
768.821	8441.09
769.157	8464.59
769.492	8388.21
769.828	8383.69
770.164	8311.15
770.5	8382.11
770.836	8332.39
771.171	8303.02
771.507	8228.67
771.842	8186.86
772.178	8191.15
772.513	8157.03
772.849	8142.57
773.184	8066.64
773.519	8098.73
773.855	8011.27
774.19	7968.56
774.525	8005.4
774.86	7946.64
775.195	7952.29
775.53	7933.99
775.865	7894.67
776.2	7831.62
776.535	7806.53
776.87	7813.31
777.205	7842.69
777.539	7750.71
777.874	7793.65
778.209	7705.07
778.543	7671.85
778.878	7670.72
779.212	7696.25
779.547	7628.23
779.881	7557.27
780.215	7418.75
780.55	7455.58
780.884	7408.35
781.218	7398.18
781.552	7402.93
781.886	7429.82
782.22	7309.82
782.554	7257.85
782.888	7173.33
783.222	7210.39
783.556	7204.51
783.889	7169.26
784.223	7221.24
784.557	7138.75
784.89	7221.91
785.224	7092.2
785.557	7144.18
785.891	7104.4
786.224	7073.9
786.558	7059.21
786.891	7000.9
787.224	7016.95
787.557	7007.01
787.891	6915.71
788.224	6949.83
788.557	6948.48
788.89	6920
789.223	6892.43
789.556	6865.31
789.888	6841.13
790.221	6785.77
790.554	6807.24
790.887	6705.54
791.219	6686.56
791.552	6623.74
791.884	6607.69
792.217	6580.58
792.549	6623.06
792.882	6610.18
793.214	6551.88
793.546	6598.65
793.879	6533.8
794.211	6496.28
794.543	6563.63
794.875	6481.6
795.207	6530.41
795.539	6452.67
795.871	6473.46
796.203	6359.56
796.535	6384.65
796.867	6401.82
797.198	6311.66
797.53	6264.43
797.862	6243.86
798.193	6251.32
798.525	6207.7
798.856	6237.31
799.188	6161.15
799.519	6193.69
799.85	6148.04
800.182	6155.28
800.513	6113.7
800.844	6067.37
801.175	6106.24
801.506	6097.2
801.837	6119.57
802.168	6115.96
802.499	6072.11
802.83	6024.21
803.161	6034.83
803.491	6011.78
803.822	5935.17
804.153	5936.98
804.483	5895.62
804.814	5895.17
805.145	5814.49
805.475	5803.65
805.805	5834.38
806.136	5800.48
806.466	5892.68
806.796	5856.75
807.126	5825.34
807.457	5800.26
807.787	5754.16
808.117	5781.5
808.447	5737.66
808.777	5759.35
809.107	5719.13
809.436	5749.41
809.766	5690.2
810.096	5685.01
810.426	5626.02
810.755	5684.33
811.085	5595.52
811.414	5597.1
811.744	5579.7
812.073	5598.45
812.403	5596.42
812.732	5559.13
813.061	5532.92
813.39	5512.81
813.719	5495.63
814.049	5562.3
814.378	5475.29
814.707	5445.69
815.036	5449.98
815.365	5445.46
815.693	5404.11
816.022	5428.52
816.351	5437.78
816.68	5352.36
817.008	5376.77
817.337	5297.9
817.665	5331.57
817.994	5284.11
818.322	5319.82
818.651	5299.48
818.979	5281.63
819.307	5292.02
819.636	5270.33
819.964	5235.07
820.292	5313.49
820.62	5255.19
820.948	5258.12
821.276	5267.39
821.604	5191.46
821.932	5257.67
822.259	5243.21
822.587	5219.93
822.915	5258.35
823.243	5241.85
823.57	5231.23
823.898	5207.05
824.225	5174.06
824.553	5214.28
824.88	5216.32
825.207	5263.32
825.535	5279.82
825.862	5230.33
826.189	5299.25
826.516	5306.48
826.843	5310.55
827.17	5260.16
827.497	5259.48
827.824	5223.78
828.151	5276.88
828.478	5213.15
828.805	5257.9
829.131	5225.81
829.458	5235.98
829.785	5202.31
830.111	5208.86
830.438	5260.61
830.764	5228.52
831.09	5204.34
831.417	5164.34
831.743	5193.95
832.069	5193.04
832.395	5144.23
832.722	5144
833.048	5179.26
833.374	5155.53
833.7	5164.34
834.026	5172.25
834.351	5146.94
834.677	5172.03
835.003	5168.86
835.329	5125.02
835.654	5160.05
835.98	5176.32
836.306	5140.84
836.631	5169.54
836.956	5106.04
837.282	5091.35
837.607	5098.13
837.932	5030.11
838.258	5072.59
838.583	5064.01
838.908	5012.26
839.233	5045.93
839.558	5085.47
839.883	5042.54
840.208	5025.81
840.533	5088.86
840.858	5062.2
841.182	5069.65
841.507	5032.37
841.832	4956.44
842.156	4913.27
842.481	5032.59
842.805	4991.46
843.13	4972.03
843.454	4932.48
843.778	4933.84
844.103	4903.33
844.427	4892.03
844.751	4871.02
845.075	4888.19
845.399	4922.77
845.723	4863.56
846.047	4876.21
846.371	4844.8
846.695	4873.05
847.019	4842.54
847.343	4816.55
847.666	4776.78
847.99	4704.01
848.313	4730
848.637	4655.43
848.96	4686.61
849.284	4691.13
849.607	4627.63
849.931	4647.97
850.254	4609.78
850.577	4569.78
850.9	4570.68
851.223	4523.45
851.546	4517.8
851.869	4544.24
852.192	4581.53
852.515	4467.86
852.838	4433.74
853.161	4416.56
853.483	4416.56
853.806	4396.9
854.129	4382.67
854.451	4392.61
854.774	4373.4
855.096	4370.92
855.419	4324.82
855.741	4412.95
856.063	4320.75
856.385	4336.79
856.708	4315.78
857.03	4314.87
857.352	4273.52
857.674	4252.28
857.996	4214.31
858.318	4224.25
858.64	4231.48
858.961	4229.45
859.283	4244.37
859.605	4212.73
859.926	4258.38
860.248	4213.86
860.57	4158.49
860.891	4199.17
861.212	4143.35
861.534	4156.01
861.855	4144.26
862.176	4141.09
862.498	4165.05
862.819	4165.72
863.14	4117.14
863.461	4096.12
863.782	4107.65
864.103	4109
864.424	4059.29
864.745	4084.37
865.065	4095.22
865.386	4107.65
865.707	4095.44
866.027	4054.54
866.348	4032.85
866.668	4031.49
866.989	4056.57
867.309	4031.94
867.63	4031.26
867.95	4018.16
868.27	3997.82
868.59	3984.94
868.91	3976.8
869.23	3984.71
869.55	3971.15
869.87	3997.59
870.19	4003.69
870.51	4036.01
870.83	3969.57
871.15	3930.02
871.469	4022
871.789	3982.23
872.109	3941.55
872.428	3941.32
872.748	3949.68
873.067	3939.52
873.386	3956.92
873.706	3920.76
874.025	3928.89
874.344	3863.58
874.663	3804.15
874.982	3850.03
875.301	3846.18
875.62	3831.72
875.939	3829.91
876.258	3811.61
876.577	3830.37
876.896	3847.77
877.214	3796.69
877.533	3776.13
877.852	3780.42
878.17	3796.69
878.489	3803.02
878.807	3788.56
879.125	3816.81
879.444	3790.14
879.762	3756.02
880.08	3797.37
880.398	3800.99
880.716	3796.69
881.034	3739.52
881.352	3791.5
881.67	3750.14
881.988	3767.99
882.306	3735
882.624	3751.5
882.941	3713.76
883.259	3729.58
883.577	3714.89
883.894	3717.37
884.212	3747.88
884.529	3734.77
884.846	3700.43
885.164	3648.45
885.481	3696.58
885.798	3669.69
886.115	3623.82
886.432	3634.21
886.75	3565.74
887.067	3581.56
887.383	3546.76
887.7	3552.18
888.017	3529.58
888.334	3530.94
888.651	3516.93
888.967	3539.98
889.284	3545.4
889.6	3511.05
889.917	3530.03
890.233	3522.8
890.55	3520.99
890.866	3516.48
891.182	3484.61
891.498	3465.4
891.815	3508.57
892.131	3462.69
892.447	3488.68
892.763	3449.13
893.079	3446.19
893.395	3437.38
893.71	3407.55
894.026	3425.86
894.342	3432.64
894.657	3411.17
894.973	3346.08
895.289	3431.96
895.604	3405.29
895.92	3378.17
896.235	3318.51
896.55	3351.96
896.865	3316.71
897.181	3322.13
897.496	3303.15
897.811	3262.02
898.126	3245.97
898.441	3249.82
898.756	3253.66
899.071	3206.65
899.386	3250.49
899.7	3185.41
900.015	3245.07
900.33	3212.53
900.644	3220.89
900.959	3205.98
901.273	3193.55
901.588	3192.42
901.902	3186.31
902.216	3143.83
902.531	3207.78
902.845	3167.56
903.159	3134.56
903.473	3121.46
903.787	3146.32
904.101	3085.75
904.415	3085.3
904.729	3084.4
905.042	3049.37
905.356	3063.15
905.67	3028.13
905.984	3058.63
906.297	3006.43
906.611	3025.19
906.924	3011.18
907.237	2975.02
907.551	2999.65
907.864	2979.31
908.177	2994.46
908.491	2985.42
908.804	2940.45
909.117	2933.44
909.43	2940.67
909.743	2909.26
910.056	2872.65
910.368	2857.06
910.681	2853.89
910.994	2865.64
911.307	2880.56
911.619	2847.57
911.932	2850.96
912.244	2848.47
912.557	2855.93
912.869	2799.88
913.181	2799.43
913.494	2798.53
913.806	2761.69
914.118	2769.6
914.43	2752.43
914.742	2770.96
915.054	2763.95
915.366	2745.65
915.678	2735.93
915.99	2725.99
916.302	2699.77
916.613	2666.33
916.925	2699.55
917.236	2657.74
917.548	2669.72
917.859	2675.14
918.171	2654.58
918.482	2613.45
918.794	2624.07
919.105	2621.13
919.416	2589.27
919.727	2581.81
920.038	2585.65
920.349	2530.29
920.66	2550.85
920.971	2514.02
921.282	2556.95
921.593	2515.15
921.903	2535.48
922.214	2514.02
922.525	2513.34
922.835	2472.43
923.146	2458.65
923.456	2453.9
923.767	2462.27
924.077	2436.73
924.387	2424.75
924.697	2420.01
925.008	2417.75
925.318	2445.54
925.628	2397.86
925.938	2433.57
926.248	2427.92
926.558	2387.69
926.867	2386.34
927.177	2371.42
927.487	2378.65
927.796	2351.53
928.106	2354.92
928.416	2305.66
928.725	2298.65
929.034	2310.18
929.344	2300.24
929.653	2281.03
929.962	2296.39
930.271	2282.38
930.581	2269.28
930.89	2271.08
931.199	2205.55
931.508	2264.76
931.817	2244.19
932.125	2228.37
932.434	2184.98
932.743	2196.74
933.051	2211.2
933.36	2192.44
933.669	2142.73
933.977	2137.98
934.286	2199.9
934.594	2168.71
934.902	2168.04
935.21	2135.49
935.519	2120.35
935.827	2150.18
936.135	2133.91
936.443	2097.76
936.751	2093.91
937.059	2122.84
937.367	2077.42
937.674	2098.21
937.982	2090.98
938.29	2071.54
938.597	2051.88
938.905	2054.14
939.213	2038.32
939.52	2050.3
939.827	2030.86
940.135	2013.01
940.442	2040.58
940.749	2014.59
941.056	2022.5
941.363	1999.91
941.67	1942.96
941.977	1948.38
942.284	1915.16
942.591	1931.21
942.898	1940.25
943.205	1937.31
943.511	1947.48
943.818	1931.66
944.125	1889.4
944.431	1910.42
944.738	1893.69
945.044	1886.24
945.35	1894.6
945.657	1886.46
945.963	1871.09
946.269	1891.89
946.575	1890.98
946.881	1843.75
947.187	1857.99
947.493	1864.09
947.799	1851.43
948.105	1828.38
948.41	1817.31
948.716	1814.83
949.022	1849.85
949.327	1809.4
949.633	1795.84
949.938	1775.05
950.244	1743.87
950.549	1778.22
950.854	1789.97
951.16	1782.74
951.465	1774.6
951.77	1765.11
952.075	1755.62
952.38	1768.72
952.685	1754.94
952.99	1719.46
953.294	1731.21
953.599	1735.96
953.904	1718.56
954.209	1712
954.513	1723.08
954.818	1693.02
955.122	1681.27
955.426	1660.7
955.731	1666.81
956.035	1662.29
956.339	1634.94
956.643	1659.12
956.948	1656.64
957.252	1648.05
957.556	1656.64
957.86	1661.16
958.163	1637.65
958.467	1626.36
958.771	1636.75
959.075	1633.59
959.378	1589.52
959.682	1602.4
959.985	1593.81
960.289	1583.42
960.592	1598.33
960.896	1611.21
961.199	1566.02
961.502	1566.92
961.805	1564.44
962.108	1541.84
962.411	1545.91
962.714	1488.96
963.017	1497.09
963.32	1522.86
963.623	1492.35
963.926	1530.09
964.228	1514.04
964.531	1513.36
964.833	1525.12
965.136	1501.61
965.438	1498.9
965.741	1490.77
966.043	1476.08
966.345	1474.04
966.648	1437.43
966.95	1434.5
967.252	1448.28
967.554	1427.26
967.856	1403.31
968.158	1411.9
968.46	1440.82
968.761	1437.66
969.063	1431.78
969.365	1394.95
969.666	1416.19
969.968	1369.19
970.269	1411.45
970.571	1404.89
970.872	1406.02
971.174	1390.2
971.475	1386.81
971.776	1388.4
972.077	1380.49
972.378	1352.46
972.679	1382.07
972.98	1359.7
973.281	1332.58
973.582	1361.5
973.883	1288.74
974.183	1371.22
974.484	1336.19
974.785	1325.57
975.085	1310.43
975.386	1319.47
975.686	1327.61
975.986	1315.18
976.287	1292.58
976.587	1294.39
976.887	1299.81
977.187	1283.31
977.487	1287.16
977.787	1269.75
978.087	1272.01
978.387	1275.18
978.687	1268.17
978.987	1286.48
979.286	1241.73
979.586	1269.3
979.885	1225.46
980.185	1235.63
980.484	1250.77
980.784	1214.84
981.083	1267.95
981.382	1261.39
981.682	1212.58
981.981	1197.44
982.28	1206.71
982.579	1210.77
982.878	1213.94
983.177	1169.64
983.475	1182.53
983.774	1188.17
984.073	1185.24
984.372	1174.62
984.67	1175.29
984.969	1187.72
985.267	1167.84
985.566	1160.38
985.864	1185.69
986.162	1152.47
986.461	1147.27
986.759	1144.33
987.057	1130.55
987.355	1145.24
987.653	1128.97
987.951	1111.34
988.249	1114.73
988.547	1098.91
988.844	1130.55
989.142	1098.91
989.44	1091.91
989.737	1069.53
990.035	1096.88
990.332	1108.86
990.63	1108.18
990.927	1087.84
991.224	1069.31
991.521	1089.65
991.819	1067.73
992.116	1059.59
992.413	1087.39
992.71	1061.4
993.006	1037.9
993.303	1057.56
993.6	1059.82
993.897	1061.17
994.193	1041.51
994.49	1042.64
994.787	1032.7
995.083	1045.35
995.379	1043.09
995.676	1058.23
995.972	1003.32
996.268	1035.18
996.565	1039.48
996.861	992.02
997.157	1028.18
997.453	982.3
997.749	1003.77
998.044	970.55
998.34	993.83
998.636	1021.85
998.932	949.76
999.227	1016.65
999.523	991.34
999.818	952.47
1000.114	955.86
1000.409	950.89
1000.704	961.74
1001	953.83
1001.295	942.98
1001.59	951.8
1001.885	944.34
1002.18	944.57
1002.475	934.4
1002.77	936.43
1003.065	923.78
1003.359	915.41
1003.654	926.94
1003.949	932.81
1004.243	896.88
1004.538	904.79
1004.832	902.98
1005.127	885.13
1005.421	891.01
1005.715	874.51
1006.009	895.3
1006.304	881.06
1006.598	859.14
1006.892	865.02
1007.186	850.56
1007.48	858.69
1007.773	862.31
1008.067	847.62
1008.361	840.39
1008.655	844.23
1008.948	854.62
1009.242	835.64
1009.535	842.2
1009.829	851.69
1010.122	834.51
1010.415	805.59
1010.708	823.21
1011.001	823.21
1011.295	812.37
1011.588	814.17
1011.881	826.6
1012.173	805.59
1012.466	819.82
1012.759	796.55
1013.052	801.07
1013.344	814.63
1013.637	810.33
1013.93	770.78
1014.222	769.88
1014.514	769.65
1014.807	789.99
1015.099	763.1
1015.391	773.27
1015.683	759.26
1015.976	752.93
1016.268	750.67
1016.56	768.3
1016.851	744.57
1017.143	759.94
1017.435	747.73
1017.727	740.05
1018.018	741.86
1018.31	725.81
1018.602	714.29
1018.893	740.73
1019.185	699.6
1019.476	717.9
1019.767	729.43
1020.058	709.54
1020.35	713.84
1020.641	695.31
1020.932	695.31
1021.223	700.96
1021.514	698.92
1021.804	694.85
1022.095	684.91
1022.386	700.5
1022.677	690.79
1022.967	677.23
1023.258	682.43
1023.548	686.49
1023.839	691.46
1024.129	665.48
1024.419	641.52
1024.709	677.45
1025	679.04
1025.29	667.96
1025.58	654.18
1025.87	644.69
1026.16	636.1
1026.449	662.77
1026.739	646.95
1027.029	654.86
1027.319	639.04
1027.608	649.43
1027.898	632.48
1028.187	636.1
1028.477	636.78
1028.766	630
1029.055	627.96
1029.344	627.06
1029.634	606.72
1029.923	612.37
1030.212	615.53
1030.501	625.48
1030.79	607.85
1031.078	599.49
1031.367	613.05
1031.656	598.36
1031.945	575.76
1032.233	604.46
1032.522	600.62
1032.81	578.25
1033.099	573.73
1033.387	597.91
1033.675	572.6
1033.963	572.6
1034.251	578.93
1034.54	572.15
1034.828	577.8
1035.116	565.82
1035.403	552.94
1035.691	552.26
1035.979	556.33
1036.267	559.94
1036.554	558.59
1036.842	568.98
1037.129	559.72
1037.417	550.9
1037.704	565.37
1037.992	542.99
1038.279	538.25
1038.566	531.24
1038.853	531.24
1039.14	531.24
