Data from black_metal_pc_casing_FLMS001491_00009.txt Node
Date: Wed Feb 08 14:31:51 GMT 2017
User: dcchb
Spectrometer: FLMS00149
Trigger mode: 0
Integration Time (sec): 2.000000E-2
Scans to average: 10
Electric dark correction enabled: true
Nonlinearity correction enabled: false
Boxcar width: 0
XAxis mode: Wavelengths
Number of Pixels in Spectrum: 2048
>>>>>Begin Spectral Data<<<<<
341.393	-16.86
341.776	-16.86
342.16	-16.86
342.543	-43.08
342.927	-56.86
343.31	-83.98
343.693	-73.36
344.077	-65.22
344.46	-49.86
344.843	-44.21
345.226	-37.88
345.61	-47.6
345.993	-31.55
346.376	-7.15
346.759	26.75
347.142	39.41
347.525	52.74
347.908	64.94
348.291	54.55
348.674	100.2
349.057	102.23
349.44	116.69
349.823	135.67
350.206	156.69
350.588	158.5
350.971	199.85
351.354	221.55
351.737	212.73
352.119	244.15
352.502	245.28
352.884	238.95
353.267	271.04
353.65	299.96
354.032	280.76
354.414	301.09
354.797	303.81
355.179	302.68
355.562	306.52
355.944	301.77
356.326	297.25
356.709	320.75
357.091	302.45
357.473	324.37
357.855	332.05
358.238	327.99
358.62	343.8
359.002	318.49
359.384	314.65
359.766	328.44
360.148	308.78
360.53	312.39
360.912	323.01
361.294	319.62
361.676	306.74
362.057	311.49
362.439	334.77
362.821	308.55
363.203	317.59
363.584	306.29
363.966	302.45
364.348	289.12
364.729	306.52
365.111	297.25
365.493	308.1
365.874	298.83
366.256	330.92
366.637	316.69
367.019	302
367.4	297.03
367.781	294.99
368.163	293.86
368.544	309
368.925	316.46
369.306	314.2
369.688	305.16
370.069	299.96
370.45	313.52
370.831	317.59
371.212	306.52
371.593	296.8
371.974	302.45
372.355	311.26
372.736	306.52
373.117	313.52
373.498	300.87
373.879	319.17
374.26	300.19
374.641	302.22
375.021	305.16
375.402	284.82
375.783	314.2
376.163	324.6
376.544	317.82
376.925	318.95
377.305	294.99
377.686	325.05
378.066	337.93
378.447	329.79
378.827	315.78
379.208	341.54
379.588	326.18
379.968	339.96
380.349	315.33
380.729	290.47
381.109	318.95
381.489	316.23
381.87	339.06
382.25	325.05
382.63	350.13
383.01	363.47
383.39	342.22
383.77	339.06
384.15	313.52
384.53	339.96
384.91	332.73
385.29	348.32
385.67	348.32
386.049	340.41
386.429	375.22
386.809	366.18
387.189	340.64
387.568	330.92
387.948	334.54
388.328	337.93
388.707	361.21
389.087	358.95
389.466	372.73
389.846	349
390.225	372.28
390.605	357.82
390.984	344.48
391.363	372.5
391.743	353.07
392.122	386.29
392.501	356.01
392.881	389.23
393.26	382.9
393.639	385.16
394.018	356.91
394.397	382.45
394.776	398.94
395.155	387.65
395.534	375.44
395.913	383.8
396.292	401.88
396.671	406.4
397.05	416.8
397.429	404.59
397.808	401.88
398.186	402.33
398.565	379.06
398.944	403.24
399.323	395.1
399.701	409.34
400.08	381.32
400.458	393.07
400.837	405.27
401.215	416.8
401.594	415.67
401.972	431.03
402.351	416.12
402.729	403.69
403.107	423.8
403.486	429.9
403.864	443.69
404.242	436.46
404.62	447.3
404.999	432.84
405.377	418.6
405.755	447.53
406.133	425.38
406.511	445.72
406.889	434.2
407.267	443.91
407.645	445.72
408.023	473.29
408.401	456.8
408.779	458.15
409.156	460.64
409.534	467.19
409.912	475.1
410.29	453.41
410.667	494.31
411.045	492.05
411.422	472.39
411.8	486.63
412.178	494.76
412.555	488.21
412.933	514.2
413.31	509.9
413.687	498.83
414.065	519.62
414.442	512.39
414.819	506.74
415.197	520.52
415.574	527.08
415.951	510.81
416.328	518.72
416.705	531.82
417.082	530.92
417.46	518.04
417.837	543.35
418.214	547.19
418.591	551.93
418.967	541.99
419.344	558.49
419.721	547.41
420.098	564.59
420.475	555.1
420.852	553.74
421.228	570.47
421.605	580.18
421.982	600.07
422.358	566.4
422.735	595.55
423.111	596.45
423.488	590.35
423.864	583.35
424.241	595.78
424.617	598.49
424.994	588.77
425.37	600.97
425.746	614.98
426.123	628.54
426.499	590.8
426.875	634.64
427.251	631.03
427.627	638.26
428.003	638.26
428.379	645.04
428.756	660.63
429.132	648.66
429.507	664.47
429.883	679.16
430.259	679.16
430.635	669.9
431.011	676.68
431.387	693.4
431.763	715.09
432.138	706.05
432.514	718.03
432.89	719.61
433.265	747.18
433.641	723.91
434.016	766.39
434.392	725.49
434.767	754.64
435.143	732.49
435.518	751.48
435.894	765.26
436.269	786.05
436.644	790.57
437.02	788.54
437.395	791.02
437.77	799.16
438.145	800.97
438.52	788.09
438.895	805.04
439.271	817.01
439.646	844.58
440.021	855.2
440.395	835.77
440.77	822.44
441.145	856.11
441.52	861.08
441.895	871.47
442.27	864.47
442.645	869.21
443.019	888.65
443.394	880.06
443.769	892.04
444.143	863.11
444.518	913.28
444.892	881.64
445.267	899.27
445.641	909.44
446.016	940.62
446.39	903.79
446.764	914.19
447.139	940.17
447.513	922.77
447.887	955.99
448.262	945.14
448.636	925.94
449.01	931.13
449.384	944.24
449.758	959.61
450.132	956.67
450.506	999.61
450.88	963.68
451.254	978.14
451.628	991.92
452.002	1002.32
452.376	1015.43
452.75	1026.72
453.123	1038.25
453.497	1048.64
453.871	1028.98
454.244	1083.22
454.618	1064.92
454.992	1076.44
455.365	1074.86
455.739	1107.4
456.112	1114.41
456.486	1093.84
456.859	1103.33
457.232	1132.26
457.606	1149.43
457.979	1146.04
458.352	1177.68
458.725	1191.24
459.099	1196.89
459.472	1218.81
459.845	1229.43
460.218	1236.89
460.591	1225.14
460.964	1254.74
461.337	1267.62
461.71	1303.33
462.083	1278.7
462.456	1306.04
462.829	1293.16
463.201	1320.28
463.574	1342.2
463.947	1355.98
464.32	1371.35
464.692	1395.3
465.065	1383.55
465.438	1405.92
465.81	1430.56
466.183	1424.91
466.555	1469.65
466.928	1476.43
467.3	1471.46
467.672	1501.51
468.045	1505.81
468.417	1527.05
468.789	1515.53
469.161	1571.12
469.534	1573.38
469.906	1595.97
470.278	1652.92
470.65	1639.36
471.022	1624.67
471.394	1709.87
471.766	1687.27
472.138	1710.32
472.51	1736.54
472.882	1765.24
473.253	1797.1
473.625	1812.69
473.997	1842.3
474.369	1842.97
474.74	1881.17
475.112	1897.66
475.484	1921.84
475.855	1962.75
476.227	1985.57
476.598	2017.21
476.97	2050.2
477.341	2064.44
477.713	2081.61
478.084	2068.73
478.455	2165
478.827	2180.82
479.198	2252.91
479.569	2257.2
479.94	2266.69
480.311	2313.47
480.682	2350.31
481.053	2406.58
481.424	2426.24
481.795	2458.1
482.166	2482.05
482.537	2529.51
482.908	2544.42
483.279	2574.25
483.65	2642.05
484.021	2669.62
484.391	2657.42
484.762	2701.03
485.133	2761.37
485.503	2764.08
485.874	2858.99
486.244	2887.24
486.615	2917.75
486.985	2926.34
487.356	2981.48
487.726	2983.51
488.097	3040
488.467	3054.47
488.837	3129.49
489.207	3165.88
489.578	3205.2
489.948	3260.79
490.318	3268.25
490.688	3277.06
491.058	3348.7
491.428	3396.61
491.798	3419.66
492.168	3463.04
492.538	3487
492.908	3545.98
493.278	3541.69
493.648	3592.76
494.017	3596.6
494.387	3625.07
494.757	3690.38
495.126	3746.88
495.496	3740.78
495.866	3727.67
496.235	3823.94
496.605	3845.63
496.974	3853.99
497.344	3870.49
497.713	3899.42
498.082	3910.72
498.452	3990.71
498.821	4050.6
499.19	3992.52
499.559	4039.3
499.928	4043.59
500.298	4086.3
500.667	4115.23
501.036	4157.04
501.405	4223.25
501.774	4187.09
502.143	4225.51
502.512	4205.4
502.88	4275.68
503.249	4259.18
503.618	4306.86
503.987	4312.97
504.356	4387.54
504.724	4379.18
505.093	4411.95
505.462	4406.3
505.83	4544.15
506.199	4515.45
506.567	4547.76
506.936	4567.87
507.304	4608.78
507.672	4660.08
508.041	4621.66
508.409	4669.11
508.777	4730.81
509.145	4752.5
509.514	4813.52
509.882	4814.87
510.25	4798.38
510.618	4832.73
510.986	4870.01
511.354	4908.66
511.722	4961.99
512.09	5084.92
512.458	5026.85
512.826	5129.89
513.193	5106.84
513.561	5106.17
513.929	5160.18
514.297	5204.92
514.664	5251.47
515.032	5266.61
515.4	5321.3
515.767	5295.54
516.135	5378.93
516.502	5352.03
516.869	5472.71
517.237	5450.11
517.604	5489.88
517.972	5505.02
518.339	5583.44
518.706	5570.79
519.073	5594.06
519.44	5669.99
519.808	5689.43
520.175	5762.87
520.542	5780.05
520.909	5792.7
521.276	5799.48
521.643	5888.07
522.009	5966.93
522.376	5961.51
522.743	6011.9
523.11	6080.6
523.477	6171.45
523.843	6121.28
524.21	6215.29
524.577	6292.8
524.943	6279.24
525.31	6297.09
525.676	6404.44
526.043	6439.46
526.409	6458.22
526.776	6487.15
527.142	6567.6
527.508	6567.82
527.874	6633.36
528.241	6645.56
528.607	6725.56
528.973	6767.14
529.339	6745.22
529.705	6766.01
530.071	6883.29
530.437	6864.31
530.803	6925.1
531.169	6973.23
531.535	6942.95
531.901	7060.69
532.267	7064.76
532.632	7089.39
532.998	7133.23
533.364	7201.25
533.73	7199.44
534.095	7274.24
534.461	7307.69
534.826	7402.38
535.192	7347.91
535.557	7466.33
535.923	7387.69
536.288	7461.36
536.653	7503.16
537.019	7444.86
537.384	7519.66
537.749	7495.25
538.114	7585.42
538.479	7554.46
538.845	7662.71
539.21	7658.19
539.575	7656.83
539.94	7744.06
540.305	7758.3
540.67	7814.57
541.034	7713.1
541.399	7782.48
541.764	7811.18
542.129	7887.79
542.494	7881.23
542.858	7884.17
543.223	7923.94
543.587	8012.53
543.952	7979.31
544.316	8017.5
544.681	8013.66
545.045	8082.81
545.41	8128.68
545.774	8170.04
546.138	8125.97
546.503	8166.2
546.867	8175.46
547.231	8258.85
547.595	8268.12
547.959	8292.3
548.324	8354.89
548.688	8339.3
549.052	8324.61
549.416	8404.61
549.779	8371.62
550.143	8435.8
550.507	8471.05
550.871	8468.79
551.235	8508.34
551.599	8530.71
551.962	8645.51
552.326	8629.46
552.689	8702.91
553.053	8599.63
553.417	8657.94
553.78	8783.13
554.143	8801.89
554.507	8797.14
554.87	8837.37
555.234	8989.68
555.597	8874.2
555.96	8909.46
556.323	8960.08
556.686	8944.26
557.05	9001.2
557.413	9016.8
557.776	9102.9
558.139	9165.49
558.502	9222.44
558.865	9174.98
559.228	9322.1
559.59	9239.16
559.953	9272.61
560.316	9405.49
560.679	9379.27
561.041	9445.94
561.404	9491.81
561.767	9542.21
562.129	9560.74
562.492	9598.48
562.854	9588.08
563.217	9641.64
563.579	9740.62
563.941	9731.13
564.304	9854.51
564.666	9825.82
565.028	9795.99
565.39	9938.13
565.753	10021.06
566.115	10040.27
566.477	10053.15
566.839	10063.77
567.201	10138.8
567.563	10139.48
567.925	10220.38
568.287	10227.84
568.648	10313.49
569.01	10300.6
569.372	10413.37
569.734	10375.63
570.095	10499.24
570.457	10524.1
570.819	10512.58
571.18	10573.82
571.542	10506.25
571.903	10589.41
572.265	10629.41
572.626	10641.84
572.987	10703.76
573.349	10753.25
573.71	10777.65
574.071	10761.61
574.432	10933.81
574.794	10858.33
575.155	10809.74
575.516	10809.29
575.877	10938.78
576.238	10882.96
576.599	10948.5
576.96	10902.17
577.32	10895.84
577.681	11065.33
578.042	11052.22
578.403	11027.14
578.763	11051.55
579.124	11011.77
579.485	11152.11
579.845	11107.14
580.206	11132.45
580.566	11127.02
580.927	11162.28
581.287	11190.75
581.648	11171.09
582.008	11198.43
582.368	11160.24
582.728	11138.1
583.089	11225.33
583.449	11223.97
583.809	11197.08
584.169	11202.95
584.529	11242.28
584.889	11304.19
585.249	11228.94
585.609	11153.01
585.969	11310.52
586.329	11270.97
586.688	11251.09
587.048	11291.77
587.408	11216.74
587.768	11314.14
588.127	11260.81
588.487	11248.83
588.846	11321.82
589.206	11186.23
589.565	11232.11
589.925	11282.95
590.284	11333.8
590.643	11251.77
591.003	11360.01
591.362	11295.61
591.721	11331.99
592.08	11289.05
592.44	11305.78
592.799	11354.36
593.158	11265.1
593.517	11312.56
593.876	11427.13
594.235	11286.57
594.593	11370.18
594.952	11425.55
595.311	11403.63
595.67	11404.3
596.029	11422.38
596.387	11451.08
596.746	11466.9
597.104	11425.32
597.463	11411.31
597.822	11478.2
598.18	11376.73
598.538	11346.45
598.897	11444.98
599.255	11375.83
599.613	11506
599.972	11437.52
600.33	11554.81
600.688	11432.33
601.046	11536.96
601.404	11522.49
601.762	11583.06
602.12	11590.51
602.478	11613.56
602.836	11495.6
603.194	11526.11
603.552	11569.72
603.91	11561.81
604.268	11630.97
604.625	11581.02
604.983	11619.44
605.341	11644.52
605.698	11681.13
606.056	11712.55
606.413	11605.43
606.771	11709.38
607.128	11687.01
607.485	11641.36
607.843	11673.22
608.2	11709.61
608.557	11737.63
608.914	11773.33
609.272	11753.67
609.629	11865.76
609.986	11923.16
610.343	11874.35
610.7	11848.13
611.057	11818.76
611.414	11844.29
611.771	11836.38
612.127	11862.37
612.484	11893.11
612.841	11995.93
613.198	11941.92
613.554	11915.03
613.911	12055.81
614.267	11889.72
614.624	11906.89
614.98	11958.41
615.337	12064.17
615.693	12008.36
616.05	11938.75
616.406	12052.65
616.762	12009.03
617.118	11980.56
617.475	12066.89
617.831	11991.41
618.187	11963.61
618.543	11983.5
618.899	12171.52
619.255	12129.71
619.611	12099.2
619.967	12135.58
620.323	12115.47
620.678	12138.07
621.034	12022.37
621.39	12127
621.746	12075.93
622.101	12229.14
622.457	12092.42
622.812	12172.19
623.168	12223.49
623.523	12149.14
623.879	12243.6
624.234	12079.09
624.589	12190.72
624.945	12127
625.3	12167.22
625.655	12194.57
626.01	12163.61
626.365	12191.18
626.72	12166.32
627.075	12175.36
627.43	12161.57
627.785	12127.45
628.14	12117.96
628.495	12196.37
628.85	12111.63
629.205	12068.69
629.559	12192.08
629.914	12162.25
630.269	12084.06
630.623	12079.32
630.978	12062.82
631.332	12064.17
631.687	12108.24
632.041	12056.94
632.396	12200.44
632.75	12042.25
633.104	12064.85
633.459	11941.24
633.813	11990.28
634.167	11988.47
634.521	11899.21
634.875	12064.85
635.229	12004.06
635.583	11964.06
635.937	11937.4
636.291	11970.39
636.645	11879.55
636.999	11809.04
637.352	11882.03
637.706	11797.29
638.06	11803.62
638.413	11840
638.767	11758.42
639.121	11835.71
639.474	11766.1
639.828	11813.56
640.181	11743.73
640.534	11782.83
640.888	11756.84
641.241	11679.1
641.594	11719.1
641.947	11711.42
642.301	11659.44
642.654	11617.41
643.007	11745.09
643.36	11617.18
643.713	11679.33
644.066	11698.99
644.419	11610.63
644.771	11463.29
645.124	11408.37
645.477	11336.74
645.83	11282.95
646.182	11246.34
646.535	11238.21
646.888	11329.05
647.24	11163.41
647.593	11218.32
647.945	11235.72
648.298	11136.97
648.65	11158.44
649.002	11115.72
649.355	11175.38
649.707	11157.53
650.059	11119.11
650.411	11296.06
650.763	11295.83
651.115	11342.39
651.467	11380.12
651.819	11258.55
652.171	11431.87
652.523	11333.57
652.875	11354.81
653.227	11273.01
653.578	11311.88
653.93	11298.54
654.282	11315.04
654.633	11257.19
654.985	11174.71
655.337	11296.96
655.688	11290.86
656.039	11403.4
656.391	11200.47
656.742	11224.87
657.094	11188.94
657.445	11195.72
657.796	11151.2
658.147	11151.88
658.498	11204.31
658.849	11175.84
659.2	11163.63
659.551	11214.03
659.902	11163.63
660.253	11147.81
660.604	11174.48
660.955	11097.42
661.306	11136.06
661.656	11147.59
662.007	11149.62
662.358	11174.48
662.708	11189.85
663.059	11060.58
663.409	11092.9
663.76	11108.49
664.11	11138.55
664.461	11074.14
664.811	11114.14
665.161	11135.84
665.511	11058.33
665.862	11079.57
666.212	11088.61
666.562	11049.96
666.912	11083.64
667.262	11047.25
667.612	11049.74
667.962	11092.22
668.312	11069.85
668.662	11182.39
669.011	11135.16
669.361	11037.31
669.711	11016.52
670.06	11027.14
670.41	11049.51
670.76	10995.5
671.109	11007.03
671.459	10960.25
671.808	10973.58
672.157	10947.82
672.507	10871.44
672.856	10912.79
673.205	10873.47
673.554	10951.89
673.904	10912.11
674.253	10975.84
674.602	10927.26
674.951	10858.78
675.3	10794.15
675.649	10920.48
675.998	10859.01
676.346	10867.82
676.695	10956.18
677.044	10853.58
677.393	10899.23
677.741	10881.61
678.09	10820.59
678.438	10780.14
678.787	10808.61
679.135	10785.56
679.484	10806.81
679.832	10753.25
680.181	10782.85
680.529	10775.62
680.877	10756.64
681.225	10735.62
681.573	10764.77
681.922	10762.06
682.27	10636.42
682.618	10610.88
682.966	10573.82
683.314	10705.79
683.661	10645
684.009	10646.13
684.357	10636.19
684.705	10456.31
685.053	10514.38
685.4	10509.19
685.748	10439.13
686.095	10457.89
686.443	10442.07
686.79	10422.64
687.138	10443.2
687.485	10449.75
687.832	10410.66
688.18	10409.3
688.527	10384.67
688.874	10317.78
689.221	10303.09
689.568	10241.62
689.915	10208.4
690.262	10167.28
690.609	10173.15
690.956	10154.17
691.303	10183.09
691.65	10121.4
691.997	10163.43
692.344	10028.07
692.69	10038.01
693.037	10077.56
693.383	9982.2
693.73	10005.25
694.077	9981.52
694.423	9960.27
694.769	9876.66
695.116	9996.66
695.462	9857.68
695.808	9786.95
696.155	9808.19
696.501	9827.4
696.847	9811.35
697.193	9726.16
697.539	9784.69
697.885	9636.22
698.231	9632.15
698.577	9715.54
698.923	9657.23
699.269	9623.56
699.614	9580.62
699.96	9564.13
700.306	9500.63
700.651	9472.83
700.997	9522.32
701.342	9450.01
701.688	9385.37
702.033	9405.26
702.379	9463.11
702.724	9393.06
703.069	9369.78
703.415	9276
703.76	9371.59
704.105	9335.88
704.45	9263.57
704.795	9193.29
705.14	9270.58
705.485	9197.36
705.83	9149.67
706.175	9167.3
706.52	9136.79
706.865	9066.96
707.209	9072.16
707.554	9073.74
707.899	9076.91
708.243	8993.52
708.588	8996.23
708.932	8959.4
709.277	8890.47
709.621	8982.9
709.966	8811.6
710.31	8930.92
710.654	8840.76
710.998	8879.4
711.342	8899.06
711.687	8859.96
712.031	8801.44
712.375	8661.33
712.719	8770.7
713.063	8729.57
713.407	8775.67
713.75	8650.48
714.094	8683.25
714.438	8659.74
714.782	8723.25
715.125	8638.73
715.469	8622.68
715.812	8659.74
716.156	8567.32
716.499	8582.01
716.843	8594.21
717.186	8556.92
717.53	8566.19
717.873	8553.31
718.216	8532.97
718.559	8525.96
718.902	8484.61
719.246	8477.83
719.589	8395.57
719.932	8433.76
720.275	8394.21
720.617	8404.84
720.96	8409.81
721.303	8380.88
721.646	8379.3
721.989	8269.47
722.331	8375.91
722.674	8326.87
723.016	8330.71
723.359	8349.47
723.701	8337.94
724.044	8252.07
724.386	8150.38
724.729	8256.14
725.071	8223.15
725.413	8208
725.755	8221.34
726.097	8156.25
726.439	8107.89
726.782	8219.53
727.124	8139.76
727.465	8118.97
727.807	8059.08
728.149	8151.96
728.491	8046.43
728.833	8127.55
729.175	8079.19
729.516	8063.38
729.858	8008.01
730.199	7995.35
730.541	7970.27
730.882	7981.57
731.224	8066.54
731.565	7918.52
731.906	8002.81
732.248	8001.68
732.589	7934.79
732.93	7996.94
733.271	7909.48
733.612	7874.68
733.953	7896.15
734.294	7885.08
734.635	7873.55
734.976	7864.51
735.317	7853.89
735.658	7898.63
735.999	7863.15
736.339	7853.21
736.68	7868.8
737.021	7794.46
737.361	7740.22
737.702	7799.43
738.042	7783.38
738.383	7782.7
738.723	7779.54
739.063	7729.37
739.404	7720.56
739.744	7685.53
740.084	7738.19
740.424	7669.49
740.764	7666.78
741.104	7689.83
741.444	7640.56
741.784	7576.38
742.124	7620.45
742.464	7669.49
742.804	7565.54
743.143	7559.89
743.483	7622.48
743.823	7566.21
744.162	7564.63
744.502	7510.4
744.841	7496.38
745.181	7534.58
745.52	7462.71
745.86	7498.64
746.199	7436.27
746.538	7492.09
746.877	7516.95
747.216	7492.32
747.556	7499.77
747.895	7524.41
748.234	7445.99
748.573	7409.61
748.911	7354.92
749.25	7429.49
749.589	7320.8
749.928	7298.42
750.267	7354.92
750.605	7383.39
750.944	7259.55
751.283	7293.23
751.621	7248.93
751.96	7247.8
752.298	7223.62
752.636	7241.7
752.975	7220.01
753.313	7174.13
753.651	7236.28
753.989	7216.17
754.327	7154.47
754.666	7131.65
755.004	7099.56
755.342	7169.39
755.679	7097.98
756.017	7056.85
756.355	7073.35
756.693	7111.54
757.031	7151.76
757.368	7033.57
757.706	7009.62
758.044	7011.65
758.381	6990.18
758.719	6922.16
759.056	6896.85
759.394	6922.84
759.731	6880.36
760.068	6890.3
760.405	6886.46
760.743	6783.41
761.08	6825.67
761.417	6776.18
761.754	6806.91
762.091	6791.54
762.428	6713.58
762.765	6721.26
763.102	6686.24
763.438	6674.49
763.775	6686.24
764.112	6669.29
764.449	6655.28
764.785	6654.83
765.122	6585.45
765.458	6514.72
765.795	6562.62
766.131	6533.47
766.467	6474.49
766.804	6500.25
767.14	6495.06
767.476	6495.06
767.812	6456.64
768.148	6409.18
768.485	6397.2
768.821	6370.99
769.157	6375.06
769.492	6318.79
769.828	6283.08
770.164	6309.75
770.5	6291.9
770.836	6295.29
771.171	6179.58
771.507	6205.8
771.842	6185.46
772.178	6127.16
772.513	6100.94
772.849	6144.1
773.184	6131.45
773.519	6043.32
773.855	6078.57
774.19	6008.97
774.525	6044.67
774.86	5969.42
775.195	5973.94
775.53	6016.65
775.865	5956.76
776.2	5904.34
776.535	5937.33
776.87	5866.82
777.205	5904.34
777.539	5852.81
777.874	5860.95
778.209	5698.92
778.543	5787.96
778.878	5720.84
779.212	5712.48
779.547	5704.34
779.881	5729.65
780.215	5680.16
780.55	5697.34
780.884	5667.05
781.218	5652.82
781.552	5633.83
781.886	5654.63
782.22	5566.72
782.554	5558.13
782.888	5540.73
783.222	5509.09
783.556	5477.91
783.889	5455.08
784.223	5421.41
784.557	5449.43
784.89	5493.27
785.224	5433.16
785.557	5396.78
785.891	5350.68
786.224	5373.5
786.558	5341.41
786.891	5307.06
787.224	5248.53
787.557	5258.03
787.891	5240.85
788.224	5246.73
788.557	5196.56
788.89	5165.37
789.223	5209.67
789.556	5156.33
789.888	5133.74
790.221	5123.11
790.554	5078.14
790.887	5119.72
791.219	5073.17
791.552	5074.75
791.884	5044.47
792.217	5057.35
792.549	5034.98
792.882	4975.1
793.214	4986.85
793.546	4961.76
793.879	4950.69
794.211	4909.11
794.543	4911.37
794.875	4869.79
795.207	4935.77
795.539	4893.52
795.871	4869.11
796.203	4897.13
796.535	4842.44
796.867	4780.52
797.198	4765.16
797.53	4808.77
797.862	4752.5
798.193	4771.94
798.525	4742.78
798.856	4746.85
799.188	4708.89
799.519	4717.7
799.85	4627.76
800.182	4666.4
800.513	4680.64
800.844	4620.53
801.175	4611.04
801.506	4651.71
801.837	4575.56
802.168	4600.64
802.499	4563.13
802.83	4545.28
803.161	4590.92
803.491	4579.17
803.822	4562.22
804.153	4532.39
804.483	4468.67
804.814	4467.54
805.145	4492.62
805.475	4530.59
805.805	4459.63
806.136	4451.72
806.466	4467.99
806.796	4451.72
807.126	4447.2
807.457	4395.45
807.787	4414.43
808.117	4428.89
808.447	4382.57
808.777	4387.77
809.107	4387.09
809.436	4363.36
809.766	4350.25
810.096	4297.82
810.426	4333.3
810.755	4321.55
811.085	4286.3
811.414	4273.19
811.744	4268.67
812.073	4260.99
812.403	4238.62
812.732	4214.21
813.061	4207.21
813.39	4192.29
813.719	4193.65
814.049	4206.3
814.378	4193.87
814.707	4180.54
815.036	4166.98
815.365	4156.13
815.693	4116.81
816.022	4140.09
816.351	4112.74
816.68	4076.14
817.008	4114.78
817.337	4091.5
817.665	4063.48
817.994	4077.94
818.322	4083.37
818.651	4042.92
818.979	4016.7
819.307	4074.55
819.636	4039.98
819.964	3974.9
820.292	4004.95
820.62	4018.28
820.948	4005.63
821.276	4010.83
821.604	4000.21
821.932	4028.91
822.259	3973.31
822.587	4010.15
822.915	3984.16
823.243	4022.35
823.57	4014.89
823.898	4011.73
824.225	3983.71
824.553	3988.23
824.88	3993.65
825.207	3999.3
825.535	3992.75
825.862	3971.73
826.189	4011.5
826.516	4004.73
826.843	3987.55
827.17	4010.15
827.497	4023.03
827.824	3975.12
828.151	3960.66
828.478	4023.48
828.805	4013.09
829.131	4034.55
829.458	3947.55
829.785	3952.98
830.111	3975.12
830.438	3992.97
830.764	3991.17
831.09	3948.46
831.417	3995.23
831.743	3971.96
832.069	3966.08
832.395	3969.02
832.722	3963.37
833.048	3974.44
833.374	3976.48
833.7	3936.93
834.026	3929.47
834.351	3952.98
834.677	3923.37
835.003	3916.59
835.329	3921.11
835.654	3883.82
835.98	3930.38
836.306	3877.72
836.631	3896.48
836.956	3902.81
837.282	3958.62
837.607	3868.23
837.932	3894.45
838.258	3870.27
838.583	3906.42
838.908	3900.77
839.233	3877.5
839.558	3877.04
839.883	3838.63
840.208	3844.73
840.533	3814.45
840.858	3823.94
841.182	3841.11
841.507	3801.57
841.832	3805.18
842.156	3818.97
842.481	3785.52
842.805	3756.14
843.13	3814
843.454	3729.7
843.778	3727.44
844.103	3789.82
844.427	3764.51
844.751	3752.53
845.075	3758.4
845.399	3714.56
845.723	3704.62
846.047	3688.12
846.371	3663.72
846.695	3688.12
847.019	3632.31
847.343	3619.2
847.666	3636.83
847.99	3621.46
848.313	3581.01
848.637	3565.41
848.96	3573.55
849.284	3589.14
849.607	3529.71
849.931	3489.94
850.254	3547.56
850.577	3471.41
850.9	3509.82
851.223	3512.53
851.546	3468.02
851.869	3439.77
852.192	3498.98
852.515	3456.94
852.838	3419.66
853.161	3430.73
853.483	3402.26
853.806	3382.37
854.129	3402.71
854.451	3378.3
854.774	3370.62
855.096	3351.86
855.419	3329.94
855.741	3344.63
856.063	3335.14
856.385	3314.8
856.708	3364.06
857.03	3259.66
857.352	3306.66
857.674	3282.26
857.996	3238.42
858.318	3287
858.64	3260.34
858.961	3250.17
859.283	3233.45
859.605	3238.19
859.926	3237.74
860.248	3235.25
860.57	3215.37
860.891	3211.53
861.212	3183.28
861.534	3219.44
861.855	3221.69
862.176	3198.42
862.498	3160.23
862.819	3182.6
863.14	3190.51
863.461	3150.51
863.782	3152.54
864.103	3162.04
864.424	3148.48
864.745	3137.63
865.065	3101.92
865.386	3132.43
865.707	3116.61
866.027	3153
866.348	3110.29
866.668	3094.69
866.989	3089.95
867.309	3085.2
867.63	3106.67
867.95	3060.8
868.27	3070.74
868.59	3058.99
868.91	3096.27
869.23	3033.45
869.55	3065.77
869.87	3053.79
870.19	3043.85
870.51	3050.17
870.83	3021.25
871.15	3007.92
871.469	3026.67
871.789	3017.86
872.109	3014.69
872.428	3041.59
872.748	3028.03
873.067	3021.93
873.386	3007.92
873.706	3033
874.025	2976.96
874.344	2986.9
874.663	2995.94
874.982	3004.53
875.301	2960.01
875.62	2957.52
875.939	2977.86
876.258	2999.55
876.577	2983.51
876.896	2957.3
877.214	2972.21
877.533	2944.87
877.852	2917.07
878.17	2914.13
878.489	2955.04
878.807	2928.6
879.125	2929.73
879.444	2918.88
879.762	2923.17
880.08	2942.83
880.398	2897.41
880.716	2908.93
881.034	2853.12
881.352	2942.61
881.67	2903.06
881.988	2896.73
882.306	2873.46
882.624	2871.87
882.941	2857.86
883.259	2891.08
883.577	2870.74
883.894	2860.8
884.212	2804.76
884.529	2845.89
884.846	2797.3
885.164	2844.53
885.481	2788.03
885.798	2818.77
886.115	2762.27
886.432	2784.19
886.75	2783.29
887.067	2798.66
887.383	2805.66
887.7	2785.77
888.017	2783.97
888.334	2756.62
888.651	2753.46
888.967	2733.35
889.284	2728.15
889.6	2735.38
889.917	2732.22
890.233	2718.66
890.55	2726.11
890.866	2742.39
891.182	2768.83
891.498	2727.24
891.815	2707.58
892.131	2690.18
892.447	2699.67
892.763	2670.52
893.079	2661.71
893.395	2676.85
893.71	2666.46
894.026	2654.25
894.342	2633.01
894.657	2633.01
894.973	2604.99
895.289	2608.15
895.604	2621.71
895.92	2603.41
896.235	2590.75
896.55	2594.82
896.865	2566.57
897.181	2604.31
897.496	2569.73
897.811	2573.8
898.126	2544.65
898.441	2527.7
898.756	2507.59
899.071	2532.45
899.386	2499.91
899.7	2523.41
900.015	2494.03
900.33	2500.13
900.644	2486.8
900.959	2450.87
901.273	2507.59
901.588	2477.31
901.902	2451.09
902.216	2472.34
902.531	2489.06
902.845	2435.05
903.159	2399.8
903.473	2385.33
903.787	2411.55
904.101	2384.65
904.415	2388.04
904.729	2391.43
905.042	2366.58
905.356	2349.85
905.67	2357.31
905.984	2360.7
906.297	2354.6
906.611	2323.19
906.924	2346.24
907.237	2331.55
907.551	2361.15
907.864	2313.02
908.177	2285
908.491	2315.5
908.804	2298.56
909.117	2298.33
909.43	2270.76
909.743	2265.56
910.056	2242.06
910.368	2271.89
910.681	2236.41
910.994	2219.01
911.307	2226.47
911.619	2192.34
911.932	2199.35
912.244	2185.11
912.557	2192.34
912.869	2221.04
913.181	2132.68
913.494	2174.72
913.806	2182.63
914.118	2157.32
914.43	2163.64
914.742	2113.25
915.054	2130.65
915.366	2108.05
915.678	2078.67
915.99	2110.99
916.302	2092.69
916.613	2128.39
916.925	2071.22
917.236	2084.32
917.548	2039.13
917.859	2106.24
918.171	2083.42
918.482	2039.58
918.794	2033.7
919.105	2080.26
919.416	2033.48
919.727	2034.38
920.038	2014.04
920.349	2022.63
920.66	1996.42
920.971	2000.26
921.282	2024.66
921.593	1985.8
921.903	1957.55
922.214	1954.38
922.525	1931.11
922.835	1955.97
923.146	1943.99
923.456	1952.12
923.767	1945.34
924.077	1946.02
924.387	1946.47
924.697	1906.7
925.008	1892.92
925.318	1884.78
925.628	1902.18
925.938	1892.46
926.248	1851.56
926.558	1850.66
926.867	1845.23
927.177	1871.67
927.487	1863.99
927.796	1832.13
928.106	1828.06
928.416	1879.13
928.725	1867.83
929.034	1831.68
929.344	1799.36
929.653	1790.09
929.962	1788.06
930.271	1806.36
930.581	1786.93
930.89	1765.24
931.199	1781.51
931.508	1768.4
931.817	1766.59
932.125	1756.65
932.434	1745.12
932.743	1754.16
933.051	1730.43
933.36	1737.89
933.669	1676.65
933.977	1688.85
934.286	1730.43
934.594	1723.88
934.902	1695.18
935.21	1691.57
935.519	1681.4
935.827	1685.01
936.135	1683.43
936.443	1654.73
936.751	1662.19
937.059	1670.32
937.367	1629.42
937.674	1615.18
937.982	1638.01
938.29	1632.13
938.597	1615.41
938.905	1628.97
939.213	1607.05
939.52	1607.5
939.827	1600.95
940.135	1585.58
940.442	1592.59
940.749	1582.42
941.056	1592.59
941.363	1591.68
941.67	1544.45
941.977	1584.22
942.284	1566.6
942.591	1565.02
942.898	1543.55
943.205	1564.34
943.511	1508.97
943.818	1500.61
944.125	1514.17
944.431	1531.34
944.738	1502.19
945.044	1492.47
945.35	1500.84
945.657	1505.13
945.963	1508.97
946.269	1491.34
946.575	1473.04
946.881	1460.16
947.187	1460.39
947.493	1478.92
947.799	1459.71
948.105	1455.87
948.41	1418.8
948.716	1424.91
949.022	1409.09
949.327	1457.9
949.633	1399.37
949.938	1446.83
950.244	1427.39
950.549	1437.34
950.854	1393.95
951.16	1439.37
951.465	1392.82
951.77	1401.63
952.075	1418.13
952.38	1377.45
952.685	1391.91
952.99	1369.54
953.294	1325.7
953.599	1359.6
953.904	1346.72
954.209	1337
954.513	1343.33
954.818	1365.47
955.122	1355.08
955.426	1337.45
955.731	1327.28
956.035	1309.65
956.339	1348.98
956.643	1315.53
956.948	1328.19
957.252	1311.24
957.556	1307.17
957.86	1298.81
958.163	1314.63
958.467	1291.35
958.771	1280.05
959.075	1258.36
959.378	1273.05
959.682	1262.65
959.985	1292.93
960.289	1244.57
960.592	1263.1
960.896	1238.92
961.199	1252.93
961.502	1238.7
961.805	1220.39
962.108	1217.23
962.411	1235.08
962.714	1217.45
963.017	1206.15
963.32	1210.9
963.623	1191.92
963.926	1212.48
964.228	1206.15
964.531	1200.96
964.833	1173.61
965.136	1186.95
965.438	1173.61
965.741	1194.86
966.043	1163.67
966.345	1179.04
966.648	1186.27
966.95	1143.11
967.252	1177.91
967.554	1155.99
967.856	1173.61
968.158	1170.22
968.46	1141.3
968.761	1140.39
969.063	1137.68
969.365	1121.19
969.666	1144.69
969.968	1121.64
970.269	1121.19
970.571	1099.26
970.872	1136.55
971.174	1120.06
971.475	1134.97
971.776	1111.24
972.077	1105.82
972.378	1109.66
972.679	1092.26
972.98	1079.83
973.281	1101.07
973.582	1092.71
973.883	1072.37
974.183	1071.69
974.484	1067.85
974.785	1081.19
975.085	1071.92
975.386	1040.28
975.686	1059.49
975.986	1066.5
976.287	1058.36
976.587	1046.61
976.887	1059.49
977.187	1033.05
977.487	1068.98
977.787	1034.86
978.087	1048.64
978.387	1016.56
978.687	1018.14
978.987	1031.47
979.286	1030.11
979.586	1024.46
979.885	1023.79
980.185	1000.28
980.484	981.98
980.784	992.15
981.083	995.76
981.382	1005.93
981.682	980.17
981.981	1017.01
982.28	976.78
982.579	978.59
982.878	1011.13
983.177	982.88
983.475	959.38
983.774	979.49
984.073	959.38
984.372	963.45
984.67	961.19
984.969	951.47
985.267	938.82
985.566	972.71
985.864	960.96
986.162	947.86
986.461	941.08
986.759	947.4
987.057	940.17
987.355	933.39
987.653	924.81
987.951	903.11
988.249	921.42
988.547	916.22
988.844	890.68
989.142	909.21
989.44	911.7
989.737	917.8
990.035	915.09
990.332	901.76
990.63	894.07
990.927	887.75
991.224	880.74
991.521	898.37
991.819	898.82
992.116	883
992.413	880.51
992.71	874.64
993.006	875.09
993.303	862.43
993.6	847.52
993.897	854.3
994.193	859.72
994.49	852.94
994.787	865.82
995.083	851.59
995.379	853.17
995.676	838.48
995.972	852.94
996.268	856.11
996.565	818.14
996.861	818.14
997.157	812.49
997.453	808.88
997.749	822.89
998.044	823.34
998.34	841.87
998.636	826.73
998.932	833.28
999.227	828.76
999.523	814.75
999.818	801.42
1000.114	806.39
1000.409	792.83
1000.704	788.76
1001	819.05
1001.295	785.83
1001.59	816.33
1001.885	789.44
1002.18	802.55
1002.475	777.01
1002.77	747.86
1003.065	779.27
1003.359	753.51
1003.654	773.17
1003.949	756
1004.243	778.6
1004.538	758.48
1004.832	756.22
1005.127	750.12
1005.421	745.83
1005.715	745.83
1006.009	734.75
1006.304	740.63
1006.598	740.63
1006.892	742.44
1007.186	728.65
1007.48	756.22
1007.773	748.31
1008.067	735.43
1008.361	711.7
1008.655	703.8
1008.948	711.93
1009.242	703.8
1009.535	722.1
1009.829	707.86
1010.122	695.66
1010.415	700.41
1010.708	694.53
1011.001	681.42
1011.295	681.87
1011.588	692.95
1011.881	680.74
1012.173	681.65
1012.466	706.05
1012.759	691.37
1013.052	676.9
1013.344	675.77
1013.637	686.39
1013.93	643.46
1014.222	675.32
1014.514	654.08
1014.807	650.24
1015.099	671.93
1015.391	628.32
1015.683	654.76
1015.976	635.77
1016.268	652.27
1016.56	655.89
1016.851	660.41
1017.143	637.58
1017.435	632.61
1017.727	638.71
1018.018	638.03
1018.31	638.94
1018.602	642.1
1018.893	613.4
1019.185	649.79
1019.476	630.8
1019.767	624.7
1020.058	618.83
1020.35	615.21
1020.641	612.95
1020.932	616.79
1021.223	626.96
1021.514	595.1
1021.804	599.39
1022.095	602.55
1022.386	590.35
1022.677	603.91
1022.967	595.1
1023.258	575.66
1023.548	585.61
1023.839	588.32
1024.129	579.05
1024.419	591.71
1024.709	584.48
1025	567.08
1025.29	564.36
1025.58	570.92
1025.87	581.76
1026.16	557.36
1026.449	590.58
1026.739	567.53
1027.029	565.49
1027.319	555.78
1027.608	528.88
1027.898	563.01
1028.187	536.34
1028.477	538.83
1028.766	542.22
1029.055	536.12
1029.344	557.58
1029.634	524.59
1029.923	542.22
1030.212	529.79
1030.501	549.9
1030.79	534.99
1031.078	540.41
1031.367	539.96
1031.656	533.18
1031.945	532.05
1032.233	522.33
1032.522	531.37
1032.81	524.14
1033.099	512.84
1033.387	512.16
1033.675	516.68
1033.963	525.04
1034.251	522.78
1034.54	498.6
1034.828	519.85
1035.116	507.19
1035.403	504.7
1035.691	527.75
1035.979	515.78
1036.267	509.22
1036.554	516
1036.842	477.81
1037.129	470.58
1037.417	475.78
1037.704	500.86
1037.992	486.85
1038.279	496.57
1038.566	485.04
1038.853	485.04
1039.14	485.04
