Data from black_plastic_tray_FLMS001491_027.txt Node
Date: Tue Feb 07 10:39:31 GMT 2017
User: dcchb
Spectrometer: FLMS00149
Trigger mode: 0
Integration Time (sec): 2.000000E-2
Scans to average: 10
Electric dark correction enabled: true
Nonlinearity correction enabled: false
Boxcar width: 0
XAxis mode: Wavelengths
Number of Pixels in Spectrum: 2048
>>>>>Begin Spectral Data<<<<<
341.393	-2.68
341.776	-2.68
342.16	-2.68
342.543	-67.54
342.927	-63.92
343.31	-70.48
343.693	-74.55
344.077	-60.76
344.46	-48.56
344.843	-62.12
345.226	-39.74
345.61	-25.73
345.993	-17.82
346.376	-13.08
346.759	8.16
347.142	16.07
347.525	57.88
347.908	59.01
348.291	83.19
348.674	104.88
349.057	83.64
349.44	135.62
349.823	161.61
350.206	160.25
350.588	167.48
350.971	207.48
351.354	232.79
351.737	261.26
352.119	244.09
352.502	234.37
352.884	259.91
353.267	268.95
353.65	259
354.032	288.38
354.414	291.77
354.797	296.74
355.179	304.43
355.562	328.83
355.944	331.54
356.326	317.76
356.709	318.66
357.091	328.83
357.473	338.1
357.855	338.78
358.238	308.72
358.62	336.29
359.002	333.13
359.384	347.14
359.766	348.04
360.148	336.29
360.53	333.35
360.912	336.29
361.294	322.51
361.676	336.97
362.057	316.4
362.439	309.85
362.821	321.38
363.203	307.82
363.584	308.27
363.966	327.93
364.348	300.81
364.729	297.42
365.111	332.22
365.493	315.73
365.874	301.26
366.256	316.4
366.637	314.14
367.019	313.92
367.4	301.49
367.781	294.03
368.163	313.47
368.544	306.23
368.925	313.24
369.306	320.25
369.688	320.47
370.069	330.19
370.45	328.83
370.831	311.66
371.212	324.54
371.593	282.73
371.974	322.73
372.355	301.04
372.736	300.13
373.117	327.48
373.498	318.66
373.879	330.19
374.26	323.18
374.641	330.64
375.021	313.24
375.402	318.44
375.783	316.63
376.163	324.54
376.544	325.22
376.925	300.59
377.305	327.25
377.686	333.35
378.066	328.61
378.447	347.59
378.827	340.58
379.208	343.52
379.588	321.83
379.968	340.13
380.349	348.95
380.729	340.13
381.109	332.22
381.489	330.42
381.87	350.53
382.25	318.66
382.63	317.76
383.01	363.41
383.39	334.03
383.77	350.3
384.15	346.46
384.53	361.37
384.91	360.47
385.29	365.67
385.67	349.17
386.049	363.18
386.429	355.95
386.809	382.62
387.189	371.32
387.568	350.53
387.948	366.35
388.328	374.03
388.707	364.99
389.087	389.62
389.466	387.81
389.846	387.14
390.225	385.78
390.605	393.46
390.984	370.87
391.363	381.04
391.743	398.89
392.122	391.2
392.501	392.79
392.881	397.76
393.26	416.29
393.639	395.5
394.018	385.78
394.397	396.63
394.776	408.15
395.155	410.64
395.534	403.86
395.913	422.39
396.292	399.79
396.671	414.25
397.05	429.62
397.429	389.62
397.808	431.66
398.186	427.81
398.565	428.04
398.944	419
399.323	444.08
399.701	426.68
400.08	412.45
400.458	427.81
400.837	429.62
401.215	455.61
401.594	459.68
401.972	434.14
402.351	452.45
402.729	447.02
403.107	457.64
403.486	470.3
403.864	449.06
404.242	460.58
404.62	461.26
404.999	480.69
405.377	460.81
405.755	483.18
406.133	473.69
406.511	468.49
406.889	491.54
407.267	509.62
407.645	505.55
408.023	479.34
408.401	499.9
408.779	506.91
409.156	516.17
409.534	520.69
409.912	515.27
410.29	501.94
410.667	524.08
411.045	544.42
411.422	536.29
411.8	515.72
412.178	542.39
412.555	565.44
412.933	564.76
413.31	553.91
413.687	548.26
414.065	567.7
414.442	549.62
414.819	574.25
415.197	561.37
415.574	571.31
415.951	569.28
416.328	586.91
416.705	590.75
417.082	587.36
417.46	604.76
417.837	610.86
418.214	586.23
418.591	637.3
418.967	619.67
419.344	630.52
419.721	646.11
420.098	627.81
420.475	610.63
420.852	626
421.228	628.26
421.605	643.63
421.982	658.77
422.358	636.85
422.735	684.3
423.111	683.4
423.488	663.29
423.864	694.93
424.241	698.54
424.617	697.41
424.994	698.09
425.37	694.02
425.746	699.67
426.123	699.67
426.499	727.24
426.875	727.47
427.251	724.53
427.627	733.34
428.003	747.13
428.379	779.89
428.756	762.72
429.132	775.6
429.507	793
429.883	783.06
430.259	783.74
430.635	820.12
431.011	776.73
431.387	802.72
431.763	804.07
432.138	819.89
432.514	818.09
432.89	846.56
433.265	846.33
433.641	852.66
434.016	856.28
434.392	880.01
434.767	896.73
435.143	882.26
435.518	893.34
435.894	888.14
436.269	927.91
436.644	922.94
437.02	948.03
437.395	961.13
437.77	958.42
438.145	938.99
438.52	950.29
438.895	955.71
439.271	967.46
439.646	1022.6
440.021	1002.94
440.395	1004.3
440.77	993.67
441.145	984.64
441.52	1023.28
441.895	1018.76
442.27	1044.52
442.645	1044.52
443.019	1040.45
443.394	1038.65
443.769	1068.47
444.143	1048.81
444.518	1075.48
444.892	1068.02
445.267	1059.89
445.641	1101.47
446.016	1064.41
446.39	1111.19
446.764	1117.96
447.139	1109.38
447.513	1094.46
447.887	1109.38
448.262	1119.09
448.636	1123.16
449.01	1114.8
449.384	1132.65
449.758	1127.91
450.132	1159.32
450.506	1174.69
450.88	1192.99
451.254	1180.79
451.628	1188.02
452.002	1207.45
452.376	1199.54
452.75	1224.85
453.123	1208.81
453.497	1229.37
453.871	1263.72
454.244	1265.76
454.618	1302.59
454.992	1294.46
455.365	1301.69
455.739	1342.14
456.112	1343.04
456.486	1333.78
456.859	1361.8
457.232	1375.13
457.606	1364.29
457.979	1409.26
458.352	1392.99
458.725	1440.22
459.099	1451.52
459.472	1458.07
459.845	1470.27
460.218	1495.81
460.591	1526.77
460.964	1516.37
461.337	1544.17
461.71	1550.95
462.083	1566.31
462.456	1578.97
462.829	1580.78
463.201	1594.79
463.574	1611.74
463.947	1633.43
464.32	1663.26
464.692	1700.55
465.065	1692.19
465.438	1691.51
465.81	1729.7
466.183	1766.54
466.555	1799.75
466.928	1807.21
467.3	1830.04
467.672	1808.57
468.045	1863.03
468.417	1879.53
468.789	1889.47
469.161	1910.26
469.534	1950.94
469.906	1966.53
470.278	1981.9
470.65	1988
471.022	2039.52
471.394	2057.15
471.766	2084.95
472.138	2118.84
472.51	2155.45
472.882	2156.81
473.253	2215.79
473.625	2230.03
473.997	2310.48
474.369	2267.99
474.74	2324.49
475.112	2342.11
475.484	2405.39
475.855	2435.22
476.227	2428.44
476.598	2474.09
476.97	2497.36
477.341	2610.13
477.713	2588.66
478.084	2637.25
478.455	2711.82
478.827	2700.75
479.198	2771.48
479.569	2785.04
479.94	2864.13
480.311	2874.98
480.682	2915.66
481.053	2966.5
481.424	3041.76
481.795	3041.08
482.166	3113.84
482.537	3134.86
482.908	3186.16
483.279	3224.12
483.65	3270.22
484.021	3336.21
484.391	3371.47
484.762	3403.55
485.133	3424.12
485.503	3488.07
485.874	3572.36
486.244	3585.47
486.615	3644.45
486.985	3670.67
487.356	3748.86
487.726	3738.46
488.097	3823.66
488.467	3874.5
488.837	3940.04
489.207	3972.35
489.578	4015.52
489.948	4030.2
490.318	4137.55
490.688	4142.52
491.058	4207.6
491.428	4241.05
491.798	4238.11
492.168	4329.63
492.538	4359.01
492.908	4405.11
493.278	4481.72
493.648	4514.49
494.017	4521.94
494.387	4551.55
494.757	4611.21
495.126	4662.5
495.496	4691.43
495.866	4724.65
496.235	4806.68
496.605	4819.56
496.974	4818.66
497.344	4878.32
497.713	4896.85
498.082	4909.28
498.452	4985.21
498.821	5046
499.19	5033.12
499.559	5091.19
499.928	5118.09
500.298	5180.23
500.667	5206.45
501.036	5204.41
501.405	5269.95
501.774	5250.74
502.143	5296.61
502.512	5314.24
502.88	5386.78
503.249	5432.43
503.618	5492.77
503.987	5472.65
504.356	5508.81
504.724	5523.05
505.093	5603.27
505.462	5572.31
505.83	5630.84
506.199	5676.26
506.567	5730.05
506.936	5798.07
507.304	5860.44
507.672	5857.5
508.041	5873.77
508.409	5977.72
508.777	5935.01
509.145	6010.94
509.514	6055.01
509.882	6061.56
510.25	6114.9
510.618	6147.89
510.986	6111.28
511.354	6217.72
511.722	6320.99
512.09	6398.28
512.458	6304.27
512.826	6344.95
513.193	6409.13
513.561	6436.47
513.929	6510.59
514.297	6542.23
514.664	6589.91
515.032	6674.88
515.4	6725.73
515.767	6703.81
516.135	6736.12
516.502	6739.74
516.869	6830.13
517.237	6882.11
517.604	6904.03
517.972	6975.89
518.339	7059.96
518.706	7024.48
519.073	7014.31
519.44	7098.15
519.808	7199.16
520.175	7146.73
520.542	7356.67
520.909	7345.15
521.276	7365.94
521.643	7470.57
522.009	7492.71
522.376	7532.03
522.743	7623.33
523.11	7689.77
523.477	7797.56
523.843	7807.96
524.21	7911.68
524.577	8014.05
524.943	7952.36
525.31	8011.79
525.676	8015.18
526.043	8153.03
526.409	8177.89
526.776	8244.78
527.142	8254.95
527.508	8340.6
527.874	8368.17
528.241	8503.99
528.607	8436.19
528.973	8590.76
529.339	8581.27
529.705	8683.42
530.071	8758.67
530.437	8772.68
530.803	8806.35
531.169	8880.47
531.535	8896.52
531.901	8947.14
532.267	8969.96
532.632	9072.56
532.998	9094.93
533.364	9132.44
533.73	9136.06
534.095	9260.58
534.461	9249.05
534.826	9354.58
535.192	9313.23
535.557	9356.39
535.923	9341.93
536.288	9453.11
536.653	9465.99
537.019	9471.87
537.384	9492.43
537.749	9586.44
538.114	9656.27
538.479	9663.5
538.845	9700.79
539.21	9670.73
539.575	9706.67
539.94	9726.78
540.305	9872.99
540.67	9771.97
541.034	9933.1
541.399	9927.9
541.764	9910.73
542.129	9969.94
542.494	9989.6
542.858	9974.91
543.223	10030.05
543.587	10077.5
543.952	10043.83
544.316	10127.22
544.681	10082.93
545.045	10185.52
545.41	10236.37
545.774	10279.53
546.138	10255.8
546.503	10370.38
546.867	10326.31
547.231	10449.25
547.595	10460.77
547.959	10473.88
548.324	10521.79
548.688	10533.08
549.052	10614.89
549.416	10585.96
549.779	10573.54
550.143	10615.34
550.507	10649.24
550.871	10753.87
551.235	10743.47
551.599	10872.96
551.962	10856.69
552.326	10858.73
552.689	10989.8
553.053	10952.96
553.417	10991.38
553.78	11137.59
554.143	11148.21
554.507	11092.17
554.87	11074.99
555.234	11305.27
555.597	11267.75
555.96	11277.47
556.323	11319.5
556.686	11372.61
557.05	11461.65
557.413	11479.27
557.776	11509.33
558.139	11554.3
558.502	11547.97
558.865	11654.64
559.228	11644.02
559.59	11773.96
559.953	11771.47
560.316	11910
560.679	11927.85
561.041	11941.18
561.404	11982.09
561.767	12037.45
562.129	12010.33
562.492	12245.36
562.854	12148.41
563.217	12213.04
563.579	12262.3
563.941	12356.54
564.304	12463.43
564.666	12422.07
565.028	12454.84
565.39	12447.16
565.753	12590.43
566.115	12596.53
566.477	12679.24
566.839	12693.93
567.201	12798.34
567.563	12791.78
567.925	12956.07
568.287	12853.02
568.648	12953.81
569.01	12976.86
569.372	13133.24
569.734	13011.21
570.095	13175.95
570.457	13198.78
570.819	13208.27
571.18	13266.12
571.542	13332.56
571.903	13283.75
572.265	13434.03
572.626	13395.38
572.987	13465.89
573.349	13347.7
573.71	13474.93
574.071	13629.95
574.432	13552.21
574.794	13674.02
575.155	13666.11
575.516	13644.19
575.877	13645.09
576.238	13671.76
576.599	13742.04
576.96	13712.44
577.32	13781.59
577.681	13888.7
578.042	13889.83
578.403	13855.26
578.763	13976.38
579.124	14003.28
579.485	13971.86
579.845	14056.38
580.206	13926.44
580.566	13951.98
580.927	13942.03
581.287	14035.59
581.648	13946.55
582.008	14063.61
582.368	14009.6
582.728	14079.66
583.089	14007.12
583.449	14152.42
583.809	13962.37
584.169	14184.51
584.529	14091.41
584.889	14173.44
585.249	14168.02
585.609	13969.83
585.969	14100.9
586.329	14069.49
586.688	14149.49
587.048	14129.6
587.408	14063.61
587.768	14032.88
588.127	14118.3
588.487	14042.37
588.846	14154.01
589.206	14014.58
589.565	13938.87
589.925	14102.48
590.284	13994.69
590.643	14112.65
591.003	14167.57
591.362	14182.93
591.721	14052.99
592.08	14147.45
592.44	14151.75
592.799	14228.13
593.158	14264.51
593.517	14212.31
593.876	14181.35
594.235	14153.55
594.593	14231.97
594.952	14190.84
595.311	14107.45
595.67	14137.74
596.029	14210.5
596.387	14230.84
596.746	14248.92
597.104	14231.07
597.463	14220.45
597.822	14264.29
598.18	14163.95
598.538	14175.47
598.897	14292.31
599.255	14057.96
599.613	14404.4
599.972	14330.95
600.33	14317.17
600.688	14261.35
601.046	14312.65
601.404	14373.66
601.762	14389.71
602.12	14339.99
602.478	14385.19
602.836	14466.31
603.194	14369.59
603.552	14429.48
603.91	14400.55
604.268	14371.4
604.625	14339.31
604.983	14415.47
605.341	14330.27
605.698	14442.81
606.056	14494.56
606.413	14456.6
606.771	14422.93
607.128	14488.69
607.485	14410.04
607.843	14467.44
608.2	14534.34
608.557	14537.05
608.914	14550.61
609.272	14617.27
609.629	14586.09
609.986	14533.43
610.343	14553.77
610.7	14673.09
611.057	14631.96
611.414	14663.82
611.771	14716.03
612.127	14696.82
612.484	14686.65
612.841	14761.9
613.198	14680.09
613.554	14777.72
613.911	14850.03
614.267	14802.35
614.624	14746.53
614.98	14789.47
615.337	14845.06
615.693	14866.08
616.05	14845.97
616.406	14869.02
616.762	14825.63
617.118	14996.7
617.475	14945.62
617.831	14902.46
618.187	14951.5
618.543	14984.04
618.899	15049.8
619.255	15056.81
619.611	14998.28
619.967	14909.01
620.323	15026.98
620.678	14893.65
621.034	14958.96
621.39	14960.54
621.746	14898.39
622.101	15106.07
622.457	14894.78
622.812	14983.82
623.168	15073.53
623.523	14916.7
623.879	15066.52
624.234	14887.09
624.589	14959.63
624.945	15073.08
625.3	14989.46
625.655	15010.48
626.01	15072.4
626.365	15023.14
626.72	14990.14
627.075	14977.04
627.43	14980.43
627.785	14894.55
628.14	14980.2
628.495	15040.08
628.85	15035.57
629.205	15009.58
629.559	14978.17
629.914	14967.32
630.269	14977.71
630.623	14965.28
630.978	14949.01
631.332	14974.55
631.687	15011.38
632.041	14863.37
632.396	14880.31
632.75	14848
633.104	14954.21
633.459	14772.07
633.813	14746.31
634.167	14761.22
634.521	14798.96
634.875	14831.95
635.229	14750.37
635.583	14659.53
635.937	14618.63
636.291	14618.63
636.645	14600.1
636.999	14541.34
637.352	14543.15
637.706	14526.43
638.06	14553.32
638.413	14581.79
638.767	14475.58
639.121	14515.13
639.474	14454.11
639.828	14414.56
640.181	14519.87
640.534	14441.23
640.888	14365.07
641.241	14342.25
641.594	14351.97
641.947	14374.11
642.301	14385.64
642.654	14327.79
643.007	14331.63
643.36	14291.63
643.713	14288.69
644.066	14298.41
644.419	14240.56
644.771	14198.75
645.124	14012.99
645.477	14014.8
645.83	13971.19
646.182	13871.75
646.535	13801.25
646.888	13745.66
647.24	13706.33
647.593	13763.06
647.945	13717.63
648.298	13671.53
648.65	13638.54
649.002	13622.95
649.355	13686
649.707	13566
650.059	13748.59
650.411	13849.61
650.763	13930.74
651.115	13996.27
651.467	13971.19
651.819	13860.91
652.171	13957.4
652.523	13856.16
652.875	13930.06
653.227	13803.96
653.578	13875.37
653.93	13864.97
654.282	13830.17
654.633	13744.53
654.985	13798.76
655.337	13779.1
655.688	13759.89
656.039	13851.64
656.391	13747.01
656.742	13744.75
657.094	13781.13
657.445	13808.93
657.796	13802.38
658.147	13745.88
658.498	13707.92
658.849	13768.48
659.2	13767.58
659.551	13637.64
659.902	13771.64
660.253	13716.73
660.604	13743.62
660.955	13638.99
661.306	13663.4
661.656	13619.78
662.007	13551.99
662.358	13581.14
662.708	13584.76
663.059	13586.79
663.409	13509.05
663.76	13673.57
664.11	13576.39
664.461	13649.39
664.811	13574.59
665.161	13546.11
665.511	13620.91
665.862	13594.93
666.212	13566.23
666.562	13624.75
666.912	13513.57
667.262	13481.26
667.612	13483.29
667.962	13530.52
668.312	13502.05
668.662	13578.43
669.011	13480.58
669.361	13410.98
669.711	13426.57
670.06	13332.33
670.41	13379.56
670.76	13373.01
671.109	13389.51
671.459	13364.2
671.808	13341.82
672.157	13316.74
672.507	13294.37
672.856	13364.42
673.205	13363.07
673.554	13312.9
673.904	13245.78
674.253	13355.61
674.602	13317.42
674.951	13160.59
675.3	12950.87
675.649	13324.88
675.998	13205.33
676.346	13300.92
676.695	13334.37
677.044	13245.78
677.393	13369.85
677.741	13238.78
678.09	13228.61
678.438	13135.05
678.787	13130.98
679.135	13143.41
679.484	13049.4
679.832	13141.15
680.181	13053.24
680.529	13174.15
680.877	13104.77
681.225	12977.54
681.573	13048.72
681.922	12942.96
682.27	13047.14
682.618	12939.8
682.966	12948.84
683.314	12961.04
683.661	12962.63
684.009	12856.64
684.357	12921.5
684.705	12825.45
685.053	12931.67
685.4	12893.7
685.748	12800.37
686.095	12715.17
686.443	12568.74
686.79	12631.56
687.138	12632.01
687.485	12591.79
687.832	12691.22
688.18	12541.39
688.527	12519.47
688.874	12519.47
689.221	12533.94
689.568	12488.97
689.915	12475.41
690.262	12384.56
690.609	12336.65
690.956	12339.14
691.303	12303.43
691.65	12275.64
691.997	12185.47
692.344	12183.66
692.69	12087.17
693.037	12078.35
693.383	12022.76
693.73	12133.27
694.077	12104.34
694.423	12058.47
694.769	12081.74
695.116	12031.12
695.462	11985.02
695.808	11940.51
696.155	11966.04
696.501	11891.02
696.847	11840.62
697.193	11735.31
697.539	11884.01
697.885	11707.29
698.231	11730.57
698.577	11647.18
698.923	11647.63
699.269	11608.99
699.614	11541.65
699.96	11485.15
700.306	11459.84
700.651	11373.06
700.997	11404.25
701.342	11343.23
701.688	11315.89
702.033	11328.77
702.379	11359.5
702.724	11380.75
703.069	11333.52
703.415	11222.78
703.76	11227.08
704.105	11195.89
704.45	11173.75
704.795	11126.97
705.14	11116.12
705.485	11093.3
705.83	10962.45
706.175	11057.14
706.52	10968.55
706.865	10913.87
707.209	10922.23
707.554	10897.82
707.899	10978.95
708.243	10908.44
708.588	10892.62
708.932	10826.64
709.277	10796.13
709.621	10757.49
709.966	10745.28
710.31	10775.79
710.654	10682.69
710.998	10721.55
711.342	10761.1
711.687	10660.09
712.031	10598.62
712.375	10508.23
712.719	10580.09
713.063	10467.78
713.407	10531.05
713.75	10487.44
714.094	10510.26
714.438	10389.81
714.782	10360.89
715.125	10376.25
715.469	10411.73
715.812	10324.73
716.156	10263.71
716.499	10279.31
716.843	10242.47
717.186	10212.87
717.53	10298.29
717.873	10333.54
718.216	10323.82
718.559	10233.88
718.902	10146.2
719.246	10215.58
719.589	10207.9
719.932	10193.21
720.275	10088.12
720.617	10062.14
720.96	10084.28
721.303	10086.77
721.646	10050.16
721.989	10009.26
722.331	9970.61
722.674	10012.87
723.016	9987.56
723.359	9992.31
723.701	9967.45
724.044	9883.38
724.386	9848.58
724.729	9922.93
725.071	9891.07
725.413	9792.31
725.755	9785.99
726.097	9693.78
726.439	9710.06
726.782	9729.49
727.124	9701.92
727.465	9711.19
727.807	9712.54
728.149	9693.78
728.491	9737.4
728.833	9689.04
729.175	9722.71
729.516	9663.73
729.858	9527.24
730.199	9592.54
730.541	9626.67
730.882	9587.35
731.224	9575.37
731.565	9526.56
731.906	9499.21
732.248	9564.07
732.589	9522.26
732.93	9439.78
733.271	9437.75
733.612	9447.01
733.953	9464.41
734.294	9404.3
734.635	9438.2
734.976	9414.92
735.317	9402.72
735.658	9326.56
735.999	9371.31
736.339	9288.15
736.68	9308.03
737.021	9274.59
737.361	9227.58
737.702	9253.8
738.042	9286.34
738.383	9278.2
738.723	9305.77
739.063	9220.58
739.404	9190.07
739.744	9162.5
740.084	9164.08
740.424	9127.92
740.764	9111.65
741.104	9073.69
741.444	9092.67
741.784	9090.18
742.124	9053.8
742.464	9066.46
742.804	9079.11
743.143	9006.57
743.483	9037.98
743.823	8996.85
744.162	9024.2
744.502	8967.25
744.841	8986.23
745.181	9048.15
745.52	8978.55
745.86	9050.86
746.199	9016.97
746.538	8931.77
746.877	8885.44
747.216	8860.59
747.556	8839.8
747.895	8892.9
748.234	8820.14
748.573	8833.02
748.911	8906.23
749.25	8831.89
749.589	8820.36
749.928	8823.07
750.267	8765
750.605	8747.82
750.944	8715.05
751.283	8696.07
751.621	8748.95
751.96	8670.99
752.298	8662.85
752.636	8646.81
752.975	8630.08
753.313	8636.86
753.651	8677.09
753.989	8581.05
754.327	8625.56
754.666	8504.44
755.004	8550.76
755.342	8510.09
755.679	8495.62
756.017	8411.33
756.355	8431.44
756.693	8390.09
757.031	8427.15
757.368	8394.61
757.706	8310.54
758.044	8316.19
758.381	8291.56
758.719	8225.35
759.056	8251.56
759.394	8238.46
759.731	8201.39
760.068	8211.11
760.405	8155.75
760.743	8150.32
761.08	8151
761.417	8076.65
761.754	8020.83
762.091	8117.55
762.428	8070.55
762.765	8042.75
763.102	8010.67
763.438	7922.98
763.775	7895.19
764.112	7961.4
764.449	7899.26
764.785	7863.78
765.122	7832.82
765.458	7752.59
765.795	7800.28
766.131	7836.21
766.467	7788.98
766.804	7740.39
767.14	7699.94
767.476	7686.15
767.812	7675.53
768.148	7642.99
768.485	7623.1
768.821	7555.76
769.157	7552.37
769.492	7545.37
769.828	7552.82
770.164	7445.71
770.5	7493.16
770.836	7475.54
771.171	7381.08
771.507	7366.84
771.842	7369.33
772.178	7355.32
772.513	7366.61
772.849	7292.49
773.184	7208.43
773.519	7196.22
773.855	7200.74
774.19	7175.88
774.525	7153.74
774.86	7136.11
775.195	7214.75
775.53	7167.98
775.865	7122.1
776.2	7019.28
776.535	6948.09
776.87	6949.22
777.205	6973.4
777.539	6940.18
777.874	6904.71
778.209	6876.01
778.543	6828.55
778.878	6824.71
779.212	6829
779.547	6786.52
779.881	6770.92
780.215	6685.73
780.55	6755.78
780.884	6678.5
781.218	6696.58
781.552	6659.97
781.886	6635.56
782.22	6534.32
782.554	6546.97
782.888	6522.79
783.222	6472.4
783.556	6408
783.889	6431.5
784.223	6450.93
784.557	6371.84
784.89	6431.95
785.224	6380.43
785.557	6342.46
785.891	6335
786.224	6329.13
786.558	6339.52
786.891	6226.53
787.224	6254.55
787.557	6297.04
787.891	6252.29
788.224	6231.73
788.557	6234.67
788.89	6194.89
789.223	6187.21
789.556	6142.92
789.888	6128
790.221	6102.92
790.554	6062.02
790.887	6050.49
791.219	6022.69
791.552	6004.39
791.884	6005.07
792.217	5932.75
792.549	5858.18
792.882	5894.34
793.214	5872.42
793.546	5948.35
793.879	5860.67
794.211	5756.04
794.543	5831.97
794.875	5821.12
795.207	5813.89
795.539	5795.58
795.871	5797.62
796.203	5738.86
796.535	5674
796.867	5710.39
797.198	5710.84
797.53	5669.94
797.862	5633.55
798.193	5617.51
798.525	5606.66
798.856	5644.63
799.188	5532.09
799.519	5554.91
799.85	5499.09
800.182	5527.79
800.513	5530.28
800.844	5498.19
801.175	5515.82
801.506	5477.85
801.837	5409.15
802.168	5453.44
802.499	5411.19
802.83	5382.94
803.161	5385.42
803.491	5324.41
803.822	5380.45
804.153	5315.82
804.483	5254.35
804.814	5200.57
805.145	5227.69
805.475	5224.3
805.805	5267.91
806.136	5236.05
806.466	5243.51
806.796	5205.32
807.126	5224.52
807.457	5197.18
807.787	5141.14
808.117	5173.45
808.447	5145.2
808.777	5194.69
809.107	5144.53
809.436	5098.88
809.766	5110.85
810.096	5116.96
810.426	5100.91
810.755	5034.25
811.085	5018.65
811.414	5014.36
811.744	4945.21
812.073	4972.33
812.403	4988.15
812.732	4948.6
813.061	5015.26
813.39	4869.96
813.719	4908.83
814.049	4968.49
814.378	4931.42
814.707	4880.8
815.036	4906.34
815.365	4900.92
815.693	4836.74
816.022	4841.93
816.351	4829.51
816.68	4804.87
817.008	4832.44
817.337	4758.1
817.665	4779.56
817.994	4749.28
818.322	4736.17
818.651	4752.45
818.979	4697.53
819.307	4724.88
819.636	4747.25
819.964	4706.8
820.292	4702.05
820.62	4678.78
820.948	4660.02
821.276	4695.05
821.604	4703.41
821.932	4670.87
822.259	4702.28
822.587	4667.48
822.915	4682.39
823.243	4672.9
823.57	4640.58
823.898	4646.69
824.225	4685.78
824.553	4692.11
824.88	4717.42
825.207	4694.37
825.535	4695.5
825.862	4661.83
826.189	4674.26
826.516	4665.89
826.843	4694.59
827.17	4684.2
827.497	4639.45
827.824	4718.55
828.151	4678.78
828.478	4695.5
828.805	4733.01
829.131	4700.7
829.458	4677.19
829.785	4631.32
830.111	4637.65
830.438	4700.24
830.764	4680.13
831.09	4634.71
831.417	4620.47
831.743	4668.15
832.069	4644.88
832.395	4627.48
832.722	4674.26
833.048	4638.78
833.374	4652.56
833.7	4640.81
834.026	4626.35
834.351	4650.08
834.677	4653.92
835.003	4611.21
835.329	4596.74
835.654	4605.78
835.98	4603.97
836.306	4601.04
836.631	4615.05
836.956	4614.37
837.282	4620.92
837.607	4585.9
837.932	4571.89
838.258	4554.94
838.583	4541.83
838.908	4543.64
839.233	4547.71
839.558	4560.36
839.883	4508.84
840.208	4530.53
840.533	4497.54
840.858	4485.56
841.182	4474.94
841.507	4493.92
841.832	4497.76
842.156	4408.5
842.481	4402.85
842.805	4446.01
843.13	4438.56
843.454	4451.89
843.778	4431.1
844.103	4414.15
844.427	4412.79
844.751	4408.95
845.075	4386.13
845.399	4361.72
845.723	4351.1
846.047	4334.83
846.371	4272.23
846.695	4325.56
847.019	4295.28
847.343	4272.68
847.666	4238.79
847.99	4242.18
848.313	4214.38
848.637	4236.08
848.96	4217.54
849.284	4212.57
849.607	4143.2
849.931	4157.21
850.254	4118.34
850.577	4075.4
850.9	4120.82
851.223	4057.55
851.546	4003.54
851.869	4001.5
852.192	4021.39
852.515	4000.6
852.838	3999.25
853.161	3978.23
853.483	3974.39
853.806	3935.29
854.129	3931.22
854.451	3924.22
854.774	3915.18
855.096	3886.93
855.419	3917.89
855.741	3905.69
856.063	3873.37
856.385	3843.32
856.708	3846.71
857.03	3849.87
857.352	3871.56
857.674	3807.16
857.996	3773.94
858.318	3796.54
858.64	3805.8
858.961	3822.98
859.283	3792.24
859.605	3786.14
859.926	3762.87
860.248	3794.28
860.57	3738.01
860.891	3748.18
861.212	3753.83
861.534	3712.7
861.855	3681.29
862.176	3728.97
862.498	3709.99
862.819	3736.65
863.14	3684.68
863.461	3712.25
863.782	3641.97
864.103	3639.03
864.424	3662.76
864.745	3672.7
865.065	3628.63
865.386	3643.1
865.707	3649.42
866.027	3618.46
866.348	3651.46
866.668	3651.46
866.989	3591.12
867.309	3614.85
867.63	3560.16
867.95	3534.85
868.27	3587.73
868.59	3593.83
868.91	3606.49
869.23	3557.67
869.55	3602.42
869.87	3603.1
870.19	3570.33
870.51	3567.62
870.83	3563.78
871.15	3554.06
871.469	3545.25
871.789	3567.62
872.109	3471.35
872.428	3505.02
872.748	3504.12
873.067	3515.42
873.386	3504.12
873.706	3528.52
874.025	3494.63
874.344	3453.72
874.663	3478.13
874.982	3458.47
875.301	3462.76
875.62	3477.9
875.939	3442.2
876.258	3456.21
876.577	3422.09
876.896	3430.9
877.214	3393.61
877.533	3430.67
877.852	3426.6
878.17	3493.04
878.489	3458.47
878.807	3422.31
879.125	3384.57
879.444	3409.43
879.762	3407.4
880.08	3402.88
880.398	3367.4
880.716	3395.42
881.034	3354.74
881.352	3348.64
881.67	3362.2
881.988	3354.74
882.306	3373.72
882.624	3351.35
882.941	3356.1
883.259	3351.35
883.577	3383.44
883.894	3321.75
884.212	3356.32
884.529	3298.25
884.846	3321.97
885.164	3300.96
885.481	3312.94
885.798	3272.26
886.115	3242.65
886.432	3285.37
886.75	3191.58
887.067	3202.66
887.383	3195.2
887.7	3226.16
888.017	3202.2
888.334	3242.43
888.651	3188.19
888.967	3207.4
889.284	3204.46
889.6	3158.14
889.917	3185.26
890.233	3146.61
890.55	3158.14
890.866	3120.17
891.182	3187.97
891.498	3137.12
891.815	3124.92
892.131	3083.34
892.447	3131.25
892.763	3103.9
893.079	3072.72
893.395	3086.73
893.71	3071.59
894.026	3077.01
894.342	3065.26
894.657	3066.61
894.973	3041.53
895.289	3038.14
895.604	3022.1
895.92	3001.53
896.235	3028.88
896.55	2968.09
896.865	3008.08
897.181	2989.55
897.496	2973.74
897.811	2953.85
898.126	2921.99
898.441	2929.22
898.756	2932.83
899.071	2932.83
899.386	2899.16
899.7	2900.29
900.015	2891.7
900.33	2873.63
900.644	2884.92
900.959	2896.68
901.273	2837.92
901.588	2854.42
901.902	2853.29
902.216	2815.1
902.531	2817.13
902.845	2826.62
903.159	2818.94
903.473	2780.52
903.787	2804.02
904.101	2770.8
904.415	2779.62
904.729	2756.34
905.042	2739.84
905.356	2738.04
905.67	2732.16
905.984	2710.69
906.297	2714.99
906.611	2714.31
906.924	2709.34
907.237	2735.78
907.551	2691.71
907.864	2687.64
908.177	2675.44
908.491	2689.68
908.804	2640.18
909.117	2670.69
909.43	2656.68
909.743	2616.68
910.056	2606.97
910.368	2638.83
910.681	2589.56
910.994	2554.99
911.307	2558.38
911.619	2562.22
911.932	2552.28
912.244	2550.7
912.557	2563.12
912.869	2517.93
913.181	2545.72
913.494	2496.69
913.806	2510.47
914.118	2517.7
914.43	2474.77
914.742	2483.8
915.054	2440.19
915.366	2427.99
915.678	2408.78
915.99	2401.32
916.302	2365.39
916.613	2373.07
916.925	2406.52
917.236	2352.06
917.548	2387.54
917.859	2391.15
918.171	2376.69
918.482	2357.93
918.794	2333.3
919.105	2370.36
919.416	2332.85
919.727	2338.27
920.038	2317.48
920.349	2324.26
920.66	2323.58
920.971	2298.5
921.282	2300.53
921.593	2304.83
921.903	2273.87
922.214	2252.62
922.525	2280.42
922.835	2240.65
923.146	2253.53
923.456	2227.09
923.767	2233.19
924.077	2231.38
924.387	2185.96
924.697	2179.18
925.008	2172.63
925.318	2185.28
925.628	2176.02
925.938	2176.02
926.248	2139.18
926.558	2152.51
926.867	2115
927.177	2130.37
927.487	2145.06
927.796	2082.91
928.106	2106.64
928.416	2132.4
928.725	2089.46
929.034	2093.31
929.344	2052.18
929.653	2063.25
929.962	2050.37
930.271	2038.62
930.581	2050.14
930.89	2016.47
931.199	2056.7
931.508	2065.06
931.817	2030.48
932.125	1993.65
932.434	2011.95
932.743	1979.64
933.051	1954.55
933.36	1973.99
933.669	1936.02
933.977	1979.64
934.286	1940.32
934.594	1942.8
934.902	1936.25
935.21	1906.64
935.519	1930.82
935.827	1939.41
936.135	1929.92
936.443	1885.4
936.751	1915.68
937.059	1899.41
937.367	1877.27
937.674	1900.77
937.982	1879.07
938.29	1865.06
938.597	1852.86
938.905	1839.08
939.213	1846.31
939.52	1825.52
939.827	1830.04
940.135	1832.07
940.442	1803.82
940.749	1829.13
941.056	1816.93
941.363	1764.28
941.67	1789.59
941.977	1759.53
942.284	1763.6
942.591	1758.85
942.898	1760.43
943.205	1733.32
943.511	1742.36
943.818	1731.51
944.125	1735.35
944.431	1721.79
944.738	1727.67
945.044	1699.19
945.35	1711.4
945.657	1704.39
945.963	1728.34
946.269	1700.32
946.575	1695.12
946.881	1700.32
947.187	1705.97
947.493	1666.2
947.799	1687.22
948.105	1672.3
948.41	1629.82
948.716	1663.94
949.022	1629.36
949.327	1628.23
949.633	1635.92
949.938	1640.44
950.244	1630.27
950.549	1613.77
950.854	1614.9
951.16	1604.51
951.465	1597.27
951.77	1616.48
952.075	1591.62
952.38	1595.92
952.685	1586.88
952.99	1561.57
953.294	1573.77
953.599	1558.18
953.904	1548.01
954.209	1527.45
954.513	1542.81
954.818	1506.88
955.122	1542.59
955.426	1532.19
955.731	1496.26
956.035	1500.55
956.339	1518.86
956.643	1481.57
956.948	1513.66
957.252	1512.53
957.556	1477.96
957.86	1456.49
958.163	1490.16
958.467	1462.14
958.771	1447.67
959.075	1437.5
959.378	1439.99
959.682	1462.14
959.985	1469.14
960.289	1449.93
960.592	1443.38
960.896	1414.23
961.199	1425.75
961.502	1416.71
961.805	1389.82
962.108	1388.92
962.411	1412.87
962.714	1376.94
963.017	1378.07
963.32	1392.53
963.623	1407.67
963.926	1384.17
964.228	1322.71
964.531	1375.36
964.833	1376.26
965.136	1376.04
965.438	1340.56
965.741	1345.53
966.043	1336.26
966.345	1357.51
966.648	1317.28
966.95	1310.5
967.252	1314.34
967.554	1287.68
967.856	1288.58
968.158	1290.62
968.46	1307.79
968.761	1279.09
969.063	1313.44
969.365	1292.2
969.666	1277.51
969.968	1276.6
970.269	1269.37
970.571	1260.56
970.872	1263.27
971.174	1250.62
971.475	1228.47
971.776	1254.46
972.077	1265.31
972.378	1245.42
972.679	1242.71
972.98	1232.99
973.281	1232.99
973.582	1215.14
973.883	1217.17
974.183	1233.89
974.484	1178.75
974.785	1226.66
975.085	1181.01
975.386	1198.41
975.686	1184.63
975.986	1209.04
976.287	1191.41
976.587	1181.47
976.887	1161.13
977.187	1174.69
977.487	1175.59
977.787	1156.16
978.087	1168.13
978.387	1149.83
978.687	1146.66
978.987	1151.64
979.286	1140.11
979.586	1143.95
979.885	1160.68
980.185	1122.03
980.484	1112.54
980.784	1106.67
981.083	1141.69
981.382	1102.6
981.682	1088.59
981.981	1116.38
982.28	1090.85
982.579	1103.05
982.878	1098.76
983.177	1065.99
983.475	1096.72
983.774	1099.43
984.073	1060.11
984.372	1079.55
984.67	1076.16
984.969	1047.46
985.267	1074.12
985.566	1079.32
985.864	1038.65
986.162	1090.4
986.461	1046.1
986.759	1028.48
987.057	1025.09
987.355	1030.96
987.653	1040.9
987.951	1029.38
988.249	1025.31
988.547	1031.64
988.844	1022.6
989.142	1009.49
989.44	1025.31
989.737	1023.5
990.035	1025.76
990.332	1000.23
990.63	995.48
990.927	1014.92
991.224	1002.04
991.521	975.14
991.819	1009.49
992.116	994.13
992.413	990.74
992.71	982.83
993.006	981.25
993.303	961.36
993.6	978.08
993.897	969.49
994.193	964.52
994.49	931.53
994.787	928.82
995.083	950.51
995.379	984.64
995.676	939.89
995.972	947.57
996.268	938.53
996.565	945.31
996.861	937.86
997.157	948.03
997.453	911.87
997.749	935.82
998.044	896.05
998.34	914.58
998.636	913
998.932	901.25
999.227	899.67
999.523	889.5
999.818	887.46
1000.114	900.8
1000.409	890.17
1000.704	884.75
1001	881.14
1001.295	878.42
1001.59	895.6
1001.885	857.86
1002.18	842.94
1002.475	861.47
1002.77	853.57
1003.065	850.4
1003.359	856.05
1003.654	848.59
1003.949	859.89
1004.243	828.03
1004.538	853.11
1004.832	838.65
1005.127	825.77
1005.421	842.04
1005.715	835.03
1006.009	824.64
1006.304	805.43
1006.598	811.76
1006.892	813.11
1007.186	827.8
1007.48	824.41
1007.773	805.2
1008.067	826.9
1008.361	790.06
1008.655	806.33
1008.948	798.65
1009.242	790.06
1009.535	771.53
1009.829	778.09
1010.122	794.36
1010.415	791.65
1010.708	761.82
1011.001	764.08
1011.295	764.08
1011.588	768.6
1011.881	739.9
1012.173	779.89
1012.466	755.26
1012.759	736.96
1013.052	747.13
1013.344	734.47
1013.637	738.54
1013.93	740.12
1014.222	735.83
1014.514	733.34
1014.807	754.13
1015.099	736.73
1015.391	735.38
1015.683	723.4
1015.976	711.65
1016.268	726.79
1016.56	713.23
1016.851	716.85
1017.143	702.61
1017.435	706.68
1017.727	695.38
1018.018	692.67
1018.31	687.02
1018.602	691.76
1018.893	678.43
1019.185	668.49
1019.476	671.2
1019.767	663.74
1020.058	668.49
1020.35	644.98
1020.641	675.49
1020.932	668.03
1021.223	651.54
1021.514	660.12
1021.804	657.64
1022.095	634.36
1022.386	662.16
1022.677	656.06
1022.967	644.08
1023.258	631.42
1023.548	648.6
1023.839	646.34
1024.129	644.98
1024.419	634.36
1024.709	620.58
1025	624.42
1025.29	644.53
1025.58	636.62
1025.87	621.93
1026.16	633.23
1026.449	633.46
1026.739	603.63
1027.029	604.98
1027.319	600.46
1027.608	607.92
1027.898	600.01
1028.187	600.92
1028.477	562.95
1028.766	569.5
1029.055	591.65
1029.344	588.94
1029.634	571.99
1029.923	570.41
1030.212	567.02
1030.501	590.97
1030.79	589.39
1031.078	555.27
1031.367	560.92
1031.656	583.06
1031.945	577.64
1032.233	576.28
1032.522	553.91
1032.81	562.95
1033.099	551.43
1033.387	551.88
1033.675	561.14
1033.963	566.79
1034.251	553.01
1034.54	560.24
1034.828	579.45
1035.116	538.32
1035.403	525.21
1035.691	546.45
1035.979	538.32
1036.267	548.04
1036.554	533.8
1036.842	525.89
1037.129	534.03
1037.417	532.67
1037.704	517.53
1037.992	531.77
1038.279	519.79
1038.566	509.62
1038.853	509.62
1039.14	509.62
