Data from black_metal_pc_casing_FLMS001491_00070.txt Node
Date: Wed Feb 08 14:33:19 GMT 2017
User: dcchb
Spectrometer: FLMS00149
Trigger mode: 0
Integration Time (sec): 2.000000E-2
Scans to average: 10
Electric dark correction enabled: true
Nonlinearity correction enabled: false
Boxcar width: 0
XAxis mode: Wavelengths
Number of Pixels in Spectrum: 2048
>>>>>Begin Spectral Data<<<<<
341.393	-29.93
341.776	-29.93
342.16	-29.93
342.543	-70.38
342.927	-92.07
343.31	-62.92
343.693	-62.24
344.077	-53.2
344.46	-57.95
344.843	-32.19
345.226	-41.45
345.61	-45.97
345.993	-10.72
346.376	-10.72
346.759	-4.17
347.142	15.04
347.525	33.35
347.908	54.36
348.291	66.57
348.674	93.46
349.057	118.77
349.44	142.72
349.823	124.64
350.206	158.99
350.588	171.42
350.971	194.7
351.354	224.75
351.737	202.83
352.119	229.27
352.502	246.9
352.884	254.58
353.267	265.2
353.65	273.11
354.032	274.24
354.414	299.55
354.797	284.41
355.179	289.16
355.562	313.79
355.944	318.99
356.326	313.57
356.709	283.06
357.091	307.46
357.473	314.92
357.855	316.28
358.238	338.65
358.62	302.04
359.002	334.81
359.384	314.24
359.766	323.51
360.148	319.44
360.53	337.52
360.912	304.3
361.294	315.83
361.676	308.14
362.057	341.36
362.439	313.57
362.821	320.12
363.203	316.05
363.584	315.6
363.966	322.6
364.348	298.65
364.729	299.33
365.111	318.76
365.493	311.31
365.874	295.26
366.256	323.06
366.637	292.55
367.019	300.46
367.4	308.37
367.781	301.59
368.163	310.4
368.544	293
368.925	313.57
369.306	315.83
369.688	321.02
370.069	285.32
370.45	316.05
370.831	300.68
371.212	318.08
371.593	289.39
371.974	289.61
372.355	295.03
372.736	289.61
373.117	278.09
373.498	293.68
373.879	302.49
374.26	291.19
374.641	292.32
375.021	304.98
375.402	318.08
375.783	317.63
376.163	322.83
376.544	312.44
376.925	328.25
377.305	314.92
377.686	320.57
378.066	319.21
378.447	338.42
378.827	341.14
379.208	322.83
379.588	328.48
379.968	321.93
380.349	320.8
380.729	339.1
381.109	325.32
381.489	352.43
381.87	314.7
382.25	319.89
382.63	343.62
383.01	334.13
383.39	330.29
383.77	341.59
384.15	320.57
384.53	340.68
384.91	341.59
385.29	346.11
385.67	342.49
386.049	353.56
386.429	356.28
386.809	337.29
387.189	361.93
387.568	356.28
387.948	363.96
388.328	367.8
388.707	368.7
389.087	349.72
389.466	380
389.846	360.8
390.225	373.9
390.605	366.67
390.984	370.51
391.363	349.5
391.743	377.52
392.122	371.87
392.501	375.71
392.881	385.2
393.26	376.16
393.639	398.08
394.018	382.94
394.397	377.74
394.776	409.38
395.155	408.48
395.534	402.6
395.913	401.02
396.292	409.61
396.671	401.47
397.05	404.41
397.429	406.22
397.808	405.99
398.186	408.93
398.565	394.02
398.944	421.58
399.323	418.42
399.701	420.91
400.08	431.3
400.458	436.27
400.837	396.05
401.215	423.62
401.594	413
401.972	425.2
402.351	398.76
402.729	420.23
403.107	434.01
403.486	438.31
403.864	439.44
404.242	462.71
404.62	452.77
404.999	439.21
405.377	450.06
405.755	462.71
406.133	447.12
406.511	442.6
406.889	462.94
407.267	463.17
407.645	471.08
408.023	481.7
408.401	464.97
408.779	451.87
409.156	476.95
409.534	477.4
409.912	483.5
410.29	502.49
410.667	490.06
411.045	498.19
411.422	493.9
411.8	495.71
412.178	494.8
412.555	509.72
412.933	516.27
413.31	542.26
413.687	514.92
414.065	521.7
414.442	526.89
414.819	547.23
415.197	539.1
415.574	547.68
415.951	550.17
416.328	549.04
416.705	543.84
417.082	562.15
417.46	559.89
417.837	572.09
418.214	567.8
418.591	564.41
418.967	542.49
419.344	579.32
419.721	577.74
420.098	568.47
420.475	588.36
420.852	615.25
421.228	601.47
421.605	611.18
421.982	576.61
422.358	617.06
422.735	601.24
423.111	604.18
423.488	617.74
423.864	602.15
424.241	612.77
424.617	609.83
424.994	633.1
425.37	636.27
425.746	634.23
426.123	629.94
426.499	648.92
426.875	643.27
427.251	668.81
427.627	674.69
428.003	659.32
428.379	697.74
428.756	677.17
429.132	686.66
429.507	693.44
429.883	692.76
430.259	719.88
430.635	710.84
431.011	741.8
431.387	740.45
431.763	736.6
432.138	736.83
432.514	758.53
432.89	743.84
433.265	770.95
433.641	766.66
434.016	774.34
434.392	779.77
434.767	810.05
435.143	812.31
435.518	788.81
435.894	826.32
436.269	802.59
436.644	825.87
437.02	845.98
437.395	841.91
437.77	829.71
438.145	847.34
438.52	865.42
438.895	865.42
439.271	858.18
439.646	892.08
440.021	857.05
440.395	893.66
440.77	879.65
441.145	897.28
441.52	909.71
441.895	923.04
442.27	912.42
442.645	921.91
443.019	921.23
443.394	915.36
443.769	939.76
444.143	928.46
444.518	931.85
444.892	942.93
445.267	949.48
445.641	922.14
446.016	941.8
446.39	956.49
446.764	937.5
447.139	969.14
447.513	973.66
447.887	974.56
448.262	970.27
448.636	1015.92
449.01	998.29
449.384	997.62
449.758	1026.77
450.132	1030.61
450.506	999.2
450.88	1037.84
451.254	1035.58
451.628	1053.43
452.002	1057.5
452.376	1075.35
452.75	1108.57
453.123	1104.73
453.497	1083.26
453.871	1077.84
454.244	1103.6
454.618	1152.41
454.992	1132.3
455.365	1115.35
455.739	1149.48
456.112	1168.46
456.486	1187.21
456.859	1187.21
457.232	1219.3
457.606	1230.15
457.979	1215.91
458.352	1230.6
458.725	1257.27
459.099	1270.83
459.472	1286.87
459.845	1297.72
460.218	1306.99
460.591	1337.95
460.964	1304.5
461.337	1354.89
461.71	1375.23
462.083	1367.77
462.456	1397.38
462.829	1378.17
463.201	1394.67
463.574	1421.11
463.947	1426.76
464.32	1459.98
464.692	1457.26
465.065	1472.86
465.438	1472.4
465.81	1487.09
466.183	1549.69
466.555	1548.11
466.928	1526.41
467.3	1596.7
467.672	1594.89
468.045	1647.32
468.417	1636.24
468.789	1607.32
469.161	1651.61
469.534	1676.92
469.906	1693.87
470.278	1740.65
470.65	1741.1
471.022	1751.72
471.394	1815.45
471.766	1826.75
472.138	1837.59
472.51	1858.84
472.882	1860.87
473.253	1922.79
473.625	1899.06
473.997	1974.76
474.369	1992.84
474.74	1981.77
475.112	2016.8
475.484	2036.68
475.855	2084.37
476.227	2103.35
476.598	2125.04
476.97	2155.78
477.341	2192.39
477.713	2241.42
478.084	2227.64
478.455	2304.25
478.827	2342.21
479.198	2368.88
479.569	2360.52
479.94	2421.08
480.311	2459.27
480.682	2494.52
481.053	2552.6
481.424	2595.99
481.795	2627.85
482.166	2676.67
482.537	2691.58
482.908	2752.6
483.279	2766.61
483.65	2784.69
484.021	2844.35
484.391	2895.64
484.762	2905.14
485.133	2953.72
485.503	2981.29
485.874	3085.47
486.244	3040.95
486.615	3146.94
486.985	3153.04
487.356	3195.3
487.726	3250.89
488.097	3303.32
488.467	3298.57
488.837	3371.56
489.207	3383.54
489.578	3433.48
489.948	3439.13
490.318	3513.03
490.688	3518.45
491.058	3616.76
491.428	3618.56
491.798	3654.72
492.168	3744.21
492.538	3760.71
492.908	3798.22
493.278	3807.03
493.648	3862.85
494.017	3890.65
494.387	3923.19
494.757	3950.08
495.126	4034.15
495.496	3997.08
495.866	4058.33
496.235	4060.81
496.605	4107.36
496.974	4148.27
497.344	4175.61
497.713	4203.18
498.082	4253.35
498.452	4270.52
498.821	4268.49
499.19	4300.58
499.559	4371.31
499.928	4371.76
500.298	4438.43
500.667	4385.32
501.036	4476.17
501.405	4522.04
501.774	4491.31
502.143	4523.17
502.512	4539.67
502.88	4618.76
503.249	4587.35
503.618	4641.14
503.987	4676.84
504.356	4691.98
504.724	4718.2
505.093	4720.91
505.462	4746.67
505.83	4780.11
506.199	4802.03
506.567	4898.08
506.936	4936.27
507.304	4952.09
507.672	5020.56
508.041	5013.1
508.409	5079.77
508.777	5091.52
509.145	5104.63
509.514	5144.4
509.882	5186.66
510.25	5174.68
510.618	5238.41
510.986	5272.76
511.354	5319.76
511.722	5331.74
512.09	5373.32
512.458	5370.16
512.826	5453.77
513.193	5460.1
513.561	5480.21
513.929	5561.11
514.297	5561.79
514.664	5613.54
515.032	5607.89
515.4	5702.12
515.767	5693.08
516.135	5741.9
516.502	5736.25
516.869	5863.93
517.237	5871.39
517.604	5844.95
517.972	5930.14
518.339	5950.71
518.706	5971.95
519.073	5994.77
519.44	6062.34
519.808	6183.24
520.175	6151.15
520.542	6229.34
520.909	6261.21
521.276	6242.67
521.643	6306.63
522.009	6402.44
522.376	6447.42
522.743	6478.15
523.11	6517.7
523.477	6591.82
523.843	6654.42
524.21	6680.4
524.577	6682.21
524.943	6806.28
525.31	6814.19
525.676	6843.11
526.043	6877.01
526.409	6928.08
526.776	6974.41
527.142	7027.74
527.508	7059.83
527.874	7155.42
528.241	7163.33
528.607	7202.42
528.973	7306.38
529.339	7262.99
529.705	7352.25
530.071	7460.04
530.437	7418.69
530.803	7511.12
531.169	7479.25
531.535	7538.69
531.901	7530.32
532.267	7639.25
532.632	7599.02
532.998	7685.35
533.364	7683.09
533.73	7774.84
534.095	7897.09
534.461	7883.31
534.826	7859.58
535.192	7928.28
535.557	7940.94
535.923	8013.25
536.288	8036.53
536.653	8070.2
537.019	8126.92
537.384	8130.76
537.749	8192.23
538.114	8147.71
538.479	8156.52
538.845	8236.07
539.21	8260.02
539.575	8306.12
539.94	8319.23
540.305	8388.61
540.67	8368.95
541.034	8360.59
541.399	8409.4
541.764	8390.87
542.129	8433.13
542.494	8574.82
542.858	8593.12
543.223	8588.83
543.587	8624.76
543.952	8612.33
544.316	8586.79
544.681	8647.13
545.045	8720.12
545.41	8768.94
545.774	8809.84
546.138	8790.4
546.503	8774.59
546.867	8866.33
547.231	8902.27
547.595	8930.51
547.959	8937.29
548.324	8939.78
548.688	8954.92
549.052	9026.56
549.416	9006.9
549.779	9055.93
550.143	9100.68
550.507	9148.81
550.871	9125.54
551.235	9184.74
551.599	9188.36
551.962	9261.58
552.326	9272.88
552.689	9391.74
553.053	9345.64
553.417	9320.11
553.78	9509.93
554.143	9443.72
554.507	9455.02
554.87	9514.45
555.234	9641.68
555.597	9556.94
555.96	9605.3
556.323	9603.04
556.686	9712.87
557.05	9719.87
557.413	9856.82
557.776	9845.52
558.139	9903.14
558.502	9921.22
558.865	9913.54
559.228	10048.68
559.59	10011.39
559.953	10080.31
560.316	10098.39
560.679	10172.97
561.041	10272.4
561.404	10279.4
561.767	10349.46
562.129	10302.68
562.492	10398.27
562.854	10437.37
563.217	10412.06
563.579	10470.13
563.941	10546.29
564.304	10534.31
564.666	10624.93
565.028	10689.34
565.39	10687.08
565.753	10740.41
566.115	10783.8
566.477	10791.48
566.839	10811.82
567.201	10979.27
567.563	10951.03
567.925	10977.01
568.287	11114.41
568.648	11028.31
569.01	11121.64
569.372	11194.64
569.734	11147.63
570.095	11193.05
570.457	11274.41
570.819	11295.88
571.18	11373.84
571.542	11413.61
571.903	11315.08
572.265	11407.51
572.626	11533.16
572.987	11518.24
573.349	11561.86
573.71	11451.35
574.071	11590.33
574.432	11652.7
574.794	11729.54
575.155	11718.92
575.516	11692.02
575.877	11745.58
576.238	11764.79
576.599	11743.55
576.96	11884.56
577.32	11843.66
577.681	11899.93
578.042	11913.03
578.403	11999.13
578.763	11894.5
579.124	11941.06
579.485	12006.59
579.845	12066.48
580.206	11975.18
580.566	12004.11
580.927	12027.16
581.287	12057.89
581.648	12083.88
582.008	12146.02
582.368	12049.53
582.728	12038.45
583.089	12130.2
583.449	12052.69
583.809	12132.92
584.169	12119.81
584.529	12064.89
584.889	12186.25
585.249	12118.9
585.609	12059.92
585.969	12139.47
586.329	12173.37
586.688	12158.45
587.048	12171.56
587.408	12073.26
587.768	12099.02
588.127	12085.46
588.487	12175.4
588.846	12250.65
589.206	12149.86
589.565	12177.21
589.925	12169.75
590.284	12157.32
590.643	12143.76
591.003	12194.16
591.362	12248.39
591.721	12148.51
592.08	12243.42
592.44	12273.7
592.799	12247.04
593.158	12212.69
593.517	12258.34
593.876	12209.3
594.235	12219.24
594.593	12231.22
594.952	12305.79
595.311	12209.3
595.67	12356.64
596.029	12293.82
596.387	12251.1
596.746	12300.59
597.104	12244.1
597.463	12230.77
597.822	12316.19
598.18	12253.59
598.538	12341.5
598.897	12408.39
599.255	12246.36
599.613	12415.85
599.972	12379.91
600.33	12438.67
600.688	12386.69
601.046	12472.57
601.404	12429.18
601.762	12429.86
602.12	12490.42
602.478	12395.28
602.836	12467.37
603.194	12454.94
603.552	12492.23
603.91	12475.96
604.268	12481.83
604.625	12515.5
604.983	12498.78
605.341	12526.8
605.698	12619.23
606.056	12559.34
606.413	12601.83
606.771	12652.45
607.128	12558.44
607.485	12505.79
607.843	12528.61
608.2	12638.21
608.557	12715.05
608.914	12678.21
609.272	12699
609.629	12673.47
609.986	12826.68
610.343	12746.46
610.7	12786.68
611.057	12785.55
611.414	12742.62
611.771	12782.62
612.127	12825.33
612.484	12817.64
612.841	12814.03
613.198	12793.69
613.554	12920.69
613.911	12930.86
614.267	12916.85
614.624	12880.47
614.98	12957.07
615.337	12974.48
615.693	12956.17
616.05	12978.54
616.406	12974.7
616.762	13013.57
617.118	12925.66
617.475	12992.78
617.831	13067.13
618.187	13059.22
618.543	13014.25
618.899	13102.61
619.255	13101.93
619.611	13091.31
619.967	13055.15
620.323	13070.07
620.678	13016.06
621.034	13070.97
621.39	13088.6
621.746	13005.66
622.101	13157.52
622.457	13086.34
622.812	13101.25
623.168	13112.32
623.523	13082.04
623.879	13200.46
624.234	13054.47
624.589	13099.9
624.945	13154.58
625.3	13225.54
625.655	13139.44
626.01	13164.75
626.365	13161.14
626.72	13114.13
627.075	13115.94
627.43	13082.04
627.785	13085.43
628.14	13008.82
628.495	13105.55
628.85	13020.8
629.205	13070.07
629.559	13171.76
629.914	13013.8
630.269	13045.21
630.623	12994.81
630.978	13004.98
631.332	13043.17
631.687	13091.53
632.041	12987.36
632.396	13116.84
632.75	12956.4
633.104	12962.72
633.459	12952.33
633.813	12856.96
634.167	12883.63
634.521	12835.5
634.875	12901.93
635.229	12831.43
635.583	12824.87
635.937	12806.57
636.291	12775.84
636.645	12847.25
636.999	12766.57
637.352	12876.4
637.706	12664.88
638.06	12793.92
638.413	12784.2
638.767	12682.51
639.121	12750.3
639.474	12684.54
639.828	12714.82
640.181	12654.26
640.534	12762.73
640.888	12583.98
641.241	12482.96
641.594	12620.36
641.947	12663.75
642.301	12590.76
642.654	12554.6
643.007	12626.46
643.36	12649.51
643.713	12551.66
644.066	12568.38
644.419	12518.44
644.771	12416.75
645.124	12356.64
645.477	12268.51
645.83	12190.77
646.182	12198.68
646.535	12090.66
646.888	12119.36
647.24	12018.57
647.593	12145.57
647.945	12092.69
648.298	11983.54
648.65	11989.19
649.002	12060.37
649.355	12010.66
649.707	12000.49
650.059	12029.42
650.411	12235.06
650.763	12239.13
651.115	12332.01
651.467	12277.09
651.819	12310.99
652.171	12285.91
652.523	12137.89
652.875	12228.73
653.227	12176.08
653.578	12278.22
653.93	12195.29
654.282	12176.3
654.633	12150.32
654.985	12191.67
655.337	12124.78
655.688	12115.51
656.039	12209.3
656.391	12115.97
656.742	12113.48
657.094	12148.96
657.445	12106.48
657.796	12103.09
658.147	12132.92
658.498	12106.02
658.849	12122.52
659.2	12062.18
659.551	12055.4
659.902	12089.75
660.253	12038.23
660.604	12101.5
660.955	12005.24
661.306	12018.12
661.656	11984.44
662.007	12016.31
662.358	11987.16
662.708	11980.83
663.059	11941.51
663.409	11959.59
663.76	12014.27
664.11	11978.34
664.461	12018.12
664.811	11942.19
665.161	11903.09
665.511	11913.49
665.862	11994.16
666.212	11948.29
666.562	11915.75
666.912	11832.36
667.262	11907.16
667.612	11857.67
667.962	11938.8
668.312	11869.65
668.662	11912.13
669.011	11954.39
669.361	11890.44
669.711	11904.22
670.06	11873.04
670.41	11821.29
670.76	11810.21
671.109	11903.99
671.459	11842.53
671.808	11799.82
672.157	11869.87
672.507	11759.59
672.856	11734.73
673.205	11730.21
673.554	11794.17
673.904	11821.29
674.253	11824
674.602	11749.87
674.951	11597.11
675.3	11536.77
675.649	11758.24
675.998	11690.22
676.346	11686.83
676.695	11761.85
677.044	11648.63
677.393	11678.24
677.741	11697.45
678.09	11653.61
678.438	11647.28
678.787	11689.09
679.135	11644.11
679.484	11620.16
679.832	11590.1
680.181	11546.72
680.529	11522.54
680.877	11563.21
681.225	11523.67
681.573	11596.88
681.922	11558.47
682.27	11456.55
682.618	11471.46
682.966	11394.4
683.314	11372.26
683.661	11421.3
684.009	11382.43
684.357	11374.74
684.705	11312.82
685.053	11399.15
685.4	11269.21
685.748	11266.27
686.095	11224.46
686.443	11230.79
686.79	11211.58
687.138	11234.63
687.485	11239.61
687.832	11210.91
688.18	11257.23
688.527	11115.09
688.874	11133.85
689.221	11086.16
689.568	11041.87
689.915	11046.84
690.262	10973.17
690.609	11037.58
690.956	10951.93
691.303	10947.64
691.65	10909.9
691.997	10845.72
692.344	10767.3
692.69	10775.44
693.037	10859.28
693.383	10741.09
693.73	10775.66
694.077	10672.39
694.423	10728.88
694.769	10683.01
695.116	10682.56
695.462	10650.02
695.808	10619.96
696.155	10560.08
696.501	10579.51
696.847	10552.39
697.193	10484.82
697.539	10488.21
697.885	10412.06
698.231	10329.57
698.577	10383.58
698.923	10438.95
699.269	10297.48
699.614	10180.2
699.96	10283.7
700.306	10280.31
700.651	10237.6
700.997	10231.27
701.342	10186.3
701.688	10215.23
702.033	10134.55
702.379	10134.1
702.724	10036.7
703.069	10141.56
703.415	9963.93
703.76	10049.58
704.105	10015.23
704.45	9953.09
704.795	9911.5
705.14	9914.44
705.485	9870.38
705.83	9895.23
706.175	9826.99
706.52	9824.28
706.865	9773.43
707.209	9817.72
707.554	9770.94
707.899	9793.77
708.243	9732.75
708.588	9666.77
708.932	9671.29
709.277	9672.87
709.621	9658.63
709.966	9556.71
710.31	9605.3
710.654	9522.81
710.998	9515.58
711.342	9562.14
711.687	9452.31
712.031	9478.3
712.375	9376.38
712.719	9336.83
713.063	9420.9
713.407	9417.28
713.75	9390.39
714.094	9412.31
714.438	9430.16
714.782	9344.74
715.125	9317.85
715.469	9292.99
715.812	9290.28
716.156	9247.12
716.499	9275.36
716.843	9251.18
717.186	9171.86
717.53	9256.15
717.873	9166.21
718.216	9214.57
718.559	9169.6
718.902	9079.44
719.246	9123.5
719.589	9082.15
719.932	9011.87
720.275	9042.83
720.617	9081.47
720.96	9067.69
721.303	9006.67
721.646	9007.8
721.989	8927.12
722.331	8920.12
722.674	8977.07
723.016	8898.2
723.359	8871.08
723.701	8873.79
724.044	8879.44
724.386	8853
724.729	8847.58
725.071	8857.97
725.413	8835.6
725.755	8825.88
726.097	8852.55
726.439	8743.85
726.782	8774.81
727.124	8756.73
727.465	8701.14
727.807	8810.52
728.149	8622.5
728.491	8655.04
728.833	8679.22
729.175	8623.18
729.516	8610.07
729.858	8625.21
730.199	8540.02
730.541	8630.41
730.882	8645.55
731.224	8621.14
731.565	8537.53
731.906	8577.98
732.248	8542.73
732.589	8537.08
732.93	8489.62
733.271	8497.53
733.612	8516.06
733.953	8499.34
734.294	8442.39
734.635	8428.83
734.976	8509.51
735.317	8442.84
735.658	8412.56
735.999	8418.44
736.339	8373.01
736.68	8418.21
737.021	8403.3
737.361	8357.2
737.702	8394.93
738.042	8358.78
738.383	8325.33
738.723	8323.75
739.063	8323.75
739.404	8321.94
739.744	8316.52
740.084	8235.84
740.424	8250.08
740.764	8302.73
741.104	8272.23
741.444	8194.04
741.784	8165.79
742.124	8132.34
742.464	8163.75
742.804	8228.16
743.143	8179.35
743.483	8137.09
743.823	8074.72
744.162	8115.85
744.502	8113.59
744.841	8040.14
745.181	8047.15
745.52	8081.5
745.86	8070.2
746.199	8051.67
746.538	7983.42
746.877	8050.76
747.216	7985.45
747.556	8016.87
747.895	7983.19
748.234	7955.85
748.573	7975.74
748.911	7945.68
749.25	7934.38
749.589	7859.13
749.928	7962.4
750.267	7896.87
750.605	7857.55
750.944	7927.6
751.283	7832.01
751.621	7871.78
751.96	7795.18
752.298	7739.36
752.636	7814.61
752.975	7729.64
753.313	7740.71
753.651	7766.7
753.989	7748.17
754.327	7700.26
754.666	7674.73
755.004	7707.95
755.342	7623.66
755.679	7675.63
756.017	7532.13
756.355	7626.14
756.693	7609.19
757.031	7571.91
757.368	7560.15
757.706	7571.91
758.044	7465.92
758.381	7544.79
758.719	7512.47
759.056	7483.55
759.394	7429.99
759.731	7434.51
760.068	7450.55
760.405	7326.94
760.743	7355.41
761.08	7359.03
761.417	7302.99
761.754	7336.21
762.091	7282.87
762.428	7238.81
762.765	7264.79
763.102	7186.38
763.438	7214.85
763.775	7216.89
764.112	7185.93
764.449	7212.59
764.785	7121.3
765.122	7093.05
765.458	7025.25
765.795	7027.29
766.131	7006.27
766.467	6987.51
766.804	7006.95
767.14	6952.49
767.476	6940.51
767.812	6875.88
768.148	6946.39
768.485	6851.25
768.821	6871.81
769.157	6850.34
769.492	6814.19
769.828	6790.01
770.164	6744.36
770.5	6741.87
770.836	6763.79
771.171	6728.54
771.507	6683.79
771.842	6641.76
772.178	6692.61
772.513	6627.98
772.849	6611.7
773.184	6563.57
773.519	6569.45
773.855	6484.7
774.19	6506.17
774.525	6537.81
774.86	6455.55
775.195	6470.47
775.53	6444.03
775.865	6383.01
776.2	6377.81
776.535	6344.14
776.87	6309.57
777.205	6284.71
777.539	6240.19
777.874	6258.04
778.209	6136.91
778.543	6221.88
778.878	6193.64
779.212	6171.26
779.547	6141.66
779.881	6130.81
780.215	6081.1
780.55	6106.41
780.884	6098.72
781.218	6021.21
781.552	6009.91
781.886	6049.69
782.22	5972.63
782.554	5902.8
782.888	5908.9
783.222	5923.81
783.556	5890.14
783.889	5872.52
784.223	5851.95
784.557	5807.43
784.89	5846.75
785.224	5788
785.557	5762.24
785.891	5779.64
786.224	5801.33
786.558	5688.11
786.891	5682.92
787.224	5711.62
787.557	5625.97
787.891	5682.69
788.224	5581.9
788.557	5589.36
788.89	5581.68
789.223	5579.42
789.556	5536.48
789.888	5525.41
790.221	5493.54
790.554	5516.37
790.887	5485.18
791.219	5475.46
791.552	5472.53
791.884	5394.34
792.217	5440.89
792.549	5378.74
792.882	5358.63
793.214	5343.04
793.546	5345.3
793.879	5308.91
794.211	5296.71
794.543	5324.51
794.875	5235.02
795.207	5266.66
795.539	5260.55
795.871	5272.3
796.203	5183.04
796.535	5171.74
796.867	5171.97
797.198	5180.33
797.53	5156.6
797.862	5117.96
798.193	5110.5
798.525	5145.75
798.856	5097.39
799.188	5058.98
799.519	5032.54
799.85	4995.02
800.182	5021.92
800.513	5004.06
800.844	5006.1
801.175	5006.1
801.506	4945.31
801.837	4955.48
802.168	4924.52
802.499	4902.37
802.83	4927.68
803.161	4889.26
803.491	4905.31
803.822	4891.52
804.153	4855.14
804.483	4831.64
804.814	4830.06
805.145	4835.48
805.475	4856.72
805.805	4757.97
806.136	4771.75
806.466	4760.68
806.796	4692.21
807.126	4736.5
807.457	4702.38
807.787	4713.68
808.117	4755.48
808.447	4708.25
808.777	4682.04
809.107	4698.31
809.436	4680.46
809.766	4674.35
810.096	4661.93
810.426	4624.64
810.755	4634.81
811.085	4610.63
811.414	4615.82
811.744	4602.94
812.073	4555.04
812.403	4554.81
812.732	4523.62
813.061	4536.28
813.39	4517.97
813.719	4510.07
814.049	4534.47
814.378	4462.38
814.707	4465.09
815.036	4454.47
815.365	4437.07
815.693	4453.8
816.022	4422.16
816.351	4355.94
816.68	4423.29
817.008	4400.01
817.337	4423.29
817.665	4357.3
817.994	4411.08
818.322	4336.06
818.651	4332.44
818.979	4335.61
819.307	4305.1
819.636	4348.94
819.964	4325.66
820.292	4313.01
820.62	4306.68
820.948	4306.91
821.276	4301.93
821.604	4292.44
821.932	4262.84
822.259	4279.79
822.587	4277.98
822.915	4314.59
823.243	4305.32
823.57	4289.51
823.898	4245.67
824.225	4256.29
824.553	4250.86
824.88	4265.78
825.207	4294.03
825.535	4251.77
825.862	4306.91
826.189	4301.93
826.516	4289.51
826.843	4307.58
827.17	4286.57
827.497	4267.36
827.824	4272.33
828.151	4272.33
828.478	4264.65
828.805	4286.79
829.131	4224.87
829.458	4305.55
829.785	4264.87
830.111	4272.33
830.438	4306.23
830.764	4269.62
831.09	4266.91
831.417	4237.53
831.743	4256.96
832.069	4278.21
832.395	4246.57
832.722	4254.93
833.048	4240.02
833.374	4239.79
833.7	4179.68
834.026	4241.15
834.351	4240.02
834.677	4206.57
835.003	4255.83
835.329	4225.33
835.654	4219.68
835.98	4176.29
836.306	4179
836.631	4209.06
836.956	4168.38
837.282	4174.03
837.607	4167.93
837.932	4161.6
838.258	4161.83
838.583	4191.2
838.908	4154.14
839.233	4137.87
839.558	4150.53
839.883	4161.6
840.208	4100.13
840.533	4104.43
840.858	4112.79
841.182	4114.6
841.507	4107.82
841.832	4085.22
842.156	4098.78
842.481	4073.01
842.805	4018.55
843.13	4075.95
843.454	4049.51
843.778	4043.18
844.103	4042.73
844.427	3980.14
844.751	4010.42
845.075	3968.38
845.399	3985.11
845.723	4002.06
846.047	3987.14
846.371	3968.38
846.695	3966.58
847.019	3934.26
847.343	3901.72
847.666	3877.09
847.99	3864.43
848.313	3850.87
848.637	3845.22
848.96	3859.46
849.284	3821.5
849.607	3778.56
849.931	3776.98
850.254	3818.56
850.577	3754.6
850.9	3743.08
851.223	3703.31
851.546	3706.47
851.869	3669.86
852.192	3734.94
852.515	3654.72
852.838	3672.12
853.161	3659.47
853.483	3659.24
853.806	3620.14
854.129	3645.68
854.451	3616.08
854.774	3609.07
855.096	3576.3
855.419	3598
855.741	3551.45
856.063	3584.21
856.385	3582.86
856.708	3505.35
857.03	3539.24
857.352	3544.67
857.674	3513.26
857.996	3511.9
858.318	3459.47
858.64	3507.15
858.961	3487.04
859.283	3467.61
859.605	3433.48
859.926	3470.77
860.248	3480.71
860.57	3446.36
860.891	3436.42
861.212	3426.25
861.534	3449.3
861.855	3399.59
862.176	3450.21
862.498	3441.84
862.819	3410.43
863.14	3391
863.461	3372.92
863.782	3380.83
864.103	3364.33
864.424	3375.63
864.745	3356.2
865.065	3397.33
865.386	3356.65
865.707	3331.34
866.027	3309.42
866.348	3323.88
866.668	3326.14
866.989	3332.47
867.309	3255.18
867.63	3315.52
867.95	3305.8
868.27	3281.62
868.59	3334.5
868.91	3298.35
869.23	3257.44
869.55	3242.75
869.87	3279.59
870.19	3250.21
870.51	3307.38
870.83	3255.41
871.15	3276.88
871.469	3240.72
871.789	3211.57
872.109	3212.25
872.428	3249.31
872.748	3238.01
873.067	3255.86
873.386	3225.58
873.706	3225.58
874.025	3204.11
874.344	3206.82
874.663	3239.59
874.982	3235.75
875.301	3204.79
875.62	3191.91
875.939	3149.65
876.258	3164.56
876.577	3182.87
876.896	3147.39
877.214	3121.85
877.533	3152.13
877.852	3110.33
878.17	3116.43
878.489	3153.72
878.807	3127.28
879.125	3149.42
879.444	3120.05
879.762	3109.42
880.08	3110.78
880.398	3116.66
880.716	3146.03
881.034	3107.62
881.352	3092.25
881.67	3091.57
881.988	3077.11
882.306	3085.02
882.624	3106.71
882.941	3083.21
883.259	3081.63
883.577	3052.25
883.894	3035.98
884.212	3037.56
884.529	3022.42
884.846	2993.04
885.164	3012.03
885.481	2988.3
885.798	2989.65
886.115	2955.53
886.432	2984.23
886.75	2967.96
887.067	2946.72
887.383	2962.99
887.7	2976.77
888.017	2939.71
888.334	2938.35
888.651	2940.39
888.967	2931.8
889.284	2933.38
889.6	2924.12
889.917	2888.86
890.233	2897
890.55	2892.93
890.866	2912.37
891.182	2854.52
891.498	2872.37
891.815	2862.42
892.131	2863.55
892.447	2854.52
892.763	2847.28
893.079	2851.58
893.395	2838.47
893.71	2822.2
894.026	2835.53
894.342	2830.34
894.657	2792.14
894.973	2773.16
895.289	2759.6
895.604	2791.69
895.92	2764.12
896.235	2765.7
896.55	2763.9
896.865	2780.62
897.181	2735.65
897.496	2720.51
897.811	2686.61
898.126	2737.68
898.441	2700.85
898.756	2724.8
899.071	2715.99
899.386	2697.68
899.7	2650.23
900.015	2675.54
900.33	2636.67
900.644	2654.29
900.959	2639.83
901.273	2661.3
901.588	2631.24
901.902	2604.35
902.216	2575.65
902.531	2595.77
902.845	2595.31
903.159	2581.08
903.473	2613.62
903.787	2549.89
904.101	2555.31
904.415	2566.39
904.729	2545.14
905.042	2537.69
905.356	2533.17
905.67	2546.73
905.984	2540.63
906.297	2494.07
906.611	2486.84
906.924	2508.31
907.237	2488.2
907.551	2487.29
907.864	2496.78
908.177	2475.32
908.491	2467.41
908.804	2459.5
909.117	2394.87
909.43	2421.08
909.743	2445.71
910.056	2381.99
910.368	2409.33
910.681	2441.42
910.994	2376.11
911.307	2398.03
911.619	2407.97
911.932	2345.83
912.244	2358.26
912.557	2348.77
912.869	2368.2
913.181	2325.72
913.494	2340.63
913.806	2295.43
914.118	2301.54
914.43	2297.02
914.742	2295.43
915.054	2266.51
915.366	2269.45
915.678	2276.9
915.99	2267.64
916.302	2235.32
916.613	2233.51
916.925	2259.73
917.236	2204.81
917.548	2234.87
917.859	2221.54
918.171	2209.33
918.482	2213.85
918.794	2171.37
919.105	2181.76
919.416	2180.41
919.727	2215.44
920.038	2149.22
920.349	2127.98
920.66	2118.49
920.971	2129.11
921.282	2132.73
921.593	2096.8
921.903	2087.08
922.214	2087.76
922.525	2072.84
922.835	2050.47
923.146	2067.19
923.456	2091.82
923.767	2062.67
924.077	2063.58
924.387	2063.35
924.697	2023.35
925.008	2022.22
925.318	2012.5
925.628	2029.9
925.938	2013.63
926.248	1993.75
926.558	1968.21
926.867	1993.75
927.177	1981.09
927.487	1974.99
927.796	1966.4
928.106	1970.02
928.416	1929.57
928.725	1947.19
929.034	1954.65
929.344	1952.62
929.653	1933.64
929.962	1924.82
930.271	1919.17
930.581	1878.95
930.89	1895.22
931.199	1897.03
931.508	1868.1
931.817	1856.58
932.125	1888.21
932.434	1828.1
932.743	1888.89
933.051	1867.42
933.36	1826.29
933.669	1798.95
933.977	1795.33
934.286	1820.19
934.594	1809.57
934.902	1793.75
935.21	1797.82
935.519	1809.12
935.827	1794.88
936.135	1763.24
936.443	1756.92
936.751	1752.4
937.059	1775
937.367	1740.19
937.674	1726.41
937.982	1746.97
938.29	1765.05
938.597	1716.92
938.905	1705.62
939.213	1706.97
939.52	1671.72
939.827	1704.04
940.135	1718.5
940.442	1661.55
940.749	1664.94
941.056	1679.86
941.363	1675.79
941.67	1649.12
941.977	1680.76
942.284	1663.81
942.591	1650.03
942.898	1680.31
943.205	1614.32
943.511	1625.85
943.818	1642.12
944.125	1601.44
944.431	1615.23
944.738	1614.1
945.044	1604.15
945.35	1598.28
945.657	1542.46
945.963	1584.04
946.269	1575.68
946.575	1561.44
946.881	1564.61
947.187	1560.09
947.493	1560.09
947.799	1542.01
948.105	1569.13
948.41	1524.61
948.716	1518.73
949.022	1513.53
949.327	1544.49
949.633	1487.09
949.938	1521.67
950.244	1516.7
950.549	1483.7
950.854	1486.87
951.16	1502.23
951.465	1456.36
951.77	1480.31
952.075	1471.5
952.38	1481.44
952.685	1457.94
952.99	1435.12
953.294	1436.47
953.599	1408.45
953.904	1443.03
954.209	1436.47
954.513	1409.81
954.818	1415.23
955.122	1426.76
955.426	1448.9
955.731	1399.41
956.035	1411.62
956.339	1396.7
956.643	1396.25
956.948	1387.44
957.252	1384.27
957.556	1379.98
957.86	1386.31
958.163	1375.68
958.467	1414.1
958.771	1365.97
959.075	1363.03
959.378	1337.72
959.682	1334.1
959.985	1358.06
960.289	1334.1
960.592	1308.79
960.896	1347.89
961.199	1312.18
961.502	1320.09
961.805	1309.25
962.108	1291.62
962.411	1305.4
962.714	1286.65
963.017	1289.81
963.32	1301.34
963.623	1269.92
963.926	1258.63
964.228	1262.01
964.531	1278.96
964.833	1264.27
965.136	1268.57
965.438	1235.35
965.741	1272.86
966.043	1248
966.345	1241.9
966.648	1219.08
966.95	1220.43
967.252	1194.67
967.554	1234.22
967.856	1228.8
968.158	1200.1
968.46	1219.3
968.761	1202.58
969.063	1188.57
969.365	1221.79
969.666	1201.45
969.968	1191.06
970.269	1181.56
970.571	1180.21
970.872	1186.08
971.174	1182.92
971.475	1188.12
971.776	1169.14
972.077	1170.04
972.378	1160.32
972.679	1167.78
972.98	1161.9
973.281	1134.56
973.582	1133.2
973.883	1142.92
974.183	1137.5
974.484	1128.01
974.785	1105.63
975.085	1088.91
975.386	1136.82
975.686	1102.25
975.986	1095.01
976.287	1106.76
976.587	1088.69
976.887	1092.53
977.187	1074.9
977.487	1092.53
977.787	1095.69
978.087	1091.4
978.387	1071.51
978.687	1091.4
978.987	1066.99
979.286	1073.55
979.586	1087.56
979.885	1036.48
980.185	1073.32
980.484	1080.32
980.784	1051.17
981.083	1057.5
981.382	1038.52
981.682	1040.33
981.981	1023.6
982.28	1032.64
982.579	1035.81
982.878	1048.01
983.177	1012.53
983.475	1024.05
983.774	988.35
984.073	1024.51
984.372	1041.46
984.67	969.37
984.969	991.97
985.267	998.29
985.566	1000.78
985.864	989.25
986.162	986.99
986.461	992.42
986.759	1002.36
987.057	978.18
987.355	961.68
987.653	963.27
987.951	971.18
988.249	972.3
988.547	966.43
988.844	936.15
989.142	944.74
989.44	957.39
989.737	926.43
990.035	924.85
990.332	961.01
990.63	939.09
990.927	938.63
991.224	901.8
991.521	934.34
991.819	919.65
992.116	925.53
992.413	900.44
992.71	914.91
993.006	927.79
993.303	910.84
993.6	931.85
993.897	888.24
994.193	886.21
994.49	907.45
994.787	910.16
995.083	896.37
995.379	901.57
995.676	905.87
995.972	884.17
996.268	878.97
996.565	885.53
996.861	866.55
997.157	845.3
997.453	875.36
997.749	869.71
998.044	881.69
998.34	846.66
998.636	872.19
998.932	865.64
999.227	850.5
999.523	846.21
999.818	829.03
1000.114	857.73
1000.409	844.62
1000.704	838.3
1001	858.86
1001.295	832.87
1001.59	840.11
1001.885	819.09
1002.18	803.04
1002.475	817.28
1002.77	801.91
1003.065	818.18
1003.359	801.46
1003.654	782.25
1003.949	802.59
1004.243	815.02
1004.538	793.55
1004.832	793.1
1005.127	793.55
1005.421	784.51
1005.715	774.57
1006.009	771.41
1006.304	768.02
1006.598	782.93
1006.892	770.5
1007.186	759.66
1007.48	753.78
1007.773	772.54
1008.067	763.04
1008.361	766.21
1008.655	751.29
1008.948	750.16
1009.242	736.38
1009.535	732.54
1009.829	733.67
1010.122	742.03
1010.415	738.41
1010.708	742.25
1011.001	725.98
1011.295	716.94
1011.588	711.75
1011.881	698.41
1012.173	721.92
1012.466	705.65
1012.759	692.76
1013.052	709.49
1013.344	711.97
1013.637	711.75
1013.93	692.31
1014.222	684.63
1014.514	683.27
1014.807	664.29
1015.099	684.85
1015.391	659.77
1015.683	676.72
1015.976	694.12
1016.268	688.7
1016.56	674.69
1016.851	662.71
1017.143	645.08
1017.435	684.18
1017.727	671.97
1018.018	655.7
1018.31	658.64
1018.602	664.06
1018.893	663.84
1019.185	646.21
1019.476	651.18
1019.767	659.54
1020.058	663.16
1020.35	635.14
1020.641	633.56
1020.932	637.85
1021.223	639.21
1021.514	592.88
1021.804	632.43
1022.095	627.23
1022.386	609.15
1022.677	612.99
1022.967	630.39
1023.258	607.79
1023.548	616.38
1023.839	610.28
1024.129	611.41
1024.419	579.32
1024.709	577.51
1025	602.82
1025.29	604.86
1025.58	598.76
1025.87	591.98
1026.16	603.28
1026.449	601.02
1026.739	608.7
1027.029	568.47
1027.319	567.8
1027.608	578.19
1027.898	561.92
1028.187	542.03
1028.477	571.19
1028.766	568.7
1029.055	554.69
1029.344	560.11
1029.634	567.8
1029.923	563.95
1030.212	550.4
1030.501	567.34
1030.79	565.99
1031.078	568.47
1031.367	560.56
1031.656	539.1
1031.945	538.42
1032.233	541.58
1032.522	517.85
1032.81	550.62
1033.099	519.89
1033.387	541.13
1033.675	525.54
1033.963	517.85
1034.251	507.91
1034.54	499.1
1034.828	533.67
1035.116	533.45
1035.403	505.88
1035.691	503.39
1035.979	516.72
1036.267	519.66
1036.554	495.71
1036.842	498.19
1037.129	505.2
1037.417	510.85
1037.704	509.94
1037.992	486.22
1038.279	518.76
1038.566	502.71
1038.853	502.71
1039.14	502.71
