Data from black_metal_pc_casing_FLMS001491_00075.txt Node
Date: Wed Feb 08 14:33:29 GMT 2017
User: dcchb
Spectrometer: FLMS00149
Trigger mode: 0
Integration Time (sec): 2.000000E-2
Scans to average: 10
Electric dark correction enabled: true
Nonlinearity correction enabled: false
Boxcar width: 0
XAxis mode: Wavelengths
Number of Pixels in Spectrum: 2048
>>>>>Begin Spectral Data<<<<<
341.393	-26.07
341.776	-26.07
342.16	-26.07
342.543	-52.06
342.927	-71.72
343.31	-55
343.693	-76.92
344.077	-80.31
344.46	-63.36
344.843	-50.93
345.226	-28.78
345.61	-40.54
345.993	-28.56
346.376	-0.54
346.759	7.82
347.142	26.81
347.525	61.61
347.908	77.2
348.291	61.38
348.674	90.99
349.057	99.12
349.44	127.6
349.823	133.92
350.206	152.45
350.588	181.15
350.971	195.62
351.354	212.11
351.737	196.97
352.119	236.97
352.502	244.2
352.884	254.82
353.267	273.81
353.65	276.74
354.032	297.31
354.414	281.49
354.797	315.39
355.179	309.29
355.562	296.86
355.944	302.28
356.326	317.2
356.709	321.71
357.091	325.56
357.473	341.15
357.855	331.66
358.238	338.66
358.62	321.49
359.002	334.82
359.384	325.33
359.766	336.4
360.148	340.02
360.53	322.17
360.912	313.81
361.294	326.91
361.676	323.52
362.057	335.05
362.439	322.84
362.821	316.97
363.203	316.74
363.584	306.35
363.966	324.65
364.348	320.58
364.729	323.52
365.111	304.31
365.493	319.45
365.874	301.6
366.256	302.05
366.637	291.66
367.019	317.2
367.4	318.78
367.781	301.83
368.163	298.89
368.544	333.47
368.925	288.5
369.306	301.15
369.688	302.05
370.069	327.36
370.45	314.71
370.831	300.25
371.212	321.26
371.593	300.02
371.974	329.4
372.355	300.7
372.736	311.77
373.117	310.19
373.498	298.44
373.879	331.21
374.26	320.81
374.641	313.81
375.021	307.7
375.402	304.09
375.783	334.6
376.163	334.82
376.544	301.38
376.925	313.58
377.305	331.66
377.686	330.98
378.066	326.69
378.447	342.28
378.827	342.28
379.208	321.94
379.588	349.74
379.968	350.19
380.349	338.44
380.729	319
381.109	324.2
381.489	346.57
381.87	326.91
382.25	332.79
382.63	342.51
383.01	334.6
383.39	337.31
383.77	353.58
384.15	377.98
384.53	333.24
384.91	349.96
385.29	371.88
385.67	353.58
386.049	374.14
386.429	361.71
386.809	367.36
387.189	367.14
387.568	371.88
387.948	374.14
388.328	371.43
388.707	383.18
389.087	382.05
389.466	371.88
389.846	378.44
390.225	391.32
390.605	380.7
390.984	362.62
391.363	383.41
391.743	403.75
392.122	394.03
392.501	379.34
392.881	414.59
393.26	391.54
393.639	395.39
394.018	403.29
394.397	413.46
394.776	389.51
395.155	419.34
395.534	432.45
395.913	413.92
396.292	433.58
396.671	414.37
397.05	418.66
397.429	413.46
397.808	411.43
398.186	410.75
398.565	436.06
398.944	420.24
399.323	446.68
399.701	434.25
400.08	435.84
400.458	428.83
400.837	423.18
401.215	444.88
401.594	443.29
401.972	439.68
402.351	453.46
402.729	442.84
403.107	465.67
403.486	481.26
403.864	452.11
404.242	459.79
404.62	474.03
404.999	476.51
405.377	471.77
405.755	488.49
406.133	466.8
406.511	455.04
406.889	497.3
407.267	496.17
407.645	487.13
408.023	495.04
408.401	524.2
408.779	506.57
409.156	516.51
409.534	500.02
409.912	517.19
410.29	535.04
410.667	538.43
411.045	519
411.422	541.37
411.8	547.25
412.178	535.95
412.555	535.72
412.933	550.18
413.31	566.91
413.687	575.72
414.065	578.66
414.442	583.85
414.819	563.29
415.197	580.24
415.574	596.28
415.951	597.64
416.328	576.85
416.705	612.55
417.082	589.96
417.46	598.77
417.837	611.42
418.214	624.08
418.591	608.94
418.967	627.47
419.344	603.97
419.721	631.99
420.098	631.31
420.475	624.08
420.852	631.31
421.228	640.35
421.605	635.38
421.982	654.36
422.358	661.82
422.735	652.1
423.111	685.09
423.488	666.56
423.864	696.39
424.241	697.52
424.617	690.97
424.994	680.8
425.37	687.13
425.746	696.39
426.123	683.29
426.499	695.94
426.875	692.33
427.251	747.47
427.627	737.52
428.003	748.6
428.379	723.06
428.756	738.43
429.132	756.96
429.507	781.14
429.883	755.83
430.259	761.25
430.635	784.08
431.011	793.34
431.387	793.34
431.763	795.83
432.138	801.48
432.514	821.59
432.89	834.92
433.265	860.01
433.641	851.64
434.016	853
434.392	870.4
434.767	879.44
435.143	876.5
435.518	889.16
435.894	874.69
436.269	905.65
436.644	898.2
437.02	941.59
437.395	942.26
437.77	936.84
438.145	934.13
438.52	957.63
438.895	956.27
439.271	972.32
439.646	993.11
440.021	980
440.395	997.63
440.77	977.97
441.145	997.4
441.52	1027.23
441.895	991.98
442.27	1008.48
442.645	1050.96
443.019	1044.86
443.394	1041.02
443.769	1042.6
444.143	1031.75
444.518	1056.16
444.892	1085.31
445.267	1053.67
445.641	1060
446.016	1063.84
446.39	1075.59
446.764	1075.82
447.139	1063.62
447.513	1108.59
447.887	1117.63
448.262	1092.77
448.636	1123.28
449.01	1113.11
449.384	1148.36
449.758	1150.62
450.132	1145.87
450.506	1167.79
450.88	1158.3
451.254	1139.55
451.628	1185.19
452.002	1189.04
452.376	1196.95
452.75	1182.26
453.123	1227
453.497	1222.93
453.871	1253.22
454.244	1264.06
454.618	1274.91
454.992	1296.38
455.365	1292.08
455.739	1316.26
456.112	1319.2
456.486	1331.86
456.859	1309.71
457.232	1365.53
457.606	1378.18
457.979	1375.25
458.352	1432.65
458.725	1438.75
459.099	1417.05
459.472	1455.47
459.845	1483.27
460.218	1491.18
460.591	1497.5
460.964	1502.25
461.337	1520.1
461.71	1566.43
462.083	1564.39
462.456	1548.12
462.829	1592.87
463.201	1603.94
463.574	1601
463.947	1622.47
464.32	1634.67
464.692	1651.62
465.065	1661.34
465.438	1721
465.81	1717.84
466.183	1771.39
466.555	1747.67
466.928	1744.73
467.3	1804.61
467.672	1791.96
468.045	1842.13
468.417	1856.82
468.789	1840.54
469.161	1894.33
469.534	1893.88
469.906	1950.6
470.278	1975.46
470.65	1964.38
471.022	1986.3
471.394	2063.59
471.766	2064.27
472.138	2086.19
472.51	2123.02
472.882	2167.32
473.253	2130.71
473.625	2188.11
473.997	2247.09
474.369	2241.21
474.74	2249.12
475.112	2336.13
475.484	2347.88
475.855	2381.55
476.227	2373.19
476.598	2442.34
476.97	2447.76
477.341	2533.63
477.713	2537.02
478.084	2577.02
478.455	2619.06
478.827	2645.95
479.198	2732.72
479.569	2745.38
479.94	2816.34
480.311	2838.94
480.682	2893.85
481.053	2929.33
481.424	2979.27
481.795	3008.42
482.166	3080.51
482.537	3111.25
482.908	3140.4
483.279	3165.71
483.65	3216.78
484.021	3320.28
484.391	3269.21
484.762	3369.54
485.133	3371.13
485.503	3403.44
485.874	3494.51
486.244	3502.87
486.615	3578.35
486.985	3648.86
487.356	3690.21
487.726	3688.86
488.097	3754.62
488.467	3760.95
488.837	3832.58
489.207	3920.94
489.578	3936.99
489.948	4025.57
490.318	4088.4
490.688	4058.34
491.058	4137.89
491.428	4134.04
491.798	4237.54
492.168	4282.97
492.538	4293.81
492.908	4310.08
493.278	4411.1
493.648	4416.3
494.017	4509.18
494.387	4500.59
494.757	4553.69
495.126	4595.95
495.496	4621.26
495.866	4666.01
496.235	4693.35
496.605	4726.57
496.974	4747.14
497.344	4820.35
497.713	4810.64
498.082	4853.35
498.452	4916.4
498.821	4950.75
499.19	4930.86
499.559	5033.23
499.928	5060.12
500.298	5048.6
500.667	5121.14
501.036	5089.05
501.405	5173.11
501.774	5170.17
502.143	5184.86
502.512	5244.75
502.88	5321.13
503.249	5308.93
503.618	5354.58
503.987	5400.45
504.356	5459.21
504.724	5442.71
505.093	5468.25
505.462	5475.25
505.83	5514.57
506.199	5545.31
506.567	5608.81
506.936	5633.44
507.304	5696.94
507.672	5736.26
508.041	5769.48
508.409	5787.33
508.777	5848.35
509.145	5857.61
509.514	5941.91
509.882	5950.04
510.25	5974.67
510.618	6009.7
510.986	6015.8
511.354	6133.99
511.722	6164.95
512.09	6203.14
512.458	6181.45
512.826	6233.2
513.193	6294.66
513.561	6382.12
513.929	6354.78
514.297	6461.67
514.664	6495.11
515.032	6513.87
515.4	6615.33
515.767	6573.53
516.135	6614.2
516.502	6601.1
516.869	6709.12
517.237	6763.35
517.604	6782.34
517.972	6891.26
518.339	6916.57
518.706	6931.94
519.073	6990.92
519.44	7029.33
519.808	7089.9
520.175	7079.96
520.542	7133.51
520.909	7226.17
521.276	7237.24
521.643	7363.11
522.009	7424.58
522.376	7439.27
522.743	7521.75
523.11	7569.21
523.477	7608.98
523.843	7628.64
524.21	7733.27
524.577	7814.4
524.943	7831.8
525.31	7900.5
525.676	7954.73
526.043	8019.82
526.409	8062.3
526.776	8153.6
527.142	8181.4
527.508	8210.32
527.874	8271.34
528.241	8309.98
528.607	8396.08
528.973	8442.18
529.339	8441.05
529.705	8528.73
530.071	8642.63
530.437	8633.59
530.803	8662.51
531.169	8667.94
531.535	8679.91
531.901	8723.3
532.267	8845.11
532.632	8852.56
532.998	8907.25
533.364	8964.43
533.73	8982.73
534.095	9073.35
534.461	9100.92
534.826	9154.7
535.192	9188.37
535.557	9285.09
535.923	9200.58
536.288	9311.31
536.653	9271.31
537.019	9303.85
537.384	9376.62
537.749	9478.08
538.114	9513.34
538.479	9580.45
538.845	9519.44
539.21	9493.22
539.575	9585.2
539.94	9603.28
540.305	9707.46
540.67	9683.05
541.034	9669.04
541.399	9784.29
541.764	9817.74
542.129	9846.89
542.494	9874.68
542.858	9886.21
543.223	9907.45
543.587	9976.15
543.952	9946.32
544.316	10081.23
544.681	10048.92
545.045	10104.96
545.41	10136.6
545.774	10212.98
546.138	10177.73
546.503	10209.14
546.867	10281.68
547.231	10344.05
547.595	10346.31
547.959	10326.88
548.324	10404.84
548.688	10415.01
549.052	10489.58
549.416	10526.87
549.779	10449.58
550.143	10564.16
550.507	10670.14
550.871	10710.59
551.235	10665.62
551.599	10760.76
551.962	10745.62
552.326	10804.6
552.689	10858.16
553.053	10876.69
553.417	10895.45
553.78	10972.06
554.143	10955.33
554.507	10963.69
554.87	11131.15
555.234	11206.17
555.597	11113.3
555.96	11191.71
556.323	11270.13
556.686	11330.01
557.05	11419.05
557.413	11353.97
557.776	11348.77
558.139	11520.74
558.502	11461.08
558.865	11534.98
559.228	11690.46
559.59	11602.77
559.953	11666.05
560.316	11804.8
560.679	11773.17
561.041	11894.52
561.404	11916.66
561.767	12005.25
562.129	11887.29
562.492	12114.17
562.854	12113.27
563.217	12164.34
563.579	12196.43
563.941	12239.82
564.304	12368.4
564.666	12358.91
565.028	12446.82
565.39	12398.69
565.753	12569.08
566.115	12653.82
566.477	12644.33
566.839	12634.39
567.201	12737.21
567.563	12784.21
567.925	12873.02
568.287	12859.46
568.648	12901.5
569.01	12965
569.372	13112.79
569.734	13040.93
570.095	13093.58
570.457	13190.75
570.819	13188.5
571.18	13200.7
571.542	13265.78
571.903	13177.65
572.265	13343.75
572.626	13360.47
572.987	13413.12
573.349	13511.65
573.71	13482.72
574.071	13474.59
574.432	13630.74
574.794	13642.49
575.155	13667.35
575.516	13568.37
575.877	13697.86
576.238	13735.6
576.599	13779.89
576.96	13798.42
577.32	13786.67
577.681	13829.61
578.042	13887.01
578.403	13820.12
578.763	13926.33
579.124	13958.64
579.485	13992.99
579.845	14011.07
580.206	14035.25
580.566	13987.8
580.927	14075.7
581.287	14087.23
581.648	14039.32
582.008	14089.26
582.368	14176.72
582.728	14080.45
583.089	14155.93
583.449	14101.92
583.809	14108.92
584.169	14124.52
584.529	14127.23
584.889	14200.67
585.249	14130.84
585.609	14041.35
585.969	14142.14
586.329	14214.91
586.688	14185.53
587.048	14090.84
587.408	14183.05
587.768	14132.88
588.127	14064.18
588.487	14172.2
588.846	14209.94
589.206	14176.04
589.565	14159.77
589.925	14257.39
590.284	14174.23
590.643	14181.01
591.003	14221.91
591.362	14169.94
591.721	14308.47
592.08	14247.68
592.44	14278.18
592.799	14223.95
593.158	14262.82
593.517	14181.92
593.876	14287.45
594.235	14340.56
594.593	14296.71
594.952	14323.61
595.311	14218.75
595.67	14275.25
596.029	14333.78
596.387	14396.6
596.746	14329.93
597.104	14313.66
597.463	14379.65
597.822	14436.82
598.18	14286.32
598.538	14409.25
598.897	14405.41
599.255	14291.52
599.613	14581.45
599.972	14495.13
600.33	14493.09
600.688	14475.69
601.046	14497.61
601.404	14517.73
601.762	14469.14
602.12	14553.43
602.478	14644.28
602.836	14508.23
603.194	14452.42
603.552	14549.59
603.91	14484.05
604.268	14613.32
604.625	14512.3
604.983	14674.33
605.341	14607.89
605.698	14595.69
606.056	14641.79
606.413	14682.47
606.771	14701.9
607.128	14649.93
607.485	14675.01
607.843	14652.19
608.2	14693.09
608.557	14851.73
608.914	14781.45
609.272	14742.13
609.629	14853.76
609.986	14826.64
610.343	14788.45
610.7	14838.4
611.057	14877.26
611.414	14817.15
611.771	14787.78
612.127	14917.26
612.484	14932.86
612.841	14982.35
613.198	14952.52
613.554	14996.58
613.911	15060.54
614.267	14993.19
614.624	15064.15
614.98	15136.01
615.337	15154.32
615.693	15061.89
616.05	15060.76
616.406	15213.3
616.762	15079.97
617.118	15115.9
617.475	15129.01
617.831	15150.93
618.187	15157.48
618.543	15172.17
618.899	15365.16
619.255	15139.86
619.611	15192.96
619.967	15171.95
620.323	15301.89
620.678	15200.87
621.034	15238.16
621.39	15281.55
621.746	15192.96
622.101	15295.56
622.457	15157.93
622.812	15326.29
623.168	15287.2
623.523	15148.22
623.879	15331.49
624.234	15169.69
624.589	15294.2
624.945	15281.1
625.3	15346.86
625.655	15289.23
626.01	15329
626.365	15284.49
626.72	15259.4
627.075	15271.6
627.43	15211.04
627.785	15241.55
628.14	15268.67
628.495	15337.37
628.85	15243.36
629.205	15248.55
629.559	15303.92
629.914	15215.56
630.269	15247.42
630.623	15145.51
630.978	15128.11
631.332	15115
631.687	15265.95
632.041	15163.13
632.396	15148.67
632.75	15028.67
633.104	15099.86
633.459	15033.87
633.813	15025.73
634.167	15058.28
634.521	15086.3
634.875	15069.58
635.229	15072.06
635.583	14920.65
635.937	14949.13
636.291	14946.87
636.645	14918.17
636.999	14882.24
637.352	14962.01
637.706	14893.99
638.06	14829.81
638.413	14875
638.767	14842.46
639.121	14885.17
639.474	14811.73
639.828	14781.9
640.181	14813.09
640.534	14816.02
640.888	14738.74
641.241	14782.58
641.594	14719.98
641.947	14714.78
642.301	14716.59
642.654	14796.59
643.007	14685.63
643.36	14635.01
643.713	14534.67
644.066	14635.24
644.419	14536.93
644.771	14449.93
645.124	14258.52
645.477	14286.09
645.83	14149.37
646.182	14123.84
646.535	14087.45
646.888	14146.89
647.24	14045.87
647.593	14151.18
647.945	14047
648.298	14039.77
648.65	13991.86
649.002	13936.27
649.355	13982.37
649.707	13968.59
650.059	14021.47
650.411	14122.48
650.763	14153.22
651.115	14329.93
651.467	14294.68
651.819	14226.43
652.171	14248.81
652.523	14224.63
652.875	14201.12
653.227	14151.63
653.578	14200.9
653.93	14228.92
654.282	14084.06
654.633	14054.69
654.985	14178.98
655.337	14154.8
655.688	14150.28
656.039	14223.27
656.391	14056.49
656.742	14094.23
657.094	14115.48
657.445	14080
657.796	14042.48
658.147	14014.24
658.498	14032.09
658.849	14045.2
659.2	13961.36
659.551	14035.48
659.902	14040.22
660.253	13955.48
660.604	14014.69
660.955	13891.3
661.306	13954.35
661.656	13887.46
662.007	13996.84
662.358	13912.32
662.708	13816.5
663.059	13974.24
663.409	13862.15
663.76	13910.74
664.11	13970.62
664.461	13979.43
664.811	13909.61
665.161	13920.23
665.511	13880.23
665.862	13890.4
666.212	13931.07
666.562	13834.81
666.912	13856.5
667.262	13789.38
667.612	13854.24
667.962	13840.23
668.312	13918.87
668.662	13973.33
669.011	13877.97
669.361	13775.82
669.711	13876.61
670.06	13847.01
670.41	13761.14
670.76	13795.48
671.109	13804.52
671.459	13799.33
671.808	13708.26
672.157	13778.54
672.507	13629.84
672.856	13706.22
673.205	13846.33
673.554	13745.09
673.904	13733.57
674.253	13793.9
674.602	13714.58
674.951	13515.04
675.3	13494.93
675.649	13792.77
675.998	13607.69
676.346	13571.54
676.695	13720.68
677.044	13586.45
677.393	13607.02
677.741	13561.14
678.09	13503.29
678.438	13557.52
678.787	13571.76
679.135	13581.93
679.484	13436.62
679.832	13486.57
680.181	13486.34
680.529	13450.86
680.877	13411.77
681.225	13490.41
681.573	13512.78
681.922	13421.71
682.27	13438.21
682.618	13388.49
682.966	13407.47
683.314	13350.3
683.661	13294.25
684.009	13290.87
684.357	13257.42
684.705	13195.73
685.053	13236.18
685.4	13255.84
685.748	13073.7
686.095	13089.29
686.443	13176.07
686.79	13062.4
687.138	13104.66
687.485	13027.82
687.832	12974.49
688.18	13082.96
688.527	12974.04
688.874	12913.25
689.221	12900.59
689.568	12893.36
689.915	12909.41
690.262	12759.13
690.609	12801.84
690.956	12782.86
691.303	12768.85
691.65	12661.5
691.997	12667.6
692.344	12532.24
692.69	12512.35
693.037	12592.13
693.383	12454.95
693.73	12516.42
694.077	12447.05
694.423	12454.05
694.769	12411.11
695.116	12404.79
695.462	12394.62
695.808	12310.33
696.155	12299.93
696.501	12300.61
696.847	12296.09
697.193	12156.88
697.539	12205.24
697.885	12115.08
698.231	12097.68
698.577	12047.28
698.923	11992.82
699.269	11907.85
699.614	11941.97
699.96	11920.51
700.306	11946.95
700.651	11937
700.997	11838.02
701.342	11805.48
701.688	11757.57
702.033	11702.43
702.379	11688.42
702.724	11684.58
703.069	11791.24
703.415	11641.87
703.76	11574.07
704.105	11602.1
704.45	11559.84
704.795	11509.22
705.14	11508.54
705.485	11453.63
705.83	11379.73
706.175	11378.15
706.52	11314.42
706.865	11390.58
707.209	11385.6
707.554	11302.89
707.899	11326.17
708.243	11272.16
708.588	11218.6
708.932	11169.11
709.277	11174.54
709.621	11113.07
709.966	11140.19
710.31	11163.92
710.654	11047.76
710.998	11096.35
711.342	11111.94
711.687	11029.68
712.031	10935.22
712.375	11005.28
712.719	10973.86
713.063	10998.72
713.407	10965.05
713.75	10917.59
714.094	10816.58
714.438	10749.24
714.782	10820.87
715.125	10758.5
715.469	10808.67
715.812	10756.92
716.156	10690.26
716.499	10748.11
716.843	10686.87
717.186	10653.65
717.53	10654.78
717.873	10649.58
718.216	10690.26
718.559	10568.9
718.902	10544.5
719.246	10573.42
719.589	10510.37
719.932	10470.37
720.275	10482.8
720.617	10433.54
720.96	10419.3
721.303	10425.86
721.646	10445.97
721.989	10370.72
722.331	10450.94
722.674	10413.65
723.016	10341.79
723.359	10370.26
723.701	10337.95
724.044	10269.25
724.386	10278.74
724.729	10264.73
725.071	10342.24
725.413	10251.85
725.755	10262.92
726.097	10138.63
726.439	10158.29
726.782	10114.45
727.124	10249.14
727.465	10114.68
727.807	10181.79
728.149	10116.03
728.491	10116.94
728.833	10158.52
729.175	10001.91
729.516	10021.8
729.858	10047.56
730.199	10015.47
730.541	9971.4
730.882	9937.73
731.224	10109.93
731.565	9931.86
731.906	9953.1
732.248	9910.39
732.589	9857.28
732.93	9845.98
733.271	9865.19
733.612	9927.79
733.953	9912.65
734.294	9844.18
734.635	9742.94
734.976	9788.13
735.317	9804.63
735.658	9769.6
735.999	9744.52
736.339	9776.38
736.68	9797.17
737.021	9748.81
737.361	9711.3
737.702	9743.16
738.042	9703.16
738.383	9703.39
738.723	9637.85
739.063	9674.24
739.404	9705.65
739.744	9644.41
740.084	9587.69
740.424	9607.12
740.764	9558.76
741.104	9551.98
741.444	9502.04
741.784	9537.74
742.124	9512.21
742.464	9455.03
742.804	9510.17
743.143	9492.77
743.483	9447.35
743.823	9403.51
744.162	9406
744.502	9404.41
744.841	9386.56
745.181	9374.58
745.52	9375.71
745.86	9309.5
746.199	9345.88
746.538	9316.51
746.877	9352.66
747.216	9445.09
747.556	9328.94
747.895	9345.88
748.234	9266.11
748.573	9266.34
748.911	9271.54
749.25	9250.29
749.589	9142.95
749.928	9203.06
750.267	9148.83
750.605	9125.78
750.944	9173.69
751.283	9172.78
751.621	9113.12
751.96	9093.24
752.298	9104.76
752.636	9068.15
752.975	8992.22
753.313	8977.31
753.651	8970.53
753.989	8973.92
754.327	8931.66
754.666	8903.18
755.004	8904.54
755.342	8917.42
755.679	8862.73
756.017	8866.57
756.355	8825.9
756.693	8810.76
757.031	8867.7
757.368	8788.38
757.706	8703.87
758.044	8696.41
758.381	8727.14
758.719	8679.69
759.056	8736.18
759.394	8665.22
759.731	8591.78
760.068	8541.61
760.405	8540.26
760.743	8479.47
761.08	8574.83
761.417	8448.05
761.754	8485.34
762.091	8453.25
762.428	8464.78
762.765	8392.91
763.102	8415.97
763.438	8347.49
763.775	8342.75
764.112	8292.35
764.449	8301.17
764.785	8269.3
765.122	8193.6
765.458	8212.81
765.795	8196.76
766.131	8216.65
766.467	8226.37
766.804	8110.21
767.14	8052.13
767.476	8112.7
767.812	8020.5
768.148	8025.92
768.485	7968.07
768.821	7939.37
769.157	7962.87
769.492	7870.22
769.828	7939.37
770.164	7871.8
770.5	7800.84
770.836	7801.29
771.171	7773.95
771.507	7748.41
771.842	7707.74
772.178	7683.78
772.513	7717.68
772.849	7721.75
773.184	7609.66
773.519	7580.96
773.855	7611.69
774.19	7580.28
774.525	7514.07
774.86	7514.29
775.195	7499.83
775.53	7446.73
775.865	7370.79
776.2	7365.6
776.535	7308.65
776.87	7304.58
777.205	7301.19
777.539	7282.89
777.874	7292.38
778.209	7178.94
778.543	7226.84
778.878	7155.21
779.212	7169.67
779.547	7092.61
779.881	7097.36
780.215	7063.91
780.55	7078.83
780.884	7004.48
781.218	7014.42
781.552	6966.29
781.886	6941.43
782.22	6943.91
782.554	6925.61
782.888	6873.18
783.222	6833.18
783.556	6789.12
783.889	6803.35
784.223	6750.92
784.557	6707.99
784.89	6744.37
785.224	6734.43
785.557	6646.97
785.891	6678.84
786.224	6605.84
786.558	6618.05
786.891	6557.71
787.224	6572.62
787.557	6543.25
787.891	6577.37
788.224	6545.28
788.557	6519.07
788.89	6502.57
789.223	6483.81
789.556	6412.18
789.888	6419.86
790.221	6364.27
790.554	6382.35
790.887	6384.15
791.219	6310.26
791.552	6318.17
791.884	6258.28
792.217	6265.51
792.549	6226.19
792.882	6186.19
793.214	6199.75
793.546	6182.35
793.879	6185.74
794.211	6084.5
794.543	6171.05
794.875	6119.98
795.207	6097.38
795.539	6091.96
795.871	6055.8
796.203	6003.83
796.535	5997.27
796.867	5958.18
797.198	5943.04
797.53	5992.53
797.862	5912.3
798.193	5931.28
798.525	5855.13
798.856	5889.7
799.188	5875.92
799.519	5818.75
799.85	5840.21
800.182	5822.14
800.513	5785.07
800.844	5759.54
801.175	5752.31
801.506	5732.42
801.837	5703.49
802.168	5727.67
802.499	5691.07
802.83	5698.52
803.161	5647
803.491	5619.43
803.822	5632.31
804.153	5582.37
804.483	5565.42
804.814	5545.53
805.145	5539.2
805.475	5607.68
805.805	5552.09
806.136	5501.92
806.466	5508.92
806.796	5528.36
807.126	5498.98
807.457	5425.08
807.787	5484.06
808.117	5456.04
808.447	5463.27
808.777	5417.63
809.107	5436.38
809.436	5357.51
809.766	5385.08
810.096	5331.07
810.426	5320
810.755	5359.77
811.085	5250.85
811.414	5298.98
811.744	5210.63
812.073	5255.14
812.403	5240
812.732	5168.59
813.061	5178.08
813.39	5209.27
813.719	5166.33
814.049	5224.64
814.378	5171.3
814.707	5133.79
815.036	5195.48
815.365	5102.38
815.693	5069.61
816.022	5092.44
816.351	5049.73
816.68	5046.79
817.008	5077.97
817.337	5042.72
817.665	5010.63
817.994	5025.09
818.322	5034.81
818.651	4990.07
818.979	5017.41
819.307	4992.33
819.636	5014.92
819.964	4957.3
820.292	4958.88
820.62	4974.93
820.948	4991.65
821.276	5001.59
821.604	4970.86
821.932	4962.27
822.259	4934.93
822.587	4925.89
822.915	4942.84
823.243	4987.13
823.57	4922.27
823.898	4921.82
824.225	4978.99
824.553	4959.33
824.88	4961.37
825.207	4948.71
825.535	4925.44
825.862	4914.59
826.189	4945.55
826.516	4946
826.843	4940.12
827.17	4986.22
827.497	4971.76
827.824	4919.56
828.151	4933.8
828.478	4962.04
828.805	4948.71
829.131	4923.4
829.458	4874.82
829.785	4920.92
830.111	4937.86
830.438	4949.84
830.764	4902.16
831.09	4932.67
831.417	4820.81
831.743	4886.34
832.069	4903.74
832.395	4882.72
832.722	4918.43
833.048	4855.83
833.374	4902.61
833.7	4877.98
834.026	4895.61
834.351	4880.01
834.677	4811.31
835.003	4860.8
835.329	4872.33
835.654	4826
835.98	4815.16
836.306	4838.43
836.631	4833.01
836.956	4873.91
837.282	4837.08
837.607	4799.11
837.932	4823.74
838.258	4799.79
838.583	4769.06
838.908	4756.17
839.233	4766.57
839.558	4786
839.883	4756.17
840.208	4720.92
840.533	4719.11
840.858	4757.3
841.182	4755.27
841.507	4739.45
841.832	4680.92
842.156	4706.91
842.481	4697.87
842.805	4670.53
843.13	4649.51
843.454	4725.44
843.778	4644.76
844.103	4640.92
844.427	4614.71
844.751	4634.14
845.075	4594.82
845.399	4550.76
845.723	4582.85
846.047	4550.76
846.371	4545.33
846.695	4552.11
847.019	4483.19
847.343	4497.2
847.666	4445.22
847.99	4437.76
848.313	4437.09
848.637	4416.75
848.96	4435.73
849.284	4429.86
849.607	4358.44
849.931	4350.31
850.254	4362.96
850.577	4255.4
850.9	4311.89
851.223	4296.07
851.546	4254.49
851.869	4248.84
852.192	4252.23
852.515	4203.19
852.838	4217.66
853.161	4225.34
853.483	4195.29
853.806	4155.96
854.129	4123.65
854.451	4120.03
854.774	4108.73
855.096	4117.32
855.419	4140.15
855.741	4123.87
856.063	4040.94
856.385	4074.16
856.708	4060.6
857.03	4109.41
857.352	4067.38
857.674	4047.04
857.996	4009.08
858.318	4008.17
858.64	4029.41
858.961	4011.56
859.283	4016.76
859.605	3993.48
859.926	3991
860.248	3950.09
860.57	3923.88
860.891	3969.53
861.212	3920.49
861.534	3925.69
861.855	3944.67
862.176	3892.92
862.498	3922.52
862.819	3927.95
863.14	3887.04
863.461	3880.72
863.782	3895.63
864.103	3914.84
864.424	3877.55
864.745	3903.32
865.065	3879.36
865.386	3884.78
865.707	3838.23
866.027	3833.49
866.348	3792.58
866.668	3823.54
866.989	3800.49
867.309	3826.26
867.63	3804.79
867.95	3822.64
868.27	3774.28
868.59	3788.52
868.91	3752.36
869.23	3783.54
869.55	3752.36
869.87	3769.99
870.19	3695.41
870.51	3746.26
870.83	3754.84
871.15	3720.04
871.469	3750.1
871.789	3721.17
872.109	3680.72
872.428	3696.77
872.748	3674.62
873.067	3684.79
873.386	3666.94
873.706	3723.21
874.025	3649.31
874.344	3685.69
874.663	3666.26
874.982	3666.03
875.301	3643.44
875.62	3633.49
875.939	3640.05
876.258	3673.04
876.577	3662.42
876.896	3651.57
877.214	3628.52
877.533	3634.62
877.852	3629.2
878.17	3633.27
878.489	3621.06
878.807	3604.34
879.125	3636.2
879.444	3572.93
879.762	3586.49
880.08	3567.51
880.398	3569.31
880.716	3613.38
881.034	3559.14
881.352	3541.52
881.67	3510.11
881.988	3575.19
882.306	3544.23
882.624	3513.5
882.941	3503.55
883.259	3497.68
883.577	3459.03
883.894	3473.27
884.212	3508.52
884.529	3491.35
884.846	3449.77
885.164	3484.12
885.481	3481.63
885.798	3468.98
886.115	3484.12
886.432	3442.54
886.75	3380.62
887.067	3416.1
887.383	3445.47
887.7	3403.67
888.017	3409.09
888.334	3372.03
888.651	3401.86
888.967	3395.08
889.284	3383.1
889.6	3352.6
889.917	3364.35
890.233	3339.26
890.55	3349.88
890.866	3335.19
891.182	3350.11
891.498	3297.91
891.815	3308.53
892.131	3277.34
892.447	3354.86
892.763	3287.06
893.079	3262.88
893.395	3278.02
893.71	3259.04
894.026	3245.48
894.342	3234.63
894.657	3233.05
894.973	3213.84
895.289	3236.44
895.604	3186.5
895.92	3177.01
896.235	3198.93
896.55	3156.22
896.865	3170.68
897.181	3163.9
897.496	3127.29
897.811	3160.06
898.126	3102.43
898.441	3092.94
898.756	3092.04
899.071	3066.28
899.386	3098.36
899.7	3080.96
900.015	3066.28
900.33	3038.25
900.644	2995.77
900.959	3045.71
901.273	3004.81
901.588	3026.28
901.902	2988.54
902.216	3003.9
902.531	2982.66
902.845	2981.98
903.159	2954.19
903.473	2967.29
903.787	2937.92
904.101	2962.1
904.415	2900.4
904.729	2868.99
905.042	2921.19
905.356	2895.43
905.67	2902.89
905.984	2918.48
906.297	2910.35
906.611	2868.99
906.924	2847.98
907.237	2843.46
907.551	2833.74
907.864	2807.53
908.177	2799.16
908.491	2800.75
908.804	2786.73
909.117	2748.09
909.43	2753.29
909.743	2753.29
910.056	2759.84
910.368	2717.81
910.681	2715.78
910.994	2700.41
911.307	2703.8
911.619	2655.66
911.932	2672.84
912.244	2664.03
912.557	2695.66
912.869	2652.73
913.181	2640.07
913.494	2658.6
913.806	2582.22
914.118	2612.05
914.43	2636.46
914.742	2634.42
915.054	2594.88
915.366	2551.03
915.678	2573.18
915.99	2534.31
916.302	2553.29
916.613	2536.12
916.925	2557.36
917.236	2513.3
917.548	2528.44
917.859	2540.41
918.171	2506.74
918.482	2491.38
918.794	2480.53
919.105	2489.12
919.416	2465.84
919.727	2435.11
920.038	2469.23
920.349	2434.43
920.66	2408.21
920.971	2421.32
921.282	2385.16
921.593	2376.8
921.903	2376.58
922.214	2348.1
922.525	2374.99
922.835	2372.06
923.146	2344.94
923.456	2334.09
923.767	2330.02
924.077	2293.64
924.387	2292.96
924.697	2306.3
925.008	2276.01
925.318	2295.67
925.628	2285.05
925.938	2276.24
926.248	2250.7
926.558	2243.47
926.867	2243.7
927.177	2194.21
927.487	2226.75
927.796	2185.39
928.106	2165.96
928.416	2184.26
928.725	2178.16
929.034	2214.32
929.344	2217.03
929.653	2168.67
929.962	2177.26
930.271	2164.38
930.581	2156.02
930.89	2132.74
931.199	2100.42
931.508	2122.8
931.817	2128.9
932.125	2091.39
932.434	2118.05
932.743	2101.55
933.051	2059.52
933.36	2100.42
933.669	2049.35
933.977	2062.46
934.286	2059.75
934.594	2048.9
934.902	2031.95
935.21	2034.44
935.519	2038.05
935.827	2005.96
936.135	1989.92
936.443	1983.37
936.751	2000.54
937.059	1989.92
937.367	1962.12
937.674	1950.6
937.982	1988.56
938.29	1940.66
938.597	1955.12
938.905	1939.53
939.213	1927.1
939.52	1915.8
939.827	1928.45
940.135	1886.65
940.442	1889.58
940.749	1913.09
941.056	1895.23
941.363	1878.06
941.67	1882.8
941.977	1878.96
942.284	1875.8
942.591	1878.28
942.898	1843.48
943.205	1808.91
943.511	1822.47
943.818	1827.89
944.125	1810.26
944.431	1788.79
944.738	1797.61
945.044	1810.04
945.35	1797.61
945.657	1821.34
945.963	1780.43
946.269	1795.8
946.575	1777.5
946.881	1747.21
947.187	1753.77
947.493	1758.74
947.799	1763.26
948.105	1734.11
948.41	1695.01
948.716	1723.49
949.022	1710.38
949.327	1695.46
949.633	1707.44
949.938	1710.83
950.244	1699.76
950.549	1639.65
950.854	1664.28
951.16	1650.49
951.465	1648.91
951.77	1655.46
952.075	1637.39
952.38	1633.32
952.685	1632.41
952.99	1593.32
953.294	1617.73
953.599	1634.22
953.904	1600.55
954.209	1589.48
954.513	1595.35
954.818	1621.12
955.122	1571.17
955.426	1599.2
955.731	1585.86
956.035	1593.77
956.339	1567.78
956.643	1540.44
956.948	1551.51
957.252	1570.72
957.556	1556.26
957.86	1521.91
958.163	1541.12
958.467	1541.57
958.771	1514.23
959.075	1515.81
959.378	1508.8
959.682	1504.96
959.985	1536.15
960.289	1507.45
960.592	1485.75
960.896	1507.67
961.199	1469.48
961.502	1472.42
961.805	1500.44
962.108	1470.61
962.411	1443.27
962.714	1445.98
963.017	1468.8
963.32	1433.55
963.623	1420.44
963.926	1456.6
964.228	1435.58
964.531	1414.57
964.833	1425.41
965.136	1383.83
965.438	1415.25
965.741	1414.79
966.043	1402.82
966.345	1395.58
966.648	1374.57
966.95	1362.82
967.252	1395.58
967.554	1356.94
967.856	1359.2
968.158	1348.13
968.46	1378.64
968.761	1355.81
969.063	1364.4
969.365	1353.55
969.666	1353.33
969.968	1313.33
970.269	1321.91
970.571	1330.73
970.872	1294.34
971.174	1304.06
971.475	1270.62
971.776	1320.56
972.077	1318.75
972.378	1286.66
972.679	1274.23
972.98	1283.5
973.281	1270.16
973.582	1274.46
973.883	1256.61
974.183	1271.52
974.484	1253.44
974.785	1263.84
975.085	1268.81
975.386	1215.7
975.686	1230.39
975.986	1223.39
976.287	1208.92
976.587	1219.09
976.887	1218.19
977.187	1204.63
977.487	1217.74
977.787	1195.36
978.087	1206.44
978.387	1223.16
978.687	1181.81
978.987	1209.37
979.286	1205.76
979.586	1147.68
979.885	1178.19
980.185	1199.88
980.484	1173.22
980.784	1192.43
981.083	1193.1
981.382	1161.69
981.682	1149.94
981.981	1141.13
982.28	1144.07
982.579	1143.84
982.878	1148.13
983.177	1144.07
983.475	1139.77
983.774	1128.02
984.073	1147.68
984.372	1117.17
984.67	1108.81
984.969	1093.45
985.267	1122.82
985.566	1090.96
985.864	1076.5
986.162	1095.48
986.461	1098.42
986.759	1094.8
987.057	1088.7
987.355	1075.14
987.653	1088.93
987.951	1051.19
988.249	1070.4
988.547	1069.04
988.844	1060
989.142	1053.9
989.44	1053.45
989.737	1044.18
990.035	1050.51
990.332	1034.92
990.63	1031.07
990.927	1039.66
991.224	1040.34
991.521	1028.81
991.819	1020.45
992.116	1023.62
992.413	1001.02
992.71	996.95
993.006	987.01
993.303	1005.54
993.6	987.69
993.897	1006.89
994.193	990.85
994.49	996.73
994.787	991.53
995.083	984.52
995.379	967.57
995.676	984.75
995.972	968.93
996.268	984.07
996.565	969.83
996.861	975.48
997.157	975.03
997.453	944.3
997.749	965.09
998.044	934.81
998.34	941.36
998.636	947.91
998.932	961.7
999.227	928.93
999.523	942.94
999.818	931.19
1000.114	923.28
1000.409	920.34
1000.704	907.91
1001	912.66
1001.295	910.85
1001.59	927.12
1001.885	913.79
1002.18	902.72
1002.475	889.38
1002.77	882.15
1003.065	874.69
1003.359	876.28
1003.654	871.98
1003.949	880.8
1004.243	880.57
1004.538	835.37
1004.832	889.38
1005.127	867.46
1005.421	860.01
1005.715	867.69
1006.009	838.09
1006.304	834.24
1006.598	863.17
1006.892	847.12
1007.186	847.8
1007.48	816.62
1007.773	816.84
1008.067	797.63
1008.361	820.68
1008.655	814.58
1008.948	819.78
1009.242	817.29
1009.535	807.35
1009.829	801.48
1010.122	819.78
1010.415	801.7
1010.708	799.44
1011.001	791.98
1011.295	785.21
1011.588	759.9
1011.881	768.71
1012.173	791.53
1012.466	788.37
1012.759	772.55
1013.052	774.36
1013.344	772.55
1013.637	761.25
1013.93	749.95
1014.222	767.13
1014.514	772.55
1014.807	760.35
1015.099	734.59
1015.391	748.6
1015.683	718.54
1015.976	735.49
1016.268	732.1
1016.56	720.8
1016.851	737.52
1017.143	706.34
1017.435	723.06
1017.727	741.59
1018.018	719.44
1018.31	700.01
1018.602	711.53
1018.893	707.47
1019.185	699.11
1019.476	690.29
1019.767	689.84
1020.058	674.47
1020.35	678.09
1020.641	710.18
1020.932	674.93
1021.223	674.47
1021.514	660.91
1021.804	642.38
1022.095	690.07
1022.386	645.55
1022.677	676.06
1022.967	665.43
1023.258	676.06
1023.548	672.21
1023.839	643.29
1024.129	683.06
1024.419	661.82
1024.709	655.04
1025	653.01
1025.29	648.03
1025.58	623.4
1025.87	645.1
1026.16	626.57
1026.449	646.23
1026.739	602.61
1027.029	623.4
1027.319	633.34
1027.608	602.16
1027.898	617.98
1028.187	614.36
1028.477	603.29
1028.766	597.19
1029.055	591.09
1029.344	604.19
1029.634	600.13
1029.923	582.5
1030.212	614.81
1030.501	598.77
1030.79	615.72
1031.078	593.57
1031.367	582.5
1031.656	595.15
1031.945	574.14
1032.233	563.06
1032.522	562.61
1032.81	579.34
1033.099	562.84
1033.387	573.23
1033.675	569.84
1033.963	575.04
1034.251	541.14
1034.54	579.11
1034.828	569.39
1035.116	565.1
1035.403	565.78
1035.691	537.08
1035.979	537.3
1036.267	574.14
1036.554	547.25
1036.842	547.47
1037.129	530.07
1037.417	528.94
1037.704	538.88
1037.992	550.86
1038.279	535.27
1038.566	531.2
1038.853	531.2
1039.14	531.2
