Data from black_plastic_tray_FLMS001491_070.txt Node
Date: Tue Feb 07 10:40:22 GMT 2017
User: dcchb
Spectrometer: FLMS00149
Trigger mode: 0
Integration Time (sec): 2.000000E-2
Scans to average: 10
Electric dark correction enabled: true
Nonlinearity correction enabled: false
Boxcar width: 0
XAxis mode: Wavelengths
Number of Pixels in Spectrum: 2048
>>>>>Begin Spectral Data<<<<<
341.393	-10.45
341.776	-10.45
342.16	-10.45
342.543	-67.85
342.927	-61.52
343.31	-55.42
343.693	-66.5
344.077	-49.32
344.46	-52.71
344.843	-49.77
345.226	-46.38
345.61	-34.18
345.993	-11.58
346.376	5.14
346.759	7.17
347.142	2.66
347.525	32.49
347.908	66.16
348.291	80.39
348.674	88.75
349.057	83.11
349.44	124.01
349.823	143.44
350.206	173.05
350.588	169.66
350.971	200.62
351.354	215.76
351.737	225.47
352.119	245.81
352.502	246.72
352.884	240.39
353.267	258.92
353.65	277.22
354.032	259.82
354.414	293.5
354.797	294.17
355.179	300.27
355.562	325.58
355.944	320.61
356.326	320.61
356.709	288.3
357.091	326.49
357.473	313.83
357.855	337.34
358.238	340.73
358.62	356.54
359.002	332.14
359.384	326.94
359.766	313.83
360.148	319.26
360.53	325.81
360.912	318.35
361.294	313.61
361.676	327.62
362.057	310.67
362.439	309.09
362.821	339.14
363.203	303.44
363.584	305.25
363.966	326.71
364.348	293.5
364.729	320.39
365.111	320.16
365.493	309.99
365.874	315.87
366.256	308.41
366.637	302.99
367.019	314.29
367.4	325.13
367.781	308.41
368.163	312.03
368.544	293.5
368.925	303.89
369.306	319.03
369.688	307.05
370.069	315.42
370.45	298.24
370.831	299.6
371.212	319.26
371.593	296.88
371.974	291.24
372.355	300.27
372.736	295.98
373.117	306.15
373.498	302.53
373.879	302.99
374.26	300.5
374.641	289.65
375.021	305.25
375.402	344.12
375.783	319.03
376.163	352.93
376.544	318.58
376.925	314.06
377.305	324
377.686	337.79
378.066	327.17
378.447	340.95
378.827	332.59
379.208	340.95
379.588	338.69
379.968	332.14
380.349	309.31
380.729	321.74
381.109	346.6
381.489	336.66
381.87	354.28
382.25	338.24
382.63	323.78
383.01	323.32
383.39	319.94
383.77	353.61
384.15	358.8
384.53	354.96
384.91	342.76
385.29	359.71
385.67	348.41
386.049	357.22
386.429	320.84
386.809	340.05
387.189	366.26
387.568	332.36
387.948	349.76
388.328	360.16
388.707	358.35
389.087	383.89
389.466	381.85
389.846	368.07
390.225	355.64
390.605	373.04
390.984	356.77
391.363	361.29
391.743	405.58
392.122	380.5
392.501	369.88
392.881	375.75
393.26	377.33
393.639	399.03
394.018	358.58
394.397	390.44
394.776	384.57
395.155	395.19
395.534	385.47
395.913	372.14
396.292	382.08
396.671	373.94
397.05	397.45
397.429	403.77
397.808	414.85
398.186	368.52
398.565	406.03
398.944	404.68
399.323	393.61
399.701	412.81
400.08	428.41
400.458	402.87
400.837	413.04
401.215	427.95
401.594	435.19
401.972	418.24
402.351	426.15
402.729	420.27
403.107	431.57
403.486	432.02
403.864	434.73
404.242	417.33
404.62	439.71
404.999	448.52
405.377	445.58
405.755	453.26
406.133	479.25
406.511	465.02
406.889	443.77
407.267	462.08
407.645	452.59
408.023	473.15
408.401	463.89
408.779	453.94
409.156	465.69
409.534	496.2
409.912	486.48
410.29	486.94
410.667	497.56
411.045	469.99
411.422	488.29
411.8	499.82
412.178	474.51
412.555	512.25
412.933	507.5
413.31	505.92
413.687	513.15
414.065	522.87
414.442	510.66
414.819	511.12
415.197	521.51
415.574	530.1
415.951	525.81
416.328	543.66
416.705	539.59
417.082	550.44
417.46	557.44
417.837	564.67
418.214	578.01
418.591	569.42
418.967	559.02
419.344	577.33
419.721	581.62
420.098	577.56
420.475	594.28
420.852	574.84
421.228	580.72
421.605	580.95
421.982	590.21
422.358	590.66
422.735	591.34
423.111	602.19
423.488	629.08
423.864	627.27
424.241	605.8
424.617	622.75
424.994	625.01
425.37	640.6
425.746	631.11
426.123	642.86
426.499	643.09
426.875	668.17
427.251	653.71
427.627	663.65
428.003	672.92
428.379	686.48
428.756	674.95
429.132	676.99
429.507	680.15
429.883	701.17
430.259	713.15
430.635	705.46
431.011	690.55
431.387	714.28
431.763	723.09
432.138	733.71
432.514	734.84
432.89	738
433.265	764.22
433.641	756.53
434.016	785.69
434.392	787.49
434.767	816.87
435.143	794.5
435.518	785.46
435.894	816.87
436.269	827.72
436.644	850.77
437.02	845.12
437.395	808.06
437.77	832.46
438.145	834.27
438.52	826.59
438.895	859.58
439.271	885.57
439.646	855.29
440.021	867.27
440.395	882.86
440.77	886.47
441.145	882.18
441.52	941.16
441.895	908.85
442.27	918.56
442.645	903.2
443.019	929.41
443.394	898.22
443.769	905.46
444.143	945.91
444.518	944.33
444.892	940.71
445.267	966.47
445.641	953.36
446.016	980.03
446.39	967.6
446.764	967.6
447.139	970.31
447.513	952.91
447.887	956.98
448.262	986.58
448.636	991.56
449.01	984.78
449.384	1001.5
449.758	1021.84
450.132	1028.84
450.506	1060.03
450.88	1006.02
451.254	1017.54
451.628	1044.89
452.002	1050.31
452.376	1076.3
452.75	1075.17
453.123	1100.93
453.497	1101.16
453.871	1100.93
454.244	1152.91
454.618	1144.09
454.992	1114.26
455.365	1139.57
455.739	1162.62
456.112	1167.14
456.486	1177.77
456.859	1175.73
457.232	1199.69
457.606	1224.77
457.979	1235.17
458.352	1253.92
458.725	1245.33
459.099	1251.89
459.472	1302.06
459.845	1292.79
460.218	1305.22
460.591	1340.02
460.964	1335.05
461.337	1363.98
461.71	1368.95
462.083	1392.9
462.456	1413.24
462.829	1411.43
463.201	1408.04
463.574	1418.89
463.947	1416.4
464.32	1463.86
464.692	1489.4
465.065	1489.62
465.438	1493.24
465.81	1509.06
466.183	1557.64
466.555	1575.95
466.928	1562.61
467.3	1583.63
467.672	1592.44
468.045	1607.58
468.417	1614.82
468.789	1657.3
469.161	1691.88
469.534	1708.37
469.906	1736.4
470.278	1758.54
470.65	1765.32
471.022	1753.12
471.394	1789.5
471.766	1808.03
472.138	1805.55
472.51	1897.07
472.882	1887.35
473.253	1890.06
473.625	1901.36
473.997	1955.82
474.369	1980.68
474.74	1989.95
475.112	2022.26
475.484	2043.05
475.855	2096.84
476.227	2093.67
476.598	2148.14
476.97	2188.13
477.341	2208.02
477.713	2247.57
478.084	2273.78
478.455	2278.53
478.827	2313.55
479.198	2405.76
479.569	2379.32
479.94	2457.96
480.311	2449.6
480.682	2500.67
481.053	2548.8
481.424	2624.06
481.795	2607.56
482.166	2663.6
482.537	2686.2
482.908	2762.81
483.279	2756.93
483.65	2808.01
484.021	2841.22
484.391	2906.53
484.762	2893.2
485.133	2956.25
485.503	2989.24
485.874	3057.04
486.244	3019.3
486.615	3151.5
486.985	3144.72
487.356	3190.82
487.726	3243.7
488.097	3293.64
488.467	3328.22
488.837	3342.45
489.207	3433.98
489.578	3479.17
489.948	3473.52
490.318	3523.01
490.688	3552.62
491.058	3609.57
491.428	3607.31
491.798	3676.01
492.168	3729.34
492.538	3730.92
492.908	3783.57
493.278	3850.01
493.648	3836.68
494.017	3901.08
494.387	3972.04
494.757	3887.3
495.126	4008.88
495.496	3991.93
495.866	4060.85
496.235	4062.89
496.605	4116.45
496.974	4097.24
497.344	4184.01
497.713	4180.62
498.082	4222.66
498.452	4276.44
498.821	4343.11
499.19	4329.32
499.559	4364.35
499.928	4352.82
500.298	4386.27
500.667	4458.81
501.036	4406.61
501.405	4467.17
501.774	4487.06
502.143	4548.98
502.512	4497.45
502.88	4576.55
503.249	4613.38
503.618	4619.03
503.987	4656.09
504.356	4679.82
504.724	4694.74
505.093	4743.55
505.462	4785.81
505.83	4814.73
506.199	4809.53
506.567	4885.46
506.936	4899.93
507.304	4927.72
507.672	4993.48
508.041	5019.25
508.409	5037.1
508.777	5064.22
509.145	5134.27
509.514	5056.53
509.882	5136.31
510.25	5162.75
510.618	5166.81
510.986	5237.32
511.354	5265.57
511.722	5325.91
512.09	5385.11
512.458	5347.6
512.826	5408.84
513.193	5486.58
513.561	5470.31
513.929	5519.57
514.297	5589.85
514.664	5682.73
515.032	5652.9
515.4	5653.81
515.767	5795.5
516.135	5768.83
516.502	5694.71
516.869	5774.03
517.237	5806.57
517.604	5840.69
517.972	5893.8
518.339	5919.34
518.706	6002.95
519.073	6013.12
519.44	6130.18
519.808	6114.58
520.175	6153.91
520.542	6216.5
520.909	6255.82
521.276	6317.29
521.643	6346.22
522.009	6383.5
522.376	6442.03
522.743	6472.99
523.11	6557.96
523.477	6622.37
523.843	6576.72
524.21	6714.57
524.577	6729.03
524.943	6729.03
525.31	6763.83
525.676	6852.64
526.043	6880.21
526.409	6927.9
526.776	6971.51
527.142	7046.54
527.508	7110.49
527.874	7084.05
528.241	7117.72
528.607	7203.82
528.973	7284.05
529.339	7231.62
529.705	7310.49
530.071	7352.29
530.437	7392.29
530.803	7452.63
531.169	7516.13
531.535	7540.54
531.901	7569.69
532.267	7603.13
532.632	7630.03
532.998	7681.1
533.364	7674.77
533.73	7735.56
534.095	7763.58
534.461	7772.85
534.826	7875.89
535.192	7863.24
535.557	7916.12
535.923	7899.4
536.288	7984.59
536.653	7962.45
537.019	7994.54
537.384	8039.51
537.749	8055.78
538.114	8105.04
538.479	8145.49
538.845	8175.77
539.21	8205.6
539.575	8217.58
539.94	8246.96
540.305	8296.45
540.67	8305.26
541.034	8339.84
541.399	8320.4
541.764	8396.33
542.129	8360.63
542.494	8417.35
542.858	8470.91
543.223	8462.32
543.587	8541.19
543.952	8472.94
544.316	8561.3
544.681	8545.93
545.045	8667.51
545.41	8702.31
545.774	8707.74
546.138	8764.23
546.503	8729.88
546.867	8769.2
547.231	8805.36
547.595	8855.08
547.959	8889.43
548.324	8928.07
548.688	8886.94
549.052	8921.97
549.416	8965.13
549.779	8941.86
550.143	9019.37
550.507	9110.89
550.871	9132.36
551.235	9062.76
551.599	9252.58
551.962	9179.14
552.326	9211.9
552.689	9297.55
553.053	9230.66
553.417	9264.33
553.78	9433.37
554.143	9441.5
554.507	9503.87
554.87	9463.2
555.234	9564.44
555.597	9606.47
555.96	9553.59
556.323	9592.23
556.686	9672.68
557.05	9737.09
557.413	9810.76
557.776	9777.54
558.139	9809.18
558.502	9917.2
558.865	9865.22
559.228	9898.89
559.59	10009.4
559.953	10009.85
560.316	10043.97
560.679	10128.72
561.041	10190.86
561.404	10227.47
561.767	10285.55
562.129	10293.68
562.492	10367.13
562.854	10347.69
563.217	10307.47
563.579	10448.93
563.941	10515.83
564.304	10450.97
564.666	10614.13
565.028	10539.78
565.39	10619.1
565.753	10662.71
566.115	10679.21
566.477	10752.43
566.839	10804.18
567.201	10838.75
567.563	10820
567.925	10857.06
568.287	10930.28
568.648	10971.41
569.01	11045.3
569.372	11064.06
569.734	11002.59
570.095	11135.24
570.457	11150.84
570.819	11197.62
571.18	11208.91
571.542	11296.82
571.903	11266.54
572.265	11331.85
572.626	11365.29
572.987	11375.46
573.349	11374.56
573.71	11422.69
574.071	11515.8
574.432	11470.38
574.794	11554.44
575.155	11477.61
575.516	11532.97
575.877	11523.26
576.238	11556.93
576.599	11607.77
576.96	11623.37
577.32	11626.76
577.681	11698.17
578.042	11742.91
578.403	11698.62
578.763	11824.04
579.124	11754.21
579.485	11768.67
579.845	11798.28
580.206	11749.69
580.566	11760.76
580.927	11846.41
581.287	11819.97
581.648	11759.18
582.008	11868.33
582.368	11884.83
582.728	11891.83
583.089	11848.45
583.449	11844.38
583.809	11901.55
584.169	11861.1
584.529	11889.12
584.889	11937.48
585.249	11904.04
585.609	11887.54
585.969	11966.41
586.329	11998.72
586.688	11986.75
587.048	11914.66
587.408	11932.29
587.768	11891.61
588.127	11901.55
588.487	11936.58
588.846	11963.24
589.206	11907.65
589.565	11902.68
589.925	11989.01
590.284	11984.94
590.643	11978.16
591.003	11952.17
591.362	12036.01
591.721	12071.26
592.08	11993.75
592.44	12131.6
592.799	12106.07
593.158	12076.46
593.517	12093.41
593.876	12123.47
594.235	12089.8
594.593	12120.98
594.952	12147.19
595.311	12085.95
595.67	12101.55
596.029	12155.56
596.387	12209.11
596.746	12163.01
597.104	12082.56
597.463	12067.87
597.822	12198.49
598.18	12029.01
598.538	12102.68
598.897	12052.28
599.255	12078.72
599.613	12234.2
599.972	12204.37
600.33	12263.8
600.688	12134.77
601.046	12168.21
601.404	12224.03
601.762	12229.9
602.12	12329.34
602.478	12312.84
602.836	12289.11
603.194	12314.42
603.552	12304.25
603.91	12259.28
604.268	12337.92
604.625	12276.68
604.983	12345.16
605.341	12301.31
605.698	12378.15
606.056	12309.9
606.413	12322.33
606.771	12431.03
607.128	12339.05
607.485	12374.76
607.843	12359.17
608.2	12376.79
608.557	12470.12
608.914	12352.16
609.272	12470.12
609.629	12457.7
609.986	12459.05
610.343	12427.41
610.7	12470.12
611.057	12395.1
611.414	12492.72
611.771	12438.03
612.127	12473.29
612.484	12483.23
612.841	12542.44
613.198	12570.91
613.554	12525.04
613.911	12609.33
614.267	12579.73
614.624	12617.92
614.98	12624.02
615.337	12547.41
615.693	12541.08
616.05	12581.53
616.406	12638.71
616.762	12594.19
617.118	12660.18
617.475	12588.31
617.831	12695.88
618.187	12676.45
618.543	12654.75
618.899	12709.44
619.255	12712.6
619.611	12725.48
619.967	12754.41
620.323	12746.73
620.678	12741.3
621.034	12669.89
621.39	12690.46
621.746	12729.55
622.101	12790.34
622.457	12720.74
622.812	12770.91
623.168	12835.09
623.523	12772.49
623.879	12828.08
624.234	12685.26
624.589	12764.13
624.945	12771.59
625.3	12779.95
625.655	12893.62
626.01	12874.63
626.365	12856.55
626.72	12845.26
627.075	12678.03
627.43	12819.27
627.785	12647.52
628.14	12731.59
628.495	12724.13
628.85	12695.2
629.205	12703.56
629.559	12776.56
629.914	12670.57
630.269	12672.6
630.623	12614.98
630.978	12623.79
631.332	12640.29
631.687	12637.13
632.041	12667.41
632.396	12709.44
632.75	12563.68
633.104	12603.23
633.459	12539.05
633.813	12457.92
634.167	12435.1
634.521	12572.72
634.875	12500.86
635.229	12468.99
635.583	12433.74
635.937	12455.44
636.291	12420.18
636.645	12367.75
636.999	12331.82
637.352	12407.75
637.706	12305.83
638.06	12417.47
638.413	12375.44
638.767	12282.33
639.121	12364.59
639.474	12254.54
639.828	12248.89
640.181	12247.76
640.534	12276
640.888	12294.76
641.241	12144.71
641.594	12171.83
641.947	12225.61
642.301	12196.91
642.654	12211.15
643.007	12148.78
643.36	12050.02
643.713	12156.23
644.066	12127.99
644.419	12111.72
644.771	11998.95
645.124	11940.19
645.477	11875.79
645.83	11846.19
646.182	11720.99
646.535	11660.65
646.888	11687.77
647.24	11645.06
647.593	11676.02
647.945	11597.15
648.298	11616.59
648.65	11578.62
649.002	11495.23
649.355	11645.06
649.707	11626.3
650.059	11604.38
650.411	11749.24
650.763	11830.59
651.115	11927.77
651.467	11835.79
651.819	11895.22
652.171	11818.62
652.523	11762.35
652.875	11862
653.227	11654.78
653.578	11806.19
653.93	11749.69
654.282	11752.85
654.633	11749.01
654.985	11669.69
655.337	11766.87
655.688	11707.88
656.039	11709.01
656.391	11665.4
656.742	11693.42
657.094	11648.9
657.445	11615.68
657.796	11632.86
658.147	11652.74
658.498	11619.52
658.849	11632.86
659.2	11582.24
659.551	11671.95
659.902	11575.91
660.253	11612.07
660.604	11586.31
660.955	11521.22
661.306	11600.09
661.656	11502.24
662.007	11505.18
662.358	11471.51
662.708	11539.98
663.059	11551.73
663.409	11477.61
663.76	11495.69
664.11	11506.76
664.461	11467.66
664.811	11535.91
665.161	11516.02
665.511	11526.42
665.862	11488.68
666.212	11554.22
666.562	11496.59
666.912	11498.85
667.262	11420.21
667.612	11431.06
667.962	11452.3
668.312	11392.41
668.662	11428.34
669.011	11437.61
669.361	11320.78
669.711	11420.89
670.06	11353.54
670.41	11265.41
670.76	11209.59
671.109	11296.6
671.459	11208.69
671.808	11331.85
672.157	11295.92
672.507	11274.22
672.856	11170.5
673.205	11216.82
673.554	11236.03
673.904	11167.79
674.253	11219.99
674.602	11197.16
674.951	11097.73
675.3	11007.56
675.649	11141.8
675.998	11121.68
676.346	11252.98
676.695	11216.15
677.044	11148.8
677.393	11201.23
677.741	11109.71
678.09	11038.07
678.438	11001.91
678.787	11131.4
679.135	11147.45
679.484	11004.63
679.832	11095.92
680.181	11036.94
680.529	11042.82
680.877	11044.62
681.225	10999.65
681.573	11113.32
681.922	10956.04
682.27	10893.67
682.618	10999.43
682.966	10946.1
683.314	10964.85
683.661	10912.2
684.009	10888.24
684.357	10819.77
684.705	10809.6
685.053	10874.91
685.4	10911.97
685.748	10829.04
686.095	10742.26
686.443	10718.31
686.79	10636.5
687.138	10622.04
687.485	10663.84
687.832	10596.05
688.18	10642.15
688.527	10643.05
688.874	10610.51
689.221	10575.48
689.568	10534.81
689.915	10496.16
690.262	10553.79
690.609	10536.16
690.956	10459.56
691.303	10418.2
691.65	10400.12
691.997	10353.12
692.344	10341.37
692.69	10333.91
693.037	10319.22
693.383	10273.57
693.73	10314.47
694.077	10256.17
694.423	10254.14
694.769	10215.72
695.116	10258.88
695.462	10253.91
695.808	10185.21
696.155	10184.53
696.501	10067.48
696.847	10106.12
697.193	10009.85
697.539	10014.6
697.885	10022.28
698.231	9938.67
698.577	9915.61
698.923	9921.04
699.269	9916.97
699.614	9806.01
699.96	9787.71
700.306	9810.08
700.651	9827.03
700.997	9746.58
701.342	9752.46
701.688	9695.73
702.033	9700.03
702.379	9645.11
702.724	9607.37
703.069	9616.19
703.415	9586.81
703.76	9687.15
704.105	9571.9
704.45	9504.78
704.795	9467.94
705.14	9421.62
705.485	9373.03
705.83	9423.2
706.175	9380.04
706.52	9345.69
706.865	9309.98
707.209	9323.77
707.554	9226.82
707.899	9310.21
708.243	9250.1
708.588	9255.29
708.932	9165.13
709.277	9197.22
709.621	9192.02
709.966	9184.11
710.31	9197.22
710.654	9042.19
710.998	9044.23
711.342	9081.51
711.687	9052.36
712.031	8959.48
712.375	8962.42
712.719	8951.8
713.063	8989.76
713.407	8916.32
713.75	8881.07
714.094	8830.22
714.438	8805.81
714.782	8860.5
715.125	8754.52
715.469	8832.93
715.812	8798.36
716.156	8680.85
716.499	8750.9
716.843	8781.18
717.186	8661.41
717.53	8722.43
717.873	8762.2
718.216	8662.54
718.559	8711.35
718.902	8623.45
719.246	8625.03
719.589	8632.26
719.932	8566.27
720.275	8585.71
720.617	8566.5
720.96	8524.01
721.303	8464.58
721.646	8528.53
721.989	8448.76
722.331	8493.51
722.674	8474.07
723.016	8476.1
723.359	8397.69
723.701	8439.04
724.044	8406.73
724.386	8365.37
724.729	8356.79
725.071	8310.69
725.413	8322.44
725.755	8290.12
726.097	8269.33
726.439	8242.44
726.782	8264.13
727.124	8281.76
727.465	8194.76
727.807	8196.34
728.149	8270.69
728.491	8153.63
728.833	8179.62
729.175	8167.86
729.516	8140.97
729.858	8100.07
730.199	8091.26
730.541	8139.62
730.882	8136.23
731.224	8131.93
731.565	8073.18
731.906	8106.17
732.248	7959.51
732.589	8046.06
732.93	7990.69
733.271	8047.87
733.612	8010.81
733.953	8096
734.294	7921.32
734.635	7943.01
734.976	8006.29
735.317	7936.46
735.658	7950.69
735.999	7956.8
736.339	7959.51
736.68	7886.06
737.021	7920.19
737.361	7867.31
737.702	7844.93
738.042	7858.72
738.383	7775.56
738.723	7827.08
739.063	7810.81
739.404	7807.87
739.744	7779.85
740.084	7734.43
740.424	7754.09
740.764	7736.01
741.104	7749.8
741.444	7709.57
741.784	7696.01
742.124	7717.71
742.464	7700.76
742.804	7648.78
743.143	7672.96
743.483	7689.01
743.823	7725.84
744.162	7693.75
744.502	7710.93
744.841	7627.31
745.181	7620.53
745.52	7595.68
745.86	7599.29
746.199	7605.85
746.538	7595.68
746.877	7559.74
747.216	7571.04
747.556	7556.81
747.895	7539.63
748.234	7570.82
748.573	7500.31
748.911	7478.39
749.25	7493.31
749.589	7485.85
749.928	7441.78
750.267	7461.67
750.605	7400.43
750.944	7432.97
751.283	7370.37
751.621	7374.21
751.96	7360.88
752.298	7285.63
752.636	7364.27
752.975	7306.42
753.313	7314.1
753.651	7284.95
753.989	7299.19
754.327	7272.29
754.666	7262.58
755.004	7254.44
755.342	7255.57
755.679	7210.38
756.017	7133.77
756.355	7151.62
756.693	7131.73
757.031	7125.63
757.368	7060.1
757.706	7076.37
758.044	7114.78
758.381	7033.2
758.719	7056.48
759.056	7008.57
759.394	7015.13
759.731	6939.65
760.068	6999.08
760.405	6937.39
760.743	6907.78
761.08	6955.01
761.417	6859.42
761.754	6843.83
762.091	6891.29
762.428	6841.35
762.765	6814.23
763.102	6875.02
763.438	6803.38
763.775	6730.61
764.112	6740.11
764.449	6711.63
764.785	6663.5
765.122	6658.98
765.458	6652.88
765.795	6647.68
766.131	6692.65
766.467	6666.89
766.804	6528.59
767.14	6499.89
767.476	6548.47
767.812	6480.68
768.148	6569.94
768.485	6473.67
768.821	6452.88
769.157	6444.75
769.492	6371.3
769.828	6429.15
770.164	6334.01
770.5	6337.86
770.836	6370.4
771.171	6273.22
771.507	6284.75
771.842	6270.51
772.178	6250.85
772.513	6240.01
772.849	6202.72
773.184	6219.44
773.519	6190.29
773.855	6173.79
774.19	6141.48
774.525	6126.11
774.86	6071.65
775.195	6127.24
775.53	6078.88
775.865	6012.67
776.2	5986.9
776.535	5939.67
776.87	5939.9
777.205	5907.36
777.539	5866.91
777.874	5859.68
778.209	5859.22
778.543	5835.95
778.878	5802.05
779.212	5851.99
779.547	5803.86
779.881	5758.44
780.215	5733.13
780.55	5714.82
780.884	5690.19
781.218	5651.77
781.552	5675.5
781.886	5669.85
782.22	5597.54
782.554	5593.24
782.888	5526.8
783.222	5586.01
783.556	5515.96
783.889	5536.52
784.223	5493.58
784.557	5489.97
784.89	5464.66
785.224	5470.31
785.557	5427.37
785.891	5399.35
786.224	5405.68
786.558	5408.61
786.891	5321.39
787.224	5331.55
787.557	5363.42
787.891	5292.46
788.224	5334.49
788.557	5305.11
788.89	5303.31
789.223	5281.16
789.556	5243.2
789.888	5213.82
790.221	5187.38
790.554	5133.14
790.887	5156.42
791.219	5124.1
791.552	5117.78
791.884	5068.51
792.217	5063.77
792.549	5053.6
792.882	5042.3
793.214	5045.46
793.546	5043.43
793.879	5055.86
794.211	4986.25
794.543	4989.64
794.875	4922.75
795.207	4991.45
795.539	4884.56
795.871	4925.01
796.203	4863.54
796.535	4816.09
796.867	4823.32
797.198	4825.58
797.53	4798.24
797.862	4783.32
798.193	4808.4
798.525	4770.89
798.856	4812.92
799.188	4761.63
799.519	4706.03
799.85	4743.32
800.182	4728.41
800.513	4752.59
800.844	4726.37
801.175	4689.09
801.506	4675.07
801.837	4676.43
802.168	4625.58
802.499	4647.73
802.83	4621.97
803.161	4576.09
803.491	4566.6
803.822	4609.31
804.153	4571.57
804.483	4524.57
804.814	4489.09
805.145	4486.38
805.475	4489.32
805.805	4477.79
806.136	4461.07
806.466	4528.86
806.796	4479.15
807.126	4451.8
807.457	4451.13
807.787	4417
808.117	4386.04
808.447	4442.76
808.777	4409.09
809.107	4439.83
809.436	4380.62
809.766	4363.44
810.096	4370.22
810.426	4279.83
810.755	4297.01
811.085	4299.04
811.414	4315.76
811.744	4256.55
812.073	4274.63
812.403	4266.72
812.732	4220.4
813.061	4224.01
813.39	4226.27
813.719	4206.16
814.049	4239.38
814.378	4208.42
814.707	4182.43
815.036	4169.1
815.365	4189.89
815.693	4117.58
816.022	4199.83
816.351	4173.85
816.68	4102.21
817.008	4070.8
817.337	4094.75
817.665	4080.74
817.994	4073.51
818.322	4035.77
818.651	4014.98
818.979	4083.23
819.307	4111.93
819.636	4047.07
819.964	4068.54
820.292	4037.35
820.62	4039.84
820.948	3998.71
821.276	4030.12
821.604	4012.27
821.932	3997.35
822.259	4042.55
822.587	3989.9
822.915	4035.32
823.243	4026.05
823.57	4033.06
823.898	3981.76
824.225	4011.82
824.553	4036.45
824.88	4056.56
825.207	4039.61
825.535	4025.37
825.862	4047.97
826.189	4007.3
826.516	4058.82
826.843	4042.78
827.17	4048.42
827.497	4031.48
827.824	4012.49
828.151	4061.08
828.478	3987.64
828.805	4005.26
829.131	4038.71
829.458	4025.37
829.785	4045.26
830.111	4038.26
830.438	4035.32
830.764	4042.55
831.09	4030.8
831.417	4019.5
831.743	4014.98
832.069	3993.28
832.395	3967.97
832.722	3992.38
833.048	3983.12
833.374	4019.95
833.7	4013.4
834.026	3971.59
834.351	3982.66
834.677	3974.3
835.003	3965.94
835.329	3962.78
835.654	3967.75
835.98	3947.86
836.306	3931.37
836.631	3953.96
836.956	3953.06
837.282	3965.49
837.607	3954.19
837.932	3935.66
838.258	3915.09
838.583	3919.84
838.908	3852.5
839.233	3905.83
839.558	3932.95
839.883	3882.78
840.208	3905.6
840.533	3843.01
840.858	3873.51
841.182	3897.47
841.507	3864.47
841.832	3819.28
842.156	3830.58
842.481	3822.67
842.805	3807.98
843.13	3826.74
843.454	3803.01
843.778	3814.76
844.103	3731.14
844.427	3729.34
844.751	3765.04
845.075	3753.74
845.399	3729.34
845.723	3709.68
846.047	3745.38
846.371	3699.06
846.695	3730.92
847.019	3669.9
847.343	3676.01
847.666	3673.07
847.99	3658.38
848.313	3682.56
848.637	3607.31
848.96	3616.12
849.284	3601.2
849.607	3579.74
849.931	3575.44
850.254	3546.74
850.577	3513.3
850.9	3550.58
851.223	3507.42
851.546	3493.64
851.869	3467.42
852.192	3479.17
852.515	3458.84
852.838	3459.51
853.161	3431.94
853.483	3453.86
853.806	3416.35
854.129	3403.24
854.451	3406.86
854.774	3403.7
855.096	3365.05
855.419	3365.05
855.741	3395.33
856.063	3342.91
856.385	3346.75
856.708	3323.25
857.03	3286.18
857.352	3309.91
857.674	3318.73
857.996	3304.72
858.318	3274.43
858.64	3282.34
858.961	3311.49
859.283	3258.84
859.605	3272.63
859.926	3252.97
860.248	3233.98
860.57	3203.93
860.891	3225.85
861.212	3243.02
861.534	3223.36
861.855	3219.29
862.176	3159.86
862.498	3235.34
862.819	3216.81
863.14	3156.02
863.461	3177.49
863.782	3143.59
864.103	3158.5
864.424	3119.18
864.745	3147.43
865.065	3190.37
865.386	3157.6
865.707	3116.92
866.027	3096.36
866.348	3141.78
866.668	3140.88
866.989	3086.19
867.309	3076.02
867.63	3105.85
867.95	3106.3
868.27	3100.88
868.59	3095.91
868.91	3080.77
869.23	3112.18
869.55	3069.02
869.87	3098.85
870.19	3077.6
870.51	3065.63
870.83	3074.21
871.15	3033.31
871.469	3045.74
871.789	3064.5
872.109	3061.33
872.428	3052.07
872.748	3043.25
873.067	3017.72
873.386	3044.84
873.706	3017.72
874.025	2997.15
874.344	3004.38
874.663	3055.91
874.982	2978.17
875.301	2980.2
875.62	2960.77
875.939	2951.96
876.258	2990.6
876.577	2965.06
876.896	2895.23
877.214	2933.88
877.533	2929.36
877.852	2956.93
878.17	2998.28
878.489	2940.88
878.807	2948.34
879.125	2919.64
879.444	2913.77
879.762	2936.82
880.08	2923.03
880.398	2888.91
880.716	2872.86
881.034	2904.95
881.352	2911.28
881.67	2873.77
881.988	2879.42
882.306	2876.03
882.624	2872.41
882.941	2882.58
883.259	2861.79
883.577	2842.13
883.894	2873.31
884.212	2786.54
884.529	2888.46
884.846	2850.72
885.164	2826.76
885.481	2818.17
885.798	2835.12
886.115	2786.76
886.432	2744.73
886.75	2796.93
887.067	2744.05
887.383	2727.1
887.7	2759.42
888.017	2741.11
888.334	2736.37
888.651	2734.33
888.967	2764.39
889.284	2752.87
889.6	2705.86
889.917	2693.21
890.233	2723.71
890.55	2692.75
890.866	2714.67
891.182	2685.3
891.498	2700.21
891.815	2699.99
892.131	2723.49
892.447	2673.55
892.763	2696.14
893.079	2678.52
893.395	2646.88
893.71	2683.04
894.026	2644.17
894.342	2659.76
894.657	2608.24
894.973	2641
895.289	2627.45
895.604	2631.51
895.92	2591.29
896.235	2598.52
896.55	2570.27
896.865	2575.02
897.181	2580.44
897.496	2569.82
897.811	2559.2
898.126	2548.13
898.441	2537.96
898.756	2555.13
899.071	2512.65
899.386	2518.75
899.7	2458.41
900.015	2510.84
900.33	2502.02
900.644	2487.56
900.959	2478.07
901.273	2465.64
901.588	2481.46
901.902	2427.9
902.216	2434.46
902.531	2438.52
902.845	2459.09
903.159	2422.48
903.473	2397.39
903.787	2388.58
904.101	2384.51
904.415	2376.83
904.729	2420.67
905.042	2387
905.356	2364.4
905.67	2400.33
905.984	2397.39
906.297	2362.59
906.611	2358.3
906.924	2368.69
907.237	2352.88
907.551	2352.2
907.864	2340.9
908.177	2331.86
908.491	2283.5
908.804	2302.26
909.117	2288.24
909.43	2269.26
909.743	2286.89
910.056	2288.02
910.368	2242.6
910.681	2237.17
910.994	2259.32
911.307	2235.59
911.619	2206.89
911.932	2243.73
912.244	2196.27
912.557	2220.9
912.869	2213.22
913.181	2180.23
913.494	2188.36
913.806	2160.56
914.118	2151.53
914.43	2140.68
914.742	2196.27
915.054	2150.62
915.366	2142.71
915.678	2130.73
915.99	2077.85
916.302	2073.79
916.613	2082.15
916.925	2106.78
917.236	2089.38
917.548	2057.29
917.859	2073.34
918.171	2070.17
918.482	2079.44
918.794	2058.42
919.105	2051.87
919.416	2036.95
919.727	2044.41
920.038	2048.03
920.349	2046.44
920.66	2053.9
920.971	1982.49
921.282	2012.77
921.593	2001.7
921.903	1961.47
922.214	1987.46
922.525	1952.89
922.835	1928.93
923.146	1969.84
923.456	1934.58
923.767	1974.58
924.077	1955.82
924.387	1936.62
924.697	1942.49
925.008	1923.73
925.318	1908.14
925.628	1918.99
925.938	1872.21
926.248	1916.28
926.558	1868.82
926.867	1880.8
927.177	1865.66
927.487	1877.41
927.796	1843.06
928.106	1828.37
928.416	1851.87
928.725	1839.67
929.034	1840.35
929.344	1829.95
929.653	1775.26
929.962	1768.94
930.271	1777.3
930.581	1765.32
930.89	1822.72
931.199	1762.38
931.508	1781.59
931.817	1809.61
932.125	1773.46
932.434	1759.45
932.743	1716.96
933.051	1734.14
933.36	1748.15
933.669	1707.47
933.977	1706.11
934.286	1707.02
934.594	1726.23
934.902	1719.9
935.21	1693.68
935.519	1698.2
935.827	1701.82
936.135	1687.36
936.443	1709.5
936.751	1709.28
937.059	1671.54
937.367	1659.56
937.674	1651.88
937.982	1668.15
938.29	1665.44
938.597	1628.38
938.905	1641.71
939.213	1653.69
939.52	1606.68
939.827	1625.66
940.135	1610.75
940.442	1608.04
940.749	1592.22
941.056	1571.43
941.363	1607.36
941.67	1597.87
941.977	1574.82
942.284	1572.78
942.591	1562.39
942.898	1551.54
943.205	1533.91
943.511	1538.21
943.818	1526.68
944.125	1504.76
944.431	1543.86
944.738	1527.81
945.044	1518.1
945.35	1524.42
945.657	1489.85
945.963	1494.14
946.269	1495.5
946.575	1495.72
946.881	1501.37
947.187	1501.37
947.493	1470.64
947.799	1453.46
948.105	1467.25
948.41	1444.2
948.716	1446.46
949.022	1451.88
949.327	1437.87
949.633	1419.79
949.938	1434.03
950.244	1403.52
950.549	1415.95
950.854	1436.97
951.16	1420.7
951.465	1399
951.77	1431.54
952.075	1413.69
952.38	1392.45
952.685	1405.1
952.99	1380.7
953.294	1377.53
953.599	1383.86
953.904	1365.78
954.209	1358.33
954.513	1389.29
954.818	1384.99
955.122	1354.26
955.426	1338.44
955.731	1344.09
956.035	1327.82
956.339	1335.95
956.643	1337.08
956.948	1308.84
957.252	1297.31
957.556	1309.51
957.86	1288.5
958.163	1305.45
958.467	1315.16
958.771	1312.68
959.075	1301.38
959.378	1286.01
959.682	1261.38
959.985	1282.17
960.289	1268.16
960.592	1277.2
960.896	1280.59
961.199	1238.78
961.502	1246.24
961.805	1241.49
962.108	1238.56
962.411	1228.61
962.714	1232.23
963.017	1226.8
963.32	1233.58
963.623	1232.91
963.926	1219.12
964.228	1187.26
964.531	1180.03
964.833	1194.04
965.136	1222.74
965.438	1205.56
965.741	1206.69
966.043	1218.67
966.345	1171.66
966.648	1196.07
966.95	1168.05
967.252	1183.64
967.554	1181.16
967.856	1172.34
968.158	1152.68
968.46	1143.64
968.761	1166.24
969.063	1156.07
969.365	1156.3
969.666	1128.95
969.968	1151.55
970.269	1124.66
970.571	1118.56
970.872	1120.14
971.174	1116.75
971.475	1112
971.776	1108.84
972.077	1109.29
972.378	1108.16
972.679	1088.28
972.98	1098.67
973.281	1079.46
973.582	1093.7
973.883	1074.94
974.183	1083.3
974.484	1102.97
974.785	1062.74
975.085	1075.62
975.386	1070.42
975.686	1064.1
975.986	1048.96
976.287	1048.73
976.587	1070.2
976.887	1065.68
977.187	1079.69
977.487	1045.11
977.787	1056.41
978.087	1041.95
978.387	1028.17
978.687	1030.2
978.987	1015.28
979.286	1008.05
979.586	1036.07
979.885	1013.93
980.185	1007.83
980.484	1035.17
980.784	1025.23
981.083	1003.08
981.382	991.1
981.682	999.69
981.981	981.16
982.28	980.71
982.579	973.93
982.878	967.6
983.177	962.4
983.475	970.77
983.774	968.73
984.073	965.12
984.372	974.61
984.67	943.87
984.969	975.96
985.267	978.45
985.566	979.35
985.864	920.82
986.162	937.32
986.461	904.78
986.759	952.91
987.057	924.66
987.355	928.73
987.653	932.12
987.951	909.98
988.249	930.77
988.547	930.77
988.844	924.21
989.142	927.83
989.44	883.54
989.737	909.98
990.035	897.55
990.332	894.61
990.63	905.68
990.927	895.06
991.224	877.21
991.521	875.85
991.819	864.33
992.116	873.82
992.413	870.43
992.71	893.93
993.006	860.03
993.303	887.15
993.6	872.24
993.897	878.56
994.193	869.07
994.49	869.75
994.787	877.43
995.083	836.98
995.379	847.6
995.676	828.62
995.972	848.06
996.268	868.4
996.565	845.57
996.861	850.77
997.157	799.24
997.453	848.51
997.749	828.62
998.044	821.62
998.34	820.26
998.636	817.32
998.932	812.58
999.227	806.93
999.523	801.5
999.818	794.95
1000.114	808.96
1000.409	805.8
1000.704	815.74
1001	804.67
1001.295	806.93
1001.59	779.13
1001.885	794.05
1002.18	788.17
1002.475	772.58
1002.77	749.75
1003.065	784.33
1003.359	781.39
1003.654	762.41
1003.949	753.14
1004.243	762.86
1004.538	778
1004.832	759.47
1005.127	753.82
1005.421	739.36
1005.715	738.68
1006.009	729.87
1006.304	750.21
1006.598	721.51
1006.892	739.59
1007.186	719.02
1007.48	710.21
1007.773	721.05
1008.067	722.18
1008.361	707.95
1008.655	708.85
1008.948	725.57
1009.242	718.12
1009.535	714.73
1009.829	716.08
1010.122	712.24
1010.415	704.56
1010.708	693.71
1011.001	701.17
1011.295	707.72
1011.588	681.06
1011.881	698.91
1012.173	703.2
1012.466	688.29
1012.759	692.35
1013.052	672.92
1013.344	692.58
1013.637	669.76
1013.93	697.33
1014.222	681.51
1014.514	687.38
1014.807	683.77
1015.099	684.22
1015.391	674.5
1015.683	680.38
1015.976	641.28
1016.268	648.97
1016.56	667.5
1016.851	657.78
1017.143	651.45
1017.435	636.08
1017.727	648.51
1018.018	615.97
1018.31	632.7
1018.602	620.49
1018.893	654.84
1019.185	624.79
1019.476	620.94
1019.767	608.52
1020.058	616.42
1020.35	606.03
1020.641	639.7
1020.932	603.32
1021.223	593.37
1021.514	606.93
1021.804	617.1
1022.095	582.75
1022.386	590.21
1022.677	610.77
1022.967	605.8
1023.258	598.12
1023.548	594.5
1023.839	613.94
1024.129	596.76
1024.419	580.49
1024.709	588.18
1025	560.38
1025.29	577.56
1025.58	569.65
1025.87	581.62
1026.16	575.97
1026.449	592.24
1026.739	570.78
1027.029	566.71
1027.319	572.13
1027.608	556.77
1027.898	552.47
1028.187	553.83
1028.477	548.86
1028.766	560.38
1029.055	548.18
1029.344	546.82
1029.634	560.61
1029.923	525.13
1030.212	526.94
1030.501	534.62
1030.79	538.23
1031.078	532.81
1031.367	517.22
1031.656	546.6
1031.945	537.33
1032.233	534.17
1032.522	552.92
1032.81	514.28
1033.099	527.39
1033.387	523.55
1033.675	513.15
1033.963	508.4
1034.251	539.82
1034.54	519.48
1034.828	507.27
1035.116	515.86
1035.403	486.03
1035.691	505.47
1035.979	509.99
1036.267	510.21
1036.554	507.05
1036.842	518.57
1037.129	479.93
1037.417	511.12
1037.704	507.27
1037.992	480.61
1038.279	502.98
1038.566	481.51
1038.853	481.51
1039.14	481.51
