Data from black_metal_pc_casing_FLMS001491_00001.txt Node
Date: Wed Feb 08 14:31:50 GMT 2017
User: dcchb
Spectrometer: FLMS00149
Trigger mode: 0
Integration Time (sec): 2.000000E-2
Scans to average: 10
Electric dark correction enabled: true
Nonlinearity correction enabled: false
Boxcar width: 0
XAxis mode: Wavelengths
Number of Pixels in Spectrum: 2048
>>>>>Begin Spectral Data<<<<<
341.393	-18.42
341.776	-18.42
342.16	-18.42
342.543	-54.35
342.927	-69.94
343.31	-69.49
343.693	-87.79
344.077	-69.72
344.46	-44.41
344.843	-37.17
345.226	-51.19
345.61	-39.89
345.993	-20.68
346.376	-10.51
346.759	15.25
347.142	24.52
347.525	44.18
347.908	63.16
348.291	85.76
348.674	91.18
349.057	106.78
349.44	131.63
349.823	127.34
350.206	159.43
350.588	174.12
350.971	181.35
351.354	206.66
351.737	226.1
352.119	222.71
352.502	249.6
352.884	240.11
353.267	266.55
353.65	262.93
354.032	275.59
354.414	302.03
354.797	297.73
355.179	293.21
355.562	299.09
355.944	304.51
356.326	328.01
356.709	330.05
357.091	314.91
357.473	342.25
357.855	336.83
358.238	336.6
358.62	321.46
359.002	332.99
359.384	314.23
359.766	308.35
360.148	300.44
360.53	337.28
360.912	314.46
361.294	303.61
361.676	321.69
362.057	315.13
362.439	339.09
362.821	307
363.203	318.97
363.584	304.96
363.966	331.86
364.348	324.85
364.729	325.75
365.111	297.51
365.493	311.74
365.874	306.55
366.256	295.92
366.637	314.91
367.019	317.17
367.4	298.86
367.781	308.35
368.163	303.61
368.544	292.31
368.925	296.38
369.306	309.26
369.688	314.46
370.069	299.77
370.45	302.48
370.831	291.63
371.212	309.71
371.593	297.96
371.974	297.51
372.355	327.11
372.736	306.77
373.117	306.77
373.498	322.59
373.879	314.46
374.26	316.04
374.641	291.18
375.021	306.32
375.402	338.18
375.783	316.94
376.163	321.91
376.544	321.23
376.925	322.36
377.305	316.49
377.686	315.13
378.066	322.59
378.447	310.61
378.827	334.34
379.208	346.32
379.588	337.96
379.968	340.22
380.349	325.75
380.729	331.4
381.109	332.31
381.489	345.41
381.87	326.66
382.25	315.36
382.63	332.76
383.01	353.55
383.39	345.64
383.77	349.71
384.15	337.05
384.53	343.61
384.91	337.28
385.29	333.89
385.67	349.71
386.049	342.25
386.429	346.32
386.809	345.19
387.189	340.89
387.568	350.39
387.948	361.69
388.328	372.76
388.707	378.41
389.087	356.26
389.466	359.43
389.846	349.93
390.225	378.86
390.605	385.64
390.984	381.35
391.363	358.52
391.743	369.59
392.122	364.85
392.501	367.11
392.881	391.97
393.26	372.53
393.639	372.31
394.018	383.83
394.397	363.72
394.776	386.09
395.155	374.57
395.534	390.39
395.913	395.81
396.292	391.06
396.671	421.34
397.05	384.06
397.429	408.46
397.808	381.12
398.186	393.1
398.565	396.26
398.944	411.18
399.323	414.11
399.701	415.7
400.08	416.37
400.458	439.88
400.837	402.59
401.215	417.73
401.594	412.98
401.972	414.11
402.351	390.39
402.729	413.21
403.107	424.06
403.486	427.22
403.864	431.06
404.242	427.67
404.62	422.7
404.999	420.44
405.377	420.21
405.755	443.04
406.133	444.62
406.511	430.61
406.889	468.12
407.267	458.86
407.645	469.25
408.023	468.12
408.401	469.25
408.779	472.19
409.156	493.43
409.534	480.78
409.912	480.55
410.29	459.31
410.667	460.67
411.045	504.05
411.422	477.16
411.8	477.39
412.178	517.61
412.555	509.25
412.933	502.02
413.31	522.59
413.687	518.07
414.065	506.54
414.442	505.86
414.819	508.35
415.197	548.8
415.574	537.5
415.951	519.87
416.328	515.58
416.705	539.08
417.082	525.75
417.46	535.01
417.837	548.8
418.214	542.47
418.591	542.47
418.967	555.13
419.344	561.68
419.721	571.85
420.098	562.58
420.475	568.46
420.852	569.36
421.228	578.18
421.605	578.4
421.982	574.56
422.358	599.19
422.735	591.96
423.111	589.48
423.488	592.64
423.864	568.91
424.241	606.2
424.617	612.98
424.994	598.52
425.37	627.67
425.746	601.45
426.123	593.09
426.499	637.16
426.875	642.81
427.251	627.67
427.627	642.81
428.003	648.46
428.379	659.08
428.756	649.36
429.132	650.04
429.507	686.2
429.883	675.58
430.259	723.26
430.635	693.43
431.011	684.16
431.387	705.86
431.763	701.56
432.138	707.21
432.514	745.18
432.89	723.48
433.265	776.59
433.641	728.68
434.016	758.51
434.392	769.58
434.767	770.94
435.143	760.32
435.518	770.71
435.894	773.88
436.269	787.89
436.644	785.18
437.02	788.79
437.395	790.6
437.77	795.8
438.145	831.5
438.52	822.46
438.895	819.3
439.271	803.48
439.646	828.11
440.021	826.98
440.395	847.32
440.77	826.98
441.145	827.66
441.52	862.46
441.895	839.86
442.27	882.35
442.645	849.81
443.019	874.21
443.394	867.21
443.769	869.24
444.143	888.68
444.518	890.26
444.892	910.6
445.267	894.33
445.641	928.68
446.016	890.49
446.39	915.34
446.764	938.39
447.139	933.65
447.513	935.91
447.887	951.05
448.262	941.78
448.636	943.14
449.01	971.84
449.384	971.39
449.758	976.36
450.132	973.19
450.506	1000.09
450.88	996.02
451.254	968.45
451.628	1017.04
452.002	979.3
452.376	1017.26
452.75	1041.22
453.123	1025.17
453.497	1072.18
453.871	1062.01
454.244	1104.26
454.618	1083.02
454.992	1083.47
455.365	1080.31
455.739	1106.52
456.112	1104.49
456.486	1149.69
456.859	1141.1
457.232	1145.17
457.606	1139.07
457.979	1152.63
458.352	1179.52
458.725	1178.39
459.099	1194.66
459.472	1216.8
459.845	1226.75
460.218	1206.18
460.591	1256.35
460.964	1260.19
461.337	1286.41
461.71	1301.32
462.083	1321.43
462.456	1278.05
462.829	1288.89
463.201	1311.72
463.574	1360.76
463.947	1346.29
464.32	1376.35
464.692	1347.87
465.065	1391.71
465.438	1426.29
465.81	1422.45
466.183	1416.57
466.555	1470.13
466.928	1487.76
467.3	1463.35
467.672	1495.67
468.045	1535.67
468.417	1513.75
468.789	1529.56
469.161	1570.47
469.534	1587.42
469.906	1617.7
470.278	1632.61
470.65	1620.86
471.022	1664.7
471.394	1694.98
471.766	1716
472.138	1699.28
472.51	1736.79
472.882	1778.6
473.253	1795.77
473.625	1791.25
473.997	1838.03
474.369	1866.96
474.74	1876.9
475.112	1868.99
475.484	1951.7
475.855	1973.85
476.227	1987.63
476.598	2028.53
476.97	1997.57
477.341	2061.3
477.713	2117.8
478.084	2105.59
478.455	2146.5
478.827	2179.72
479.198	2235.31
479.569	2217.23
479.94	2282.54
480.311	2330
480.682	2348.98
481.053	2381.52
481.424	2427.17
481.795	2454.29
482.166	2469.65
482.537	2500.84
482.908	2545.58
483.279	2556.43
483.65	2642.3
484.021	2678.46
484.391	2691.12
484.762	2769.53
485.133	2738.12
485.503	2816.54
485.874	2850.66
486.244	2860.83
486.615	2924.33
486.985	2916.42
487.356	3013.14
487.726	2985.35
488.097	3059.02
488.467	3061.73
488.837	3159.35
489.207	3172.23
489.578	3210.2
489.948	3234.6
490.318	3306.47
490.688	3289.29
491.058	3329.52
491.428	3371.1
491.798	3402.28
492.168	3457.42
492.538	3473.69
492.908	3517.31
493.278	3563.64
493.648	3581.94
494.017	3628.49
494.387	3659.68
494.757	3681.37
495.126	3735.61
495.496	3733.57
495.866	3767.47
496.235	3771.31
496.605	3829.16
496.974	3833.01
497.344	3868.03
497.713	3927.69
498.082	3905.55
498.452	3969.5
498.821	3988.48
499.19	4038.2
499.559	4057.63
499.928	4120.91
500.298	4106.45
500.667	4150.74
501.036	4165.88
501.405	4171.08
501.774	4196.16
502.143	4209.04
502.512	4216.05
502.88	4281.81
503.249	4261.92
503.618	4314.12
503.987	4383.73
504.356	4382.6
504.724	4437.06
505.093	4445.87
505.462	4430.05
505.83	4460.33
506.199	4534.23
506.567	4603.83
506.936	4580.78
507.304	4678.86
507.672	4647.45
508.041	4693.1
508.409	4698.97
508.777	4707.11
509.145	4766.99
509.514	4763.6
509.882	4786.43
510.25	4810.38
510.618	4840.21
510.986	4895.35
511.354	4976.48
511.722	4968.8
512.09	5030.04
512.458	5038.4
512.826	5086.31
513.193	5103.26
513.561	5061
513.929	5189.58
514.297	5243.36
514.664	5284.95
515.032	5250.6
515.4	5257.15
515.767	5383.93
516.135	5359.07
516.502	5298.05
516.869	5424.38
517.237	5473.42
517.604	5414.89
517.972	5541.21
518.339	5551.38
518.706	5600.87
519.073	5611.94
519.44	5631.6
519.808	5702.56
520.175	5693.75
520.542	5827.08
520.909	5781.43
521.276	5831.15
521.643	5887.64
522.009	5947.53
522.376	5941.43
522.743	6015.32
523.11	6049.45
523.477	6143.68
523.843	6155.21
524.21	6218.03
524.577	6295.99
524.943	6251.7
525.31	6372.6
525.676	6358.36
526.043	6420.74
526.409	6456.89
526.776	6582.99
527.142	6568.98
527.508	6578.02
527.874	6612.14
528.241	6656.44
528.607	6701.86
528.973	6791.35
529.339	6724.68
529.705	6849.88
530.071	6876.77
530.437	6918.58
530.803	6958.57
531.169	6961.74
531.535	6974.39
531.901	7011.45
532.267	7110.21
532.632	7140.04
532.998	7088.29
533.364	7201.05
533.73	7179.36
534.095	7296.87
534.461	7287.15
534.826	7358.34
535.192	7359.24
535.557	7470.88
535.923	7462.97
536.288	7458
536.653	7501.61
537.019	7477.88
537.384	7555.85
537.749	7591.78
538.114	7557.2
538.479	7559.01
538.845	7664.09
539.21	7646.69
539.575	7706.13
539.94	7746.58
540.305	7786.12
540.67	7744.09
541.034	7743.86
541.399	7813.92
541.764	7823.86
542.129	7876.52
542.494	7882.84
542.858	7977.53
543.223	7947.7
543.587	8005.78
543.952	8012.56
544.316	7962.84
544.681	8039
545.045	8133.46
545.41	8135.04
545.774	8204.19
546.138	8141.82
546.503	8192.67
546.867	8208.03
547.231	8296.62
547.595	8281.03
547.959	8325.32
548.324	8296.84
548.688	8354.47
549.052	8386.56
549.416	8391.3
549.779	8379.1
550.143	8431.08
550.507	8523.28
550.871	8528.48
551.235	8481.25
551.599	8547.01
551.962	8594.69
552.326	8653.44
552.689	8739.77
553.053	8643.5
553.417	8689.38
553.78	8756.04
554.143	8813.89
554.507	8760.56
554.87	8869.94
555.234	8953.55
555.597	8889.82
555.96	8956.71
556.323	9000.1
556.686	8971.63
557.05	9057.05
557.413	9090.27
557.776	9062.47
558.139	9072.87
558.502	9150.83
558.865	9168.69
559.228	9240.32
559.59	9264.5
559.953	9293.88
560.316	9430.15
560.679	9325.97
561.041	9478.51
561.404	9514.89
561.767	9558.05
562.129	9553.99
562.492	9617.04
562.854	9614.55
563.217	9711.27
563.579	9777.26
563.941	9727.99
564.304	9789.46
564.666	9899.74
565.028	9795.79
565.39	9923.02
565.753	9985.61
566.115	10018.15
566.477	10018.61
566.839	10095.89
567.201	10169.79
567.563	10137.25
567.925	10195.78
568.287	10210.69
568.648	10256.79
569.01	10347.41
569.372	10407.97
569.734	10308.99
570.095	10458.82
570.457	10500.85
570.819	10541.53
571.18	10562.77
571.542	10585.6
571.903	10567.74
572.265	10620.17
572.626	10710.57
572.987	10711.02
573.349	10695.88
573.71	10743.56
574.071	10807.29
574.432	10864.01
574.794	10873.27
575.155	10826.49
575.516	10823.33
575.877	10942.42
576.238	10852.26
576.599	10902.43
576.96	10944.01
577.32	11004.57
577.681	11015.87
578.042	11061.52
578.403	11046.6
578.763	11069.2
579.124	11026.94
579.485	11086.38
579.845	11103.32
580.206	11105.13
580.566	11163.66
580.927	11110.1
581.287	11210.21
581.648	11132.7
582.008	11244.79
582.368	11192.81
582.728	11252.47
583.089	11274.84
583.449	11240.72
583.809	11199.59
584.169	11252.92
584.529	11208.18
584.889	11290.66
585.249	11236.2
585.609	11223.09
585.969	11331.11
586.329	11215.86
586.688	11313.94
587.048	11274.39
587.408	11217.67
587.768	11322.3
588.127	11336.09
588.487	11221.74
588.846	11338.35
589.206	11251.79
589.565	11305.13
589.925	11329.31
590.284	11306.48
590.643	11255.64
591.003	11288.86
591.362	11318.91
591.721	11252.92
592.08	11292.47
592.44	11332.02
592.799	11410.89
593.158	11300.83
593.517	11369.08
593.876	11346.71
594.235	11339.7
594.593	11444.11
594.952	11388.74
595.311	11372.7
595.67	11350.32
596.029	11445.24
596.387	11412.47
596.746	11447.04
597.104	11412.69
597.463	11397.33
597.822	11448.17
598.18	11407.5
598.538	11415.41
598.897	11423.09
599.255	11373.83
599.613	11502.41
599.972	11441.85
600.33	11534.95
600.688	11494.05
601.046	11529.75
601.404	11572.01
601.762	11534.95
602.12	11539.02
602.478	11621.28
602.836	11582.41
603.194	11495.18
603.552	11572.69
603.91	11519.58
604.268	11657.89
604.625	11586.93
604.983	11688.17
605.341	11601.16
605.698	11712.8
606.056	11672.57
606.413	11732.01
606.771	11702.86
607.128	11737.66
607.485	11642.29
607.843	11612.01
608.2	11805
608.557	11828.05
608.914	11687.94
609.272	11773.14
609.629	11773.36
609.986	11863.76
610.343	11817.43
610.7	11858.56
611.057	11911.44
611.414	11822.63
611.771	11830.54
612.127	11945.79
612.484	11927.03
612.841	11929.06
613.198	11835.73
613.554	11818.56
613.911	12010.19
614.267	11960.02
614.624	11939.46
614.98	11981.94
615.337	11988.5
615.693	11988.27
616.05	11947.14
616.406	12046.12
616.762	12017.2
617.118	11993.92
617.475	12018.55
617.831	12134.71
618.187	12019.91
618.543	12008.38
618.899	12071.21
619.255	12026.46
619.611	12105.78
619.967	12126.57
620.323	12191.66
620.678	12111.66
621.034	12100.59
621.39	12134.26
621.746	12061.26
622.101	12195.27
622.457	12170.64
622.812	12114.6
623.168	12135.16
623.523	12211.09
623.879	12134.26
624.234	12124.09
624.589	12141.49
624.945	12194.14
625.3	12174.48
625.655	12147.82
626.01	12184.2
626.365	12176.06
626.72	12149.85
627.075	12136.29
627.43	12143.97
627.785	12145.78
628.14	12142.62
628.495	12122.05
628.85	12143.07
629.205	12098.55
629.559	12196.85
629.914	12126.8
630.269	12169.28
630.623	12015.39
630.978	12128.38
631.332	12115.5
631.687	12200.92
632.041	12037.31
632.396	12050.19
632.75	12016.07
633.104	12072.11
633.459	12011.32
633.813	11991.44
634.167	12027.37
634.521	12004.32
634.875	11974.71
635.229	12014.03
635.583	11919.57
635.937	11905.11
636.291	11884.09
636.645	11919.57
636.999	11892.23
637.352	11897.65
637.706	11834.6
638.06	11799.12
638.413	11800.48
638.767	11766.58
639.121	11785.34
639.474	11787.83
639.828	11737.66
640.181	11827.6
640.534	11743.76
640.888	11704.44
641.241	11678.68
641.594	11702.86
641.947	11686.36
642.301	11637.32
642.654	11702.63
643.007	11663.99
643.36	11647.72
643.713	11615.85
644.066	11689.3
644.419	11592.35
644.771	11529.3
645.124	11450.43
645.477	11364.56
645.83	11389.42
646.182	11268.74
646.535	11242.76
646.888	11249.08
647.24	11186.03
647.593	11248.4
647.945	11256.77
648.298	11150.1
648.65	11116.66
649.002	11118.92
649.355	11188.97
649.707	11121.4
650.059	11198.91
650.411	11313.26
650.763	11353.49
651.115	11351.45
651.467	11316.2
651.819	11308.52
652.171	11296.99
652.523	11295.64
652.875	11316.88
653.227	11266.48
653.578	11377.89
653.93	11320.27
654.282	11235.98
654.633	11215.19
654.985	11218.58
655.337	11228.29
655.688	11196.88
656.039	11305.13
656.391	11186.71
656.742	11293.6
657.094	11239.82
657.445	11248.63
657.796	11160.27
658.147	11173.83
658.498	11161.4
658.849	11207.05
659.2	11142.42
659.551	11145.13
659.902	11146.49
660.253	11178.12
660.604	11159.59
660.955	11150.1
661.306	11136.77
661.656	11215.19
662.007	11201.63
662.358	11150.33
662.708	11138.58
663.059	11140.84
663.409	11026.72
663.76	11181.29
664.11	11148.07
664.461	11105.58
664.811	11142.42
665.161	11068.97
665.511	11059.94
665.862	11078.01
666.212	11112.82
666.562	11080.05
666.912	11097.22
667.262	11089.31
667.612	11021.97
667.962	11052.25
668.312	11108.3
668.662	11103.78
669.011	11067.39
669.361	11017
669.711	11077.11
670.06	10987.62
670.41	11095.41
670.76	11020.84
671.109	11009.99
671.459	11024.46
671.808	10951.92
672.157	10919.15
672.507	10848.42
672.856	10982.65
673.205	10961.41
673.554	10937.23
673.904	10881.86
674.253	10985.59
674.602	10942.65
674.951	10772.03
675.3	10757.34
675.649	10944.01
675.998	10866.04
676.346	10908.53
676.695	10932.71
677.044	10867.85
677.393	10880.96
677.741	10868.53
678.09	10753.73
678.438	10784.46
678.787	10851.35
679.135	10833.05
679.484	10710.34
679.832	10805.03
680.181	10697.23
680.529	10835.76
680.877	10773.16
681.225	10681.41
681.573	10776.1
681.922	10694.97
682.27	10644.13
682.618	10595.77
682.966	10680.74
683.314	10678.93
683.661	10636.9
684.009	10549.44
684.357	10546.05
684.705	10524.81
685.053	10527.97
685.4	10585.37
685.748	10440.97
686.095	10515.09
686.443	10441.65
686.79	10365.94
687.138	10457.47
687.485	10456.34
687.832	10425.6
688.18	10373.63
688.527	10374.53
688.874	10330.46
689.221	10347.64
689.568	10286.17
689.915	10219.05
690.262	10245.04
690.609	10238.94
690.956	10180.86
691.303	10120.75
691.65	10131.37
691.997	10130.24
692.344	10128.43
692.69	10081.2
693.037	10023.58
693.383	9976.35
693.73	9996.69
694.077	9959.85
694.423	9964.82
694.769	9898.16
695.116	9845.73
695.462	9805.73
695.808	9818.16
696.155	9862.23
696.501	9819.06
696.847	9766.64
697.193	9665.4
697.539	9744.94
697.885	9674.21
698.231	9594.89
698.577	9696.13
698.923	9659.75
699.269	9517.83
699.614	9574.32
699.96	9490.26
700.306	9543.59
700.651	9511.95
700.997	9498.17
701.342	9470.37
701.688	9522.35
702.033	9452.52
702.379	9386.31
702.724	9362.58
703.069	9441.45
703.415	9280.09
703.76	9341.79
704.105	9337.27
704.45	9298.63
704.795	9212.53
705.14	9204.62
705.485	9188.57
705.83	9141.79
706.175	9143.6
706.52	9144.51
706.865	9121.68
707.209	9085.52
707.554	9060.44
707.899	9072.64
708.243	9016.15
708.588	9052.08
708.932	8943.38
709.277	8983.61
709.621	8948.8
709.966	8928.92
710.31	8951.74
710.654	8808.47
710.998	8876.49
711.342	8853.44
711.687	8853.67
712.031	8755.81
712.375	8729.15
712.719	8804.85
713.063	8731.63
713.407	8737.06
713.75	8718.3
714.094	8718.53
714.438	8716.72
714.782	8673.33
715.125	8691.18
715.469	8702.26
715.812	8610.51
716.156	8615.93
716.499	8581.81
716.843	8572.32
717.186	8514.24
717.53	8624.74
717.873	8522.83
718.216	8568.48
718.559	8468.36
718.902	8478.99
719.246	8509.49
719.589	8454.35
719.932	8392.89
720.275	8398.76
720.617	8393.56
720.96	8361.02
721.303	8364.19
721.646	8313.34
721.989	8296.62
722.331	8391.76
722.674	8360.57
723.016	8335.49
723.359	8340.46
723.701	8309.05
724.044	8239.9
724.386	8213.23
724.729	8270.86
725.071	8210.74
725.413	8201.48
725.755	8203.97
726.097	8186.79
726.439	8165.55
726.782	8121.93
727.124	8184.98
727.465	8127.36
727.807	8185.43
728.149	8065.44
728.491	8059.56
728.833	8132.78
729.175	8056.85
729.516	8046.91
729.858	7999.22
730.199	8015.72
730.541	7961.26
730.882	8007.13
731.224	8049.84
731.565	7984.99
731.906	7990.86
732.248	8035.61
732.589	7941.6
732.93	7916.52
733.271	7930.07
733.612	7926.46
733.953	7958.77
734.294	7912.22
734.635	7882.17
734.976	7855.27
735.317	7857.08
735.658	7891.88
735.999	7846.91
736.339	7853.01
736.68	7844.2
737.021	7862.28
737.361	7795.61
737.702	7851.88
738.042	7781.6
738.383	7768.95
738.723	7799.23
739.063	7760.81
739.404	7722.17
739.744	7689.4
740.084	7714.49
740.424	7693.47
740.764	7684.88
741.104	7708.38
741.444	7660.48
741.784	7631.55
742.124	7641.72
742.464	7673.36
742.804	7615.96
743.143	7580.03
743.483	7524.43
743.823	7541.38
744.162	7552.46
744.502	7619.12
744.841	7512.91
745.181	7552.23
745.52	7484.66
745.86	7556.75
746.199	7509.97
746.538	7439.69
746.877	7519.92
747.216	7490.76
747.556	7457.09
747.895	7542.06
748.234	7346.59
748.573	7446.7
748.911	7405.79
749.25	7436.08
749.589	7325.57
749.928	7328.73
750.267	7331.9
750.605	7320.15
750.944	7326.93
751.283	7250.32
751.621	7285.12
751.96	7236.53
752.298	7187.49
752.636	7267.72
752.975	7211.22
753.313	7225.91
753.651	7247.38
753.989	7190.88
754.327	7146.59
754.666	7143.88
755.004	7101.4
755.342	7131.45
755.679	7087.16
756.017	7084.9
756.355	7126.71
756.693	7045.58
757.031	7042.87
757.368	7019.14
757.706	7012.36
758.044	6971.91
758.381	7028.85
758.719	7009.19
759.056	7006.48
759.394	6988.63
759.731	6916.32
760.068	6889.88
760.405	6886.49
760.743	6796.09
761.08	6840.39
761.417	6792.93
761.754	6739.82
762.091	6759.03
762.428	6738.24
762.765	6758.81
763.102	6761.07
763.438	6669.77
763.775	6658.47
764.112	6619.83
764.449	6619.37
764.785	6616.66
765.122	6622.76
765.458	6545.7
765.795	6564.91
766.131	6547.96
766.467	6482.65
766.804	6522.65
767.14	6455.08
767.476	6452.6
767.812	6449.89
768.148	6436.33
768.485	6386.84
768.821	6315.2
769.157	6335.31
769.492	6370.34
769.828	6333.73
770.164	6297.57
770.5	6220.97
770.836	6255.77
771.171	6249.21
771.507	6224.58
771.842	6217.35
772.178	6164.92
772.513	6160.85
772.849	6104.13
773.184	6069.56
773.519	6093.06
773.855	6059.61
774.19	6051.48
774.525	6037.47
774.86	6029.78
775.195	6011.93
775.53	5971.48
775.865	5969.67
776.2	5946.85
776.535	5906.85
776.87	5859.85
777.205	5876.34
777.539	5847.19
777.874	5801.99
778.209	5807.87
778.543	5772.39
778.878	5738.95
779.212	5793.63
779.547	5722
779.881	5795.44
780.215	5701.21
780.55	5658.95
780.884	5687.42
781.218	5659.17
781.552	5615.56
781.886	5615.56
782.22	5585.28
782.554	5587.31
782.888	5503.02
783.222	5484.94
783.556	5521.1
783.889	5462.34
784.223	5415.34
784.557	5439.74
784.89	5484.94
785.224	5390.48
785.557	5373.08
785.891	5383.02
786.224	5315.23
786.558	5328.33
786.891	5303.02
787.224	5265.74
787.557	5284.95
787.891	5269.13
788.224	5268.9
788.557	5234.55
788.89	5191.16
789.223	5199.3
789.556	5170.15
789.888	5159.75
790.221	5128.34
790.554	5058.74
790.887	5076.14
791.219	5075.46
791.552	5076.36
791.884	5071.39
792.217	5030.72
792.549	5045.63
792.882	4992.52
793.214	4982.13
793.546	4982.58
793.879	4926.76
794.211	4907.78
794.543	4903.03
794.875	4919.53
795.207	4938.51
795.539	4890.61
795.871	4938.74
796.203	4863.26
796.535	4844.51
796.867	4785.07
797.198	4765.64
797.53	4766.77
797.862	4757.5
798.193	4796.6
798.525	4752.76
798.856	4740.55
799.188	4668.46
799.519	4643.83
799.85	4683.61
800.182	4654.91
800.513	4683.38
800.844	4594.34
801.175	4639.99
801.506	4620.1
801.837	4641.12
802.168	4593.66
802.499	4573.33
802.83	4586.21
803.161	4582.14
803.491	4564.06
803.822	4532.2
804.153	4520.9
804.483	4472.54
804.814	4487.9
805.145	4505.08
805.475	4486.77
805.805	4444.06
806.136	4482.71
806.466	4456.04
806.796	4475.25
807.126	4410.62
807.457	4388.47
807.787	4417.17
808.117	4380.56
808.447	4395.7
808.777	4389.38
809.107	4352.54
809.436	4329.94
809.766	4341.24
810.096	4311.86
810.426	4332.2
810.755	4296.05
811.085	4273.45
811.414	4304.18
811.744	4249.49
812.073	4237.97
812.403	4223.05
812.732	4226.44
813.061	4176.05
813.39	4194.35
813.719	4183.28
814.049	4239.78
814.378	4242.26
814.707	4155.48
815.036	4164.52
815.365	4197.97
815.693	4130.85
816.022	4180.34
816.351	4148.93
816.68	4036.17
817.008	4120.23
817.337	4082.94
817.665	4069.84
817.994	4082.04
818.322	4087.01
818.651	4028.26
818.979	4031.42
819.307	4080.91
819.636	4035.71
819.964	3993.45
820.292	3990.29
820.62	3997.3
820.948	3998.2
821.276	4005.66
821.604	3974.47
821.932	4032.55
822.259	4000.01
822.587	3993.45
822.915	4023.06
823.243	4025.54
823.57	4011.76
823.898	3991.87
824.225	3989.39
824.553	3966.34
824.88	3975.15
825.207	3980.57
825.535	3989.39
825.862	4014.24
826.189	4003.4
826.516	3995.49
826.843	4017.18
827.17	4008.82
827.497	4039.33
827.824	4014.7
828.151	4034.36
828.478	3985.32
828.805	4000.46
829.131	3962.72
829.458	3976.96
829.785	3955.94
830.111	3977.18
830.438	3948.03
830.764	3912.78
831.09	3970.4
831.417	4001.14
831.743	3958.88
832.069	3975.83
832.395	3927.69
832.722	3980.8
833.048	3984.64
833.374	3984.19
833.7	3937.64
834.026	3972.89
834.351	3947.81
834.677	3942.83
835.003	3903.29
835.329	3976.05
835.654	3944.87
835.98	3938.09
836.306	3937.18
836.631	3900.12
836.956	3935.38
837.282	3926.56
837.607	3880.91
837.932	3897.41
838.258	3862.38
838.583	3870.75
838.908	3872.78
839.233	3843.4
839.558	3862.16
839.883	3858.99
840.208	3818.32
840.533	3844.31
840.858	3840.01
841.182	3847.47
841.507	3795.27
841.832	3821.93
842.156	3801.37
842.481	3820.58
842.805	3801.59
843.13	3748.04
843.454	3741.71
843.778	3776.96
844.103	3770.18
844.427	3714.37
844.751	3731.09
845.075	3740.81
845.399	3699.68
845.723	3699.9
846.047	3684.99
846.371	3675.27
846.695	3680.69
847.019	3647.02
847.343	3615.39
847.666	3635.72
847.99	3578.1
848.313	3621.71
848.637	3576.97
848.96	3575.39
849.284	3587.59
849.607	3541.94
849.931	3539.23
850.254	3552.34
850.577	3475.28
850.9	3487.48
851.223	3473.69
851.546	3493.35
851.869	3427.82
852.192	3457.42
852.515	3453.58
852.838	3463.75
853.161	3395.28
853.483	3434.37
853.806	3412.45
854.129	3403.19
854.451	3361.83
854.774	3361.83
855.096	3369.97
855.419	3354.83
855.741	3378.78
856.063	3303.75
856.385	3309.4
856.708	3317.09
857.03	3296.98
857.352	3305.56
857.674	3335.17
857.996	3261.04
858.318	3233.25
858.64	3243.64
858.961	3202.97
859.283	3291.55
859.605	3234.15
859.926	3237.99
860.248	3222.18
860.57	3209.52
860.891	3213.14
861.212	3153.02
861.534	3149.41
861.855	3202.97
862.176	3194.61
862.498	3196.41
862.819	3215.4
863.14	3162.06
863.461	3196.41
863.782	3127.26
864.103	3155.96
864.424	3142.18
864.745	3161.84
865.065	3143.53
865.386	3160.48
865.707	3125
866.027	3140.37
866.348	3126.13
866.668	3121.61
866.989	3092.91
867.309	3082.07
867.63	3100.14
867.95	3116.64
868.27	3038.45
868.59	3063.76
868.91	3049.07
869.23	3069.18
869.55	3055.17
869.87	3087.94
870.19	3093.14
870.51	3056.08
870.83	3019.47
871.15	2998.45
871.469	3024.89
871.789	3016.53
872.109	3054.95
872.428	3016.08
872.748	3008.4
873.067	3006.81
873.386	3022.63
873.706	3020.15
874.025	3008.17
874.344	2986.25
874.663	2983.54
874.982	2983.99
875.301	3005.23
875.62	2966.36
875.939	3003.88
876.258	3000.03
876.577	2939.02
876.896	2969.75
877.214	2917.32
877.533	2964.78
877.852	2946.93
878.17	2937.89
878.489	2908.74
878.807	2958.23
879.125	2915.06
879.444	2939.7
879.762	2913.26
880.08	2903.99
880.398	2923.43
880.716	2892.01
881.034	2906.93
881.352	2897.66
881.67	2884.78
881.988	2874.61
882.306	2893.37
882.624	2863.09
882.941	2876.2
883.259	2855.63
883.577	2839.81
883.894	2863.31
884.212	2885.69
884.529	2834.61
884.846	2829.87
885.164	2841.62
885.481	2813.37
885.798	2833.26
886.115	2804.11
886.432	2797.78
886.75	2763.88
887.067	2829.42
887.383	2794.39
887.7	2804.33
888.017	2769.76
888.334	2766.37
888.651	2756.42
888.967	2752.13
889.284	2744.9
889.6	2736.54
889.917	2720.04
890.233	2710.55
890.55	2690.66
890.866	2703.77
891.182	2695.64
891.498	2733.6
891.815	2711.23
892.131	2682.08
892.447	2705.35
892.763	2680.72
893.079	2672.36
893.395	2670.78
893.71	2679.36
894.026	2658.35
894.342	2650.89
894.657	2622.87
894.973	2616.32
895.289	2611.8
895.604	2656.09
895.92	2612.7
896.235	2574.51
896.55	2595.98
896.865	2564.79
897.181	2547.16
897.496	2603.89
897.811	2556.2
898.126	2546.71
898.441	2509.2
898.756	2532.93
899.071	2531.8
899.386	2537.45
899.7	2509.88
900.015	2489.99
900.33	2466.04
900.644	2511.46
900.959	2490.22
901.273	2478.01
901.588	2505.13
901.902	2450.9
902.216	2457.9
902.531	2463.33
902.845	2466.26
903.159	2420.84
903.473	2409.32
903.787	2390.78
904.101	2423.55
904.415	2398.24
904.729	2363.21
905.042	2388.98
905.356	2354.85
905.67	2378.36
905.984	2369.99
906.297	2341.75
906.611	2343.78
906.924	2330
907.237	2315.76
907.551	2344.46
907.864	2314.18
908.177	2316.89
908.491	2285.48
908.804	2295.42
909.117	2267.17
909.43	2268.53
909.743	2289.54
910.056	2261.07
910.368	2245.03
910.681	2247.96
910.994	2242.54
911.307	2208.87
911.619	2188.3
911.932	2237.79
912.244	2205.93
912.557	2210.22
912.869	2190.11
913.181	2174.75
913.494	2183.56
913.806	2170
914.118	2138.81
914.43	2117.57
914.742	2128.19
915.054	2153.28
915.366	2130.23
915.678	2109.44
915.99	2115.99
916.302	2118.93
916.613	2099.27
916.925	2088.65
917.236	2079.38
917.548	2065.82
917.859	2043.22
918.171	2069.89
918.482	2055.88
918.794	2077.8
919.105	2026.27
919.416	2005.03
919.727	2002.77
920.038	2034.18
920.349	1998.93
920.66	2010.46
920.971	1981.08
921.282	2008.87
921.593	1977.01
921.903	1952.83
922.214	1966.39
922.525	1976.56
922.835	1925.94
923.146	1943.34
923.456	1936.33
923.767	1917.35
924.077	1936.33
924.387	1898.59
924.697	1917.35
925.008	1910.35
925.318	1914.41
925.628	1925.03
925.938	1887.07
926.248	1862.66
926.558	1876.45
926.867	1862.21
927.177	1869.44
927.487	1870.12
927.796	1868.99
928.106	1843.45
928.416	1851.59
928.725	1838.71
929.034	1825.83
929.344	1843.45
929.653	1808.43
929.962	1767.07
930.271	1765.26
930.581	1774.76
930.89	1786.28
931.199	1760.52
931.508	1773.4
931.817	1748.32
932.125	1727.3
932.434	1791.03
932.743	1737.02
933.051	1713.06
933.36	1744.25
933.669	1707.86
933.977	1726.4
934.286	1724.14
934.594	1718.71
934.902	1690.01
935.21	1686.17
935.519	1689.33
935.827	1692.05
936.135	1687.98
936.443	1671.26
936.751	1683.46
937.059	1673.97
937.367	1673.74
937.674	1660.18
937.982	1611.37
938.29	1630.58
938.597	1632.39
938.905	1635.78
939.213	1630.58
939.52	1611.6
939.827	1607.75
940.135	1602.78
940.442	1577.02
940.749	1613.18
941.056	1600.07
941.363	1574.99
941.67	1607.3
941.977	1575.89
942.284	1588.09
942.591	1530.02
942.898	1535.67
943.205	1549.22
943.511	1573.18
943.818	1519.85
944.125	1503.35
944.431	1499.28
944.738	1521.43
945.044	1501.99
945.35	1509.68
945.657	1507.19
945.963	1483.69
946.269	1473.75
946.575	1496.34
946.881	1484.82
947.187	1471.26
947.493	1484.14
947.799	1487.76
948.105	1470.36
948.41	1420.41
948.716	1447.31
949.022	1456.57
949.327	1434.43
949.633	1430.36
949.938	1422.67
950.244	1436.91
950.549	1417.25
950.854	1389.91
951.16	1386.29
951.465	1367.76
951.77	1398.72
952.075	1383.35
952.38	1363.24
952.685	1379.06
952.99	1360.98
953.294	1364.37
953.599	1349.23
953.904	1356.91
954.209	1371.6
954.513	1345.61
954.818	1338.61
955.122	1372.05
955.426	1334.77
955.731	1365.95
956.035	1347.2
956.339	1322.56
956.643	1309.68
956.948	1306.29
957.252	1253.19
957.556	1290.47
957.86	1302
958.163	1271.94
958.467	1285.05
958.771	1291.83
959.075	1289.8
959.378	1265.62
959.682	1276.01
959.985	1273.75
960.289	1278.05
960.592	1242.79
960.896	1249.12
961.199	1268.1
961.502	1237.14
961.805	1271.27
962.108	1259.06
962.411	1260.19
962.714	1226.07
963.017	1223.36
963.32	1221.32
963.623	1221.32
963.926	1216.35
964.228	1210.48
964.531	1234.88
964.833	1205.05
965.136	1203.47
965.438	1193.75
965.741	1178.39
966.043	1175.45
966.345	1148.33
966.648	1192.4
966.95	1187.88
967.252	1149.46
967.554	1188.33
967.856	1171.38
968.158	1178.39
968.46	1175.9
968.761	1160.08
969.063	1142.46
969.365	1137.03
969.666	1119.86
969.968	1117.6
970.269	1163.92
970.571	1152.17
970.872	1120.76
971.174	1111.27
971.475	1109.01
971.776	1114.21
972.077	1104.49
972.378	1084.15
972.679	1082.34
972.98	1118.28
973.281	1105.85
973.582	1095.68
973.883	1097.94
974.183	1076.92
974.484	1066.75
974.785	1082.34
975.085	1064.49
975.386	1091.84
975.686	1082.12
975.986	1080.54
976.287	1044.38
976.587	1052.97
976.887	1053.19
977.187	1046.41
977.487	1039.41
977.787	1028.33
978.087	1042.8
978.387	1028.33
978.687	1034.89
978.987	1031.27
979.286	1036.47
979.586	1032.4
979.885	998.73
980.185	1007.09
980.484	1014.55
980.784	1008.22
981.083	996.02
981.382	1001.22
981.682	984.49
981.981	1012.97
982.28	986.3
982.579	972.74
982.878	972.52
983.177	990.82
983.475	960.09
983.774	951.95
984.073	964.83
984.372	959.41
984.67	972.97
984.969	967.77
985.267	971.84
985.566	950.6
985.864	965.74
986.162	951.95
986.461	924.61
986.759	927.77
987.057	928.45
987.355	927.77
987.653	907.66
987.951	913.54
988.249	960.09
988.547	930.71
988.844	939.98
989.142	911.5
989.44	913.54
989.737	920.09
990.035	890.71
990.332	902.24
990.63	901.78
990.927	893.2
991.224	911.28
991.521	878.73
991.819	890.94
992.116	915.8
992.413	882.35
992.71	883.93
993.006	883.71
993.303	862.69
993.6	876.25
993.897	887.1
994.193	864.72
994.49	873.99
994.787	867.43
995.083	847.32
995.379	848
995.676	863.82
995.972	852.29
996.268	862.69
996.565	832.41
996.861	860.43
997.157	833.99
997.453	833.54
997.749	832.41
998.044	809.36
998.34	821.56
998.636	814.78
998.932	844.16
999.227	818.62
999.523	803.03
999.818	807.32
1000.114	791.73
1000.409	795.12
1000.704	786.98
1001	819.75
1001.295	783.82
1001.59	792.86
1001.885	779.75
1002.18	791.73
1002.475	796.7
1002.77	800.09
1003.065	796.93
1003.359	782.69
1003.654	787.44
1003.949	774.33
1004.243	746.08
1004.538	767.55
1004.832	764.84
1005.127	755.57
1005.421	743.82
1005.715	743.6
1006.009	740.66
1006.304	739.53
1006.598	731.85
1006.892	737.27
1007.186	765.97
1007.48	733.88
1007.773	705.86
1008.067	718.06
1008.361	715.12
1008.655	739.08
1008.948	734.56
1009.242	732.52
1009.535	708.34
1009.829	710.83
1010.122	705.41
1010.415	699.98
1010.708	695.46
1011.001	698.63
1011.295	707.21
1011.588	723.03
1011.881	674.45
1012.173	668.34
1012.466	664.28
1012.759	694.78
1013.052	709.92
1013.344	694.78
1013.637	665.41
1013.93	687.1
1014.222	679.42
1014.514	670.6
1014.807	659.98
1015.099	674.9
1015.391	664.95
1015.683	673.54
1015.976	657.04
1016.268	652.3
1016.56	640.32
1016.851	650.04
1017.143	646.65
1017.435	645.75
1017.727	661.11
1018.018	656.14
1018.31	626.99
1018.602	629.47
1018.893	626.31
1019.185	643.03
1019.476	612.3
1019.767	612.53
1020.058	624.96
1020.35	606.2
1020.641	638.06
1020.932	620.66
1021.223	586.99
1021.514	598.29
1021.804	617.05
1022.095	611.85
1022.386	608.01
1022.677	582.47
1022.967	613.43
1023.258	592.64
1023.548	581.79
1023.839	586.99
1024.129	589.93
1024.419	568.91
1024.709	580.89
1025	582.02
1025.29	585.63
1025.58	576.37
1025.87	568.01
1026.16	575.92
1026.449	557.16
1026.739	574.56
1027.029	577.27
1027.319	565.52
1027.608	575.47
1027.898	530.49
1028.187	575.69
1028.477	562.58
1028.766	570.49
1029.055	562.81
1029.344	520.33
1029.634	520.1
1029.923	524.39
1030.212	542.02
1030.501	554.9
1030.79	528.46
1031.078	545.64
1031.367	524.84
1031.656	520.1
1031.945	531.85
1032.233	516.03
1032.522	537.05
1032.81	520.33
1033.099	523.94
1033.387	515.58
1033.675	521.23
1033.963	525.07
1034.251	528.01
1034.54	530.27
1034.828	515.81
1035.116	535.24
1035.403	508.57
1035.691	504.05
1035.979	504.05
1036.267	508.35
1036.554	500.21
1036.842	499.31
1037.129	511.51
1037.417	496.6
1037.704	508.12
1037.992	505.86
1038.279	490.5
1038.566	513.55
1038.853	513.55
1039.14	513.55
