Data from black_metal_pc_casing_FLMS001491_00052.txt Node
Date: Wed Feb 08 14:33:03 GMT 2017
User: dcchb
Spectrometer: FLMS00149
Trigger mode: 0
Integration Time (sec): 2.000000E-2
Scans to average: 10
Electric dark correction enabled: true
Nonlinearity correction enabled: false
Boxcar width: 0
XAxis mode: Wavelengths
Number of Pixels in Spectrum: 2048
>>>>>Begin Spectral Data<<<<<
341.393	-15.66
341.776	-15.66
342.16	-15.66
342.543	-54.98
342.927	-78.03
343.31	-74.42
343.693	-70.58
344.077	-86.62
344.46	-54.31
344.843	-50.92
345.226	-41.43
345.61	-40.97
345.993	-10.01
346.376	9.42
346.759	24.56
347.142	38.35
347.525	32.02
347.908	49.42
348.291	80.83
348.674	78.8
349.057	115.86
349.44	117.44
349.823	123.99
350.206	153.37
350.588	182.75
350.971	186.82
351.354	214.39
351.737	234.95
352.119	223.2
352.502	255.97
352.884	265.69
353.267	283.31
353.65	288.06
354.032	281.5
354.414	310.88
354.797	298.68
355.179	322.86
355.562	306.14
355.944	316.08
356.326	320.6
356.709	304.78
357.091	328.51
357.473	324.21
357.855	345.01
358.238	326.47
358.62	323.31
359.002	318.57
359.384	321.05
359.766	346.36
360.148	324.89
360.53	342.52
360.912	309.3
361.294	322.41
361.676	332.35
362.057	322.86
362.439	312.92
362.821	312.46
363.203	314.05
363.584	314.95
363.966	330.32
364.348	309.98
364.729	333.71
365.111	327.38
365.493	320.37
365.874	298.45
366.256	303.88
366.637	292.8
367.019	293.48
367.4	308.17
367.781	317.44
368.163	321.95
368.544	299.81
368.925	289.19
369.306	323.31
369.688	291.45
370.069	305.46
370.45	316.08
370.831	303.88
371.212	323.76
371.593	301.84
371.974	323.08
372.355	299.58
372.736	323.76
373.117	301.84
373.498	300.94
373.879	310.2
374.26	321.5
374.641	305.68
375.021	295.29
375.402	311.11
375.783	323.99
376.163	320.82
376.544	327.83
376.925	307.72
377.305	334.38
377.686	321.05
378.066	317.66
378.447	331.9
378.827	326.93
379.208	333.03
379.588	339.81
379.968	325.8
380.349	340.71
380.729	332.12
381.109	357.89
381.489	341.84
381.87	340.94
382.25	374.83
382.63	346.13
383.01	334.38
383.39	341.39
383.77	343.65
384.15	342.52
384.53	356.98
384.91	336.87
385.29	335.51
385.67	337.77
386.049	335.97
386.429	359.47
386.809	339.36
387.189	363.08
387.568	340.49
387.948	356.53
388.328	367.38
388.707	361.73
389.087	373.03
389.466	381.16
389.846	381.84
390.225	401.73
390.605	380.94
390.984	387.26
391.363	384.55
391.743	381.16
392.122	403.53
392.501	384.33
392.881	401.27
393.26	406.92
393.639	396.3
394.018	371.9
394.397	412.35
394.776	402.86
395.155	402.63
395.534	420.48
395.913	402.4
396.292	410.09
396.671	409.41
397.05	410.99
397.429	437.43
397.808	413.93
398.186	410.77
398.565	399.47
398.944	409.86
399.323	429.97
399.701	416.87
400.08	417.55
400.458	415.51
400.837	442.86
401.215	455.96
401.594	427.49
401.972	419.81
402.351	467.04
402.729	468.84
403.107	465.91
403.486	452.57
403.864	457.54
404.242	466.58
404.62	472.23
404.999	468.17
405.377	459.35
405.755	479.92
406.133	478.33
406.511	469.97
406.889	493.25
407.267	476.98
407.645	481.72
408.023	491.67
408.401	514.94
408.779	495.96
409.156	510.65
409.534	481.5
409.912	511.55
410.29	512.68
410.667	513.81
411.045	526.47
411.422	516.75
411.8	532.57
412.178	531.21
412.555	549.07
412.933	540.93
413.31	532.8
413.687	554.27
414.065	582.29
414.442	556.3
414.819	553.59
415.197	561.27
415.574	576.86
415.951	585.45
416.328	563.53
416.705	575.96
417.082	587.03
417.46	592.23
417.837	615.73
418.214	599.24
418.591	597.43
418.967	612.79
419.344	614.38
419.721	598.56
420.098	613.7
420.475	625
420.852	608.73
421.228	614.15
421.605	633.13
421.982	604.21
422.358	631.33
422.735	658.22
423.111	621.38
423.488	650.31
423.864	654.83
424.241	653.47
424.617	656.86
424.994	663.64
425.37	681.95
425.746	649.86
426.123	683.53
426.499	696.18
426.875	706.8
427.251	699.12
427.627	675.62
428.003	714.94
428.379	713.36
428.756	719.46
429.132	721.72
429.507	763.53
429.883	748.61
430.259	758.1
430.635	762.62
431.011	784.54
431.387	771.21
431.763	800.59
432.138	784.09
432.514	779.34
432.89	807.14
433.265	809.85
433.641	810.08
434.016	844.65
434.392	841.26
434.767	821.6
435.143	843.97
435.518	861.83
435.894	861.38
436.269	888.72
436.644	866.8
437.02	871.09
437.395	887.36
437.77	898.66
438.145	904.31
438.52	902.96
438.895	909.06
439.271	912.45
439.646	935.27
440.021	927.14
440.395	953.8
440.77	928.04
441.145	953.58
441.52	957.42
441.895	943.41
442.27	968.72
442.645	969.85
443.019	969.4
443.394	1006.91
443.769	995.16
444.143	982.73
444.518	1030.64
444.892	1008.49
445.267	1009.62
445.641	1016.63
446.016	1016.4
446.39	1040.35
446.764	1034.48
447.139	1039.22
447.513	1038.77
447.887	1055.27
448.262	1071.31
448.636	1064.31
449.01	1075.38
449.384	1085.1
449.758	1087.58
450.132	1083.97
450.506	1094.59
450.88	1114.93
451.254	1122.16
451.628	1119
452.002	1126.45
452.376	1137.53
452.75	1134.81
453.123	1125.32
453.497	1179.11
453.871	1177.07
454.244	1202.16
454.618	1177.53
454.992	1196.73
455.365	1230.18
455.739	1250.97
456.112	1248.94
456.486	1267.92
456.859	1276.73
457.232	1276.73
457.606	1306.56
457.979	1345.88
458.352	1326.67
458.725	1359.67
459.099	1370.74
459.472	1376.62
459.845	1400.34
460.218	1382.49
460.591	1410.74
460.964	1401.7
461.337	1412.77
461.71	1465.88
462.083	1491.87
462.456	1475.82
462.829	1495.94
463.201	1533.45
463.574	1499.32
463.947	1518.53
464.32	1584.97
464.692	1572.77
465.065	1581.13
465.438	1595.82
465.81	1622.94
466.183	1621.81
466.555	1666.33
466.928	1665.42
467.3	1657.96
467.672	1721.47
468.045	1733.9
468.417	1732.09
468.789	1731.41
469.161	1761.92
469.534	1815.7
469.906	1863.61
470.278	1859.77
470.65	1847.11
471.022	1890.95
471.394	1909.26
471.766	1930.05
472.138	1946.32
472.51	1991.06
472.882	2004.4
473.253	2038.29
473.625	2072.87
473.997	2094.11
474.369	2109.03
474.74	2115.81
475.112	2147.44
475.484	2211.62
475.855	2245.97
476.227	2268.8
476.598	2322.81
476.97	2321.45
477.341	2350.83
477.713	2408.68
478.084	2412.97
478.455	2466.76
478.827	2496.13
479.198	2541.33
479.569	2578.39
479.94	2601.89
480.311	2668.33
480.682	2690.25
481.053	2741.55
481.424	2775.9
481.795	2801.89
482.166	2860.87
482.537	2837.37
482.908	2936.12
483.279	2959.17
483.65	3022.9
484.021	3089.34
484.391	3110.81
484.762	3122.33
485.133	3201.88
485.503	3197.13
485.874	3282.33
486.244	3254.08
486.615	3344.02
486.985	3388.77
487.356	3456.79
487.726	3452.27
488.097	3478.48
488.467	3544.92
488.837	3617.01
489.207	3633.96
489.578	3709.44
489.948	3711.7
490.318	3763.67
490.688	3780.85
491.058	3863.1
491.428	3893.61
491.798	3900.84
492.168	4011.35
492.538	4026.04
492.908	4058.81
493.278	4122.08
493.648	4135.64
494.017	4235.52
494.387	4261.06
494.757	4232.81
495.126	4318.46
495.496	4281.85
495.866	4345.58
496.235	4344.22
496.605	4414.95
496.974	4425.12
497.344	4513.93
497.713	4505.35
498.082	4529.98
498.452	4580.37
498.821	4583.09
499.19	4619.24
499.559	4658.79
499.928	4671.44
500.298	4749.41
500.667	4748.51
501.036	4707.6
501.405	4807.71
501.774	4836.86
502.143	4829.86
502.512	4861.72
502.88	4947.37
503.249	4968.39
503.618	4997.99
503.987	4982.4
504.356	5063.53
504.724	5100.81
505.093	5100.13
505.462	5146.01
505.83	5148.04
506.199	5207.7
506.567	5328.83
506.936	5240.24
507.304	5342.61
507.672	5351.2
508.041	5378.77
508.409	5450.41
508.777	5451.99
509.145	5497.86
509.514	5462.16
509.882	5531.99
510.25	5568.6
510.618	5585.77
510.986	5649.95
511.354	5643.17
511.722	5731.3
512.09	5782.38
512.458	5789.16
512.826	5830.28
513.193	5875.03
513.561	5947.34
513.929	5947.8
514.297	5995.03
514.664	6024.18
515.032	6089.49
515.4	6106.44
515.767	6106.89
516.135	6176.94
516.502	6205.87
516.869	6250.84
517.237	6262.36
517.604	6296.49
517.972	6381
518.339	6418.29
518.706	6447.22
519.073	6504.39
519.44	6532.41
519.808	6559.08
520.175	6599.3
520.542	6649.92
520.909	6712.75
521.276	6701.45
521.643	6801.33
522.009	6870.48
522.376	6863.93
522.743	6949.58
523.11	7093.98
523.477	7089.01
523.843	7118.61
524.21	7234.54
524.577	7176.46
524.943	7267.08
525.31	7253.75
525.676	7376.46
526.043	7439.06
526.409	7454.87
526.776	7505.27
527.142	7597.7
527.508	7656.68
527.874	7677.92
528.241	7736.9
528.607	7747.3
528.973	7790.23
529.339	7828.2
529.705	7930.34
530.071	7913.62
530.437	7949.55
530.803	8065.48
531.169	8134.4
531.535	8096.21
531.901	8123.33
532.267	8279.71
532.632	8288.53
532.998	8276.77
533.364	8368.52
533.73	8427.28
534.095	8390.67
534.461	8406.71
534.826	8472.7
535.192	8560.38
535.557	8551.57
535.923	8602.87
536.288	8655.75
536.653	8711.56
537.019	8733.26
537.384	8716.76
537.749	8808.06
538.114	8826.59
538.479	8817.32
538.845	8923.31
539.21	8829.08
539.575	8829.08
539.94	8885.35
540.305	9016.19
540.67	9047.38
541.034	9026.13
541.399	9040.14
541.764	9103.19
542.129	9194.49
542.494	9197.43
542.858	9221.83
543.223	9240.36
543.587	9301.38
543.952	9287.59
544.316	9328.27
544.681	9312.45
545.045	9419.79
545.41	9443.97
545.774	9436.52
546.138	9461.83
546.503	9475.39
546.867	9534.37
547.231	9554.48
547.595	9616.63
547.959	9642.84
548.324	9683.97
548.688	9692.56
549.052	9681.93
549.416	9773.01
549.779	9751.99
550.143	9805.32
550.507	9841.25
550.871	9906.11
551.235	9892.1
551.599	9978.2
551.962	9912.89
552.326	10023.17
552.689	10137.97
553.053	10047.12
553.417	10137.74
553.78	10228.81
554.143	10216.84
554.507	10285.76
554.87	10322.82
555.234	10350.17
555.597	10354.46
555.96	10416.6
556.323	10453.89
556.686	10476.72
557.05	10539.77
557.413	10509.26
557.776	10596.71
558.139	10597.84
558.502	10739.76
558.865	10717.16
559.228	10757.39
559.59	10826.99
559.953	10881.23
560.316	11056.14
560.679	11011.17
561.041	11047.55
561.404	11140.43
561.767	11130.26
562.129	11066.31
562.492	11270.59
562.854	11219.3
563.217	11226.98
563.579	11292.06
563.941	11500.19
564.304	11497.48
564.666	11553.52
565.028	11599.17
565.39	11626.74
565.753	11661.54
566.115	11712.16
566.477	11758.04
566.839	11788.55
567.201	11912.61
567.563	11925.72
567.925	12006.62
568.287	11911.25
568.648	11979.28
569.01	12118.25
569.372	12142.89
569.734	12103.57
570.095	12196.67
570.457	12295.88
570.819	12337.01
571.18	12262.66
571.542	12349.89
571.903	12451.58
572.265	12370.68
572.626	12459.71
572.987	12465.36
573.349	12539.03
573.71	12609.99
574.071	12555.31
574.432	12693.83
574.794	12788.97
575.155	12713.27
575.516	12681.4
575.877	12799.14
576.238	12749.65
576.599	12784.68
576.96	12766.37
577.32	12911.68
577.681	12894.28
578.042	12919.82
578.403	12986.25
578.763	12994.84
579.124	12995.07
579.485	13042.75
579.845	12996.65
580.206	13050.21
580.566	13006.82
580.927	13020.15
581.287	13093.82
581.648	13043.2
582.008	13098.57
582.368	13053.15
582.728	13157.32
583.089	13115.52
583.449	13104.67
583.809	13115.06
584.169	13132.24
584.529	13044.11
584.889	13254.27
585.249	13115.52
585.609	13239.36
585.969	13180.15
586.329	13165.91
586.688	13219.92
587.048	13185.57
587.408	13155.97
587.768	13151.9
588.127	13168.62
588.487	13151.67
588.846	13287.49
589.206	13140.83
589.565	13243.87
589.925	13181.5
590.284	13280.71
590.643	13257.43
591.003	13299.47
591.362	13291.56
591.721	13318
592.08	13204.33
592.44	13262.63
592.799	13294.27
593.158	13228.73
593.517	13350.31
593.876	13297.88
594.235	13251.56
594.593	13273.93
594.952	13302.86
595.311	13293.37
595.67	13289.98
596.029	13358.22
596.387	13399.35
596.746	13471.89
597.104	13341.5
597.463	13245.91
597.822	13341.05
598.18	13360.48
598.538	13324.1
598.897	13450.65
599.255	13399.13
599.613	13562.74
599.972	13419.24
600.33	13485
600.688	13528.61
601.046	13552.34
601.404	13491.78
601.762	13519.35
602.12	13643.86
602.478	13575.39
602.836	13579.01
603.194	13487.94
603.552	13453.13
603.91	13585.11
604.268	13583.3
604.625	13548.5
604.983	13654.94
605.341	13610.42
605.698	13576.07
606.056	13621.04
606.413	13653.13
606.771	13600.48
607.128	13619.91
607.485	13658.1
607.843	13664.2
608.2	13725.9
608.557	13806.57
608.914	13785.78
609.272	13724.54
609.629	13831.43
609.986	13843.18
610.343	13748.49
610.7	13878.21
611.057	13894.03
611.414	13840.02
611.771	13950.75
612.127	13921.6
612.484	13941.48
612.841	13890.19
613.198	13923.41
613.554	13946.91
613.911	14058.09
614.267	14051.54
614.624	14007.02
614.98	14027.13
615.337	14049.05
615.693	14056.73
616.05	14175.83
616.406	14076.4
616.762	14015.15
617.118	14048.6
617.475	13969.96
617.831	14112.33
618.187	14147.13
618.543	14117.52
618.899	14203.85
619.255	14156.85
619.611	14161.82
619.967	14189.16
620.323	14201.59
620.678	14183.29
621.034	14152.55
621.39	14148.48
621.746	14110.29
622.101	14315.49
622.457	14218.99
622.812	14201.14
623.168	14240.91
623.523	14228.03
623.879	14261.02
624.234	14197.97
624.589	14269.16
624.945	14219.67
625.3	14301.02
625.655	14241.14
626.01	14266.9
626.365	14248.14
626.72	14179.44
627.075	14221.93
627.43	14186.9
627.785	14177.18
628.14	14136.73
628.495	14150.07
628.85	14192.78
629.205	14202.49
629.559	14275.71
629.914	14149.61
630.269	14162.95
630.623	14132.21
630.978	14143.96
631.332	14153.46
631.687	14193.91
632.041	14118.2
632.396	14080.24
632.75	14082.72
633.104	14121.37
633.459	14064.87
633.813	14066.9
634.167	14070.75
634.521	14059.67
634.875	14096.28
635.229	14071.42
635.583	13987.13
635.937	14022.16
636.291	13957.53
636.645	13937.19
636.999	13875.27
637.352	13868.27
637.706	13840.92
638.06	13860.81
638.413	13838.66
638.767	13825.55
639.121	13909.85
639.474	13779
639.828	13717.31
640.181	13822.62
640.534	13806.8
640.888	13745.33
641.241	13745.33
641.594	13669.4
641.947	13788.72
642.301	13764.99
642.654	13692.45
643.007	13705.78
643.36	13682.28
643.713	13684.77
644.066	13693.35
644.419	13588.27
644.771	13447.94
645.124	13304.44
645.477	13299.69
645.83	13283.87
646.182	13201.84
646.535	13148.74
646.888	13218.11
647.24	13067.38
647.593	13168.85
647.945	13127.04
648.298	13016.08
648.65	13045.69
649.002	13049.76
649.355	13107.16
649.707	13045.24
650.059	13129.53
650.411	13238.68
650.763	13306.25
651.115	13448.84
651.467	13327.71
651.819	13350.54
652.171	13304.66
652.523	13285.23
652.875	13303.08
653.227	13257.89
653.578	13322.29
653.93	13240.03
654.282	13188.06
654.633	13210.88
654.985	13254.72
655.337	13284.55
655.688	13251.11
656.039	13282.74
656.391	13125.46
656.742	13162.75
657.094	13154.84
657.445	13213.37
657.796	13093.82
658.147	13195.74
658.498	13110.55
658.849	13103.77
659.2	13122.07
659.551	13048.4
659.902	13132.01
660.253	13021.73
660.604	13077.33
660.955	13091.11
661.306	13069.19
661.656	13084.33
662.007	12998.46
662.358	13072.58
662.708	13021.96
663.059	13091.56
663.409	12935.41
663.76	13051.56
664.11	12983.77
664.461	13059.02
664.811	13024.9
665.161	12983.09
665.511	12996.2
665.862	12981.73
666.212	13027.84
666.562	13032.13
666.912	12966.59
667.262	12961.4
667.612	12934.73
667.962	12943.09
668.312	12956.65
668.662	13000.72
669.011	12933.6
669.361	12929.76
669.711	12816.09
670.06	12892.7
670.41	12836.43
670.76	12888.4
671.109	12876.88
671.459	12899.48
671.808	12856.54
672.157	12863.77
672.507	12788.52
672.856	12788.29
673.205	12776.77
673.554	12777.45
673.904	12806.15
674.253	12878.23
674.602	12733.61
674.951	12595.08
675.3	12584.46
675.649	12694.06
675.998	12808.63
676.346	12786.71
676.695	12856.77
677.044	12675.75
677.393	12660.39
677.741	12696.09
678.09	12735.41
678.438	12645.7
678.787	12672.82
679.135	12629.65
679.484	12645.92
679.832	12589.65
680.181	12551.46
680.529	12607.73
680.877	12578.58
681.225	12512.14
681.573	12569.09
681.922	12506.72
682.27	12441.86
682.618	12456.33
682.966	12471.24
683.314	12430.79
683.661	12440.73
684.009	12358.93
684.357	12272.38
684.705	12353.28
685.053	12395.99
685.4	12374.75
685.748	12285.93
686.095	12344.46
686.443	12225.14
686.79	12204.58
687.138	12245.94
687.485	12229.89
687.832	12051.82
688.18	12194.41
688.527	12105.37
688.874	12100.18
689.221	12113.51
689.568	12069.44
689.915	12094.53
690.262	11952.61
690.609	11887.98
690.956	11930.92
691.303	11945.83
691.65	11856.34
691.997	11795.33
692.344	11741.09
692.69	11752.61
693.037	11742.9
693.383	11683.01
693.73	11719.17
694.077	11622.45
694.423	11641.88
694.769	11574.54
695.116	11563.47
695.462	11555.11
695.808	11559.17
696.155	11579.74
696.501	11424.49
696.847	11461.55
697.193	11374.09
697.539	11403.92
697.885	11306.98
698.231	11263.36
698.577	11316.47
698.923	11290.25
699.269	11193.08
699.614	11108.11
699.96	11070.15
700.306	11161.67
700.651	11171.84
700.997	11130.94
701.342	11057.49
701.688	10973.65
702.033	11010.94
702.379	10964.39
702.724	10932.52
703.069	10916.93
703.415	10853.2
703.76	10825.63
704.105	10842.36
704.45	10728.01
704.795	10772.3
705.14	10721.91
705.485	10624.06
705.83	10677.84
706.175	10707.9
706.52	10685.98
706.865	10592.65
707.209	10578.86
707.554	10582.02
707.899	10586.77
708.243	10518.75
708.588	10493.21
708.932	10501.35
709.277	10440.33
709.621	10502.25
709.966	10376.83
710.31	10418.86
710.654	10339.77
710.998	10374.12
711.342	10311.07
711.687	10306.33
712.031	10290.96
712.375	10226.78
712.719	10255.48
713.063	10241.24
713.407	10218.64
713.75	10171.64
714.094	10158.53
714.438	10106.78
714.782	10198.08
715.125	10123.28
715.469	10111.98
715.812	10161.24
716.156	10083.73
716.499	10088.93
716.843	10062.49
717.186	9943.85
717.53	9987.01
717.873	9953.11
718.216	9977.07
718.559	9938.88
718.902	9806.23
719.246	9868.82
719.589	9839.44
719.932	9838.31
720.275	9754.7
720.617	9794.25
720.96	9786.11
721.303	9770.52
721.646	9789.28
721.989	9717.19
722.331	9759.67
722.674	9686.23
723.016	9702.73
723.359	9638.55
723.701	9730.75
724.044	9635.61
724.386	9556.74
724.729	9643.97
725.071	9567.59
725.413	9631.99
725.755	9630.86
726.097	9568.94
726.439	9556.51
726.782	9505.22
727.124	9543.41
727.465	9502.73
727.807	9476.29
728.149	9483.75
728.491	9470.87
728.833	9497.31
729.175	9452.11
729.516	9486.23
729.858	9379.34
730.199	9415.5
730.541	9381.6
730.882	9396.07
731.224	9361.04
731.565	9299.12
731.906	9349.97
732.248	9310.65
732.589	9310.42
732.93	9280.59
733.271	9221.16
733.612	9277.2
733.953	9247.37
734.294	9148.39
734.635	9195.17
734.976	9188.16
735.317	9190.87
735.658	9128.95
735.999	9129.63
736.339	9117.43
736.68	9080.14
737.021	9081.95
737.361	9062.52
737.702	9108.16
738.042	8997.21
738.383	8976.64
738.723	9030.65
739.063	8982.29
739.404	9013.7
739.744	9011.22
740.084	8945.46
740.424	8995.85
740.764	8992.46
741.104	8961.5
741.444	8953.37
741.784	8906.59
742.124	8928.51
742.464	8918.34
742.804	8870.43
743.143	8869.3
743.483	8837.66
743.823	8790.66
744.162	8824.33
744.502	8732.36
744.841	8755.86
745.181	8744.78
745.52	8783.43
745.86	8806.7
746.199	8741.85
746.538	8709.98
746.877	8749.76
747.216	8699.14
747.556	8690.77
747.895	8724.22
748.234	8677.67
748.573	8583.66
748.911	8645.8
749.25	8600.16
749.589	8601.51
749.928	8641.96
750.267	8587.05
750.605	8531
750.944	8545.69
751.283	8493.72
751.621	8518.58
751.96	8513.38
752.298	8496.2
752.636	8488.07
752.975	8427.5
753.313	8403.32
753.651	8422.76
753.989	8473.38
754.327	8365.59
754.666	8330.56
755.004	8372.59
755.342	8315.19
755.679	8345.92
756.017	8240.84
756.355	8259.6
756.693	8250.56
757.031	8283.55
757.368	8150.68
757.706	8163.56
758.044	8178.92
758.381	8138.7
758.719	8117.23
759.056	8101.41
759.394	8138.47
759.731	8110
760.068	8013.73
760.405	7993.62
760.743	7934.64
761.08	7944.58
761.417	7902.09
761.754	7868.65
762.091	7940.29
762.428	7877.46
762.765	7881.3
763.102	7875.2
763.438	7860.06
763.775	7717.92
764.112	7813.28
764.449	7780.06
764.785	7712.95
765.122	7655.32
765.458	7675.66
765.795	7724.92
766.131	7649.9
766.467	7562.67
766.804	7567.19
767.14	7541.2
767.476	7507.3
767.812	7428.43
768.148	7533.06
768.485	7491.94
768.821	7448.32
769.157	7425.95
769.492	7431.15
769.828	7409.45
770.164	7294.43
770.5	7378.94
770.836	7332.62
771.171	7305.95
771.507	7297.59
771.842	7213.53
772.178	7197.25
772.513	7167.2
772.849	7126.75
773.184	7128.33
773.519	7131.27
773.855	7117.71
774.19	7082
774.525	6980.54
774.86	7099.86
775.195	7004.26
775.53	7007.88
775.865	6969.92
776.2	6951.84
776.535	6938.28
776.87	6844.5
777.205	6829.81
777.539	6838.85
777.874	6820.99
778.209	6780.54
778.543	6736.02
778.878	6752.97
779.212	6689.47
779.547	6636.59
779.881	6628.46
780.215	6624.16
780.55	6679.98
780.884	6604.95
781.218	6540.1
781.552	6551.62
781.886	6565.18
782.22	6474.79
782.554	6498.97
782.888	6413.32
783.222	6364.96
783.556	6371.06
783.889	6367.45
784.223	6265.53
784.557	6310.05
784.89	6335.36
785.224	6265.75
785.557	6266.21
785.891	6312.08
786.224	6227.56
786.558	6247.9
786.891	6148.69
787.224	6143.04
787.557	6091.97
787.891	6139.2
788.224	6115.7
788.557	6086.32
788.89	6082.71
789.223	6082.71
789.556	6016.04
789.888	6011.52
790.221	5976.95
790.554	5982.82
790.887	5908.7
791.219	5922.94
791.552	5873
791.884	5858.08
792.217	5807.46
792.549	5844.3
792.882	5812.88
793.214	5772.43
793.546	5791.42
793.879	5744.41
794.211	5740.8
794.543	5775.37
794.875	5722.49
795.207	5717.07
795.539	5705.09
795.871	5716.39
796.203	5672.77
796.535	5590.97
796.867	5611.53
797.198	5606.11
797.53	5574.25
797.862	5570.86
798.193	5599.33
798.525	5550.07
798.856	5519.56
799.188	5493.34
799.519	5461.48
799.85	5448.37
800.182	5451.31
800.513	5411.31
800.844	5431.42
801.175	5360.24
801.506	5434.14
801.837	5398.21
802.168	5349.85
802.499	5357.08
802.83	5309.62
803.161	5307.81
803.491	5319.79
803.822	5284.31
804.153	5246.12
804.483	5235.05
804.814	5237.98
805.145	5228.04
805.475	5219.45
805.805	5190.3
806.136	5193.01
806.466	5172.22
806.796	5141.26
807.126	5110.3
807.457	5143.07
807.787	5066.24
808.117	5095.39
808.447	5050.19
808.777	5080.93
809.107	5042.06
809.436	5016.07
809.766	5025.33
810.096	5056.75
810.426	5013.81
810.755	4971.55
811.085	4963.64
811.414	4977.88
811.744	4906.92
812.073	4954.38
812.403	4922.06
812.732	4870.31
813.061	4942.62
813.39	4870.76
813.719	4843.19
814.049	4906.92
814.378	4885.45
814.707	4838.22
815.036	4818.11
815.365	4831.67
815.693	4788.96
816.022	4816.07
816.351	4774.27
816.68	4741.5
817.008	4785.57
817.337	4705.34
817.665	4747.6
817.994	4709.64
818.322	4702.4
818.651	4725.68
818.979	4675.74
819.307	4705.79
819.636	4657.43
819.964	4645
820.292	4683.42
820.62	4674.16
820.948	4630.99
821.276	4680.71
821.604	4637.1
821.932	4646.81
822.259	4605.01
822.587	4600.26
822.915	4622.86
823.243	4663.31
823.57	4605.68
823.898	4659.92
824.225	4623.08
824.553	4586.93
824.88	4632.12
825.207	4630.99
825.535	4623.08
825.862	4641.16
826.189	4649.07
826.516	4644.78
826.843	4626.93
827.17	4598
827.497	4685
827.824	4624.21
828.151	4644.1
828.478	4581.73
828.805	4662.18
829.131	4593.93
829.458	4616.31
829.785	4576.08
830.111	4599.81
830.438	4597.55
830.764	4634.61
831.09	4599.36
831.417	4559.13
831.743	4617.21
832.069	4605.91
832.395	4587.38
832.722	4606.14
833.048	4592.13
833.374	4602.07
833.7	4561.39
834.026	4601.84
834.351	4589.87
834.677	4565.46
835.003	4629.19
835.329	4569.98
835.654	4555.74
835.98	4565.91
836.306	4547.38
836.631	4531.79
836.956	4531.79
837.282	4569.53
837.607	4497.44
837.932	4558
838.258	4512.58
838.583	4475.07
838.908	4502.41
839.233	4480.26
839.558	4470.32
839.883	4475.29
840.208	4500.15
840.533	4429.19
840.858	4477.33
841.182	4473.94
841.507	4478.68
841.832	4452.02
842.156	4404.79
842.481	4428.97
842.805	4390.32
843.13	4401.4
843.454	4375.18
843.778	4392.81
844.103	4375.86
844.427	4356.2
844.751	4329.08
845.075	4323.66
845.399	4320.49
845.723	4304.45
846.047	4306.48
846.371	4285.92
846.695	4243.89
847.019	4232.36
847.343	4249.99
847.666	4156.43
847.99	4166.6
848.313	4199.82
848.637	4201.85
848.96	4180.38
849.284	4187.16
849.607	4093.61
849.931	4123.21
850.254	4103.32
850.577	4108.52
850.9	4038.69
851.223	4088.86
851.546	4039.82
851.869	3993.27
852.192	4045.92
852.515	3980.62
852.838	3953.27
853.161	3962.09
853.483	3948.3
853.806	3931.35
854.129	3938.13
854.451	3908.53
854.774	3902.65
855.096	3889.09
855.419	3892.48
855.741	3912.14
856.063	3887.28
856.385	3850.45
856.708	3821.75
857.03	3842.54
857.352	3835.76
857.674	3796.67
857.996	3792.6
858.318	3745.14
858.64	3781.75
858.961	3742.2
859.283	3762.32
859.605	3715.31
859.926	3753.95
860.248	3725.03
860.57	3712.37
860.891	3705.14
861.212	3726.16
861.534	3688.19
861.855	3687.06
862.176	3671.7
862.498	3688.87
862.819	3673.28
863.14	3641.19
863.461	3671.92
863.782	3655.2
864.103	3658.36
864.424	3637.8
864.745	3649.1
865.065	3670.79
865.386	3595.77
865.707	3585.15
866.027	3629.21
866.348	3591.02
866.668	3619.5
866.989	3627.63
867.309	3593.06
867.63	3577.69
867.95	3612.72
868.27	3579.95
868.59	3570.01
868.91	3575.2
869.23	3548.31
869.55	3512.15
869.87	3548.76
870.19	3564.13
870.51	3599.83
870.83	3520.51
871.15	3539.5
871.469	3532.49
871.789	3527.97
872.109	3523.45
872.428	3519.61
872.748	3496.79
873.067	3472.15
873.386	3476
873.706	3487.97
874.025	3450.23
874.344	3467.86
874.663	3432.61
874.982	3473.51
875.301	3434.64
875.62	3428.77
875.939	3390.35
876.258	3423.79
876.577	3450.01
876.896	3426.28
877.214	3422.44
877.533	3395.32
877.852	3390.57
878.17	3402.78
878.489	3437.35
878.807	3385.6
879.125	3359.39
879.444	3431.7
879.762	3380.86
880.08	3382.89
880.398	3348.54
880.716	3372.04
881.034	3370.24
881.352	3348.32
881.67	3358.94
881.988	3375.66
882.306	3397.35
882.624	3312.84
882.941	3327.53
883.259	3294.53
883.577	3289.11
883.894	3294.76
884.212	3294.98
884.529	3279.17
884.846	3269.67
885.164	3296.11
885.481	3243.01
885.798	3235.78
886.115	3255.66
886.432	3228.32
886.75	3216.57
887.067	3246.17
887.383	3194.2
887.7	3206.17
888.017	3175.67
888.334	3210.69
888.651	3212.27
888.967	3214.53
889.284	3196.68
889.6	3133.63
889.917	3127.08
890.233	3134.31
890.55	3157.81
890.866	3160.98
891.182	3139.06
891.498	3091.6
891.815	3103.12
892.131	3065.16
892.447	3126.4
892.763	3064.93
893.079	3065.61
893.395	3089.57
893.71	3041.66
894.026	3036.91
894.342	3022.67
894.657	3018.38
894.973	3068.1
895.289	3039.85
895.604	3058.38
895.92	3012.05
896.235	2972.28
896.55	3022
896.865	2957.59
897.181	2967.31
897.496	2952.62
897.811	2964.15
898.126	2932.73
898.441	2894.77
898.756	2926.18
899.071	2860.42
899.386	2890.02
899.7	2872.17
900.015	2892.28
900.33	2836.46
900.644	2821.1
900.959	2867.65
901.273	2870.14
901.588	2845.05
901.902	2819.52
902.216	2798.27
902.531	2773.19
902.845	2777.48
903.159	2784.94
903.473	2766.41
903.787	2790.36
904.101	2741.33
904.415	2732.06
904.729	2763.25
905.042	2705.39
905.356	2705.62
905.67	2706.52
905.984	2702.46
906.297	2716.69
906.611	2699.52
906.924	2657.94
907.237	2691.38
907.551	2629.24
907.864	2649.35
908.177	2659.75
908.491	2633.76
908.804	2623.59
909.117	2622.46
909.43	2647.77
909.743	2598.05
910.056	2578.84
910.368	2566.42
910.681	2598.28
910.994	2567.55
911.307	2564.61
911.619	2530.71
911.932	2554.44
912.244	2510.15
912.557	2524.16
912.869	2522.35
913.181	2490.26
913.494	2480.32
913.806	2466.76
914.118	2479.64
914.43	2441.9
914.742	2466.53
915.054	2448.9
915.366	2444.84
915.678	2446.19
915.99	2444.61
916.302	2390.6
916.613	2382.69
916.925	2388.12
917.236	2394.22
917.548	2399.41
917.859	2348.12
918.171	2370.71
918.482	2391.73
918.794	2347.21
919.105	2362.35
919.416	2306.76
919.727	2324.16
920.038	2304.73
920.349	2315.57
920.66	2320.09
920.971	2309.47
921.282	2281.23
921.593	2285.52
921.903	2250.94
922.214	2241.68
922.525	2222.47
922.835	2224.96
923.146	2231.51
923.456	2200.1
923.767	2189.02
924.077	2207.55
924.387	2190.38
924.697	2186.99
925.008	2145.64
925.318	2151.51
925.628	2162.36
925.938	2140.89
926.248	2149.7
926.558	2120.33
926.867	2112.87
927.177	2134.11
927.487	2125.3
927.796	2096.15
928.106	2104.51
928.416	2118.74
928.725	2097.95
929.034	2073.55
929.344	2075.81
929.653	2079.87
929.962	2048.24
930.271	2055.02
930.581	2047.33
930.89	2027.22
931.199	2006.66
931.508	2012.53
931.817	2012.31
932.125	1987
932.434	1995.81
932.743	1993.1
933.051	1979.76
933.36	1953.1
933.669	1945.87
933.977	1970.05
934.286	1930.5
934.594	1923.27
934.902	1936.6
935.21	1914.91
935.519	1933.21
935.827	1894.57
936.135	1888.02
936.443	1892.99
936.751	1895.25
937.059	1895.25
937.367	1833.33
937.674	1887.79
937.982	1846.43
938.29	1856.83
938.597	1850.5
938.905	1811.86
939.213	1836.94
939.52	1863.38
939.827	1830.16
940.135	1823.16
940.442	1810.05
940.749	1791.52
941.056	1788.58
941.363	1745.65
941.67	1765.08
941.977	1763.95
942.284	1761.92
942.591	1778.19
942.898	1746.78
943.205	1751.97
943.511	1750.39
943.818	1713.1
944.125	1760.11
944.431	1702.03
944.738	1696.38
945.044	1744.74
945.35	1714.23
945.657	1716.04
945.963	1666.55
946.269	1684.86
946.575	1674.01
946.881	1645.08
947.187	1673.33
947.493	1674.46
947.799	1641.02
948.105	1656.83
948.41	1615.71
948.716	1640.11
949.022	1601.02
949.327	1611.86
949.633	1622.71
949.938	1638.53
950.244	1605.31
950.549	1606.21
950.854	1596.05
951.16	1597.85
951.465	1564.41
951.77	1592.88
952.075	1575.71
952.38	1576.39
952.685	1544.52
952.99	1530.96
953.294	1552.2
953.599	1547.01
953.904	1535.26
954.209	1530.51
954.513	1514.69
954.818	1536.61
955.122	1540.91
955.426	1524.64
955.731	1485.54
956.035	1524.86
956.339	1468.37
956.643	1486.22
956.948	1478.31
957.252	1495.03
957.556	1489.38
957.86	1471.98
958.163	1452.55
958.467	1446.45
958.771	1443.73
959.075	1431.3
959.378	1428.82
959.682	1437.86
959.985	1422.26
960.289	1423.62
960.592	1418.65
960.896	1429.72
961.199	1433.11
961.502	1403.06
961.805	1375.94
962.108	1373.23
962.411	1370.97
962.714	1349.95
963.017	1383.4
963.32	1372.1
963.623	1357.86
963.926	1392.21
964.228	1344.3
964.531	1333.91
964.833	1356.05
965.136	1338.88
965.438	1344.53
965.741	1320.35
966.043	1336.62
966.345	1316.28
966.648	1309.95
966.95	1347.69
967.252	1297.52
967.554	1312.89
967.856	1293.68
968.158	1274.47
968.46	1303.62
968.761	1305.21
969.063	1276.96
969.365	1254.59
969.666	1250.07
969.968	1257.75
970.269	1247.35
970.571	1239.67
970.872	1272.66
971.174	1233.12
971.475	1248.48
971.776	1241.25
972.077	1244.64
972.378	1221.82
972.679	1213.68
972.98	1235.15
973.281	1213.68
973.582	1220.69
973.883	1191.76
974.183	1198.54
974.484	1205.77
974.785	1224.08
975.085	1213.46
975.386	1201.71
975.686	1205.77
975.986	1173.23
976.287	1168.49
976.587	1177.3
976.887	1198.77
977.187	1177.53
977.487	1165.77
977.787	1137.07
978.087	1151.99
978.387	1150.18
978.687	1188.6
978.987	1133.23
979.286	1126.91
979.586	1140.01
979.885	1143.18
980.185	1129.84
980.484	1108.83
980.784	1109.5
981.083	1104.76
981.382	1117.64
981.682	1104.76
981.981	1112.89
982.28	1119
982.579	1106.57
982.878	1116.28
983.177	1051.88
983.475	1097.3
983.774	1079.9
984.073	1113.12
984.372	1070.64
984.67	1075.16
984.969	1057.53
985.267	1057.75
985.566	1054.36
985.864	1050.75
986.162	1058.88
986.461	1038.32
986.759	1038.09
987.057	1060.47
987.355	1052.56
987.653	1005.1
987.951	1008.26
988.249	1023.63
988.547	1028.38
988.844	1013.46
989.142	1037.87
989.44	996.51
989.737	1026.8
990.035	1004.2
990.332	987.02
990.63	1011.43
990.927	984.54
991.224	977.98
991.521	986.8
991.819	967.59
992.116	1007.59
992.413	964.65
992.71	982.5
993.006	973.46
993.303	973.24
993.6	983.41
993.897	953.12
994.193	985.44
994.49	954.03
994.787	979.56
995.083	964.88
995.379	963.07
995.676	928.27
995.972	929.17
996.268	924.65
996.565	922.84
996.861	899.11
997.157	929.4
997.453	879
997.749	906.35
998.044	891.66
998.34	906.12
998.636	895.27
998.932	891.88
999.227	879.68
999.523	883.52
999.818	906.35
1000.114	892.34
1000.409	884.65
1000.704	904.09
1001	866.57
1001.295	885.33
1001.59	854.14
1001.885	851.66
1002.18	864.09
1002.475	848.49
1002.77	830.42
1003.065	843.07
1003.359	848.27
1003.654	855.5
1003.949	841.26
1004.243	821.83
1004.538	826.12
1004.832	832.22
1005.127	832
1005.421	826.12
1005.715	836.52
1006.009	822.28
1006.304	818.66
1006.598	821.38
1006.892	832.9
1007.186	775.28
1007.48	819.57
1007.773	782.28
1008.067	803.52
1008.361	774.82
1008.655	785.67
1008.948	775.5
1009.242	777.08
1009.535	778.67
1009.829	794.48
1010.122	764.66
1010.415	740.93
1010.708	769.63
1011.001	751.32
1011.295	754.49
1011.588	758.78
1011.881	763.53
1012.173	778.67
1012.466	738.89
1012.759	725.33
1013.052	737.09
1013.344	731.66
1013.637	739.12
1013.93	728.72
1014.222	735.05
1014.514	706.35
1014.807	718.33
1015.099	733.47
1015.391	750.42
1015.683	726.46
1015.976	716.29
1016.268	713.36
1016.56	684.66
1016.851	701.38
1017.143	697.99
1017.435	686.01
1017.727	690.31
1018.018	677.65
1018.31	680.36
1018.602	669.74
1018.893	669.52
1019.185	700.93
1019.476	678.1
1019.767	639.69
1020.058	661.61
1020.35	655.73
1020.641	653.92
1020.932	663.41
1021.223	673.13
1021.514	633.13
1021.804	651.66
1022.095	632.91
1022.386	662.74
1022.677	641.49
1022.967	620.93
1023.258	648.27
1023.548	625.68
1023.839	610.76
1024.129	620.93
1024.419	617.54
1024.709	615.05
1025	615.05
1025.29	618.44
1025.58	621.38
1025.87	639.01
1026.16	606.24
1026.449	603.08
1026.739	593.81
1027.029	610.08
1027.319	601.72
1027.608	593.36
1027.898	594.04
1028.187	599.91
1028.477	607.6
1028.766	584.32
1029.055	590.2
1029.344	598.78
1029.634	575.51
1029.923	571.44
1030.212	591.1
1030.501	572.57
1030.79	566.47
1031.078	568.05
1031.367	561.04
1031.656	577.77
1031.945	570.08
1032.233	554.72
1032.522	578.22
1032.81	535.96
1033.099	558.78
1033.387	549.97
1033.675	533.02
1033.963	555.17
1034.251	522.4
1034.54	556.98
1034.828	526.92
1035.116	527.37
1035.403	517.88
1035.691	544.1
1035.979	529.18
1036.267	532.8
1036.554	534.83
1036.842	514.27
1037.129	524.89
1037.417	546.58
1037.704	534.6
1037.992	513.14
1038.279	529.18
1038.566	512.68
1038.853	512.68
1039.14	512.68
