Data from black_metal_pc_casing_FLMS001491_00025.txt Node
Date: Wed Feb 08 14:32:15 GMT 2017
User: dcchb
Spectrometer: FLMS00149
Trigger mode: 0
Integration Time (sec): 2.000000E-2
Scans to average: 10
Electric dark correction enabled: true
Nonlinearity correction enabled: false
Boxcar width: 0
XAxis mode: Wavelengths
Number of Pixels in Spectrum: 2048
>>>>>Begin Spectral Data<<<<<
341.393	-12.41
341.776	-12.41
342.16	-12.41
342.543	-44.73
342.927	-60.55
343.31	-64.62
343.693	-79.76
344.077	-78.18
344.46	-65.52
344.843	-55.35
345.226	-38.18
345.61	-26.2
345.993	-22.58
346.376	-13.77
346.759	28.26
347.142	30.75
347.525	45.44
347.908	57.64
348.291	90.63
348.674	81.14
349.057	110.29
349.44	103.74
349.823	131.31
350.206	150.52
350.588	177.86
350.971	188.94
351.354	218.54
351.737	222.83
352.119	242.27
352.502	239.78
352.884	250.63
353.267	253.79
353.65	297.41
354.032	289.05
354.414	292.44
354.797	303.06
355.179	312.32
355.562	308.03
355.944	303.06
356.326	314.81
356.709	317.29
357.091	323.4
357.473	309.16
357.855	326.56
358.238	315.26
358.62	323.4
359.002	338.31
359.384	331.76
359.766	310.97
360.148	341.25
360.53	323.85
360.912	317.52
361.294	290.63
361.676	332.21
362.057	323.17
362.439	310.29
362.821	308.25
363.203	336.28
363.584	335.82
363.966	308.71
364.348	340.57
364.729	323.62
365.111	296.5
365.493	304.41
365.874	280.68
366.256	300.57
366.637	307.58
367.019	317.75
367.4	286.79
367.781	284.3
368.163	307.35
368.544	312.77
368.925	309.16
369.306	308.25
369.688	311.19
370.069	299.22
370.45	315.03
370.831	315.94
371.212	294.47
371.593	303.51
371.974	316.39
372.355	297.18
372.736	297.41
373.117	292.21
373.498	305.32
373.879	319.78
374.26	311.64
374.641	315.71
375.021	305.77
375.402	309.84
375.783	315.49
376.163	326.79
376.544	312.55
376.925	335.82
377.305	322.49
377.686	327.46
378.066	325.43
378.447	332.43
378.827	346.45
379.208	336.28
379.588	307.35
379.968	301.48
380.349	322.49
380.729	343.73
381.109	343.96
381.489	336.73
381.87	340.57
382.25	334.92
382.63	340.12
383.01	344.19
383.39	353.23
383.77	340.57
384.15	329.95
384.53	345.32
384.91	359.55
385.29	346.45
385.67	338.54
386.049	370.85
386.429	345.54
386.809	360.46
387.189	366.78
387.568	349.61
387.948	355.26
388.328	371.08
388.707	368.82
389.087	366.56
389.466	372.21
389.846	357.97
390.225	372.21
390.605	363.17
390.984	376.95
391.363	363.17
391.743	396.84
392.122	402.04
392.501	389.16
392.881	362.49
393.26	399.33
393.639	401.81
394.018	378.99
394.397	377.63
394.776	379.89
395.155	410.85
395.534	407.01
395.913	393.45
396.292	408.59
396.671	424.41
397.05	402.72
397.429	395.71
397.808	404.07
398.186	408.36
398.565	431.64
398.944	395.26
399.323	400.23
399.701	393.9
400.08	409.95
400.458	435.26
400.837	430.74
401.215	416.95
401.594	416.5
401.972	436.39
402.351	411.75
402.729	432.77
403.107	439.32
403.486	433.45
403.864	438.19
404.242	438.19
404.62	458.53
404.999	439.78
405.377	440.68
405.755	427.12
406.133	442.26
406.511	457.4
406.889	466.44
407.267	463.73
407.645	463.96
408.023	447.91
408.401	452.88
408.779	459.66
409.156	497.63
409.534	478.65
409.912	493.56
410.29	502.15
410.667	505.76
411.045	503.73
411.422	494.92
411.8	495.14
412.178	515.03
412.555	492.66
412.933	503.96
413.31	529.27
413.687	514.8
414.065	535.59
414.442	537.85
414.819	530.85
415.197	567
415.574	545.54
415.951	558.64
416.328	553.45
416.705	554.35
417.082	574.91
417.46	565.65
417.837	574.69
418.214	570.62
418.591	578.76
418.967	582.82
419.344	593.44
419.721	594.57
420.098	589.83
420.475	600.9
420.852	605.87
421.228	606.55
421.605	590.73
421.982	599.55
422.358	623.05
422.735	601.81
423.111	607.91
423.488	594.8
423.864	611.75
424.241	643.61
424.617	651.97
424.994	630.51
425.37	648.81
425.746	639.77
426.123	632.99
426.499	646.78
426.875	652.43
427.251	632.09
427.627	687.91
428.003	679.09
428.379	691.97
428.756	717.28
429.132	713.44
429.507	705.31
429.883	711.86
430.259	702.59
430.635	738.53
431.011	717.28
431.387	731.75
431.763	737.17
432.138	749.6
432.514	765.87
432.89	735.81
433.265	778.3
433.641	801.8
434.016	809.26
434.392	795.47
434.767	821.24
435.143	813.78
435.518	793.89
435.894	795.7
436.269	839.54
436.644	870.05
437.02	837.73
437.395	838.64
437.77	815.36
438.145	858.07
438.52	875.7
438.895	849.71
439.271	874.79
439.646	907.11
440.021	890.61
440.395	895.81
440.77	897.17
441.145	902.36
441.52	908.46
441.895	913.89
442.27	949.59
442.645	941.68
443.019	912.76
443.394	945.75
443.769	974.9
444.143	935.58
444.518	979.65
444.892	974.9
445.267	948.92
445.641	986.43
446.016	990.95
446.39	981.46
446.764	982.36
447.139	981.46
447.513	1009.03
447.887	982.59
448.262	1012.87
448.636	1010.61
449.01	1007.22
449.384	1044.28
449.758	1013.09
450.132	1046.54
450.506	1053.55
450.88	1058.07
451.254	1035.47
451.628	1055.35
452.002	1073.88
452.376	1072.53
452.75	1075.01
453.123	1121.57
453.497	1113.21
453.871	1132.87
454.244	1143.49
454.618	1152.75
454.992	1169.02
455.365	1170.83
455.739	1200.21
456.112	1194.56
456.486	1203.6
456.859	1199.53
457.232	1210.38
457.606	1236.59
457.979	1259.19
458.352	1259.87
458.725	1284.95
459.099	1291.28
459.472	1310.71
459.845	1319.08
460.218	1333.99
460.591	1359.3
460.964	1369.92
461.337	1355.46
461.71	1391.39
462.083	1404.05
462.456	1416.02
462.829	1411.05
463.201	1445.63
463.574	1430.94
463.947	1436.59
464.32	1470.26
464.692	1491.5
465.065	1499.18
465.438	1560.88
465.81	1548.67
466.183	1577.6
466.555	1591.38
466.928	1579.86
467.3	1602.91
467.672	1610.37
468.045	1650.59
468.417	1649.24
468.789	1666.86
469.161	1709.35
469.534	1730.14
469.906	1759.74
470.278	1751.38
470.65	1790.02
471.022	1805.62
471.394	1847.88
471.766	1880.87
472.138	1874.77
472.51	1900.53
472.882	1922
473.253	1956.57
473.625	1952.96
473.997	2006.29
474.369	2013.07
474.74	2044.71
475.112	2081.99
475.484	2111.82
475.855	2124.03
476.227	2159.96
476.598	2217.36
476.97	2232.95
477.341	2243.8
477.713	2290.35
478.084	2318.15
478.455	2354.98
478.827	2387.75
479.198	2446.96
479.569	2446.96
479.94	2530.8
480.311	2516.78
480.682	2566.27
481.053	2614.86
481.424	2653.28
481.795	2673.16
482.166	2705.48
482.537	2772.14
482.908	2826.38
483.279	2857.34
483.65	2875.87
484.021	2949.99
484.391	2952.25
484.762	3029.99
485.133	2999.94
485.503	3039.93
485.874	3135.75
486.244	3156.09
486.615	3211
486.985	3211.23
487.356	3290.55
487.726	3329.64
488.097	3403.31
488.467	3363.09
488.837	3471.79
489.207	3532.8
489.578	3545.01
489.948	3598.11
490.318	3635.17
490.688	3621.39
491.058	3696.41
491.428	3732.57
491.798	3794.26
492.168	3844.43
492.538	3845.56
492.908	3935.5
493.278	3940.25
493.648	3949.97
494.017	3974.37
494.387	4028.38
494.757	4081.26
495.126	4093.24
495.496	4119.23
495.866	4137.76
496.235	4187.7
496.605	4249.39
496.974	4239.45
497.344	4310.86
497.713	4326.68
498.082	4364.19
498.452	4389.05
498.821	4416.85
499.19	4464.98
499.559	4538.2
499.928	4554.02
500.298	4509.27
500.667	4593.57
501.036	4550.85
501.405	4663.17
501.774	4613.45
502.143	4691.19
502.512	4713.34
502.88	4772.77
503.249	4759.44
503.618	4837.18
503.987	4852.54
504.356	4861.13
504.724	4857.97
505.093	4901.81
505.462	4911.07
505.83	5031.07
506.199	5033.33
506.567	5068.13
506.936	5071.52
507.304	5119.2
507.672	5137.28
508.041	5185.87
508.409	5207.79
508.777	5288.46
509.145	5259.76
509.514	5292.53
509.882	5329.82
510.25	5377.5
510.618	5443.26
510.986	5405.52
511.354	5479.42
511.722	5524.16
512.09	5601.67
512.458	5550.38
512.826	5634.89
513.193	5686.42
513.561	5670.83
513.929	5716.25
514.297	5799.86
514.664	5821.33
515.032	5832.18
515.4	5881.22
515.767	5918.28
516.135	5944.94
516.502	5881.67
516.869	6071.72
517.237	6034.21
517.604	6101.1
517.972	6127.76
518.339	6162.56
518.706	6155.78
519.073	6182.45
519.44	6289.11
519.808	6289.34
520.175	6331.83
520.542	6391.94
520.909	6479.17
521.276	6500.63
521.643	6543.12
522.009	6607.98
522.376	6636.9
522.743	6683.91
523.11	6754.64
523.477	6845.26
523.843	6868.08
524.21	6943.56
524.577	6941.98
524.943	6967.06
525.31	7051.58
525.676	7079.6
526.043	7142.2
526.409	7182.88
526.776	7281.4
527.142	7272.82
527.508	7289.09
527.874	7367.5
528.241	7428.07
528.607	7389.2
528.973	7505.58
529.339	7500.38
529.705	7579.93
530.071	7614.05
530.437	7660.38
530.803	7724.56
531.169	7787.83
531.535	7796.65
531.901	7806.81
532.267	7893.37
532.632	7856.76
532.998	8036.64
533.364	7916.87
533.73	8069.41
534.095	8118.22
534.461	8144.43
534.826	8121.38
535.192	8172.68
535.557	8237.76
535.923	8170.65
536.288	8337.42
536.653	8413.8
537.019	8289.97
537.384	8375.61
537.749	8449.28
538.114	8414.03
538.479	8458.32
538.845	8538.77
539.21	8510.98
539.575	8523.18
539.94	8635.95
540.305	8618.54
540.67	8599.34
541.034	8656.96
541.399	8727.24
541.764	8695.38
542.129	8774.02
542.494	8792.55
542.858	8794.59
543.223	8841.82
543.587	8864.41
543.952	8901.25
544.316	9005.43
544.681	8926.33
545.045	8970.4
545.41	8999.1
545.774	9016.73
546.138	9080.91
546.503	9141.24
546.867	9126.33
547.231	9226.89
547.595	9158.64
547.959	9202.26
548.324	9227.12
548.688	9260.34
549.052	9274.35
549.416	9359.77
549.779	9344.85
550.143	9396.6
550.507	9429.37
550.871	9477.28
551.235	9436.38
551.599	9562.47
551.962	9598.63
552.326	9493.32
552.689	9632.98
553.053	9619.42
553.417	9689.93
553.78	9731.06
554.143	9791.4
554.507	9830.26
554.87	9802.24
555.234	9918.62
555.597	9902.13
555.96	9942.58
556.323	9930.6
556.686	9991.84
557.05	10069.35
557.413	10048.56
557.776	10117.04
558.139	10187.32
558.502	10220.08
558.865	10228.22
559.228	10257.6
559.59	10322
559.953	10326.52
560.316	10500.75
560.679	10472.28
561.041	10581.66
561.404	10599.74
561.767	10663.91
562.129	10572.84
562.492	10778.49
562.854	10761.31
563.217	10713.86
563.579	10751.14
563.941	10873.4
564.304	10932.61
564.666	11024.81
565.028	11039.72
565.39	11077.01
565.753	11067.52
566.115	11143.45
566.477	11174.86
566.839	11168.31
567.201	11315.87
567.563	11353.84
567.925	11355.2
568.287	11397.45
568.648	11466.83
569.01	11471.35
569.372	11509.99
569.734	11534.85
570.095	11623.66
570.457	11687.39
570.819	11690.55
571.18	11665.47
571.542	11805.81
571.903	11740.95
572.265	11827.27
572.626	11808.97
572.987	11855.75
573.349	11910.21
573.71	11911.57
574.071	11975.29
574.432	11963.99
574.794	12108.4
575.155	12141.16
575.516	12063.2
575.877	12061.62
576.238	12115.85
576.599	12186.59
576.96	12211.44
577.32	12225.91
577.681	12238.34
578.042	12313.14
578.403	12274.49
578.763	12291.22
579.124	12322.4
579.485	12366.47
579.845	12391.1
580.206	12411.67
580.566	12323.53
580.927	12318.56
581.287	12514.04
581.648	12414.83
582.008	12487.37
582.368	12436.98
582.728	12490.99
583.089	12466.35
583.449	12479.23
583.809	12492.34
584.169	12530.08
584.529	12560.81
584.889	12586.35
585.249	12461.16
585.609	12425.45
585.969	12579.8
586.329	12568.27
586.688	12491.21
587.048	12474.26
587.408	12523.07
587.768	12442.4
588.127	12499.57
588.487	12410.76
588.846	12570.08
589.206	12544.77
589.565	12598.78
589.925	12611.21
590.284	12542.51
590.643	12554.26
591.003	12562.85
591.362	12636.97
591.721	12621.38
592.08	12680.13
592.44	12624.77
592.799	12605.56
593.158	12572.34
593.517	12587.25
593.876	12571.43
594.235	12653.92
594.593	12608.04
594.952	12626.57
595.311	12604.65
595.67	12591.1
596.029	12643.98
596.387	12672.68
596.746	12729.62
597.104	12698.66
597.463	12657.99
597.822	12769.62
598.18	12700.02
598.538	12698.44
598.897	12707.7
599.255	12651.66
599.613	12836.74
599.972	12821.82
600.33	12789.06
600.688	12735.27
601.046	12873.35
601.404	12801.71
601.762	12821.82
602.12	12865.21
602.478	12858.21
602.836	12864.08
603.194	12871.77
603.552	12912.22
603.91	12834.03
604.268	12874.7
604.625	12783.86
604.983	12853.24
605.341	12766.68
605.698	12966
606.056	12969.84
606.413	12962.39
606.771	12981.14
607.128	12955.38
607.485	12958.09
607.843	12931.65
608.2	13021.82
608.557	13041.03
608.914	13021.82
609.272	13087.81
609.629	13123.74
609.986	13121.7
610.343	13034.47
610.7	13144.53
611.057	13123.74
611.414	13191.53
611.771	13162.15
612.127	13183.4
612.484	13185.88
612.841	13199.67
613.198	13228.82
613.554	13259.1
613.911	13252.77
614.267	13244.64
614.624	13275.6
614.98	13323.73
615.337	13341.13
615.693	13398.98
616.05	13346.33
616.406	13470.39
616.762	13430.17
617.118	13294.81
617.475	13354.01
617.831	13392.43
618.187	13388.81
618.543	13363.5
618.899	13553.56
619.255	13469.94
619.611	13479.21
619.967	13464.29
620.323	13525.99
620.678	13423.16
621.034	13442.82
621.39	13452.54
621.746	13417.97
622.101	13569.15
622.457	13433.33
622.812	13517.17
623.168	13534.12
623.523	13466.55
623.879	13661.35
624.234	13514.91
624.589	13562.37
624.945	13580.45
625.3	13495.7
625.655	13547.23
626.01	13485.08
626.365	13515.82
626.72	13567.12
627.075	13436.05
627.43	13515.82
627.785	13437.85
628.14	13478.3
628.495	13539.77
628.85	13482.15
629.205	13372.77
629.559	13545.42
629.914	13472.2
630.269	13514.24
630.623	13459.1
630.978	13444.18
631.332	13417.06
631.687	13445.31
632.041	13356.95
632.396	13442.6
632.75	13406.89
633.104	13356.05
633.459	13387.23
633.813	13311.08
634.167	13319.89
634.521	13307.46
634.875	13259.78
635.229	13318.31
635.583	13260.91
635.937	13271.98
636.291	13211.19
636.645	13236.5
636.999	13159.44
637.352	13199.67
637.706	13192.66
638.06	13169.16
638.413	13056.17
638.767	13138.43
639.121	13161.93
639.474	13048.26
639.828	13101.82
640.181	13115.15
640.534	13110.4
640.888	13048.03
641.241	12980.46
641.594	13008.26
641.947	13001.48
642.301	12985.89
642.654	12992.67
643.007	13029.28
643.36	13023.63
643.713	12869.05
644.066	12959
644.419	12891.2
644.771	12847.36
645.124	12727.36
645.477	12656.63
645.83	12594.94
646.182	12533.02
646.535	12484.43
646.888	12529.18
647.24	12368.5
647.593	12460.93
647.945	12357.2
648.298	12376.64
648.65	12359.69
649.002	12264.78
649.355	12415.28
649.707	12354.27
650.059	12453.25
650.411	12543.41
650.763	12554.71
651.115	12725.1
651.467	12607.14
651.819	12643.75
652.171	12681.49
652.523	12618.67
652.875	12692.11
653.227	12546.8
653.578	12629.74
653.93	12635.39
654.282	12513.36
654.633	12460.7
654.985	12526.92
655.337	12516.52
655.688	12493.7
656.039	12526.46
656.391	12412.57
656.742	12438.56
657.094	12387.94
657.445	12526.46
657.796	12455.51
658.147	12437.2
658.498	12355.85
658.849	12406.02
659.2	12446.92
659.551	12396.75
659.902	12516.3
660.253	12379.35
660.604	12315.4
660.955	12308.62
661.306	12411.89
661.656	12353.59
662.007	12340.71
662.358	12437.43
662.708	12330.31
663.059	12319.92
663.409	12266.13
663.76	12242.18
664.11	12381.84
664.461	12381.38
664.811	12295.28
665.161	12284.21
665.511	12241.05
665.862	12312.68
666.212	12312.01
666.562	12303.87
666.912	12313.36
667.262	12255.51
667.612	12231.33
667.962	12277.21
668.312	12262.06
668.662	12382.51
669.011	12241.27
669.361	12262.29
669.711	12230.43
670.06	12307.49
670.41	12271.78
670.76	12186.13
671.109	12166.7
671.459	12205.57
671.808	12165.8
672.157	12183.42
672.507	12123.99
672.856	12148.17
673.205	12138.9
673.554	12124.44
673.904	12170.99
674.253	12232.69
674.602	12128.51
674.951	12013.03
675.3	11948.17
675.649	12088.51
675.998	12081.05
676.346	12049.87
676.695	12089.64
677.044	12075.63
677.393	12050.32
677.741	12118.11
678.09	11985.01
678.438	11988.17
678.787	11997.44
679.135	12044.9
679.484	11960.6
679.832	11956.54
680.181	11952.69
680.529	11966.48
680.877	11933.26
681.225	11812.36
681.573	11889.87
681.922	11884.9
682.27	11765.35
682.618	11828.86
682.966	11797.22
683.314	11818.01
683.661	11768.74
684.009	11701.63
684.357	11727.62
684.705	11699.37
685.053	11655.53
685.4	11700.27
685.748	11540.05
686.095	11610.1
686.443	11540.28
686.79	11582.08
687.138	11591.8
687.485	11602.87
687.832	11540.73
688.18	11505.47
688.527	11453.72
688.874	11399.94
689.221	11425.7
689.568	11382.99
689.915	11411.47
690.262	11363.11
690.609	11392.93
690.956	11388.64
691.303	11255.99
691.65	11271.58
691.997	11230.68
692.344	11155.43
692.69	11153.85
693.037	11140.51
693.383	11041.98
693.73	11192.49
694.077	11064.81
694.423	11066.16
694.769	10991.36
695.116	11004.02
695.462	10938.03
695.808	10915.66
696.155	10981.19
696.501	10825.94
696.847	10901.87
697.193	10818.71
697.539	10787.53
697.885	10704.82
698.231	10741.2
698.577	10710.24
698.923	10654.88
699.269	10633.41
699.614	10595.89
699.96	10532.62
700.306	10559.28
700.651	10538.95
700.997	10546.86
701.342	10436.35
701.688	10422.34
702.033	10393.41
702.379	10410.36
702.724	10318.84
703.069	10385.73
703.415	10263.25
703.76	10279.97
704.105	10326.75
704.45	10276.35
704.795	10168.33
705.14	10170.82
705.485	10165.4
705.83	10148.9
706.175	10109.35
706.52	10137.6
706.865	10030.03
707.209	10019.41
707.554	10014.21
707.899	10010.37
708.243	9966.08
708.588	10023.25
708.932	9883.37
709.277	9905.06
709.621	9905.29
709.966	9818.96
710.31	9824.61
710.654	9797.95
710.998	9816.71
711.342	9756.82
711.687	9741.23
712.031	9753.2
712.375	9763.15
712.719	9705.75
713.063	9667.1
713.407	9662.36
713.75	9646.09
714.094	9625.98
714.438	9565.19
714.782	9598.63
715.125	9567.45
715.469	9600.21
715.812	9511.85
716.156	9468.01
716.499	9427.34
716.843	9412.87
717.186	9429.6
717.53	9470.05
717.873	9492.87
718.216	9404.06
718.559	9411.07
718.902	9381.69
719.246	9363.84
719.589	9392.76
719.932	9322.03
720.275	9293.33
720.617	9306.44
720.96	9211.75
721.303	9248.36
721.646	9255.14
721.989	9224.4
722.331	9223.05
722.674	9210.62
723.016	9174.91
723.359	9171.52
723.701	9159.32
724.044	9135.59
724.386	9081.13
724.729	9139.43
725.071	9136.95
725.413	9130.85
725.755	9066.44
726.097	9037.06
726.439	8970.85
726.782	9014.24
727.124	9021.25
727.465	8930.63
727.807	8960.91
728.149	8927.91
728.491	8955.48
728.833	8957.52
729.175	8903.73
729.516	8914.36
729.858	8809.95
730.199	8914.13
730.541	8896.05
730.882	8785.55
731.224	8826.9
731.565	8861.48
731.906	8903.06
732.248	8843.4
732.589	8790.52
732.93	8761.59
733.271	8711.65
733.612	8785.55
733.953	8741.71
734.294	8788.94
734.635	8694.25
734.976	8711.88
735.317	8691.54
735.658	8694.47
735.999	8664.42
736.339	8651.09
736.68	8612.67
737.021	8664.42
737.361	8621.26
737.702	8606.12
738.042	8579.22
738.383	8579
738.723	8605.21
739.063	8520.92
739.404	8575.83
739.744	8502.39
740.084	8491.32
740.424	8501.71
740.764	8452.22
741.104	8494.93
741.444	8474.59
741.784	8462.39
742.124	8465.1
742.464	8418.1
742.804	8350.08
743.143	8384.88
743.483	8404.09
743.823	8321.15
744.162	8324.09
744.502	8377.42
744.841	8343.52
745.181	8393.47
745.52	8273.24
745.86	8324.32
746.199	8286.58
746.538	8287.03
746.877	8322.28
747.216	8276.41
747.556	8273.24
747.895	8290.19
748.234	8220.59
748.573	8190.76
748.911	8181.27
749.25	8200.93
749.589	8189.86
749.928	8129.29
750.267	8099.24
750.605	8112.8
750.944	8082.29
751.283	8041.61
751.621	8050.42
751.96	8067.82
752.298	7983.53
752.636	7995.28
752.975	7961.39
753.313	7971.33
753.651	7995.28
753.989	7952.35
754.327	7936.98
754.666	7909.41
755.004	7889.07
755.342	7905.57
755.679	7857.89
756.017	7823.54
756.355	7860.82
756.693	7879.13
757.031	7775.85
757.368	7733.82
757.706	7795.74
758.044	7697.89
758.381	7708.51
758.719	7643.2
759.056	7643.43
759.394	7683.2
759.731	7629.64
760.068	7603.66
760.405	7549.19
760.743	7502.42
761.08	7544.45
761.417	7557.1
761.754	7493.38
762.091	7508.29
762.428	7519.14
762.765	7375.64
763.102	7397.56
763.438	7378.58
763.775	7347.39
764.112	7360.5
764.449	7348.52
764.785	7317.56
765.122	7327.73
765.458	7186.72
765.795	7281.4
766.131	7202.99
766.467	7181.29
766.804	7148.07
767.14	7084.8
767.476	7089.32
767.812	7093.16
768.148	7089.09
768.485	7085.7
768.821	7014.07
769.157	6973.62
769.492	6946.5
769.828	6949.21
770.164	6897.46
770.5	6937.46
770.836	6943.79
771.171	6809.78
771.507	6912.6
771.842	6791.25
772.178	6749.44
772.513	6770.46
772.849	6759.38
773.184	6711.48
773.519	6714.19
773.855	6666.73
774.19	6665.83
774.525	6620.41
774.86	6576.11
775.195	6620.41
775.53	6654.75
775.865	6542.89
776.2	6478.71
776.535	6512.39
776.87	6472.39
777.205	6461.31
777.539	6420.64
777.874	6463.8
778.209	6392.39
778.543	6349.45
778.878	6355.78
779.212	6359.17
779.547	6314.88
779.881	6301.77
780.215	6283.69
780.55	6229.23
780.884	6214.99
781.218	6213.86
781.552	6218.38
781.886	6165.73
782.22	6112.4
782.554	6096.13
782.888	6088.67
783.222	6087.99
783.556	6018.39
783.889	6047.09
784.223	5919.63
784.557	5927.54
784.89	5960.31
785.224	5982.46
785.557	5944.26
785.891	5956.92
786.224	5885.28
786.558	5918.95
786.891	5824.95
787.224	5833.08
787.557	5842.35
787.891	5796.47
788.224	5787.21
788.557	5769.81
788.89	5752.41
789.223	5751.95
789.556	5751.28
789.888	5670.37
790.221	5631.96
790.554	5638.06
790.887	5612.3
791.219	5608.68
791.552	5574.56
791.884	5531.39
792.217	5552.64
792.549	5529.13
792.882	5495.24
793.214	5514.45
793.546	5515.12
793.879	5433.77
794.211	5450.49
794.543	5451.62
794.875	5408.23
795.207	5416.14
795.539	5359.42
795.871	5348.12
796.203	5384.28
796.535	5276.94
796.867	5298.18
797.198	5337.27
797.53	5278.97
797.862	5254.11
798.193	5284.85
798.525	5212.53
798.856	5227.45
799.188	5215.92
799.519	5155.36
799.85	5166.88
800.182	5163.95
800.513	5162.82
800.844	5110.16
801.175	5135.92
801.506	5142.03
801.837	5124.85
802.168	5078.3
802.499	5075.36
802.83	5039.66
803.161	5044.18
803.491	5010.05
803.822	5057.96
804.153	4929.6
804.483	4953.78
804.814	4963.05
805.145	4949.94
805.475	4962.82
805.805	4908.59
806.136	4932.09
806.466	4946.78
806.796	4879.43
807.126	4849.38
807.457	4867
807.787	4863.62
808.117	4858.64
808.447	4785.65
808.777	4827.23
809.107	4771.87
809.436	4781.81
809.766	4753.34
810.096	4704.07
810.426	4762.83
810.755	4742.49
811.085	4739.78
811.414	4722.15
811.744	4673.79
812.073	4617.97
812.403	4655.03
812.732	4681.7
813.061	4653.45
813.39	4647.58
813.719	4610.51
814.049	4621.36
814.378	4580.01
814.707	4622.72
815.036	4580.01
815.365	4546.34
815.693	4533
816.022	4526.9
816.351	4517.64
816.68	4483.51
817.008	4491.2
817.337	4503.62
817.665	4495.49
817.994	4449.39
818.322	4478.31
818.651	4472.89
818.979	4449.39
819.307	4430.63
819.636	4427.47
819.964	4390.86
820.292	4413.91
820.62	4395.38
820.948	4440.58
821.276	4436.28
821.604	4369.16
821.932	4406.45
822.259	4388.6
822.587	4407.13
822.915	4355.61
823.243	4410.29
823.57	4355.15
823.898	4368.26
824.225	4401.93
824.553	4361.71
824.88	4387.24
825.207	4417.07
825.535	4349.5
825.862	4391.54
826.189	4376.62
826.516	4400.35
826.843	4398.09
827.17	4371.88
827.497	4384.76
827.824	4424.08
828.151	4391.54
828.478	4397.19
828.805	4373.46
829.131	4341.59
829.458	4353.8
829.785	4347.7
830.111	4378.2
830.438	4411.42
830.764	4352.67
831.09	4357.64
831.417	4339.34
831.743	4367.81
832.069	4343.18
832.395	4340.24
832.722	4340.92
833.048	4300.92
833.374	4315.83
833.7	4384.08
834.026	4281.03
834.351	4290.52
834.677	4305.44
835.003	4260.24
835.329	4288.26
835.654	4282.84
835.98	4296.62
836.306	4313.12
836.631	4250.07
836.956	4314.7
837.282	4263.63
837.607	4229.96
837.932	4237.87
838.258	4259.79
838.583	4250.3
838.908	4226.8
839.233	4257.3
839.558	4202.16
839.883	4203.29
840.208	4184.76
840.533	4198.1
840.858	4212.33
841.182	4197.19
841.507	4170.98
841.832	4165.55
842.156	4198.55
842.481	4144.31
842.805	4138.89
843.13	4169.85
843.454	4141.15
843.778	4089.85
844.103	4064.31
844.427	4108.38
844.751	4118.78
845.075	4074.71
845.399	4145.44
845.723	4051.21
846.047	4092.11
846.371	4017.99
846.695	4017.08
847.019	4012.34
847.343	3988.16
847.666	4014.15
847.99	3940.48
848.313	3977.31
848.637	3906.13
848.96	3922.17
849.284	3909.29
849.607	3915.17
849.931	3860.48
850.254	3861.61
850.577	3815.28
850.9	3808.73
851.223	3820.93
851.546	3828.61
851.869	3755.62
852.192	3795.85
852.515	3754.72
852.838	3749.97
853.161	3711.55
853.483	3734.83
853.806	3731.44
854.129	3760.82
854.451	3702.74
854.774	3683.99
855.096	3685.11
855.419	3656.64
855.741	3657.55
856.063	3654.16
856.385	3639.69
856.708	3654.38
857.03	3577.77
857.352	3633.82
857.674	3607.83
857.996	3578.68
858.318	3563.99
858.64	3568.73
858.961	3593.14
859.283	3542.52
859.605	3486.48
859.926	3536.64
860.248	3505.01
860.57	3528.73
860.891	3527.38
861.212	3516.98
861.534	3512.92
861.855	3507.49
862.176	3452.58
862.498	3487.61
862.819	3467.95
863.14	3475.63
863.461	3451.22
863.782	3437.44
864.103	3455.52
864.424	3447.83
864.745	3477.21
865.065	3405.35
865.386	3424.56
865.707	3432.24
866.027	3419.81
866.348	3402.86
866.668	3403.54
866.989	3379.13
867.309	3364.67
867.63	3403.77
867.95	3378.91
868.27	3391.11
868.59	3340.72
868.91	3342.07
869.23	3354.5
869.55	3352.92
869.87	3327.38
870.19	3342.07
870.51	3355.86
870.83	3349.98
871.15	3326.48
871.469	3295.75
871.789	3334.39
872.109	3302.75
872.428	3298.91
872.748	3274.5
873.067	3318.57
873.386	3300.49
873.706	3288.97
874.025	3292.81
874.344	3274.5
874.663	3251.91
874.982	3238.8
875.301	3250.1
875.62	3229.31
875.939	3265.92
876.258	3210.1
876.577	3234.51
876.896	3208.52
877.214	3254.17
877.533	3215.75
877.852	3167.61
878.17	3224.34
878.489	3221.85
878.807	3179.59
879.125	3201.29
879.444	3200.61
879.762	3202.19
880.08	3195.18
880.398	3178.69
880.716	3169.42
881.034	3190.66
881.352	3150.67
881.67	3165.81
881.988	3156.09
882.306	3135.98
882.624	3140.95
882.941	3123.77
883.259	3100.5
883.577	3106.37
883.894	3069.54
884.212	3102.76
884.529	3099.59
884.846	3059.37
885.164	3104.79
885.481	2996.55
885.798	3058.46
886.115	3063.66
886.432	3069.99
886.75	3044.23
887.067	3036.77
887.383	3046.26
887.7	3068.41
888.017	3053.27
888.334	3004.91
888.651	3032.48
888.967	3010.56
889.284	3011.91
889.6	2985.47
889.917	2955.42
890.233	2976.21
890.55	2959.94
890.866	2985.47
891.182	2929.43
891.498	2938.02
891.815	2915.19
892.131	2934.63
892.447	2914.51
892.763	2901.86
893.079	2900.5
893.395	2912.03
893.71	2928.75
894.026	2886.72
894.342	2906.15
894.657	2866.38
894.973	2838.36
895.289	2887.17
895.604	2840.62
895.92	2834.74
896.235	2821.18
896.55	2824.12
896.865	2809.66
897.181	2818.7
897.496	2811.24
897.811	2771.92
898.126	2767.85
898.441	2786.38
898.756	2718.59
899.071	2752.48
899.386	2750
899.7	2706.38
900.015	2713.62
900.33	2699.15
900.644	2719.49
900.959	2718.59
901.273	2680.85
901.588	2710.68
901.902	2646.95
902.216	2681.3
902.531	2679.49
902.845	2646.95
903.159	2652.37
903.473	2635.88
903.787	2619.15
904.101	2602.43
904.415	2620.51
904.729	2611.02
905.042	2583.9
905.356	2593.17
905.67	2556.11
905.984	2574.64
906.297	2554.07
906.611	2545.71
906.924	2552.04
907.237	2547.29
907.551	2533.05
907.864	2501.87
908.177	2499.38
908.491	2500.74
908.804	2462.77
909.117	2495.99
909.43	2452.15
909.743	2418.71
910.056	2459.38
910.368	2399.5
910.681	2426.62
910.994	2387.75
911.307	2427.29
911.619	2417.8
911.932	2405.15
912.244	2398.14
912.557	2367.86
912.869	2370.12
913.181	2375.09
913.494	2347.75
913.806	2379.84
914.118	2358.6
914.43	2339.16
914.742	2312.95
915.054	2289.9
915.366	2302.78
915.678	2312.27
915.99	2283.8
916.302	2246.73
916.613	2275.21
916.925	2253.29
917.236	2269.33
917.548	2247.19
917.859	2239.5
918.171	2225.04
918.482	2196.11
918.794	2215.55
919.105	2195.66
919.416	2174.42
919.727	2216.9
920.038	2200.41
920.349	2155.89
920.66	2157.25
920.971	2137.36
921.282	2169.67
921.593	2141.2
921.903	2109.11
922.214	2112.5
922.525	2103.91
922.835	2103.91
923.146	2055.33
923.456	2102.33
923.767	2085.38
924.077	2090.58
924.387	2054.42
924.697	2065.5
925.008	2057.14
925.318	2044.48
925.628	2035.89
925.938	2044.48
926.248	2035.44
926.558	2019.17
926.867	1986.4
927.177	2006.06
927.487	2005.16
927.796	1962
928.106	1983.69
928.416	1986.4
928.725	1941.66
929.034	1953.86
929.344	1954.31
929.653	1932.17
929.962	1962.45
930.271	1913.18
930.581	1951.83
930.89	1889.91
931.199	1897.59
931.508	1891.26
931.817	1905.27
932.125	1886.74
932.434	1925.84
932.743	1912.51
933.051	1860.53
933.36	1855.56
933.669	1858.04
933.977	1875.9
934.286	1841.1
934.594	1852.39
934.902	1826.86
935.21	1840.42
935.519	1841.55
935.827	1818.95
936.135	1812.62
936.443	1802.68
936.751	1782.34
937.059	1827.99
937.367	1798.38
937.674	1773.53
937.982	1816.46
938.29	1745.28
938.597	1763.36
938.905	1730.82
939.213	1725.62
939.52	1747.09
939.827	1730.36
940.135	1706.18
940.442	1744.6
940.749	1707.31
941.056	1714.55
941.363	1705.73
941.67	1671.83
941.977	1690.82
942.284	1662.57
942.591	1672.74
942.898	1656.92
943.205	1658.05
943.511	1648.11
943.818	1669.35
944.125	1643.81
944.431	1639.29
944.738	1665.06
945.044	1618.95
945.35	1656.02
945.657	1598.62
945.963	1570.59
946.269	1624.15
946.575	1597.49
946.881	1611.5
947.187	1596.81
947.493	1588.45
947.799	1585.51
948.105	1551.84
948.41	1576.92
948.716	1578.28
949.022	1562.91
949.327	1538.73
949.633	1538.28
949.938	1515.68
950.244	1539.86
950.549	1515
950.854	1484.27
951.16	1529.92
951.465	1519.97
951.77	1497.6
952.075	1485.4
952.38	1504.83
952.685	1478.62
952.99	1463.48
953.294	1470.26
953.599	1475.23
953.904	1458.05
954.209	1478.17
954.513	1453.99
954.818	1440.43
955.122	1446.76
955.426	1436.59
955.731	1427.32
956.035	1406.53
956.339	1400.2
956.643	1406.08
956.948	1439.98
957.252	1399.75
957.556	1425.51
957.86	1390.49
958.163	1422.58
958.467	1359.53
958.771	1387.1
959.075	1378.06
959.378	1371.96
959.682	1398.85
959.985	1359.98
960.289	1372.18
960.592	1340.32
960.896	1337.83
961.199	1343.48
961.502	1325.4
961.805	1338.28
962.108	1313.88
962.411	1306.42
962.714	1321.34
963.017	1325.18
963.32	1315.01
963.623	1307.78
963.926	1310.04
964.228	1290.15
964.531	1300.32
964.833	1296.25
965.136	1282.47
965.438	1278.17
965.741	1275.91
966.043	1245.18
966.345	1254.9
966.648	1255.35
966.95	1229.36
967.252	1270.49
967.554	1233.65
967.856	1217.16
968.158	1229.13
968.46	1219.19
968.761	1218.97
969.063	1239.98
969.365	1227.55
969.666	1210.15
969.968	1203.82
970.269	1184.39
970.571	1199.98
970.872	1177.16
971.174	1166.54
971.475	1196.37
971.776	1188.91
972.077	1161.34
972.378	1179.87
972.679	1171.51
972.98	1163.83
973.281	1191.85
973.582	1183.94
973.883	1156.14
974.183	1160.44
974.484	1139.19
974.785	1137.61
975.085	1169.02
975.386	1147.78
975.686	1136.03
975.986	1131.74
976.287	1140.78
976.587	1113.43
976.887	1146.65
977.187	1110.95
977.487	1098.06
977.787	1106.88
978.087	1083.15
978.387	1126.09
978.687	1089.7
978.987	1115.92
979.286	1091.51
979.586	1093.32
979.885	1059.87
980.185	1059.87
980.484	1065.52
980.784	1065.3
981.083	1046.09
981.382	1091.74
981.682	1030.72
981.981	1079.99
982.28	1034.56
982.579	1039.53
982.878	1042.7
983.177	1059.65
983.475	1033.43
983.774	1037.05
984.073	1027.56
984.372	1026.65
984.67	1050.38
984.969	1018.07
985.267	1004.51
985.566	1009.71
985.864	1012.87
986.162	1008.58
986.461	995.47
986.759	1000.44
987.057	992.53
987.355	1011.74
987.653	1018.74
987.951	995.92
988.249	978.97
988.547	994.56
988.844	980.78
989.142	979.88
989.44	962.7
989.737	979.88
990.035	969.48
990.332	975.36
990.63	934
990.927	952.08
991.224	965.86
991.521	943.04
991.819	942.59
992.116	955.7
992.413	921.12
992.71	932.19
993.006	924.74
993.303	953.66
993.6	918.86
993.897	909.14
994.193	902.14
994.49	904.85
994.787	922.48
995.083	899.88
995.379	922.02
995.676	903.27
995.972	915.24
996.268	885.64
996.565	877.51
996.861	887.9
997.157	891.29
997.453	880.44
997.749	886.09
998.044	864.4
998.34	842.7
998.636	865.98
998.932	874.57
999.227	881.12
999.523	862.36
999.818	856.26
1000.114	842.03
1000.409	856.94
1000.704	835.02
1001	860.78
1001.295	828.47
1001.59	846.77
1001.885	830.95
1002.18	814.91
1002.475	815.13
1002.77	828.47
1003.065	829.14
1003.359	819.43
1003.654	812.2
1003.949	832.53
1004.243	825.98
1004.538	822.14
1004.832	785.53
1005.127	785.08
1005.421	789.6
1005.715	784.85
1006.009	791.18
1006.304	770.62
1006.598	772.88
1006.892	789.37
1007.186	768.13
1007.48	785.53
1007.773	778.07
1008.067	775.81
1008.361	776.72
1008.655	759.09
1008.948	740.11
1009.242	729.49
1009.535	753.44
1009.829	762.48
1010.122	726.1
1010.415	748.92
1010.708	735.81
1011.001	739.2
1011.295	723.84
1011.588	743.5
1011.881	732.42
1012.173	753.44
1012.466	728.13
1012.759	732.88
1013.052	725.42
1013.344	695.82
1013.637	703.27
1013.93	719.32
1014.222	708.02
1014.514	698.98
1014.807	699.2
1015.099	696.72
1015.391	697.17
1015.683	675.7
1015.976	711.86
1016.268	696.04
1016.56	671.63
1016.851	689.49
1017.143	683.16
1017.435	669.6
1017.727	654.01
1018.018	652.88
1018.31	671.86
1018.602	668.02
1018.893	679.54
1019.185	636.61
1019.476	659.66
1019.767	672.54
1020.058	640.9
1020.35	644.06
1020.641	645.19
1020.932	629.6
1021.223	631.86
1021.514	646.55
1021.804	626.21
1022.095	620.79
1022.386	614.69
1022.677	622.37
1022.967	621.24
1023.258	610.17
1023.548	632.77
1023.839	611.07
1024.129	591.64
1024.419	596.38
1024.709	616.27
1025	604.07
1025.29	614.46
1025.58	604.52
1025.87	592.99
1026.16	573.11
1026.449	607.91
1026.739	597.51
1027.029	585.76
1027.319	588.25
1027.608	594.12
1027.898	578.3
1028.187	587.57
1028.477	567.68
1028.766	578.08
1029.055	551.41
1029.344	576.04
1029.634	570.62
1029.923	557.97
1030.212	589.38
1030.501	551.19
1030.79	552.32
1031.078	540.56
1031.367	563.16
1031.656	557.97
1031.945	553.9
1032.233	541.92
1032.522	546.89
1032.81	547.34
1033.099	528.14
1033.387	547.57
1033.675	549.6
1033.963	531.98
1034.251	534.24
1034.54	527.46
1034.828	527.91
1035.116	548.7
1035.403	522.26
1035.691	519.32
1035.979	511.19
1036.267	525.65
1036.554	501.7
1036.842	508.7
1037.129	517.51
1037.417	500.11
1037.704	512.09
1037.992	511.64
1038.279	497.18
1038.566	504.63
1038.853	504.63
1039.14	504.63
