Data from black_metal_pc_casing_FLMS001491_00092.txt Node
Date: Wed Feb 08 14:33:47 GMT 2017
User: dcchb
Spectrometer: FLMS00149
Trigger mode: 0
Integration Time (sec): 2.000000E-2
Scans to average: 10
Electric dark correction enabled: true
Nonlinearity correction enabled: false
Boxcar width: 0
XAxis mode: Wavelengths
Number of Pixels in Spectrum: 2048
>>>>>Begin Spectral Data<<<<<
341.393	17.06
341.776	17.06
342.16	17.06
342.543	-61.35
342.927	-67.68
343.31	-68.36
343.693	-68.59
344.077	-70.62
344.46	-60.9
344.843	-61.35
345.226	-34.91
345.61	-24.52
345.993	-16.84
346.376	5.08
346.759	17.29
347.142	21.81
347.525	31.75
347.908	40.79
348.291	83.95
348.674	85.31
349.057	120.11
349.44	114.46
349.823	147.91
350.206	165.08
350.588	184.51
350.971	200.11
351.354	218.41
351.737	208.02
352.119	250.05
352.502	247.56
352.884	277.85
353.267	257.28
353.65	285.76
354.032	291.86
354.414	321.23
354.797	318.07
355.179	315.36
355.562	318.97
355.944	322.82
356.326	311.52
356.709	331.18
357.091	312.65
357.473	337.51
357.855	307.22
358.238	346.09
358.62	337.05
359.002	338.64
359.384	328.01
359.766	335.02
360.148	352.65
360.53	338.86
360.912	329.82
361.294	320.78
361.676	329.6
362.057	315.36
362.439	330.5
362.821	326.21
363.203	318.07
363.584	335.47
363.966	308.81
364.348	316.71
364.729	324.4
365.111	328.69
365.493	309.03
365.874	324.4
366.256	294.34
366.637	306.55
367.019	319.2
367.4	296.83
367.781	297.05
368.163	317.17
368.544	305.19
368.925	324.62
369.306	309.94
369.688	312.2
370.069	304.96
370.45	282.59
370.831	306.32
371.212	331.18
371.593	315.13
371.974	307.45
372.355	310.39
372.736	303.83
373.117	333.44
373.498	328.24
373.879	326.43
374.26	325.08
374.641	321.46
375.021	321.69
375.402	316.71
375.783	330.73
376.163	351.29
376.544	332.53
376.925	337.05
377.305	349.03
377.686	342.7
378.066	331.18
378.447	340.22
378.827	337.05
379.208	351.74
379.588	351.74
379.968	344.51
380.349	358.3
380.729	345.41
381.109	345.41
381.489	355.13
381.87	351.52
382.25	329.14
382.63	364.62
383.01	351.74
383.39	358.75
383.77	372.76
384.15	348.35
384.53	371.4
384.91	366.66
385.29	368.01
385.67	372.98
386.049	352.42
386.429	367.56
386.809	366.43
387.189	375.02
387.568	365.53
387.948	363.27
388.328	401.23
388.707	392.19
389.087	396.49
389.466	389.26
389.846	384.74
390.225	402.59
390.605	398.29
390.984	404.62
391.363	412.53
391.743	406.66
392.122	404.17
392.501	421.12
392.881	417.73
393.26	446.88
393.639	426.54
394.018	418.86
394.397	408.92
394.776	439.42
395.155	415.7
395.534	426.32
395.913	424.73
396.292	421.34
396.671	443.49
397.05	434.9
397.429	444.17
397.808	434.23
398.186	435.58
398.565	457.73
398.944	443.94
399.323	451.63
399.701	455.24
400.08	438.75
400.458	473.77
400.837	473.77
401.215	441.01
401.594	467.67
401.972	476.03
402.351	462.7
402.729	475.13
403.107	479.87
403.486	476.48
403.864	469.93
404.242	482.59
404.62	502.47
404.999	517.61
405.377	529.14
405.755	472.64
406.133	494.79
406.511	503.38
406.889	511.29
407.267	521.46
407.645	529.59
408.023	526.88
408.401	534.11
408.779	526.2
409.156	526.2
409.534	551.96
409.912	543.6
410.29	547.9
410.667	553.77
411.045	558.06
411.422	572.98
411.8	544.96
412.178	557.61
412.555	575.01
412.933	602.36
413.31	601
413.687	604.84
414.065	587.22
414.442	589.7
414.819	616.59
415.197	606.88
415.574	626.54
415.951	613.43
416.328	629.47
416.705	635.12
417.082	632.19
417.46	638.51
417.837	629.02
418.214	638.97
418.591	639.19
418.967	647.78
419.344	675.8
419.721	663.37
420.098	677.38
420.475	681.23
420.852	655.24
421.228	687.55
421.605	687.1
421.982	695.24
422.358	653.88
422.735	692.07
423.111	691.17
423.488	718.51
423.864	704.5
424.241	701.11
424.617	708.34
424.994	729.13
425.37	730.26
425.746	759.87
426.123	770.04
426.499	762.13
426.875	758.29
427.251	771.39
427.627	778.62
428.003	789.02
428.379	813.88
428.756	804.61
429.132	830.83
429.507	790.83
429.883	829.02
430.259	841.45
430.635	859.53
431.011	862.01
431.387	864.27
431.763	855.23
432.138	859.98
432.514	895
432.89	869.47
433.265	904.27
433.641	944.49
434.016	951.95
434.392	938.62
434.767	921.44
435.143	919.18
435.518	951.5
435.894	966.19
436.269	975
436.644	993.99
437.02	984.72
437.395	1011.39
437.77	991.27
438.145	1016.13
438.52	1020.43
438.895	1031.95
439.271	1041.89
439.646	1054.32
440.021	1058.39
440.395	1059.75
440.77	1077.15
441.145	1062.01
441.52	1087.99
441.895	1112.63
442.27	1088.22
442.645	1111.04
443.019	1102
443.394	1099.52
443.769	1102.23
444.143	1110.14
444.518	1119.86
444.892	1143.13
445.267	1141.33
445.641	1146.52
446.016	1150.37
446.39	1181.32
446.764	1192.4
447.139	1195.11
447.513	1183.36
447.887	1184.26
448.262	1210.7
448.636	1214.77
449.01	1238.27
449.384	1235.33
449.758	1215.22
450.132	1231.49
450.506	1272.85
450.88	1259.74
451.254	1259.06
451.628	1290.93
452.002	1297.03
452.376	1311.72
452.75	1315.33
453.123	1329.12
453.497	1343.35
453.871	1346.52
454.244	1397.14
454.618	1378.83
454.992	1393.3
455.365	1417.93
455.739	1445.27
456.112	1456.8
456.486	1448.89
456.859	1480.98
457.232	1488.21
457.606	1481.88
457.979	1482.11
458.352	1520.52
458.725	1559.85
459.099	1548.32
459.472	1601.43
459.845	1594.65
460.218	1617.47
460.591	1654.98
460.964	1631.71
461.337	1640.3
461.71	1652.05
462.083	1683.68
462.456	1682.55
462.829	1692.95
463.201	1725.04
463.574	1749.22
463.947	1779.05
464.32	1805.94
464.692	1806.39
465.065	1816.11
465.438	1866.05
465.81	1922.32
466.183	1923.9
466.555	1923.45
466.928	1932.94
467.3	1959.16
467.672	1945.82
468.045	2008.65
468.417	2026.73
468.789	2073.05
469.161	2074.18
469.534	2101.98
469.906	2128.64
470.278	2150.56
470.65	2172.49
471.022	2201.86
471.394	2242.09
471.766	2290.9
472.138	2273.27
472.51	2325.93
472.882	2390.78
473.253	2405.93
473.625	2412.25
473.997	2461.74
474.369	2500.61
474.74	2520.72
475.112	2539.93
475.484	2575.41
475.855	2649.31
476.227	2700.38
476.598	2716.2
476.97	2729.31
477.341	2758.46
477.713	2835.97
478.084	2855.63
478.455	2946.48
478.827	2951.9
479.198	3015.17
479.569	3016.76
479.94	3103.76
480.311	3125.91
480.682	3221.95
481.053	3265.56
481.424	3311.44
481.795	3348.27
482.166	3404.32
482.537	3407.71
482.908	3511.89
483.279	3544.43
483.65	3588.95
484.021	3656.74
484.391	3662.84
484.762	3727.7
485.133	3728.83
485.503	3806.34
485.874	3900.12
486.244	3954.59
486.615	3951.65
486.985	3979.44
487.356	4097.63
487.726	4128.59
488.097	4214.69
488.467	4282.94
488.837	4319.1
489.207	4362.48
489.578	4416.95
489.948	4505.08
490.318	4498.53
490.688	4542.82
491.058	4623.27
491.428	4725.41
491.798	4692.42
492.168	4778.07
492.538	4839.31
492.908	4890.38
493.278	4930.83
493.648	4971.06
494.017	4966.08
494.387	5049.25
494.757	5091.28
495.126	5116.59
495.496	5152.29
495.866	5175.8
496.235	5257.6
496.605	5331.5
496.974	5331.27
497.344	5406.07
497.713	5382.34
498.082	5450.14
498.452	5538.05
498.821	5537.37
499.19	5580.76
499.559	5636.12
499.928	5666.86
500.298	5717.25
500.667	5822.78
501.036	5763.58
501.405	5742.33
501.774	5782.33
502.143	5887.64
502.512	5887.42
502.88	5996.34
503.249	6010.35
503.618	6036.56
503.987	6017.58
504.356	6109.33
504.724	6126.73
505.093	6122.44
505.462	6182.32
505.83	6216.22
506.199	6267.52
506.567	6378.25
506.936	6333.51
507.304	6445.59
507.672	6474.07
508.041	6503.22
508.409	6555.42
508.777	6636.32
509.145	6681.07
509.514	6655.53
509.882	6729.2
510.25	6787.05
510.618	6785.02
510.986	6799.26
511.354	6826.37
511.722	6956.77
512.09	7010.55
512.458	7019.14
512.826	7074.05
513.193	7093.71
513.561	7130.55
513.929	7195.4
514.297	7298.9
514.664	7353.37
515.032	7375.51
515.4	7372.57
515.767	7464.78
516.135	7493.93
516.502	7475.17
516.869	7599.01
517.237	7678.78
517.604	7659.35
517.972	7766.01
518.339	7752.9
518.706	7862.73
519.073	7898.21
519.44	7973.69
519.808	8079.45
520.175	8053.91
520.542	8160.58
520.909	8191.31
521.276	8208.71
521.643	8357.18
522.009	8347.69
522.376	8379.55
522.743	8446.44
523.11	8540.68
523.477	8662.48
523.843	8655.03
524.21	8730.28
524.577	8823.38
524.943	8909.71
525.31	8981.12
525.676	8997.16
526.043	9099.76
526.409	9110.83
526.776	9236.93
527.142	9257.95
527.508	9309.47
527.874	9423.37
528.241	9443.71
528.607	9548.11
528.973	9529.13
529.339	9536.36
529.705	9640.09
530.071	9730.48
530.437	9749.46
530.803	9807.99
531.169	9909.46
531.535	9891.83
531.901	9947.2
532.267	9998.27
532.632	10038.27
532.998	10155.1
533.364	10153.97
533.73	10221.99
534.095	10348.99
534.461	10331.59
534.826	10377.47
535.192	10397.13
535.557	10523.45
535.923	10479.16
536.288	10585.6
536.653	10662.43
537.019	10605.03
537.384	10646.61
537.749	10754.86
538.114	10773.39
538.479	10757.57
538.845	10812.71
539.21	10765.93
539.575	10876.21
539.94	10955.31
540.305	10942.88
540.67	11004.12
541.034	11071.01
541.399	11017
541.764	11088.41
542.129	11193.04
542.494	11178.58
542.858	11176.77
543.223	11250.21
543.587	11357.33
543.952	11350.77
544.316	11428.97
544.681	11400.72
545.045	11466.7
545.41	11534.27
545.774	11557.55
546.138	11630.77
546.503	11657.89
546.867	11593.48
547.231	11722.52
547.595	11735.62
547.959	11762.74
548.324	11847.71
548.688	11819.46
549.052	11846.13
549.416	11920.7
549.779	12009.97
550.143	11999.8
550.507	12083.64
550.871	12105.33
551.235	12183.52
551.599	12151.43
551.962	12218.55
552.326	12243.63
552.689	12374.48
553.053	12293.35
553.417	12338.32
553.78	12478.88
554.143	12513.68
554.507	12555.94
554.87	12582.16
555.234	12731.53
555.597	12726.11
555.96	12724.52
556.323	12735.15
556.686	12828.48
557.05	12887.23
557.413	12913.9
557.776	12970.85
558.139	13086.77
558.502	13088.81
558.865	13124.74
559.228	13244.28
559.59	13289.26
559.953	13315.7
560.316	13501.68
560.679	13373.09
561.041	13527.67
561.404	13586.87
561.767	13664.84
562.129	13685.4
562.492	13794.33
562.854	13846.3
563.217	13849.69
563.579	13920.42
563.941	13952.74
564.304	13973.08
564.666	14086.75
565.028	14115.9
565.39	14180.31
565.753	14330.58
566.115	14309.12
566.477	14390.7
566.839	14363.35
567.201	14550.01
567.563	14543.23
567.925	14598.37
568.287	14679.28
568.648	14784.58
569.01	14773.51
569.372	14847.86
569.734	14841.98
570.095	15024.8
570.457	15002.2
570.819	15029.1
571.18	14961.3
571.542	15186.15
571.903	15237.45
572.265	15221.86
572.626	15295.98
572.987	15294.63
573.349	15440.38
573.71	15495.07
574.071	15491.46
574.432	15534.39
574.794	15542.53
575.155	15658.01
575.516	15548.4
575.877	15673.83
576.238	15607.84
576.599	15762.41
576.96	15685.35
577.32	15715.41
577.681	15831.11
578.042	15833.82
578.403	15787.04
578.763	15851.45
579.124	15839.47
579.485	16004.21
579.845	15954.04
580.206	15950.2
580.566	15922.86
580.927	15923.08
581.287	16080.37
581.648	15962.86
582.008	16100.71
582.368	16062.06
582.728	16099.12
583.089	16091.67
583.449	16053.93
583.809	16143.19
584.169	16030.88
584.529	16152.23
584.889	16168.05
585.249	16037.21
585.609	16094.61
585.969	16189.74
586.329	16052.8
586.688	16110.42
587.048	16167.6
587.408	16140.93
587.768	16073.81
588.127	16095.51
588.487	16149.29
588.846	16256.18
589.206	16164.21
589.565	16197.88
589.925	16188.16
590.284	16200.59
590.643	16130.99
591.003	16265
591.362	16211.66
591.721	16219.57
592.08	16217.77
592.44	16336.63
592.799	16342.28
593.158	16319.23
593.517	16300.02
593.876	16316.52
594.235	16236.3
594.593	16336.86
594.952	16309.29
595.311	16235.17
595.67	16277.65
596.029	16445.1
596.387	16371.43
596.746	16404.88
597.104	16345.9
597.463	16323.07
597.822	16350.64
598.18	16269.74
598.538	16415.95
598.897	16468.83
599.255	16380.93
599.613	16646.45
599.972	16443.3
600.33	16566.23
600.688	16447.82
601.046	16507.02
601.404	16498.66
601.762	16547.93
602.12	16574.82
602.478	16608.26
602.836	16603.07
603.194	16525.55
603.552	16596.29
603.91	16532.79
604.268	16572.56
604.625	16624.53
604.983	16619.11
605.341	16540.24
605.698	16742.27
606.056	16706.34
606.413	16713.12
606.771	16823.4
607.128	16763.97
607.485	16668.15
607.843	16756.51
608.2	16839.9
608.557	16866.34
608.914	16783.4
609.272	16901.14
609.629	16922.38
609.986	16972.77
610.343	16886.67
610.7	17142.71
611.057	17090.29
611.414	17026.33
611.771	17026.78
612.127	17110.17
612.484	17065.65
612.841	17114.69
613.198	17034.92
613.554	17119.44
613.911	17176.16
614.267	17157.4
614.624	17143.39
614.98	17198.98
615.337	17240.11
615.693	17204.63
616.05	17163.05
616.406	17358.98
616.762	17354.46
617.118	17302.93
617.475	17285.08
617.831	17415.7
618.187	17417.51
618.543	17442.14
618.899	17444.63
619.255	17315.36
619.611	17362.14
619.967	17445.53
620.323	17528.24
620.678	17437.17
621.034	17365.31
621.39	17346.55
621.746	17430.62
622.101	17519.2
622.457	17361.92
622.812	17396.04
623.168	17518.75
623.523	17358.53
623.879	17547.9
624.234	17375.93
624.589	17444.85
624.945	17489.14
625.3	17528.92
625.655	17474.68
626.01	17562.82
626.365	17548.8
626.72	17514.68
627.075	17404.85
627.43	17523.27
627.785	17557.17
628.14	17483.04
628.495	17552.19
628.85	17533.89
629.205	17384.97
629.559	17550.16
629.914	17382.48
630.269	17438.3
630.623	17354.91
630.978	17270.62
631.332	17509.94
631.687	17403.95
632.041	17394.91
632.396	17326.66
632.75	17345.19
633.104	17285.31
633.459	17224.07
633.813	17294.57
634.167	17031.98
634.521	17206.21
634.875	17266.78
635.229	17245.54
635.583	17122.83
635.937	17163.05
636.291	17074.01
636.645	17104.07
636.999	17201.92
637.352	17143.84
637.706	17001.25
638.06	17059.1
638.413	17045.54
638.767	17035.37
639.121	17053.9
639.474	16922.38
639.828	16873.34
640.181	16904.3
640.534	16825.43
640.888	16977.52
641.241	16884.19
641.594	16879.67
641.947	16928.26
642.301	16823.4
642.654	16805.77
643.007	16884.41
643.36	16878.54
643.713	16730.29
644.066	16830.18
644.419	16691.43
644.771	16604.42
645.124	16460.92
645.477	16418.89
645.83	16326.46
646.182	16121.05
646.535	16144.1
646.888	16210.99
647.24	16077.66
647.593	16256.63
647.945	16190.42
648.298	16081.27
648.65	16089.41
649.002	15971.9
649.355	16137.99
649.707	16009.64
650.059	16208.73
650.411	16283.3
650.763	16345.45
651.115	16583.18
651.467	16439.45
651.819	16473.35
652.171	16425.9
652.523	16301.83
652.875	16321.94
653.227	16238.33
653.578	16316.07
653.93	16273.13
654.282	16237.43
654.633	16150.42
654.985	16205.34
655.337	16162.4
655.688	16129.63
656.039	16298.44
656.391	16115.4
656.742	16224.09
657.094	16236.3
657.445	16237.2
657.796	16139.8
658.147	16151.33
658.498	16108.16
658.849	16219.57
659.2	16142.74
659.551	16188.16
659.902	16172.8
660.253	16100.71
660.604	16076.07
660.955	15978
661.306	16001.73
661.656	16008.28
662.007	16019.58
662.358	16043.31
662.708	16014.61
663.059	15990.65
663.409	15980.71
663.76	15991.56
664.11	16021.84
664.461	16035.4
664.811	15974.16
665.161	15965.12
665.511	15894.61
665.862	15908.85
666.212	15941.16
666.562	15974.16
666.912	15991.1
667.262	15905.23
667.612	15864.78
667.962	15971.22
668.312	15865.46
668.662	16007.38
669.011	15938.22
669.361	15932.8
669.711	15919.69
670.06	15891.67
670.41	15802.64
670.76	15870.88
671.109	15883.31
671.459	15827.49
671.808	15684.67
672.157	15909.75
672.507	15765.8
672.856	15721.51
673.205	15789.75
673.554	15872.92
673.904	15703.2
674.253	15752.47
674.602	15651.68
674.951	15502.76
675.3	15387.28
675.649	15698.23
675.998	15669.31
676.346	15696.65
676.695	15645.35
677.044	15518.8
677.393	15679.7
677.741	15567.16
678.09	15561.74
678.438	15592.47
678.787	15558.8
679.135	15508.86
679.484	15405.81
679.832	15464.79
680.181	15438.13
680.529	15460.72
680.877	15431.8
681.225	15399.48
681.573	15535.3
681.922	15293.5
682.27	15240.16
682.618	15401.97
682.966	15377.34
683.314	15276.1
683.661	15278.58
684.009	15252.82
684.357	15145.48
684.705	15164.91
685.053	15169.21
685.4	15102.99
685.748	15069.1
686.095	15027.06
686.443	15032.26
686.79	15004.01
687.138	15002.2
687.485	15028.42
687.832	14970.34
688.18	14968.98
688.527	14881.53
688.874	14808.09
689.221	14818.71
689.568	14773.06
689.915	14778.26
690.262	14715.21
690.609	14663
690.956	14661.2
691.303	14639.73
691.65	14539.62
691.997	14596.79
692.344	14399.06
692.69	14448.55
693.037	14456.23
693.383	14307.53
693.73	14459.62
694.077	14395.44
694.423	14209
694.769	14204.49
695.116	14159.06
695.462	14136.46
695.808	14124.26
696.155	14107.31
696.501	13998.84
696.847	13975.56
697.193	13961.78
697.539	14002
697.885	13893.53
698.231	13865.74
698.577	13851.05
698.923	13796.36
699.269	13768.79
699.614	13633.43
699.96	13672.3
700.306	13675.91
700.651	13597.95
700.997	13620.32
701.342	13590.04
701.688	13533.54
702.033	13449.7
702.379	13524.5
702.724	13442.47
703.069	13455.8
703.415	13300.78
703.76	13302.14
704.105	13384.85
704.45	13307.79
704.795	13183.04
705.14	13216.49
705.485	13204.51
705.83	13120.45
706.175	13132.88
706.52	13096.27
706.865	13034.12
707.209	12971.75
707.554	12994.35
707.899	13049.94
708.243	12835.71
708.588	12967.46
708.932	12865.31
709.277	12892.66
709.621	12856.5
709.966	12668.25
710.31	12738.99
710.654	12584.41
710.998	12684.98
711.342	12684.3
711.687	12629.84
712.031	12567.24
712.375	12578.09
712.719	12658.99
713.063	12499.45
713.407	12577.64
713.75	12519.11
714.094	12520.69
714.438	12424.65
714.782	12501.71
715.125	12493.57
715.469	12434.59
715.812	12326.12
716.156	12238.21
716.499	12244.99
716.843	12304.87
717.186	12197.08
717.53	12268.72
717.873	12250.64
718.216	12211.77
718.559	12148.49
718.902	12118.21
719.246	12133.81
719.589	11985.11
719.932	11999.35
720.275	12005
720.617	12062.62
720.96	11913.02
721.303	11934.04
721.646	11963.19
721.989	11934.49
722.331	11884.77
722.674	11822.18
723.016	11941.49
723.359	11870.31
723.701	11902.17
724.044	11772.23
724.386	11746.24
724.729	11763.42
725.071	11812.46
725.413	11727.26
725.755	11804.77
726.097	11720.93
726.439	11673.48
726.782	11630.77
727.124	11763.19
727.465	11645.91
727.807	11620.15
728.149	11633.93
728.491	11599.81
728.833	11649.52
729.175	11569.98
729.516	11539.92
729.858	11501.28
730.199	11514.84
730.541	11455.86
730.882	11431.68
731.224	11480.94
731.565	11413.37
731.906	11421.96
732.248	11393.71
732.589	11369.31
732.93	11268.97
733.271	11347.39
733.612	11349.19
733.953	11364.79
734.294	11215.64
734.635	11268.74
734.976	11282.08
735.317	11183.77
735.658	11203.89
735.999	11199.37
736.339	11202.08
736.68	11244.34
737.021	11210.89
737.361	11143.32
737.702	11167.28
738.042	11069.65
738.383	11086.38
738.723	11079.6
739.063	11049.31
739.404	11072.59
739.744	11051.57
740.084	11013.83
740.424	11098.35
740.764	11034.63
741.104	11109.2
741.444	10972.03
741.784	10917.11
742.124	10922.31
742.464	10916.89
742.804	10871.47
743.143	10928.87
743.483	10859.04
743.823	10822.2
744.162	10790.56
744.502	10804.12
744.841	10708.53
745.181	10785.59
745.52	10849.77
745.86	10745.59
746.199	10732.03
746.538	10730.23
746.877	10730.45
747.216	10717.12
747.556	10686.16
747.895	10623.56
748.234	10613.39
748.573	10626.73
748.911	10567.74
749.25	10577.46
749.589	10532.94
749.928	10558.93
750.267	10588.31
750.605	10541.08
750.944	10499.27
751.283	10363.68
751.621	10466.28
751.96	10418.14
752.298	10399.16
752.636	10404.81
752.975	10297.24
753.313	10275.1
753.651	10339.95
753.989	10259.05
754.327	10240.07
754.666	10258.37
755.004	10148.77
755.342	10273.97
755.679	10225.61
756.017	10142.45
756.355	10204.82
756.693	10090.02
757.031	10117.59
757.368	10029
757.706	10062.22
758.044	9998.49
758.381	9991.71
758.719	9965.05
759.056	9930.93
759.394	9972.51
759.731	9817.93
760.068	9772.06
760.405	9794.43
760.743	9783.13
761.08	9737.48
761.417	9654.77
761.754	9690.03
762.091	9737.94
762.428	9663.14
762.765	9621.1
763.102	9615
763.438	9609.8
763.775	9528.45
764.112	9583.59
764.449	9467.89
764.785	9498.17
765.122	9393.09
765.458	9326.65
765.795	9351.05
766.131	9377.49
766.467	9297.27
766.804	9292.3
767.14	9295.91
767.476	9287.33
767.812	9271.73
768.148	9200.32
768.485	9105.64
768.821	9080.55
769.157	9112.19
769.492	9116.26
769.828	9074.9
770.164	8970.5
770.5	8976.15
770.836	8925.53
771.171	8892.53
771.507	8906.77
771.842	8825.64
772.178	8834.68
772.513	8801.46
772.849	8796.94
773.184	8750.84
773.519	8754.91
773.855	8634.01
774.19	8652.54
774.525	8617.97
774.86	8676.5
775.195	8583.16
775.53	8569.61
775.865	8554.92
776.2	8475.82
776.535	8462.72
776.87	8417.74
777.205	8413.68
777.539	8351.76
777.874	8395.37
778.209	8252.33
778.543	8278.99
778.878	8209.39
779.212	8197.86
779.547	8130.52
779.881	8163.06
780.215	8071.09
780.55	8095.04
780.884	8006.23
781.218	8062.05
781.552	8053.46
781.886	7981.37
782.22	7951.54
782.554	7911.09
782.888	7886.01
783.222	7909.06
783.556	7844.65
783.889	7807.14
784.223	7708.16
784.557	7740.25
784.89	7698.67
785.224	7746.12
785.557	7623.42
785.891	7622.06
786.224	7568.5
786.558	7573.93
786.891	7540.48
787.224	7483.08
787.557	7465
787.891	7445.11
788.224	7477.88
788.557	7434.95
788.89	7448.05
789.223	7403.31
789.556	7317.21
789.888	7286.25
790.221	7281.28
790.554	7231.56
790.887	7268.17
791.219	7277.44
791.552	7235.85
791.884	7198.57
792.217	7151.56
792.549	7076.09
792.882	7115.63
793.214	7131.45
793.546	7120.38
793.879	7002.64
794.211	6993.6
794.543	7032.24
794.875	6966.71
795.207	6966.26
795.539	6910.89
795.871	6888.29
796.203	6877.9
796.535	6860.5
796.867	6871.57
797.198	6767.39
797.53	6790.44
797.862	6778.01
798.193	6783.21
798.525	6764.91
798.856	6744.57
799.188	6681.52
799.519	6626.15
799.85	6592.26
800.182	6655.53
800.513	6549.77
800.844	6548.19
801.175	6576.21
801.506	6573.5
801.837	6548.64
802.168	6504.57
802.499	6528.98
802.83	6466.61
803.161	6457.12
803.491	6437.23
803.822	6411.92
804.153	6418.48
804.483	6317.46
804.814	6369.66
805.145	6397.23
805.475	6335.77
805.805	6309.78
806.136	6317.24
806.466	6327.18
806.796	6334.86
807.126	6239.95
807.457	6215.32
807.787	6243.56
808.117	6181.87
808.447	6157.47
808.777	6175.09
809.107	6130.12
809.436	6142.1
809.766	6143
810.096	6134.41
810.426	6091.25
810.755	6122.44
811.085	5985.49
811.414	6052.16
811.744	6047.41
812.073	5993.85
812.403	5979.16
812.732	5957.7
813.061	5966.74
813.39	5956.57
813.719	5941.65
814.049	5912.5
814.378	5903.23
814.707	5864.14
815.036	5889.68
815.365	5874.53
815.693	5813.75
816.022	5838.38
816.351	5822.11
816.68	5770.81
817.008	5764.03
817.337	5719.06
817.665	5783.24
817.994	5744.37
818.322	5790.47
818.651	5694.2
818.979	5670.92
819.307	5720.87
819.636	5669.79
819.964	5605.62
820.292	5706.18
820.62	5610.81
820.948	5639.96
821.276	5687.65
821.604	5654.65
821.932	5645.84
822.259	5603.36
822.587	5642.22
822.915	5632.28
823.243	5650.36
823.57	5645.16
823.898	5673.18
824.225	5592.51
824.553	5613.52
824.88	5616.91
825.207	5647.65
825.535	5653.3
825.862	5604.94
826.189	5612.85
826.516	5628.44
826.843	5595.9
827.17	5606.07
827.497	5643.58
827.824	5602.9
828.151	5598.16
828.478	5627.99
828.805	5638.83
829.131	5641.55
829.458	5592.06
829.785	5584.82
830.111	5610.81
830.438	5620.3
830.764	5646.29
831.09	5597.03
831.417	5555.22
831.743	5566.97
832.069	5592.06
832.395	5632.51
832.722	5589.12
833.048	5563.58
833.374	5562
833.7	5548.89
834.026	5576.92
834.351	5593.19
834.677	5564.94
835.003	5559.97
835.329	5557.71
835.654	5548.67
835.98	5582.11
836.306	5498.27
836.631	5521.1
836.956	5558.16
837.282	5554.32
837.607	5543.7
837.932	5504.6
838.258	5502.57
838.583	5504.6
838.908	5490.82
839.233	5477.94
839.558	5432.74
839.883	5422.8
840.208	5384.83
840.533	5412.4
840.858	5434.09
841.182	5424.83
841.507	5355
841.832	5364.72
842.156	5357.03
842.481	5400.87
842.805	5342.35
843.13	5326.98
843.454	5285.17
843.778	5284.49
844.103	5288.11
844.427	5324.27
844.751	5290.82
845.075	5323.59
845.399	5272.52
845.723	5216.47
846.047	5262.57
846.371	5211.5
846.695	5150.26
847.019	5180.32
847.343	5157.94
847.666	5109.13
847.99	5091.5
848.313	5079.08
848.637	5059.87
848.96	5061.45
849.284	5049.47
849.607	4992.3
849.931	5015.8
850.254	4926.31
850.577	4992.52
850.9	4895.35
851.223	4907.55
851.546	4856.71
851.869	4794.56
852.192	4855.35
852.515	4788.91
852.838	4834.56
853.161	4817.61
853.483	4798.63
853.806	4769.93
854.129	4786.43
854.451	4775.81
854.774	4720.89
855.096	4738.75
855.419	4682.7
855.741	4680.22
856.063	4701.23
856.385	4703.04
856.708	4671.4
857.03	4654.45
857.352	4672.76
857.674	4617.17
857.996	4591.86
858.318	4601.35
858.64	4552.08
858.961	4575.81
859.283	4576.49
859.605	4563.61
859.926	4557.96
860.248	4507.34
860.57	4507.34
860.891	4503.05
861.212	4512.99
861.534	4484.74
861.855	4507.34
862.176	4497.4
862.498	4477.28
862.819	4485.42
863.14	4412.65
863.461	4420.79
863.782	4403.39
864.103	4449.04
864.424	4411.75
864.745	4401.35
865.065	4397.96
865.386	4368.36
865.707	4385.99
866.027	4341.02
866.348	4371.07
866.668	4348.25
866.989	4395.25
867.309	4341.24
867.63	4322.03
867.95	4320.23
868.27	4339.21
868.59	4339.89
868.91	4319.32
869.23	4298.53
869.55	4296.27
869.87	4284.97
870.19	4279.1
870.51	4268.93
870.83	4222.15
871.15	4245.65
871.469	4262.6
871.789	4222.6
872.109	4235.03
872.428	4228.7
872.748	4238.65
873.067	4215.14
873.386	4206.1
873.706	4177.86
874.025	4175.37
874.344	4211.08
874.663	4134.69
874.982	4156.39
875.301	4179.21
875.62	4179.21
875.939	4144.18
876.258	4149.61
876.577	4138.54
876.896	4117.07
877.214	4087.24
877.533	4097.86
877.852	4163.62
878.17	4107.12
878.489	4100.8
878.807	4103.96
879.125	4068.03
879.444	4084.53
879.762	4087.92
880.08	4084.07
880.398	4018.99
880.716	4060.35
881.034	4062.38
881.352	4073.68
881.67	4045.88
881.988	4076.39
882.306	4045.88
882.624	4002.49
882.941	4010.4
883.259	3993.45
883.577	3963.4
883.894	3961.59
884.212	3993.68
884.529	3950.74
884.846	3992.78
885.164	3956.17
885.481	3939.22
885.798	3953.46
886.115	3930.18
886.432	3901.48
886.75	3907.13
887.067	3936.96
887.383	3883.4
887.7	3885.21
888.017	3830.07
888.334	3841.82
888.651	3847.24
888.967	3873.91
889.284	3827.13
889.6	3836.4
889.917	3805.66
890.233	3819.22
890.55	3772.9
890.866	3774.93
891.182	3759.34
891.498	3725.21
891.815	3755.04
892.131	3749.62
892.447	3753.01
892.763	3699
893.079	3711.43
893.395	3676.17
893.71	3710.07
894.026	3710.75
894.342	3639.79
894.657	3619.23
894.973	3684.76
895.289	3645.67
895.604	3619.9
895.92	3641.15
896.235	3630.07
896.55	3594.14
896.865	3582.84
897.181	3567.7
897.496	3621.03
897.811	3553.01
898.126	3525.67
898.441	3504.43
898.756	3544.43
899.071	3467.37
899.386	3491.77
899.7	3461.26
900.015	3456.52
900.33	3445.45
900.644	3419.01
900.959	3453.81
901.273	3433.92
901.588	3434.15
901.902	3396.41
902.216	3389.85
902.531	3390.98
902.845	3365.67
903.159	3367.48
903.473	3348.73
903.787	3312.12
904.101	3338.78
904.415	3346.24
904.729	3303.98
905.042	3290.42
905.356	3267.37
905.67	3280.03
905.984	3243.87
906.297	3251.1
906.611	3261.04
906.924	3262.4
907.237	3205.68
907.551	3237.32
907.864	3200.48
908.177	3211.1
908.491	3205.68
908.804	3156.19
909.117	3158.22
909.43	3128.84
909.743	3141.73
910.056	3164.1
910.368	3108.96
910.681	3094.04
910.994	3084.1
911.307	3094.04
911.619	3028.73
911.932	3042.74
912.244	3002.75
912.557	3068.96
912.869	3022.86
913.181	2981.73
913.494	2988.96
913.806	2974.5
914.118	2986.48
914.43	2958.45
914.742	2951.9
915.054	2911.67
915.366	2930.66
915.678	2932.47
915.99	2890.88
916.302	2904.9
916.613	2897.21
916.925	2897.66
917.236	2845.69
917.548	2845.91
917.859	2832.58
918.171	2836.65
918.482	2850.89
918.794	2842.3
919.105	2810.89
919.416	2786.48
919.727	2760.27
920.038	2746.48
920.349	2752.58
920.66	2770.66
920.971	2717.1
921.282	2741.96
921.593	2731.79
921.903	2671.91
922.214	2694.51
922.525	2702.41
922.835	2673.49
923.146	2612.47
923.456	2629.65
923.767	2662.19
924.077	2665.35
924.387	2629.87
924.697	2630.1
925.008	2600.72
925.318	2584.45
925.628	2570.21
925.938	2583.55
926.248	2553.04
926.558	2546.26
926.867	2560.72
927.177	2540.16
927.487	2524.34
927.796	2548.75
928.106	2514.62
928.416	2495.41
928.725	2533.83
929.034	2471.01
929.344	2484.57
929.653	2452.7
929.962	2418.35
930.271	2408.19
930.581	2419.94
930.89	2438.92
931.199	2426.94
931.508	2395.98
931.817	2378.36
932.125	2386.72
932.434	2375.42
932.743	2369.77
933.051	2352.37
933.36	2331.35
933.669	2338.81
933.977	2319.83
934.286	2312.14
934.594	2304.01
934.902	2269.66
935.21	2283.44
935.519	2286.61
935.827	2281.41
936.135	2283.44
936.443	2258.36
936.751	2223.11
937.059	2242.31
937.367	2230.79
937.674	2246.16
937.982	2224.46
938.29	2205.25
938.597	2161.41
938.905	2194.86
939.213	2179.26
939.52	2124.35
939.827	2162.77
940.135	2172.49
940.442	2129.55
940.749	2105.37
941.056	2125.03
941.363	2125.25
941.67	2103.11
941.977	2080.74
942.284	2089.32
942.591	2106.27
942.898	2069.66
943.205	2065.82
943.511	2068.31
943.818	2057.91
944.125	2066.05
944.431	2041.19
944.738	2025.6
945.044	2029.66
945.35	2027.86
945.657	2022.88
945.963	2014.75
946.269	2009.1
946.575	1962.1
946.881	1995.99
947.187	1972.26
947.493	1974.75
947.799	1938.59
948.105	1968.2
948.41	1958.03
948.716	1937.69
949.022	1896.33
949.327	1939.5
949.633	1937.46
949.938	1895.66
950.244	1905.6
950.549	1886.17
950.854	1888.2
951.16	1881.65
951.465	1893.62
951.77	1843.45
952.075	1840.74
952.38	1885.71
952.685	1807.98
952.99	1848.43
953.294	1833.51
953.599	1796.45
953.904	1822.66
954.209	1807.07
954.513	1808.88
954.818	1800.74
955.122	1782.21
955.426	1801.65
955.731	1760.52
956.035	1770.01
956.339	1747.19
956.643	1750.8
956.948	1755.55
957.252	1731.37
957.556	1755.32
957.86	1741.54
958.163	1743.57
958.467	1723.46
958.771	1700.18
959.075	1700.63
959.378	1693.4
959.682	1712.16
959.985	1700.63
960.289	1686.17
960.592	1672.39
960.896	1664.48
961.199	1654.08
961.502	1670.8
961.805	1666.06
962.108	1653.4
962.411	1660.63
962.714	1616.34
963.017	1628.32
963.32	1621.54
963.623	1605.95
963.926	1618.6
964.228	1601.43
964.531	1602.33
964.833	1586.06
965.136	1582.22
965.438	1588.55
965.741	1579.73
966.043	1557.81
966.345	1536.57
966.648	1580.64
966.95	1502.9
967.252	1545.38
967.554	1545.38
967.856	1515.1
968.158	1501.32
968.46	1525.27
968.761	1506.74
969.063	1546.06
969.365	1501.54
969.666	1496.8
969.968	1489.11
970.269	1475.33
970.571	1502.67
970.872	1467.87
971.174	1481.66
971.475	1457.25
971.776	1468.77
972.077	1453.86
972.378	1449.11
972.679	1445.95
972.98	1422.9
973.281	1385.39
973.582	1412.28
973.883	1412.28
974.183	1402.11
974.484	1424.26
974.785	1425.84
975.085	1374.77
975.386	1405.5
975.686	1379.96
975.986	1391.94
976.287	1388.1
976.587	1373.64
976.887	1367.76
977.187	1373.64
977.487	1374.09
977.787	1352.85
978.087	1349.91
978.387	1353.3
978.687	1328.67
978.987	1336.58
979.286	1305.16
979.586	1333.19
979.885	1332.51
980.185	1325.5
980.484	1321.89
980.784	1328.44
981.083	1313.3
981.382	1312.17
981.682	1303.36
981.981	1287.99
982.28	1291.6
982.579	1265.16
982.878	1282.57
983.177	1258.38
983.475	1274.43
983.774	1265.62
984.073	1253.87
984.372	1243.92
984.67	1238.72
984.969	1248.44
985.267	1251.83
985.566	1243.7
985.864	1222.45
986.162	1222.23
986.461	1209.12
986.759	1236.24
987.057	1219.97
987.355	1194.66
987.653	1197.37
987.951	1201.66
988.249	1184.94
988.547	1185.17
988.844	1175.45
989.142	1165.05
989.44	1184.26
989.737	1161.89
990.035	1154.66
990.332	1169.57
990.63	1128.22
990.927	1172.74
991.224	1138.39
991.521	1149.01
991.819	1119.41
992.116	1124.15
992.413	1153.3
992.71	1141.55
993.006	1109.01
993.303	1114.43
993.6	1105.17
993.897	1087.99
994.193	1116.02
994.49	1103.13
994.787	1071.95
995.083	1088.45
995.379	1093.42
995.676	1079.41
995.972	1070.37
996.268	1059.07
996.565	1075.79
996.861	1086.41
997.157	1088.67
997.453	1041.89
997.749	1040.54
998.044	1030.59
998.34	1015.68
998.636	1021.78
998.932	1032.18
999.227	1035.11
999.523	1039.41
999.818	1024.27
1000.114	1028.56
1000.409	1003.7
1000.704	1010.03
1001	1024.94
1001.295	996.47
1001.59	990.82
1001.885	1001.89
1002.18	996.92
1002.475	966.42
1002.77	985.4
1003.065	965.96
1003.359	961.22
1003.654	956.7
1003.949	959.64
1004.243	953.99
1004.538	965.74
1004.832	946.98
1005.127	949.92
1005.421	939.52
1005.715	939.75
1006.009	918.05
1006.304	931.84
1006.598	923.7
1006.892	938.85
1007.186	919.18
1007.48	916.25
1007.773	912.18
1008.067	924.16
1008.361	897.72
1008.655	909.47
1008.948	902.69
1009.242	916.93
1009.535	888.9
1009.829	881.22
1010.122	876.25
1010.415	906.76
1010.708	854.33
1011.001	859.3
1011.295	857.94
1011.588	888.23
1011.881	856.59
1012.173	852.07
1012.466	846.42
1012.759	854.33
1013.052	834.22
1013.344	844.84
1013.637	827.66
1013.93	820.66
1014.222	833.54
1014.514	828.57
1014.807	820.88
1015.099	799.19
1015.391	808.91
1015.683	797.61
1015.976	806.19
1016.268	795.8
1016.56	788.79
1016.851	792.63
1017.143	784.05
1017.435	783.14
1017.727	760.32
1018.018	766.65
1018.31	786.53
1018.602	779.75
1018.893	770.94
1019.185	763.48
1019.476	752.86
1019.767	775.01
1020.058	759.42
1020.35	732.75
1020.641	759.87
1020.932	726.42
1021.223	734.33
1021.514	725.52
1021.804	737.04
1022.095	731.62
1022.386	718.51
1022.677	736.82
1022.967	723.94
1023.258	723.71
1023.548	715.57
1023.839	719.87
1024.129	710.38
1024.419	701.79
1024.709	704.95
1025	703.37
1025.29	684.16
1025.58	679.42
1025.87	673.77
1026.16	693.88
1026.449	686.2
1026.739	663.37
1027.029	671.51
1027.319	678.97
1027.608	657.95
1027.898	664.95
1028.187	671.51
1028.477	660.89
1028.766	658.4
1029.055	662.47
1029.344	636.93
1029.634	646.65
1029.923	652.3
1030.212	637.38
1030.501	676.48
1030.79	637.61
1031.078	624.28
1031.367	636.25
1031.656	636.93
1031.945	626.31
1032.233	615.92
1032.522	619.98
1032.81	617.05
1033.099	609.81
1033.387	605.52
1033.675	617.05
1033.963	597.16
1034.251	595.58
1034.54	596.03
1034.828	612.75
1035.116	593.32
1035.403	579.08
1035.691	587.22
1035.979	596.26
1036.267	575.69
1036.554	596.71
1036.842	587.22
1037.129	567.56
1037.417	562.36
1037.704	556.48
1037.992	555.8
1038.279	561.68
1038.566	551.51
1038.853	551.51
1039.14	551.51
