Data from black_plastic_tray_FLMS001491_077.txt Node
Date: Tue Feb 07 10:40:35 GMT 2017
User: dcchb
Spectrometer: FLMS00149
Trigger mode: 0
Integration Time (sec): 2.000000E-2
Scans to average: 10
Electric dark correction enabled: true
Nonlinearity correction enabled: false
Boxcar width: 0
XAxis mode: Wavelengths
Number of Pixels in Spectrum: 2048
>>>>>Begin Spectral Data<<<<<
341.393	-1.02
341.776	-1.02
342.16	-1.02
342.543	-52.32
342.927	-51.64
343.31	-82.37
343.693	-82.6
344.077	-55.93
344.46	-62.26
344.843	-57.29
345.226	-43.5
345.61	-33.11
345.993	-6.21
346.376	12.54
346.759	3.73
347.142	30.62
347.525	30.85
347.908	57.29
348.291	79.88
348.674	103.84
349.057	104.52
349.44	128.7
349.823	148.58
350.206	156.72
350.588	178.41
350.971	195.81
351.354	209.6
351.737	214.8
352.119	244.85
352.502	245.08
352.884	266.32
353.267	261.12
353.65	282.14
354.032	278.52
354.414	280.56
354.797	302.7
355.179	302.48
355.562	299.31
355.944	315.13
356.326	314.23
356.709	302.7
357.091	306.09
357.473	341.8
357.855	335.25
358.238	309.48
358.62	315.58
359.002	346.09
359.384	322.82
359.766	335.7
360.148	305.64
360.53	319.2
360.912	316.04
361.294	322.14
361.676	315.81
362.057	342.48
362.439	311.74
362.821	307.68
363.203	316.04
363.584	310.39
363.966	325.98
364.348	297.51
364.729	323.04
365.111	300.22
365.493	302.7
365.874	323.95
366.256	311.29
366.637	309.26
367.019	307.22
367.4	309.03
367.781	302.93
368.163	298.86
368.544	320.1
368.925	304.06
369.306	298.86
369.688	302.48
370.069	313.33
370.45	302.48
370.831	321.69
371.212	289.14
371.593	307.9
371.974	312.65
372.355	307.45
372.736	314.91
373.117	308.13
373.498	323.49
373.879	321.91
374.26	304.96
374.641	302.03
375.021	296.6
375.402	316.26
375.783	358.3
376.163	326.21
376.544	321.46
376.925	335.02
377.305	330.95
377.686	346.54
378.066	328.01
378.447	344.51
378.827	337.05
379.208	330.05
379.588	324.17
379.968	338.41
380.349	352.87
380.729	335.47
381.109	339.09
381.489	361.91
381.87	345.87
382.25	346.32
382.63	344.74
383.01	370.27
383.39	337.51
383.77	333.89
384.15	354.91
384.53	352.65
384.91	354.45
385.29	373.44
385.67	358.52
386.049	359.43
386.429	358.07
386.809	383.15
387.189	369.59
387.568	402.36
387.948	382.7
388.328	392.19
388.707	363.04
389.087	378.63
389.466	362.59
389.846	373.21
390.225	384.06
390.605	385.87
390.984	373.66
391.363	382.7
391.743	386.54
392.122	381.35
392.501	412.98
392.881	410.05
393.26	395.13
393.639	412.53
394.018	406.2
394.397	395.81
394.776	419.31
395.155	413.21
395.534	421.8
395.913	421.12
396.292	416.6
396.671	408.46
397.05	400.78
397.429	432.87
397.808	413.21
398.186	429.48
398.565	439.2
398.944	428.12
399.323	423.38
399.701	441.01
400.08	457.05
400.458	420.67
400.837	460.44
401.215	440.55
401.594	463.83
401.972	471.29
402.351	456.15
402.729	462.02
403.107	451.85
403.486	468.8
403.864	479.2
404.242	454.11
404.62	466.54
404.999	500.89
405.377	467.22
405.755	491.17
406.133	500.44
406.511	497.28
406.889	490.72
407.267	487.56
407.645	493.21
408.023	519.65
408.401	525.52
408.779	502.02
409.156	512.42
409.534	538.4
409.912	544.28
410.29	546.77
410.667	525.75
411.045	545.41
411.422	540.44
411.8	538.18
412.178	547.22
412.555	564.39
412.933	558.06
413.31	574.79
413.687	586.54
414.065	576.37
414.442	590.15
414.819	598.52
415.197	586.54
415.574	588.12
415.951	606.42
416.328	598.29
416.705	591.51
417.082	629.7
417.46	615.92
417.837	632.86
418.214	628.8
418.591	624.5
418.967	644.84
419.344	668.57
419.721	656.14
420.098	622.92
420.475	673.32
420.852	681.45
421.228	664.73
421.605	678.29
421.982	660.21
422.358	660.89
422.735	681
423.111	692.98
423.488	691.62
423.864	717.38
424.241	709.25
424.617	697.72
424.994	710.15
425.37	726.87
425.746	725.29
426.123	733.2
426.499	732.07
426.875	743.82
427.251	753.09
427.627	750.6
428.003	798.06
428.379	801.9
428.756	773.43
429.132	788.11
429.507	798.74
429.883	830.6
430.259	826.53
430.635	809.58
431.011	834.22
431.387	857.49
431.763	878.06
432.138	853.42
432.514	863.14
432.89	866.08
433.265	900.2
433.641	911.05
434.016	902.01
434.392	898.39
434.767	913.08
435.143	930.03
435.518	947.21
435.894	931.39
436.269	953.53
436.644	969.81
437.02	949.24
437.395	1002.35
437.77	978.84
438.145	989.01
438.52	1026.3
438.895	991.5
439.271	1013.19
439.646	1036.02
440.021	1038.73
440.395	1051.84
440.77	1023.36
441.145	1068.11
441.52	1066.3
441.895	1085.51
442.27	1073.98
442.645	1094.1
443.019	1096.58
443.394	1101.78
443.769	1099.07
444.143	1105.62
444.518	1123.02
444.892	1127.09
445.267	1130.93
445.641	1131.61
446.016	1157.82
446.39	1119.41
446.764	1154.66
447.139	1142.46
447.513	1182
447.887	1196.92
448.262	1174.77
448.636	1168.9
449.01	1199.4
449.384	1203.47
449.758	1193.08
450.132	1234.88
450.506	1217.93
450.88	1228.1
451.254	1247.99
451.628	1249.8
452.002	1280.31
452.376	1263.58
452.75	1292.51
453.123	1295.22
453.497	1315.56
453.871	1320.98
454.244	1336.35
454.618	1345.16
454.992	1366.18
455.365	1359.4
455.739	1412.51
456.112	1412.51
456.486	1429.68
456.859	1419.06
457.232	1485.27
457.606	1478.49
457.979	1506.97
458.352	1488.44
458.725	1542.9
459.099	1521.43
459.472	1555.1
459.845	1567.53
460.218	1575.21
460.591	1594.2
460.964	1594.65
461.337	1644.14
461.71	1661.76
462.083	1695.21
462.456	1696.11
462.829	1694.53
463.201	1746.73
463.574	1713.74
463.947	1735.43
464.32	1783.57
464.692	1790.8
465.065	1817.01
465.438	1859.27
465.81	1855.66
466.183	1882.55
466.555	1897.69
466.928	1928.2
467.3	1941.53
467.672	1977.91
468.045	2006.84
468.417	2002.55
468.789	2029.44
469.161	2030.12
469.534	2061.98
469.906	2108.53
470.278	2110.79
470.65	2145.37
471.022	2201.19
471.394	2217.23
471.766	2184.69
472.138	2231.01
472.51	2312.82
472.882	2314.63
473.253	2363.89
473.625	2399.6
473.997	2401.41
474.369	2441.4
474.74	2498.35
475.112	2512.14
475.484	2522.08
475.855	2596.2
476.227	2579.71
476.598	2676.43
476.97	2704.9
477.341	2741.74
477.713	2797.33
478.084	2825.58
478.455	2884.56
478.827	2936.53
479.198	2973.82
479.569	2981.73
479.94	3032.58
480.311	3080.48
480.682	3134.49
481.053	3219.01
481.424	3238.22
481.795	3271.67
482.166	3332.68
482.537	3376.75
482.908	3462.17
483.279	3480.93
483.65	3544.88
484.021	3605.44
484.391	3628.04
484.762	3677.76
485.133	3681.37
485.503	3765.44
485.874	3833.23
486.244	3879.56
486.615	3931.08
486.985	3985.77
487.356	4054.47
487.726	4017.86
488.097	4137.86
488.467	4129.04
488.837	4237.97
489.207	4330.39
489.578	4342.82
489.948	4354.8
490.318	4406.32
490.688	4491.75
491.058	4504.85
491.428	4576.94
491.798	4631.18
492.168	4706.2
492.538	4707.33
492.908	4778.97
493.278	4823.71
493.648	4857.16
494.017	4915.46
494.387	4955.91
494.757	5016.93
495.126	5062.58
495.496	5029.36
495.866	5089.47
496.235	5154.78
496.605	5201.56
496.974	5235
497.344	5290.14
497.713	5295.12
498.082	5293.53
498.452	5370.59
498.821	5415.11
499.19	5433.87
499.559	5486.97
499.928	5522.68
500.298	5570.59
500.667	5657.82
501.036	5658.5
501.405	5678.83
501.774	5734.2
502.143	5752.96
502.512	5810.58
502.88	5801.09
503.249	5844.03
503.618	5834.08
503.987	5952.05
504.356	5991.14
504.724	5983.91
505.093	6059.39
505.462	6046.06
505.83	6085.15
506.199	6156.79
506.567	6246.95
506.936	6231.81
507.304	6290.57
507.672	6371.02
508.041	6318.36
508.409	6428.42
508.777	6407.4
509.145	6515.2
509.514	6522.88
509.882	6554.74
510.25	6609.88
510.618	6655.76
510.986	6703.44
511.354	6685.59
511.722	6781.18
512.09	6891.46
512.458	6874.06
512.826	6942.3
513.193	6930.55
513.561	6989.31
513.929	7083.54
514.297	7120.38
514.664	7086.03
515.032	7152.47
515.4	7222.75
515.767	7241.96
516.135	7344.1
516.502	7344.33
516.869	7413.7
517.237	7472.46
517.604	7469.97
517.972	7535.96
518.339	7619.8
518.706	7717.2
519.073	7701.38
519.44	7755.84
519.808	7843.52
520.175	7873.13
520.542	7992.45
520.909	7995.83
521.276	8044.65
521.643	8100.46
522.009	8091.2
522.376	8205.77
522.743	8261.82
523.11	8383.17
523.477	8446.44
523.843	8417.29
524.21	8593.11
524.577	8674.01
524.943	8693.44
525.31	8629.72
525.676	8774.35
526.043	8807.11
526.409	8870.61
526.776	8964.62
527.142	8954.23
527.508	9044.17
527.874	9118.52
528.241	9203.71
528.607	9210.72
528.973	9334.33
529.339	9328.23
529.705	9402.13
530.071	9531.39
530.437	9504.95
530.803	9556.25
531.169	9672.85
531.535	9635.57
531.901	9644.83
532.267	9746.75
532.632	9773.87
532.998	9859.06
533.364	9872.17
533.73	9865.84
534.095	10008.44
534.461	10021.77
534.826	10072.39
535.192	10059.51
535.557	10220.64
535.923	10303.57
536.288	10271.71
536.653	10338.37
537.019	10345.6
537.384	10310.8
537.749	10388.09
538.114	10494.98
538.479	10510.35
538.845	10542.89
539.21	10530.23
539.575	10630.57
539.94	10591.25
540.305	10683.67
540.67	10614.3
541.034	10778.36
541.399	10808.42
541.764	10815.2
542.129	10793.05
542.494	10876.44
542.858	10866.04
543.223	10937.9
543.587	11000.28
543.952	11015.87
544.316	11019.03
544.681	11010.9
545.045	11133.15
545.41	11167.28
545.774	11241.17
546.138	11211.12
546.503	11245.47
546.867	11288.4
547.231	11353.71
547.595	11422.41
547.959	11420.15
548.324	11402.75
548.688	11471.22
549.052	11467.61
549.416	11546.25
549.779	11595.29
550.143	11621.95
550.507	11715.06
550.871	11744.44
551.235	11732.23
551.599	11834.15
551.962	11919.35
552.326	11865.11
552.689	11998.89
553.053	12021.04
553.417	11978.78
553.78	12167.48
554.143	12188.27
554.507	12235.5
554.87	12266.91
555.234	12372.22
555.597	12343.74
555.96	12251.54
556.323	12453.57
556.686	12442.95
557.05	12413.57
557.413	12608.14
557.776	12573.34
558.139	12672.77
558.502	12695.37
558.865	12737.18
559.228	12797.29
559.59	12914.58
559.953	12837.06
560.316	13054.46
560.679	13051.07
561.041	13058.07
561.404	13168.58
561.767	13167
562.129	13222.14
562.492	13454
562.854	13371.74
563.217	13359.54
563.579	13471.4
563.941	13492.87
564.304	13544.84
564.666	13625.97
565.028	13638.62
565.39	13699.41
565.753	13813.08
566.115	13842.46
566.477	13866.19
566.839	13999.74
567.201	13998.84
567.563	14075.9
567.925	14046.07
568.287	14145.05
568.648	14128.78
569.01	14243.13
569.372	14349.57
569.734	14327.42
570.095	14389.57
570.457	14532.61
570.819	14532.84
571.18	14598.37
571.542	14581.88
571.903	14711.82
572.265	14658.94
572.626	14691.48
572.987	14706.17
573.349	14779.16
573.71	14755.66
574.071	14822.55
574.432	14914.3
574.794	14992.94
575.155	14905.26
575.516	14965.37
575.877	14982.32
576.238	15052.37
576.599	15203.1
576.96	15165.59
577.32	15119.72
577.681	15166.72
578.042	15252.82
578.403	15218.47
578.763	15417.56
579.124	15368.97
579.485	15426.37
579.845	15424.57
580.206	15369.43
580.566	15337.56
580.927	15394.51
581.287	15406.04
581.648	15331.46
582.008	15425.7
582.368	15496.88
582.728	15453.94
583.089	15434.06
583.449	15470.21
583.809	15479.48
584.169	15538.24
584.529	15552.02
584.889	15587.05
585.249	15419.59
585.609	15515.64
585.969	15528.52
586.329	15519.25
586.688	15538.46
587.048	15581.85
587.408	15478.35
587.768	15465.47
588.127	15523.09
588.487	15539.14
588.846	15559.03
589.206	15416.88
589.565	15417.11
589.925	15469.76
590.284	15520.83
590.643	15574.17
591.003	15501.63
591.362	15622.08
591.721	15555.41
592.08	15549.53
592.44	15634.73
592.799	15667.72
593.158	15653.49
593.517	15662.53
593.876	15681.96
594.235	15737.55
594.593	15701.4
594.952	15735.97
595.311	15698.23
595.67	15762.86
596.029	15667.27
596.387	15690.55
596.746	15730.55
597.104	15756.76
597.463	15690.77
597.822	15687.84
598.18	15655.07
598.538	15675.63
598.897	15760.15
599.255	15654.62
599.613	15875.4
599.972	15823.65
600.33	15825.01
600.688	15761.51
601.046	15745.46
601.404	15832.92
601.762	15783.65
602.12	15908.62
602.478	15957.43
602.836	15902.97
603.194	15914.04
603.552	15905.01
603.91	15806.48
604.268	16041.05
604.625	15895.74
604.983	16013.93
605.341	15890.77
605.698	15983.87
606.056	15954.72
606.413	15939.13
606.771	15971.44
607.128	16035.62
607.485	15984.55
607.843	16087.37
608.2	16114.27
608.557	16236.3
608.914	16061.84
609.272	16199.91
609.629	16192
609.986	16173.02
610.343	16069.75
610.7	16344.77
611.057	16201.95
611.414	16244.88
611.771	16205.79
612.127	16328.5
612.484	16262.28
612.841	16376.86
613.198	16314.26
613.554	16311.77
613.911	16371.89
614.267	16362.85
614.624	16398.33
614.98	16336.63
615.337	16435.39
615.693	16394.26
616.05	16379.57
616.406	16448.72
616.762	16481.49
617.118	16439.91
617.475	16388.16
617.831	16397.65
618.187	16541.82
618.543	16567.59
618.899	16679.67
619.255	16617.98
619.611	16608.49
619.967	16664.76
620.323	16708.83
620.678	16496.85
621.034	16488.72
621.39	16544.31
621.746	16555.38
622.101	16747.7
622.457	16723.29
622.812	16527.36
623.168	16716.96
623.523	16618.21
623.879	16744.76
624.234	16619.34
624.589	16709.5
624.945	16603.07
625.3	16689.62
625.655	16647.36
626.01	16742.27
626.365	16678.77
626.72	16676.51
627.075	16689.84
627.43	16680.8
627.785	16654.82
628.14	16690.97
628.495	16743.85
628.85	16595.83
629.205	16643.97
629.559	16632.44
629.914	16498.44
630.269	16584.76
630.623	16497.98
630.978	16381.83
631.332	16572.78
631.687	16565.78
632.041	16451.43
632.396	16577.98
632.75	16501.37
633.104	16564.2
633.459	16440.36
633.813	16366.01
634.167	16396.29
634.521	16370.3
634.875	16317.65
635.229	16358.55
635.583	16229.97
635.937	16287.14
636.291	16163.3
636.645	16082.85
636.999	16114.72
637.352	16179.57
637.706	16079.24
638.06	16086.24
638.413	16076.07
638.767	16066.36
639.121	16053.93
639.474	15983.2
639.828	15987.26
640.181	16044.44
640.534	15958.56
640.888	16002.86
641.241	15915.63
641.594	15940.94
641.947	15872.69
642.301	15939.35
642.654	15869.3
643.007	15728.96
643.36	15730.77
643.713	15766.93
644.066	15810.09
644.419	15813.48
644.771	15707.27
645.124	15604.45
645.477	15482.87
645.83	15501.4
646.182	15275.87
646.535	15262.99
646.888	15375.08
647.24	15159.94
647.593	15243.33
647.945	15243.33
648.298	15100.28
648.65	14979.15
649.002	15097.34
649.355	15082.88
649.707	15081.98
650.059	15142.31
650.411	15408.97
650.763	15390.67
651.115	15580.72
651.467	15497.11
651.819	15365.13
652.171	15407.84
652.523	15422.31
652.875	15410.1
653.227	15395.87
653.578	15365.13
653.93	15372.59
654.282	15338.47
654.633	15287.85
654.985	15408.07
655.337	15402.65
655.688	15301.86
656.039	15286.26
656.391	15141.86
656.742	15206.27
657.094	15162.2
657.445	15291.91
657.796	15276.55
658.147	15267.06
658.498	15244.23
658.849	15248.75
659.2	15267.73
659.551	15137.79
659.902	15161.3
660.253	15253.5
660.604	15124.24
660.955	15063.67
661.306	15073.16
661.656	15169.21
662.007	15109.09
662.358	14999.72
662.708	15045.59
663.059	15033.16
663.409	14962.66
663.76	15017.57
664.11	15013.28
664.461	15022.09
664.811	15109.77
665.161	14951.36
665.511	14931.7
665.862	15031.36
666.212	14976.89
666.562	15101.64
666.912	14874.3
667.262	14915.88
667.612	14956.56
667.962	15017.57
668.312	14968.98
668.662	14988.87
669.011	14877.24
669.361	14879.27
669.711	14803.79
670.06	14833.17
670.41	14732.83
670.76	14804.92
671.109	14800.4
671.459	14785.94
671.808	14797.69
672.157	14879.72
672.507	14856.45
672.856	14710.01
673.205	14762.89
673.554	14749.1
673.904	14724.25
674.253	14850.12
674.602	14707.07
674.951	14564.02
675.3	14439.73
675.649	14766.5
675.998	14708.88
676.346	14757.69
676.695	14797.46
677.044	14639.28
677.393	14707.07
677.741	14696.68
678.09	14609.22
678.438	14507.3
678.787	14601.31
679.135	14556.57
679.484	14530.58
679.832	14577.81
680.181	14444.7
680.529	14551.82
680.877	14464.37
681.225	14422.33
681.573	14496.45
681.922	14333.07
682.27	14362.45
682.618	14351.37
682.966	14412.62
683.314	14475.21
683.661	14351.37
684.009	14291.26
684.357	14260.98
684.705	14232.73
685.053	14261.21
685.4	14253.98
685.748	14190.02
686.095	14148.22
686.443	14073.64
686.79	14005.17
687.138	14039.97
687.485	14054.21
687.832	14003.36
688.18	13954.32
688.527	13915.45
688.874	13903.93
689.221	13932.4
689.568	13897.15
689.915	13794.1
690.262	13839.52
690.609	13698.06
690.956	13648.57
691.303	13679.98
691.65	13572.64
691.997	13536.71
692.344	13498.06
692.69	13516.14
693.037	13499.42
693.383	13384.62
693.73	13514.56
694.077	13394.34
694.423	13463.04
694.769	13371.96
695.116	13378.52
695.462	13359.99
695.808	13289.71
696.155	13314.79
696.501	13155.25
696.847	13195.25
697.193	13157.28
697.539	13111.86
697.885	13076.38
698.231	13047.45
698.577	12969.49
698.923	12936.04
699.269	12939.43
699.614	12769.04
699.96	12772.66
700.306	12850.17
700.651	12746.44
700.997	12679.33
701.342	12692.21
701.688	12700.8
702.033	12660.57
702.379	12576.05
702.724	12626
703.069	12645.88
703.415	12493.12
703.76	12492.21
704.105	12515.72
704.45	12468.26
704.795	12412.44
705.14	12336.74
705.485	12406.34
705.83	12314.14
706.175	12316.4
706.52	12319.34
706.865	12237.31
707.209	12224.42
707.554	12104.2
707.899	12166.57
708.243	12146.46
708.588	12087.48
708.932	12067.14
709.277	12012.23
709.621	12122.28
709.966	12011.32
710.31	12001.61
710.654	11920.25
710.998	11841.61
711.342	11921.83
711.687	11830.99
712.031	11836.86
712.375	11794.15
712.719	11779.92
713.063	11779.92
713.407	11751.67
713.75	11647.04
714.094	11612.91
714.438	11519.13
714.782	11619.24
715.125	11540.83
715.469	11552.35
715.812	11455.18
716.156	11404.78
716.499	11417.89
716.843	11429.19
717.186	11427.84
717.53	11480.04
717.873	11497.66
718.216	11420.15
718.559	11423.09
718.902	11321.4
719.246	11387.38
719.589	11286.6
719.932	11280.72
720.275	11273.26
720.617	11221.29
720.96	11178.8
721.303	11228.07
721.646	11228.29
721.989	11179.48
722.331	11205.24
722.674	11146.03
723.016	11128.86
723.359	11125.47
723.701	11166.15
724.044	11080.95
724.386	11116.66
724.729	10996.66
725.071	11013.61
725.413	10999.6
725.755	10934.74
726.097	10928.87
726.439	10900.84
726.782	10903.33
727.124	10932.93
727.465	10795.08
727.807	10821.52
728.149	10829.21
728.491	10774.52
728.833	10733.62
729.175	10677.8
729.516	10714.41
729.858	10717.57
730.199	10725.48
730.541	10706.95
730.882	10799.38
731.224	10753.73
731.565	10612.49
731.906	10639.83
732.248	10577.24
732.589	10552.38
732.93	10593.96
733.271	10566.84
733.612	10491.59
733.953	10473.06
734.294	10535.43
734.635	10406.85
734.976	10535.66
735.317	10385.6
735.658	10405.72
735.999	10444.13
736.339	10414.3
736.68	10424.02
737.021	10376.56
737.361	10341.54
737.702	10345.15
738.042	10293.63
738.383	10359.84
738.723	10358.26
739.063	10308.77
739.404	10283.46
739.744	10303.57
740.084	10259.96
740.424	10217.25
740.764	10276.68
741.104	10255.66
741.444	10170.69
741.784	10089.34
742.124	10171.6
742.464	10108.77
742.804	10115.55
743.143	10120.52
743.483	10156.23
743.823	10035.56
744.162	10078.94
744.502	10080.3
744.841	10053.86
745.181	10061.77
745.52	10063.58
745.86	10054.54
746.199	9985.61
746.538	9950.13
746.877	9966.18
747.216	9892.96
747.556	9875.33
747.895	9972.73
748.234	9906.29
748.573	9855.67
748.911	9863.58
749.25	9857.48
749.589	9826.52
749.928	9792.17
750.267	9863.13
750.605	9848.22
750.944	9771.38
751.283	9681.44
751.621	9781.78
751.96	9680.08
752.298	9700.65
752.636	9717.6
752.975	9619.52
753.313	9600.31
753.651	9603.48
753.989	9514.21
754.327	9561.9
754.666	9417.94
755.004	9518.51
755.342	9505.85
755.679	9422.24
756.017	9404.16
756.355	9347.21
756.693	9358.74
757.031	9401.45
757.368	9259.3
757.706	9304.28
758.044	9275.12
758.381	9257.04
758.719	9222.7
759.056	9211.4
759.394	9277.84
759.731	9102.25
760.068	9135.01
760.405	9085.3
760.743	9009.82
761.08	9001.91
761.417	9042.36
761.754	9017.95
762.091	8987
762.428	8972.08
762.765	8897.73
763.102	8907.45
763.438	8842.59
763.775	8801.01
764.112	8891.63
764.449	8838.52
764.785	8739.77
765.122	8707.23
765.458	8691.86
765.795	8693.9
766.131	8657.06
766.467	8673.56
766.804	8588.59
767.14	8557.63
767.476	8557.4
767.812	8556.5
768.148	8540.45
768.485	8496.61
768.821	8420.91
769.157	8461.59
769.492	8329.16
769.828	8408.48
770.164	8283.06
770.5	8323.28
770.836	8290.06
771.171	8288.93
771.507	8252.33
771.842	8188.15
772.178	8208.26
772.513	8186.34
772.849	8178.43
773.184	8100.69
773.519	8043.07
773.855	8006.68
774.19	8014.14
774.525	7959.9
774.86	7997.87
775.195	7970.75
775.53	7967.14
775.865	7914.03
776.2	7838.32
776.535	7773.47
776.87	7850.3
777.205	7743.64
777.539	7719.46
777.874	7715.84
778.209	7692.79
778.543	7643.08
778.878	7595.62
779.212	7557.88
779.547	7556.07
779.881	7594.26
780.215	7464.78
780.55	7464.1
780.884	7405.34
781.218	7375.96
781.552	7365.8
781.886	7337.55
782.22	7268.62
782.554	7290.09
782.888	7169.87
783.222	7207.16
783.556	7190.21
783.889	7147.5
784.223	7135.52
784.557	7154.28
784.89	7159.7
785.224	7075.63
785.557	7063.43
785.891	7099.81
786.224	7015.3
786.558	7037.22
786.891	6917.9
787.224	6906.82
787.557	6892.81
787.891	6958.12
788.224	6884.68
788.557	6887.16
788.89	6959.48
789.223	6885.58
789.556	6819.82
789.888	6817.11
790.221	6821.4
790.554	6733.72
790.887	6731.46
791.219	6683.78
791.552	6654.4
791.884	6564.91
792.217	6604.46
792.549	6584.35
792.882	6525.37
793.214	6545.03
793.546	6584.35
793.879	6470.68
794.211	6502.99
794.543	6482.43
794.875	6446.05
795.207	6441.3
795.539	6417.35
795.871	6430.23
796.203	6358.14
796.535	6293.05
796.867	6251.02
797.198	6247.86
797.53	6218.93
797.862	6178.93
798.193	6218.71
798.525	6221.87
798.856	6165.83
799.188	6113.4
799.519	6128.77
799.85	6104.13
800.182	6060.97
800.513	6061.87
800.844	6015.55
801.175	6071.14
801.506	6065.26
801.837	6018.03
802.168	6001.31
802.499	6013.06
802.83	5925.61
803.161	5938.26
803.491	5896.23
803.822	5902.56
804.153	5909.11
804.483	5856
804.814	5841.09
805.145	5829.11
805.475	5744.59
805.805	5761.77
806.136	5809.45
806.466	5804.93
806.796	5801.77
807.126	5709.34
807.457	5691.49
807.787	5695.56
808.117	5663.92
808.447	5686.29
808.777	5717.93
809.107	5637.48
809.436	5669.12
809.766	5609.91
810.096	5612.62
810.426	5593.19
810.755	5499.63
811.085	5568.1
811.414	5554.32
811.744	5518.84
812.073	5530.14
812.403	5522
812.732	5486.07
813.061	5510.93
813.39	5407.43
813.719	5415.56
814.049	5478.84
814.378	5413.76
814.707	5407.65
815.036	5386.86
815.365	5339.63
815.693	5323.81
816.022	5319.75
816.351	5293.08
816.68	5283.36
817.008	5319.07
817.337	5276.58
817.665	5269.35
817.994	5272.97
818.322	5289.92
818.651	5197.04
818.979	5211.28
819.307	5251.27
819.636	5227.55
819.964	5221.22
820.292	5240.65
820.62	5151.62
820.948	5177.6
821.276	5177.15
821.604	5187.55
821.932	5173.76
822.259	5196.81
822.587	5178.06
822.915	5165.17
823.243	5208.56
823.57	5118.85
823.898	5176.02
824.225	5154.33
824.553	5125.4
824.88	5164.5
825.207	5150.49
825.535	5181.45
825.862	5159.53
826.189	5180.09
826.516	5143.03
826.843	5198.62
827.17	5128.34
827.497	5218.51
827.824	5171.28
828.151	5114.55
828.478	5144.38
828.805	5162.01
829.131	5194.1
829.458	5141.22
829.785	5126.53
830.111	5145.06
830.438	5159.07
830.764	5161.33
831.09	5145.97
831.417	5118.4
831.743	5189.13
832.069	5165.17
832.395	5155.23
832.722	5127.44
833.048	5078.17
833.374	5093.76
833.7	5089.92
834.026	5087.44
834.351	5093.76
834.677	5064.16
835.003	5075.23
835.329	5082.47
835.654	5038.85
835.98	5072.52
836.306	5085.85
836.631	5051.05
836.956	5065.74
837.282	5067.55
837.607	5011.51
837.932	5012.18
838.258	5005.86
838.583	4985.97
838.908	4986.65
839.233	5003.37
839.558	4977.16
839.883	4965.86
840.208	4953.2
840.533	4970.6
840.858	4988.23
841.182	4960.43
841.507	4952.98
841.832	4924.05
842.156	4910.49
842.481	4918.63
842.805	4905.97
843.13	4871.17
843.454	4866.43
843.778	4819.2
844.103	4846.77
844.427	4802.25
844.751	4794.56
845.075	4814
845.399	4809.03
845.723	4757.5
846.047	4801.79
846.371	4755.69
846.695	4757.95
847.019	4738.75
847.343	4731.06
847.666	4684.74
847.99	4705.07
848.313	4690.39
848.637	4674.57
848.96	4610.39
849.284	4616.04
849.607	4573.78
849.931	4547.56
850.254	4542.59
850.577	4529.26
850.9	4506.44
851.223	4449.49
851.546	4406.55
851.869	4414.46
852.192	4470.96
852.515	4427.79
852.838	4375.37
853.161	4443.16
853.483	4366.78
853.806	4363.61
854.129	4320.45
854.451	4353.44
854.774	4284.52
855.096	4290.62
855.419	4306.67
855.741	4280.68
856.063	4252.66
856.385	4288.81
856.708	4312.54
857.03	4215.82
857.352	4241.36
857.674	4209.72
857.996	4205.43
858.318	4160.23
858.64	4211.53
858.961	4198.87
859.283	4153.22
859.605	4169.72
859.926	4097.63
860.248	4136.05
860.57	4129.04
860.891	4077.97
861.212	4085.43
861.534	4051.53
861.855	4058.99
862.176	4084.75
862.498	4111.64
862.819	4099.89
863.14	4054.92
863.461	4056.05
863.782	4009.05
864.103	3970.63
864.424	4004.3
864.745	4067.35
865.065	4024.64
865.386	4008.14
865.707	4032.32
866.027	4021.7
866.348	4020.35
866.668	3972.44
866.989	3920.24
867.309	3925.66
867.63	3943.74
867.95	3940.8
868.27	3924.76
868.59	3948.94
868.91	3937.86
869.23	3959.33
869.55	3938.31
869.87	3958.88
870.19	3913
870.51	3903.06
870.83	3924.3
871.15	3860.8
871.469	3894.7
871.789	3887.69
872.109	3838.66
872.428	3821.93
872.748	3809.28
873.067	3841.82
873.386	3856.96
873.706	3836.85
874.025	3776.74
874.344	3815.15
874.663	3784.42
874.982	3827.36
875.301	3786.91
875.62	3777.64
875.939	3744.2
876.258	3800.24
876.577	3726.57
876.896	3795.27
877.214	3738.32
877.533	3710.98
877.852	3737.42
878.17	3776.28
878.489	3732.9
878.807	3762.95
879.125	3778.77
879.444	3737.64
879.762	3685.44
880.08	3732.67
880.398	3748.26
880.716	3678.89
881.034	3696.06
881.352	3693.12
881.67	3681.15
881.988	3725.44
882.306	3678.66
882.624	3668.04
882.941	3644.99
883.259	3640.7
883.577	3609.74
883.894	3646.8
884.212	3683.86
884.529	3648.83
884.846	3596.63
885.164	3619.23
885.481	3631.66
885.798	3611.77
886.115	3597.31
886.432	3578.32
886.75	3525.9
887.067	3533.35
887.383	3518.66
887.7	3503.3
888.017	3498.1
888.334	3488.61
888.651	3466.91
888.967	3477.76
889.284	3478.67
889.6	3466.46
889.917	3479.12
890.233	3467.82
890.55	3448.38
890.866	3453.81
891.182	3451.77
891.498	3428.72
891.815	3407.26
892.131	3421.72
892.447	3439.8
892.763	3412.9
893.079	3426.01
893.395	3363.41
893.71	3381.04
894.026	3370.87
894.342	3353.47
894.657	3345.79
894.973	3323.64
895.289	3313.02
895.604	3304.43
895.92	3264.43
896.235	3264.43
896.55	3259.01
896.865	3273.47
897.181	3253.13
897.496	3267.15
897.811	3285.22
898.126	3211.78
898.441	3167.04
898.756	3212.91
899.071	3176.53
899.386	3186.47
899.7	3164.78
900.015	3142.63
900.33	3127.04
900.644	3158
900.959	3160.93
901.273	3132.01
901.588	3134.72
901.902	3106.02
902.216	3135.85
902.531	3112.8
902.845	3102.63
903.159	3106.92
903.473	3057.66
903.787	3017.21
904.101	3024.44
904.415	3026.25
904.729	3033.93
905.042	3012.01
905.356	3001.62
905.67	2977.44
905.984	2979.24
906.297	2972.46
906.611	2961.39
906.924	2948.96
907.237	2968.62
907.551	2946.7
907.864	2885.01
908.177	2921.39
908.491	2914.39
908.804	2880.49
909.117	2889.98
909.43	2882.75
909.743	2821.28
910.056	2849.53
910.368	2845.91
910.681	2866.25
910.994	2805.46
911.307	2841.62
911.619	2782.64
911.932	2817.21
912.244	2769.76
912.557	2789.42
912.869	2756.2
913.181	2760.72
913.494	2729.08
913.806	2731.57
914.118	2753.49
914.43	2694.28
914.742	2695.64
915.054	2682.53
915.366	2655.41
915.678	2662.87
915.99	2665.81
916.302	2626.26
916.613	2641.17
916.925	2591.23
917.236	2625.13
917.548	2569.08
917.859	2635.07
918.171	2550.1
918.482	2590.1
918.794	2598.24
919.105	2600.95
919.416	2539.93
919.727	2555.3
920.038	2562.53
920.349	2539.71
920.66	2519.37
920.971	2509.65
921.282	2480.27
921.593	2455.19
921.903	2474.85
922.214	2450.9
922.525	2460.61
922.835	2464
923.146	2439.82
923.456	2462.65
923.767	2440.5
924.077	2449.77
924.387	2378.36
924.697	2386.26
925.008	2412.93
925.318	2388.3
925.628	2376.1
925.938	2353.95
926.248	2318.92
926.558	2365.02
926.867	2332.48
927.177	2345.36
927.487	2346.72
927.796	2320.73
928.106	2297.45
928.416	2284.12
928.725	2250.68
929.034	2294.52
929.344	2248.87
929.653	2256.1
929.962	2252.71
930.271	2253.16
930.581	2228.98
930.89	2230.34
931.199	2219.26
931.508	2200.96
931.817	2170.45
932.125	2188.3
932.434	2134.29
932.743	2148.31
933.051	2161.41
933.36	2135.2
933.669	2160.51
933.977	2144.69
934.286	2094.97
934.594	2137.23
934.902	2138.59
935.21	2129.32
935.519	2111.47
935.827	2099.49
936.135	2083
936.443	2067.63
936.751	2095.88
937.059	2077.35
937.367	2036.44
937.674	2068.76
937.982	2043.22
938.29	2054.52
938.597	2006.39
938.905	2043.45
939.213	1992.83
939.52	2002.55
939.827	2003.22
940.135	2017.01
940.442	2010.68
940.749	1961.87
941.056	1959.16
941.363	1964.36
941.67	1951.25
941.977	1936.56
942.284	1929.78
942.591	1905.6
942.898	1924.13
943.205	1910.35
943.511	1931.59
943.818	1910.12
944.125	1849.78
944.431	1851.59
944.738	1847.75
945.044	1859.27
945.35	1852.49
945.657	1845.49
945.963	1842.32
946.269	1826.96
946.575	1806.85
946.881	1817.47
947.187	1811.36
947.493	1786.28
947.799	1789.22
948.105	1791.25
948.41	1796.68
948.716	1774.3
949.022	1771.37
949.327	1755.32
949.633	1771.82
949.938	1756.23
950.244	1729.33
950.549	1758.03
950.854	1750.35
951.16	1737.69
951.465	1732.72
951.77	1729.56
952.075	1711.03
952.38	1718.71
952.685	1699.96
952.99	1699.96
953.294	1691.37
953.599	1672.61
953.904	1653.85
954.209	1657.02
954.513	1666.96
954.818	1638.04
955.122	1646.4
955.426	1628.77
955.731	1589.45
956.035	1625.83
956.339	1625.83
956.643	1616.79
956.948	1609.11
957.252	1615.44
957.556	1602.1
957.86	1600.52
958.163	1612.05
958.467	1606.17
958.771	1590.81
959.075	1576.34
959.378	1560.75
959.682	1553.97
959.985	1522.78
960.289	1526.85
960.592	1518.49
960.896	1525.27
961.199	1493.86
961.502	1523.01
961.805	1506.51
962.108	1520.52
962.411	1518.72
962.714	1479.4
963.017	1489.79
963.32	1498.38
963.623	1483.69
963.926	1490.92
964.228	1466.74
964.531	1471.49
964.833	1483.01
965.136	1450.24
965.438	1438.72
965.741	1444.82
966.043	1455.44
966.345	1429.68
966.648	1430.13
966.95	1460.19
967.252	1430.13
967.554	1384.48
967.856	1399.62
968.158	1393.75
968.46	1403.92
968.761	1418.15
969.063	1415.67
969.365	1359.4
969.666	1367.99
969.968	1367.53
970.269	1358.72
970.571	1360.53
970.872	1362.56
971.174	1347.2
971.475	1334.32
971.776	1342.45
972.077	1338.38
972.378	1318.95
972.679	1337.48
972.98	1314.65
973.281	1317.14
973.582	1310.36
973.883	1312.39
974.183	1266.29
974.484	1297.93
974.785	1276.92
975.085	1274.43
975.386	1293.41
975.686	1257.93
975.986	1263.36
976.287	1251.38
976.587	1267.42
976.887	1253.87
977.187	1237.59
977.487	1244.6
977.787	1251.15
978.087	1234.66
978.387	1230.36
978.687	1251.61
978.987	1228.78
979.286	1231.49
979.586	1216.35
979.885	1240.08
980.185	1231.95
980.484	1200.31
980.784	1214.09
981.083	1194.66
981.382	1201.44
981.682	1172.74
981.981	1198.95
982.28	1191.72
982.579	1157.6
982.878	1154.66
983.177	1193.53
983.475	1180.42
983.774	1140.42
984.073	1157.14
984.372	1137.03
984.67	1144.04
984.969	1151.27
985.267	1129.8
985.566	1121.21
985.864	1127.31
986.162	1108.11
986.461	1152.85
986.759	1112.17
987.057	1120.54
987.355	1105.62
987.653	1118.28
987.951	1069.92
988.249	1131.38
988.547	1083.47
988.844	1102.46
989.142	1094.77
989.44	1080.54
989.737	1079.18
990.035	1087.54
990.332	1071.72
990.63	1073.08
990.927	1066.07
991.224	1063.36
991.521	1067.43
991.819	1040.76
992.116	1041.44
992.413	1049.35
992.71	1048.45
993.006	1042.12
993.303	1021.1
993.6	1012.52
993.897	1007.09
994.193	1009.35
994.49	1040.76
994.787	1021.33
995.083	1033.53
995.379	994.66
995.676	993.76
995.972	993.53
996.268	1000.76
996.565	982.01
996.861	985.85
997.157	974.1
997.453	968.68
997.749	974.1
998.044	940.65
998.34	968
998.636	965.06
998.932	951.73
999.227	962.12
999.523	945.17
999.818	925.29
1000.114	950.6
1000.409	951.95
1000.704	944.49
1001	939.75
1001.295	925.74
1001.59	936.13
1001.885	928.22
1002.18	930.94
1002.475	913.54
1002.77	914.44
1003.065	910.6
1003.359	914.67
1003.654	902.01
1003.949	915.34
1004.243	894.33
1004.538	874.89
1004.832	899.98
1005.127	871.28
1005.421	871.95
1005.715	906.08
1006.009	874.89
1006.304	864.72
1006.598	850.26
1006.892	849.13
1007.186	880.09
1007.48	832.41
1007.773	852.29
1008.067	834.44
1008.361	846.19
1008.655	828.11
1008.948	836.93
1009.242	856.14
1009.535	826.98
1009.829	823.14
1010.122	790.15
1010.415	813.65
1010.708	835.57
1011.001	821.11
1011.295	809.36
1011.588	786.31
1011.881	801
1012.173	795.12
1012.466	799.87
1012.759	793.54
1013.052	767.55
1013.344	781.79
1013.637	771.84
1013.93	777.49
1014.222	780.43
1014.514	784.95
1014.807	759.87
1015.099	768
1015.391	751.28
1015.683	766.87
1015.976	736.82
1016.268	738.17
1016.56	731.62
1016.851	733.2
1017.143	731.85
1017.435	759.87
1017.727	745.86
1018.018	740.21
1018.31	712.41
1018.602	694.78
1018.893	723.94
1019.185	709.7
1019.476	686.87
1019.767	707.21
1020.058	682.35
1020.35	712.64
1020.641	690.49
1020.932	704.95
1021.223	678.29
1021.514	697.5
1021.804	689.36
1022.095	689.81
1022.386	694.11
1022.677	662.92
1022.967	668.8
1023.258	662.02
1023.548	656.59
1023.839	672.64
1024.129	661.56
1024.419	642.36
1024.709	651.17
1025	653.88
1025.29	662.02
1025.58	626.31
1025.87	651.4
1026.16	624.05
1026.449	648.23
1026.739	636.71
1027.029	628.12
1027.319	640.32
1027.608	635.8
1027.898	624.73
1028.187	629.7
1028.477	621.57
1028.766	622.47
1029.055	608.91
1029.344	594.45
1029.634	628.57
1029.923	603.71
1030.212	591.74
1030.501	610.94
1030.79	604.39
1031.078	592.19
1031.367	610.49
1031.656	592.19
1031.945	574.34
1032.233	588.12
1032.522	575.69
1032.81	590.83
1033.099	559.19
1033.387	569.36
1033.675	575.47
1033.963	549.93
1034.251	578.18
1034.54	567.78
1034.828	545.18
1035.116	549.03
1035.403	556.26
1035.691	562.13
1035.979	542.92
1036.267	531.62
1036.554	548.12
1036.842	537.73
1037.129	542.02
1037.417	536.37
1037.704	561.23
1037.992	552.64
1038.279	528.01
1038.566	537.5
1038.853	537.5
1039.14	537.5
