Data from black_metal_pc_casing_FLMS001491_00033.txt Node
Date: Wed Feb 08 14:32:34 GMT 2017
User: dcchb
Spectrometer: FLMS00149
Trigger mode: 0
Integration Time (sec): 2.000000E-2
Scans to average: 10
Electric dark correction enabled: true
Nonlinearity correction enabled: false
Boxcar width: 0
XAxis mode: Wavelengths
Number of Pixels in Spectrum: 2048
>>>>>Begin Spectral Data<<<<<
341.393	-0.1
341.776	-0.1
342.16	-0.1
342.543	-69.48
342.927	-70.38
343.31	-52.53
343.693	-49.82
344.077	-70.61
344.46	-61.57
344.843	-76.03
345.226	-47.1
345.61	-39.65
345.993	-4.62
346.376	-17.05
346.759	18.43
347.142	12.56
347.525	36.74
347.908	67.24
348.291	66.57
348.674	97.53
349.057	119.9
349.44	112.44
349.823	140.69
350.206	176.62
350.588	165.77
350.971	188.14
351.354	211.2
351.737	229.73
352.119	236.05
352.502	250.52
352.884	265.66
353.267	268.82
353.65	270.63
354.032	273.11
354.414	276.5
354.797	298.88
355.179	323.73
355.562	306.79
355.944	315.83
356.326	326.22
356.709	308.82
357.091	305.2
357.473	326.9
357.855	345.88
358.238	336.84
358.62	321.93
359.002	326.67
359.384	334.81
359.766	329.61
360.148	343.17
360.53	330.29
360.912	309.95
361.294	321.02
361.676	319.21
362.057	321.02
362.439	349.95
362.821	319.89
363.203	332.77
363.584	324.86
363.966	317.63
364.348	331.87
364.729	298.42
365.111	311.98
365.493	336.39
365.874	307.01
366.256	331.64
366.637	318.54
367.019	287.8
367.4	322.38
367.781	310.18
368.163	298.2
368.544	325.99
368.925	324.41
369.306	311.08
369.688	293.23
370.069	305.66
370.45	315.6
370.831	305.88
371.212	310.63
371.593	317.18
371.974	302.49
372.355	303.17
372.736	343.39
373.117	302.04
373.498	300.23
373.879	319.44
374.26	301.81
374.641	337.29
375.021	313.79
375.402	317.41
375.783	300.23
376.163	326.45
376.544	332.1
376.925	314.02
377.305	322.38
377.686	325.54
378.066	332.77
378.447	325.54
378.827	326.67
379.208	317.63
379.588	319.89
379.968	314.24
380.349	343.62
380.729	331.87
381.109	324.86
381.489	336.62
381.87	333.23
382.25	331.64
382.63	344.52
383.01	342.49
383.39	333.68
383.77	357.18
384.15	342.94
384.53	338.88
384.91	337.29
385.29	355.82
385.67	331.19
386.049	364.41
386.429	351.76
386.809	343.85
387.189	357.18
387.568	366.22
387.948	370.74
388.328	379.33
388.707	367.58
389.087	359.44
389.466	375.71
389.846	367.12
390.225	376.39
390.605	379.55
390.984	375.71
391.363	373
391.743	367.58
392.122	389.5
392.501	375.48
392.881	371.64
393.26	376.39
393.639	381.59
394.018	388.59
394.397	408.03
394.776	388.14
395.155	400.79
395.534	404.86
395.913	412.55
396.292	422.26
396.671	409.38
397.05	384.52
397.429	416.61
397.808	404.86
398.186	385.43
398.565	411.87
398.944	410.06
399.323	393.11
399.701	403.28
400.08	390.63
400.458	414.58
400.837	421.36
401.215	455.03
401.594	427.46
401.972	419.55
402.351	415.94
402.729	427.46
403.107	443.96
403.486	416.16
403.864	439.21
404.242	425.65
404.62	424.07
404.999	438.76
405.377	456.84
405.755	442.15
406.133	446.44
406.511	448.25
406.889	443.96
407.267	463.84
407.645	449.61
408.023	471.75
408.401	482.6
408.779	463.39
409.156	486.67
409.534	455.71
409.912	478.31
410.29	490.28
410.667	485.54
411.045	488.93
411.422	486.22
411.8	501.81
412.178	493.9
412.555	489.15
412.933	505.42
413.31	514.69
413.687	505.65
414.065	512.43
414.442	535.03
414.819	520.57
415.197	519.21
415.574	536.16
415.951	541.81
416.328	518.08
416.705	525.76
417.082	564.63
417.46	545.88
417.837	539.77
418.214	552.65
418.591	555.82
418.967	568.93
419.344	574.12
419.721	565.76
420.098	548.59
420.475	567.57
420.852	563.73
421.228	576.61
421.605	607.34
421.982	574.12
422.358	614.8
422.735	592.43
423.111	583.84
423.488	593.78
423.864	608.47
424.241	630.84
424.617	622.94
424.994	626.33
425.37	616.61
425.746	624.29
426.123	640.79
426.499	632.88
426.875	617.74
427.251	662.71
427.627	660.45
428.003	658.41
428.379	663.39
428.756	679.43
429.132	669.49
429.507	679.21
429.883	687.79
430.259	687.79
430.635	710.16
431.011	708.13
431.387	703.39
431.763	739.99
432.138	709.26
432.514	746.55
432.89	747.23
433.265	763.04
433.641	758.07
434.016	760.11
434.392	778.19
434.767	778.64
435.143	771.63
435.518	791.07
435.894	789.94
436.269	787.23
436.644	805.98
437.02	808.02
437.395	813.21
437.77	820.22
438.145	823.16
438.52	805.98
438.895	843.95
439.271	840.56
439.646	855.25
440.021	850.05
440.395	847.56
440.77	850.27
441.145	860.44
441.52	892.53
441.895	881.91
442.27	898.63
442.645	874.68
443.019	881.46
443.394	894.11
443.769	921.68
444.143	883.95
444.518	913.55
444.892	897.05
445.267	899.31
445.641	931.63
446.016	917.17
446.39	932.98
446.764	951.74
447.139	957.39
447.513	951.06
447.887	932.76
448.262	966.43
448.636	976.82
449.01	968.01
449.384	955.81
449.758	985.41
450.132	981.57
450.506	980.44
450.88	999.87
451.254	994.23
451.628	999.65
452.002	1025.86
452.376	1028.35
452.75	1037.16
453.123	1038.74
453.497	1069.7
453.871	1075.58
454.244	1060.44
454.618	1085.75
454.992	1090.27
455.365	1112.64
455.739	1125.75
456.112	1155.58
456.486	1141.11
456.859	1156.03
457.232	1147.44
457.606	1157.16
457.979	1173.66
458.352	1179.98
458.725	1176.59
459.099	1217.04
459.472	1217.5
459.845	1268.79
460.218	1257.5
460.591	1233.99
460.964	1248.68
461.337	1277.38
461.71	1319.41
462.083	1324.16
462.456	1325.52
462.829	1324.39
463.201	1351.5
463.574	1338.4
463.947	1366.87
464.32	1388.11
464.692	1387.44
465.065	1400.54
465.438	1436.7
465.81	1467.66
466.183	1441.22
466.555	1467.43
466.928	1492.74
467.3	1476.02
467.672	1472.4
468.045	1542.01
468.417	1540.43
468.789	1559.41
469.161	1567.09
469.534	1577.26
469.906	1638.73
470.278	1645.96
470.65	1649.8
471.022	1703.36
471.394	1684.15
471.766	1736.13
472.138	1739.52
472.51	1754.88
472.882	1760.98
473.253	1808.44
473.625	1798.05
473.997	1851.38
474.369	1843.92
474.74	1885.5
475.112	1939.96
475.484	1940.64
475.855	1979.96
476.227	1979.96
476.598	2056.12
476.97	2020.86
477.341	2067.42
477.713	2102.22
478.084	2124.37
478.455	2160.97
478.827	2179.96
479.198	2247.07
479.569	2249.56
479.94	2304.93
480.311	2316.68
480.682	2370.69
481.053	2390.35
481.424	2451.14
481.795	2450.23
482.166	2490.23
482.537	2527.07
482.908	2587.63
483.279	2571.58
483.65	2617.23
484.021	2717.57
484.391	2708.76
484.762	2743.56
485.133	2786.49
485.503	2793.73
485.874	2836.89
486.244	2878.47
486.615	2911.01
486.985	2954.85
487.356	3000.73
487.726	3059.71
488.097	3074.85
488.467	3081.4
488.837	3160.04
489.207	3169.54
489.578	3200.49
489.948	3270.32
490.318	3316.88
490.688	3305.12
491.058	3378.8
491.428	3383.31
491.798	3420.6
492.168	3502.41
492.538	3494.27
492.908	3527.27
493.278	3591.9
493.648	3578.11
494.017	3592.8
494.387	3666.92
494.757	3696.3
495.126	3698.79
495.496	3717.54
495.866	3743.53
496.235	3829.18
496.605	3836.86
496.974	3874.6
497.344	3864.43
497.713	3912.79
498.082	3933.36
498.452	3964.99
498.821	4012.23
499.19	4002.96
499.559	4096.52
499.928	4067.82
500.298	4101.26
500.667	4112.11
501.036	4131.77
501.405	4143.97
501.774	4206.12
502.143	4202.28
502.512	4262.39
502.88	4281.14
503.249	4319.11
503.618	4355.94
503.987	4383.29
504.356	4373.35
504.724	4412.89
505.093	4417.86
505.462	4439.56
505.83	4488.82
506.199	4513.68
506.567	4581.25
506.936	4548.48
507.304	4618.08
507.672	4603.62
508.041	4660.12
508.409	4771.98
508.777	4719.55
509.145	4756.61
509.514	4772.43
509.882	4806.55
510.25	4840
510.618	4875.71
510.986	4887.46
511.354	4941.47
511.722	4979.66
512.09	5053.78
512.458	5006.78
512.826	5033.89
513.193	5106.89
513.561	5079.32
513.929	5178.07
514.297	5149.14
514.664	5265.98
515.032	5274.34
515.4	5306.43
515.767	5324.28
516.135	5350.72
516.502	5340.55
516.869	5385.75
517.237	5446.76
517.604	5440.66
517.972	5501
518.339	5546.65
518.706	5582.35
519.073	5602.01
519.44	5609.02
519.808	5724.95
520.175	5656.7
520.542	5746.42
520.909	5866.41
521.276	5873.42
521.643	5882.46
522.009	5962.23
522.376	6024.38
522.743	5978.5
523.11	6063.47
523.477	6059.4
523.843	6186.86
524.21	6189.12
524.577	6266.18
524.943	6280.87
525.31	6326.74
525.676	6380.07
526.043	6409.22
526.409	6482.44
526.776	6534.19
527.142	6582.55
527.508	6569.22
527.874	6627.75
528.241	6698.03
528.607	6707.97
528.973	6785.26
529.339	6790.46
529.705	6820.06
530.071	6943
530.437	6931.24
530.803	6960.4
531.169	7006.27
531.535	7005.14
531.901	7013.95
532.267	7097.12
532.632	7098.7
532.998	7187.96
533.364	7166.94
533.73	7253.5
534.095	7298.69
534.461	7317
534.826	7376.88
535.192	7423.66
535.557	7436.99
535.923	7469.08
536.288	7438.58
536.653	7514.73
537.019	7542.08
537.384	7505.92
537.749	7625.46
538.114	7600.61
538.479	7608.97
538.845	7644.22
539.21	7692.81
539.575	7671.79
539.94	7771.22
540.305	7795.4
540.67	7763.31
541.034	7797.66
541.399	7909.07
541.764	7890.99
542.129	7955.85
542.494	7926.02
542.858	7954.49
543.223	7998.56
543.587	8083.98
543.952	8039.92
544.316	8164.21
544.681	8114.49
545.045	8164.43
545.41	8208.05
545.774	8226.58
546.138	8216.41
546.503	8279.91
546.867	8209.63
547.231	8326.46
547.595	8340.92
547.959	8354.03
548.324	8376.63
548.688	8422.96
549.052	8409.85
549.416	8414.82
549.779	8427.93
550.143	8519.9
550.507	8621.37
550.871	8602.39
551.235	8599.22
551.599	8704.98
551.962	8702.05
552.326	8731.65
552.689	8766
553.053	8751.99
553.417	8789.73
553.78	8901.36
554.143	8807.81
554.507	8943.85
554.87	8940.91
555.234	9043.05
555.597	8919.89
555.96	9009.16
556.323	9111.53
556.686	9137.06
557.05	9150.17
557.413	9158.76
557.776	9144.97
558.139	9293.89
558.502	9300
558.865	9275.59
559.228	9378.86
559.59	9446.88
559.953	9464.74
560.316	9517.39
560.679	9556.71
561.041	9612.53
561.404	9572.3
561.767	9641.91
562.129	9610.27
562.492	9751.51
562.854	9773.88
563.217	9732.75
563.579	9878.96
563.941	9897.95
564.304	9988.11
564.666	9962.35
565.028	10010.49
565.39	10047.77
565.753	10092.52
566.115	10182.23
566.477	10241.67
566.839	10184.94
567.201	10283.02
567.563	10302.91
567.925	10341.1
568.287	10347.43
568.648	10417.25
569.01	10442.56
569.372	10638.94
569.734	10552.17
570.095	10619.73
570.457	10678.26
570.819	10635.1
571.18	10669.45
571.542	10758.04
571.903	10727.53
572.265	10820.41
572.626	10812.05
572.987	10896.34
573.349	10974.98
573.71	11031.48
574.071	10950.57
574.432	10964.13
574.794	11137.01
575.155	11101.98
575.516	11033.51
575.877	11057.01
576.238	11218.82
576.599	11236.22
576.96	11113.96
577.32	11179.27
577.681	11235.09
578.042	11274.18
578.403	11232.6
578.763	11203
579.124	11312.15
579.485	11326.83
579.845	11380.17
580.206	11334.29
580.566	11337.68
580.927	11414.97
581.287	11358.7
581.648	11362.99
582.008	11402.54
582.368	11383.1
582.728	11459.26
583.089	11412.03
583.449	11405.93
583.809	11432.37
584.169	11448.41
584.529	11487.28
584.889	11497.45
585.249	11486.38
585.609	11447.06
585.969	11501.29
586.329	11435.53
586.688	11495.64
587.048	11474.85
587.408	11449.77
587.768	11459.03
588.127	11507.4
588.487	11478.47
588.846	11499.71
589.206	11465.36
589.565	11536.32
589.925	11525.25
590.284	11439.6
590.643	11542.2
591.003	11539.48
591.362	11550.56
591.721	11527.51
592.08	11522.08
592.44	11592.36
592.799	11572.93
593.158	11584.68
593.517	11578.81
593.876	11531.58
594.235	11588.07
594.593	11545.59
594.952	11586.26
595.311	11603.44
595.67	11604.12
596.029	11676.88
596.387	11634.17
596.746	11599.14
597.104	11602.31
597.463	11581.07
597.822	11663.1
598.18	11638.01
598.538	11646.15
598.897	11654.06
599.255	11625.13
599.613	11724.11
599.972	11689.76
600.33	11653.15
600.688	11709.65
601.046	11709.2
601.404	11746.03
601.762	11722.76
602.12	11756.2
602.478	11878.23
602.836	11901.06
603.194	11748.74
603.552	11767.95
603.91	11778.35
604.268	11912.81
604.625	11827.39
604.983	11878.46
605.341	11854.73
605.698	11922.53
606.056	11854.96
606.413	11918.23
606.771	11924.56
607.128	11926.14
607.485	11892.7
607.843	11895.63
608.2	11942.19
608.557	12001.39
608.914	11918.23
609.272	12136.31
609.629	12031.68
609.986	12118.45
610.343	12090.66
610.7	12130.88
611.057	12073.03
611.414	12124.33
611.771	12111.9
612.127	12129.75
612.484	12128.62
612.841	12112.8
613.198	12177.43
613.554	12153.03
613.911	12243.65
614.267	12199.58
614.624	12183.31
614.98	12213.14
615.337	12229.41
615.693	12300.59
616.05	12219.92
616.406	12270.54
616.762	12229.18
617.118	12227.6
617.475	12272.12
617.831	12308.73
618.187	12415.39
618.543	12349.18
618.899	12412
619.255	12386.24
619.611	12372.91
619.967	12454.04
620.323	12365.45
620.678	12394.15
621.034	12368.62
621.39	12379.69
621.746	12390.76
622.101	12440.7
622.457	12358.45
622.812	12376.75
623.168	12451.1
623.523	12449.52
623.879	12475.51
624.234	12412.23
624.589	12480.02
624.945	12530.65
625.3	12463.08
625.655	12433.47
626.01	12398.9
626.365	12475.73
626.72	12425.11
627.075	12458.1
627.43	12478.44
627.785	12335.4
628.14	12443.87
628.495	12478.67
628.85	12417.65
629.205	12326.58
629.559	12412.46
629.914	12337.43
630.269	12409.52
630.623	12270.31
630.978	12308.73
631.332	12332.46
631.687	12432.34
632.041	12313.7
632.396	12330.2
632.75	12320.93
633.104	12350.08
633.459	12267.6
633.813	12232.12
634.167	12280.71
634.521	12264.66
634.875	12246.81
635.229	12293.82
635.583	12158.45
635.937	12199.58
636.291	12129.07
636.645	12192.57
636.999	12140.82
637.352	12133.14
637.706	12107.83
638.06	12095.18
638.413	12056.31
638.767	12134.5
639.121	12147.15
639.474	12016.53
639.828	12057.89
640.181	12113.48
640.534	12008.85
640.888	11929.76
641.241	12016.08
641.594	11962.75
641.947	11944.67
642.301	11920.27
642.654	11952.81
643.007	11927.72
643.36	11939.47
643.713	11891.79
644.066	11960.49
644.419	11858.35
644.771	11788.52
645.124	11670.1
645.477	11636.43
645.83	11631.69
646.182	11463.1
646.535	11501.52
646.888	11551.24
647.24	11538.13
647.593	11619.26
647.945	11468.75
648.298	11480.73
648.65	11362.09
649.002	11286.16
649.355	11444.12
649.707	11379.49
650.059	11458.13
650.411	11655.64
650.763	11611.12
651.115	11644.11
651.467	11662.42
651.819	11619.71
652.171	11639.14
652.523	11600.73
652.875	11554.63
653.227	11537.22
653.578	11699.48
653.93	11613.16
654.282	11534.29
654.633	11501.07
654.985	11548.98
655.337	11551.01
655.688	11547.39
656.039	11592.82
656.391	11467.17
656.742	11464.46
657.094	11492.03
657.445	11458.81
657.796	11499.94
658.147	11398.02
658.498	11439.83
658.849	11411.35
659.2	11377.23
659.551	11382.65
659.902	11487.51
660.253	11447.06
660.604	11434.63
660.955	11419.49
661.306	11413.16
661.656	11480.5
662.007	11368.87
662.358	11480.28
662.708	11401.64
663.059	11423.33
663.409	11319.15
663.76	11327.96
664.11	11361.18
664.461	11350.34
664.811	11414.74
665.161	11344.91
665.511	11304.69
665.862	11356.89
666.212	11335.2
666.562	11340.17
666.912	11312.6
667.262	11355.31
667.612	11283.9
667.962	11367.96
668.312	11341.52
668.662	11374.74
669.011	11374.07
669.361	11339.04
669.711	11337.46
670.06	11276.67
670.41	11242.32
670.76	11246.84
671.109	11333.61
671.459	11292.71
671.808	11211.13
672.157	11254.75
672.507	11152.6
672.856	11190.12
673.205	11172.94
673.554	11206.84
673.904	11117.57
674.253	11264.01
674.602	11183.79
674.951	11021.76
675.3	10973.85
675.649	11122.09
675.998	11110.8
676.346	11158.03
676.695	11124.81
677.044	11096.33
677.393	11144.24
677.741	11173.62
678.09	11078.93
678.438	11022.66
678.787	11032.83
679.135	11047.07
679.484	11002.55
679.832	11027.63
680.181	10930.24
680.529	10956.22
680.877	10978.6
681.225	10922.1
681.573	11010.01
681.922	10868.54
682.27	10892.27
682.618	10968.65
682.966	10869.22
683.314	10815.21
683.661	10877.81
684.009	10774.99
684.357	10870.58
684.705	10789.67
685.053	10759.62
685.4	10870.58
685.748	10778.6
686.095	10677.13
686.443	10671.48
686.79	10663.35
687.138	10681.43
687.485	10613.18
687.832	10669.23
688.18	10570.7
688.527	10634.88
688.874	10544.26
689.221	10565.95
689.568	10567.98
689.915	10463.81
690.262	10532.28
690.609	10494.77
690.956	10472.62
691.303	10385.62
691.65	10327.54
691.997	10383.58
692.344	10364.83
692.69	10204.83
693.037	10234.21
693.383	10199.18
693.73	10223.59
694.077	10184.72
694.423	10172.29
694.769	10079.41
695.116	10155.11
695.462	10135.23
695.808	10125.28
696.155	10097.71
696.501	10007.1
696.847	10035.12
697.193	9948.11
697.539	10016.81
697.885	9933.88
698.231	9878.06
698.577	9863.37
698.923	9897.27
699.269	9852.3
699.614	9804.39
699.96	9775.46
700.306	9759.87
700.651	9687.56
700.997	9656.82
701.342	9652.3
701.688	9682.58
702.033	9606.65
702.379	9561.23
702.724	9538.86
703.069	9667.44
703.415	9562.36
703.76	9528.69
704.105	9562.81
704.45	9537.05
704.795	9428.81
705.14	9444.85
705.485	9385.42
705.83	9392.2
706.175	9316.49
706.52	9337.96
706.865	9301.8
707.209	9293.89
707.554	9236.95
707.899	9235.14
708.243	9202.6
708.588	9246.44
708.932	9216.38
709.277	9181.58
709.621	9172.54
709.966	9105.88
710.31	9127.8
710.654	9105.88
710.998	9112.2
711.342	9099.55
711.687	9065.65
712.031	9014.35
712.375	9046.44
712.719	8987.69
713.063	9010.51
713.407	9011.19
713.75	8942.49
714.094	8951.08
714.438	8925.77
714.782	8892.77
715.125	8890.74
715.469	8904.75
715.812	8846.67
716.156	8815.04
716.499	8753.8
716.843	8801.25
717.186	8765.55
717.53	8832.44
717.873	8777.52
718.216	8748.82
718.559	8763.96
718.902	8668.83
719.246	8706.56
719.589	8653.91
719.932	8601.48
720.275	8579.79
720.617	8620.47
720.96	8580.01
721.303	8571.88
721.646	8639.45
721.989	8559.22
722.331	8620.69
722.674	8493.92
723.016	8563.07
723.359	8556.96
723.701	8526
724.044	8435.84
724.386	8395.39
724.729	8390.41
725.071	8427.7
725.413	8483.97
725.755	8392.9
726.097	8414.82
726.439	8322.62
726.782	8340.25
727.124	8387.25
727.465	8301.6
727.807	8315.39
728.149	8265.9
728.491	8270.19
728.833	8356.52
729.175	8213.47
729.516	8223.87
729.858	8204.88
730.199	8283.07
730.541	8220.02
730.882	8221.61
731.224	8156.97
731.565	8199.23
731.906	8155.39
732.248	8221.61
732.589	8156.52
732.93	8117.65
733.271	8083.98
733.612	8102.51
733.953	8133.47
734.294	8098.45
734.635	8090.54
734.976	8134.15
735.317	8071.1
735.658	8062.74
735.999	8017.54
736.339	8080.14
736.68	8038.56
737.021	8075.4
737.361	8041.95
737.702	7975.28
738.042	7956.08
738.383	7908.39
738.723	7914.72
739.063	7949.97
739.404	7945.68
739.744	7912.46
740.084	7865.68
740.424	7959.24
740.764	7839.92
741.104	7905
741.444	7850.54
741.784	7847.38
742.124	7834.95
742.464	7751.79
742.804	7840.37
743.143	7797.89
743.483	7814.84
743.823	7704.56
744.162	7741.84
744.502	7737.55
744.841	7741.84
745.181	7768.28
745.52	7710.43
745.86	7734.61
746.199	7656.65
746.538	7770.32
746.877	7660.94
747.216	7651.68
747.556	7630.66
747.895	7703.2
748.234	7634.73
748.573	7623.66
748.911	7643.32
749.25	7573.71
749.589	7574.39
749.928	7547.95
750.267	7542.98
750.605	7564.9
750.944	7573.71
751.283	7445.36
751.621	7493.94
751.96	7415.75
752.298	7458.91
752.636	7469.31
752.975	7437.9
753.313	7357.45
753.651	7466.82
753.989	7371.23
754.327	7350.67
754.666	7331.69
755.004	7288.75
755.342	7343.21
755.679	7289.43
756.017	7170.11
756.355	7306.6
756.693	7206.04
757.031	7217.34
757.368	7183.89
757.706	7169.43
758.044	7146.83
758.381	7132.82
758.719	7148.19
759.056	7157.68
759.394	7096.44
759.731	7069.55
760.068	7086.49
760.405	7021.19
760.743	7027.74
761.08	7061.18
761.417	6987.51
761.754	6955.2
762.091	6980.51
762.428	6962.66
762.765	6866.39
763.102	6880.4
763.438	6816.67
763.775	6864.81
764.112	6897.12
764.449	6854.64
764.785	6779.61
765.122	6794.3
765.458	6699.84
765.795	6806.05
766.131	6707.97
766.467	6756.33
766.804	6740.29
767.14	6618.94
767.476	6663
767.812	6598.37
768.148	6634.08
768.485	6640.63
768.821	6586.62
769.157	6574.87
769.492	6481.31
769.828	6522.67
770.164	6437.92
770.5	6436.12
770.836	6451.26
771.171	6413.52
771.507	6410.13
771.842	6354.99
772.178	6333.97
772.513	6323.58
772.849	6312.73
773.184	6244.93
773.519	6264.14
773.855	6274.54
774.19	6215.56
774.525	6227.53
774.86	6216.91
775.195	6199.51
775.53	6186.63
775.865	6170.36
776.2	6083.81
776.535	6029.12
776.87	6047.43
777.205	6055.56
777.539	6016.01
777.874	6029.12
778.209	6023.25
778.543	5915.68
778.878	5947.99
779.212	5957.71
779.547	5905.73
779.881	5882.46
780.215	5873.42
780.55	5888.11
780.884	5846.3
781.218	5809.24
781.552	5829.8
781.886	5797.71
782.22	5773.99
782.554	5723.37
782.888	5648.79
783.222	5672.07
783.556	5632.3
783.889	5659.64
784.223	5616.02
784.557	5584.16
784.89	5618.28
785.224	5571.96
785.557	5513.2
785.891	5541.9
786.224	5546.65
786.558	5492.19
786.891	5439.76
787.224	5465.07
787.557	5465.29
787.891	5418.52
788.224	5422.13
788.557	5378.74
788.89	5393.66
789.223	5410.61
789.556	5354.79
789.888	5288.12
790.221	5366.31
790.554	5341.46
790.887	5265.98
791.219	5234.11
791.552	5223.72
791.884	5232.08
792.217	5230.27
792.549	5245.64
792.882	5130.61
793.214	5133.78
793.546	5122.48
793.879	5112.31
794.211	5139.65
794.543	5142.59
794.875	5027.34
795.207	5081.35
795.539	5050.16
795.871	5055.81
796.203	4990.96
796.535	4992.99
796.867	5000.45
797.198	4954.57
797.53	4954.8
797.862	4942.82
798.193	4917.29
798.525	4859.66
798.856	4934.23
799.188	4899.66
799.519	4823.05
799.85	4845.2
800.182	4861.92
800.513	4910.28
800.844	4767.91
801.175	4837.51
801.506	4821.02
801.837	4781.47
802.168	4771.75
802.499	4743.73
802.83	4736.27
803.161	4720.23
803.491	4718.87
803.822	4668.03
804.153	4705.09
804.483	4655.82
804.814	4654.92
805.145	4609.27
805.475	4653.56
805.805	4639.55
806.136	4612.21
806.466	4609.05
806.796	4615.82
807.126	4546.22
807.457	4531.53
807.787	4539.89
808.117	4523.17
808.447	4584.19
808.777	4482.72
809.107	4517.75
809.436	4493.57
809.766	4482.5
810.096	4442.27
810.426	4485.21
810.755	4452.21
811.085	4458.09
811.414	4427.58
811.744	4406.79
812.073	4362.27
812.403	4362.27
812.732	4355.04
813.061	4398.43
813.39	4364.31
813.719	4335.83
814.049	4376.06
814.378	4355.49
814.707	4312.33
815.036	4298.55
815.365	4243.86
815.693	4218.77
816.022	4220.13
816.351	4245.67
816.68	4212.9
817.008	4269.85
817.337	4222.16
817.665	4164.54
817.994	4230.3
818.322	4223.97
818.651	4169.06
818.979	4208.38
819.307	4222.61
819.636	4199.79
819.964	4152.79
820.292	4197.3
820.62	4164.99
820.948	4128.83
821.276	4171.77
821.604	4128.83
821.932	4134.03
822.259	4155.5
822.587	4124.09
822.915	4101.04
823.243	4132
823.57	4115.05
823.898	4139.91
824.225	4088.38
824.553	4122.73
824.88	4118.66
825.207	4112.11
825.535	4113.24
825.862	4125.89
826.189	4117.98
826.516	4150.75
826.843	4147.59
827.17	4130.87
827.497	4130.87
827.824	4114.14
828.151	4114.14
828.478	4148.27
828.805	4128.61
829.131	4080.02
829.458	4129.96
829.785	4111.21
830.111	4089.74
830.438	4145.33
830.764	4086.12
831.09	4097.42
831.417	4117.08
831.743	4082.05
832.069	4086.12
832.395	4106.69
832.722	4098.32
833.048	4101.94
833.374	4091.09
833.7	4044.54
834.026	4101.94
834.351	4075.95
834.677	4070.3
835.003	4051.77
835.329	4083.86
835.654	4047.03
835.98	4072.56
836.306	4082.28
836.631	4042.96
836.956	4093.58
837.282	4052
837.607	4008.84
837.932	3989.63
838.258	4040.47
838.583	4035.28
838.908	3969.97
839.233	3982.17
839.558	3974.94
839.883	3993.47
840.208	3987.14
840.533	3993.24
840.858	3975.84
841.182	3950.53
841.507	3920.02
841.832	3940.14
842.156	3856.52
842.481	3920.48
842.805	3933.13
843.13	3894.49
843.454	3928.61
843.778	3849.29
844.103	3907.37
844.427	3894.94
844.751	3858.56
845.075	3836.64
845.399	3856.3
845.723	3819.69
846.047	3876.64
846.371	3829.86
846.695	3815.17
847.019	3778.33
847.343	3785.11
847.666	3767.71
847.99	3748.96
848.313	3734.94
848.637	3718.67
848.96	3720.03
849.284	3716.41
849.607	3701.95
849.931	3651.56
850.254	3617.89
850.577	3649.07
850.9	3612.69
851.223	3587.83
851.546	3586.47
851.869	3595.51
852.192	3613.14
852.515	3519.58
852.838	3585.8
853.161	3574.72
853.483	3511
853.806	3532.01
854.129	3525.91
854.451	3540.15
854.774	3503.09
855.096	3482.3
855.419	3451.56
855.741	3435.52
856.063	3436.65
856.385	3409.53
856.708	3407.72
857.03	3412.92
857.352	3433.94
857.674	3418.57
857.996	3390.55
858.318	3405.24
858.64	3401.17
858.961	3355.29
859.283	3375.18
859.605	3376.08
859.926	3322.07
860.248	3367.5
860.57	3302.41
860.891	3298.8
861.212	3332.69
861.534	3283.2
861.855	3321.4
862.176	3330.66
862.498	3311.45
862.819	3282.75
863.14	3292.47
863.461	3278.01
863.782	3246.14
864.103	3242.08
864.424	3236.43
864.745	3267.16
865.065	3263.77
865.386	3242.98
865.707	3233.94
866.027	3239.14
866.348	3228.97
866.668	3224
866.989	3233.04
867.309	3243.21
867.63	3236.43
867.95	3223.55
868.27	3155.98
868.59	3211.34
868.91	3202.08
869.23	3137.22
869.55	3157.56
869.87	3181.06
870.19	3160.27
870.51	3125.24
870.83	3149.65
871.15	3151.68
871.469	3130.67
871.789	3139.48
872.109	3187.61
872.428	3127.73
872.748	3135.41
873.067	3107.84
873.386	3143.77
873.706	3118.46
874.025	3135.86
874.344	3089.31
874.663	3108.75
874.982	3098.12
875.301	3105.36
875.62	3044.11
875.939	3028.3
876.258	3062.19
876.577	3065.58
876.896	3049.54
877.214	3069.65
877.533	3032.82
877.852	3034.62
878.17	3015.42
878.489	3006.38
878.807	3017.45
879.125	3055.41
879.444	2999.37
879.762	2991.91
880.08	3021.52
880.398	2993.49
880.716	3018.35
881.034	2994.62
881.352	3024.68
881.67	2985.36
881.988	3014.74
882.306	2963.67
882.624	2969.77
882.941	2978.58
883.259	2964.12
883.577	2946.04
883.894	2921.41
884.212	2912.59
884.529	2904.91
884.846	2926.38
885.164	2917.79
885.481	2916.21
885.798	2891.58
886.115	2896.77
886.432	2889.09
886.75	2889.99
887.067	2887.96
887.383	2841.41
887.7	2905.36
888.017	2861.07
888.334	2824.69
888.651	2859.49
888.967	2875.08
889.284	2837.34
889.6	2839.37
889.917	2803.9
890.233	2810.67
890.55	2823.1
890.866	2875.08
891.182	2808.41
891.498	2774.97
891.815	2769.09
892.131	2750.79
892.447	2768.64
892.763	2770.9
893.079	2744.01
893.395	2784.01
893.71	2701.53
894.026	2761.18
894.342	2733.61
894.657	2720.73
894.973	2717.34
895.289	2701.3
895.604	2696.1
895.92	2671.02
896.235	2672.37
896.55	2696.1
896.865	2678.02
897.181	2660.62
897.496	2673.73
897.811	2644.13
898.126	2642.09
898.441	2628.31
898.756	2603
899.071	2630.11
899.386	2604.58
899.7	2619.49
900.015	2593.28
900.33	2591.47
900.644	2584.92
900.959	2583.79
901.273	2580.4
901.588	2562.32
901.902	2550.34
902.216	2539.72
902.531	2537.46
902.845	2527.97
903.159	2542.21
903.473	2523.68
903.787	2493.17
904.101	2482.55
904.415	2450.23
904.729	2474.41
905.042	2481.64
905.356	2435.77
905.67	2451.36
905.984	2433.06
906.297	2428.09
906.611	2420.85
906.924	2444.36
907.237	2438.26
907.551	2397.8
907.864	2384.47
908.177	2392.83
908.491	2426.96
908.804	2381.31
909.117	2350.12
909.43	2377.69
909.743	2335.88
910.056	2372.95
910.368	2343.12
910.681	2360.52
910.994	2300.41
911.307	2309.22
911.619	2284.36
911.932	2291.37
912.244	2282.78
912.557	2291.37
912.869	2252.27
913.181	2222.67
913.494	2266.73
913.806	2245.27
914.118	2229.67
914.43	2234.42
914.742	2231.48
915.054	2213.4
915.366	2193.52
915.678	2202.33
915.99	2197.13
916.302	2153.52
916.613	2161.88
916.925	2164.59
917.236	2150.13
917.548	2129.79
917.859	2144.25
918.171	2128.21
918.482	2129.79
918.794	2120.98
919.105	2145.16
919.416	2070.58
919.727	2111.71
920.038	2083.91
920.349	2068.77
920.66	2069.68
920.971	2065.16
921.282	2059.73
921.593	2053.86
921.903	2026.97
922.214	2030.81
922.525	2022.22
922.835	2035.1
923.146	1997.81
923.456	1994.65
923.767	2007.53
924.077	1996.01
924.387	1980.41
924.697	1988.1
925.008	1989.68
925.318	1971.37
925.628	1996.46
925.938	1996.01
926.248	1948.78
926.558	1955.33
926.867	1949
927.177	1904.94
927.487	1920.3
927.796	1907.87
928.106	1926.18
928.416	1880.98
928.725	1892.51
929.034	1893.18
929.344	1898.16
929.653	1874.2
929.962	1855.22
930.271	1841.21
930.581	1822.68
930.89	1804.15
931.199	1795.79
931.508	1828.55
931.817	1782.91
932.125	1850.25
932.434	1779.97
932.743	1803.24
933.051	1784.26
933.36	1792.85
933.669	1772.51
933.977	1776.58
934.286	1745.62
934.594	1758.5
934.902	1733.19
935.21	1759.4
935.519	1768.44
935.827	1717.82
936.135	1760.76
936.443	1698.61
936.751	1725.05
937.059	1746.3
937.367	1737.71
937.674	1699.74
937.982	1694.55
938.29	1683.47
938.597	1680.31
938.905	1690.48
939.213	1674.21
939.52	1654.09
939.827	1661.33
940.135	1638.95
940.442	1631.04
940.749	1609.35
941.056	1630.82
941.363	1626.53
941.67	1609.8
941.977	1604.15
942.284	1615.23
942.591	1603.47
942.898	1584.49
943.205	1592.4
943.511	1611.61
943.818	1586.75
944.125	1570.26
944.431	1589.01
944.738	1560.76
945.044	1570.03
945.35	1539.3
945.657	1565.06
945.963	1551.72
946.269	1539.75
946.575	1552.63
946.881	1526.64
947.187	1538.84
947.493	1535.23
947.799	1516.25
948.105	1480.09
948.41	1490.03
948.716	1459.75
949.022	1503.59
949.327	1479.18
949.633	1473.99
949.938	1465.85
950.244	1493.65
950.549	1463.82
950.854	1457.94
951.16	1438.51
951.465	1432.41
951.77	1431.95
952.075	1440.32
952.38	1418.85
952.685	1407.1
952.99	1410.03
953.294	1435.57
953.599	1416.14
953.904	1395.57
954.209	1388.57
954.513	1410.94
954.818	1393.31
955.122	1396.02
955.426	1387.44
955.731	1360.77
956.035	1363.93
956.339	1348.34
956.643	1328.45
956.948	1382.46
957.252	1373.65
957.556	1349.7
957.86	1331.84
958.163	1328.45
958.467	1317.15
958.771	1325.52
959.075	1325.52
959.378	1314.67
959.682	1315.12
959.985	1346.31
960.289	1304.27
960.592	1306.53
960.896	1309.25
961.199	1297.27
961.502	1290.71
961.805	1260.66
962.108	1269.92
962.411	1301.11
962.714	1266.76
963.017	1264.73
963.32	1291.84
963.623	1272.18
963.926	1242.35
964.228	1262.69
964.531	1238.74
964.833	1261.34
965.136	1248.68
965.438	1225.18
965.741	1233.99
966.043	1221.34
966.345	1220.66
966.648	1207.1
966.95	1207.1
967.252	1214.33
967.554	1225.18
967.856	1224.05
968.158	1226.08
968.46	1188.34
968.761	1169.36
969.063	1175.46
969.365	1166.2
969.666	1172.98
969.968	1179.76
970.269	1144.28
970.571	1152.19
970.872	1186.54
971.174	1155.58
971.475	1141.57
971.776	1150.15
972.077	1131.62
972.378	1119.65
972.679	1140.44
972.98	1114
973.281	1121.91
973.582	1130.94
973.883	1125.3
974.183	1113.54
974.484	1132.3
974.785	1113.54
975.085	1099.31
975.386	1106.76
975.686	1104.05
975.986	1107.22
976.287	1082.36
976.587	1076.26
976.887	1069.48
977.187	1103.15
977.487	1081
977.787	1048.91
978.087	1084.84
978.387	1067.22
978.687	1038.97
978.987	1055.92
979.286	1042.81
979.586	1045.75
979.885	1059.76
980.185	1023.15
980.484	1030.38
980.784	1010.27
981.083	1039.42
981.382	1042.13
981.682	1022.02
981.981	1032.87
982.28	1012.76
982.579	1008.01
982.878	1020.44
983.177	1002.59
983.475	995.81
983.774	997.84
984.073	1003.04
984.372	990.38
984.67	1002.13
984.969	996.26
985.267	993.77
985.566	946.77
985.864	977.5
986.162	959.88
986.461	967.33
986.759	964.62
987.057	971.18
987.355	944.74
987.653	963.94
987.951	970.72
988.249	964.85
988.547	952.42
988.844	953.55
989.142	933.21
989.44	936.15
989.737	957.84
990.035	927.33
990.332	950.38
990.63	907.9
990.927	927.33
991.224	909.03
991.521	926.88
991.819	916.71
992.116	931.63
992.413	902.25
992.71	889.82
993.006	894.57
993.303	902.7
993.6	883.04
993.897	864.06
994.193	872.42
994.49	892.53
994.787	882.36
995.083	857.05
995.379	883.95
995.676	872.65
995.972	859.54
996.268	837.62
996.565	879.88
996.861	867.45
997.157	865.64
997.453	861.8
997.749	844.85
998.044	845.08
998.34	860.67
998.636	835.13
998.932	863.38
999.227	839.43
999.523	825.19
999.818	833.78
1000.114	821.12
1000.409	828.58
1000.704	828.35
1001	791.29
1001.295	836.72
1001.59	806.66
1001.885	806.21
1002.18	799.2
1002.475	801.01
1002.77	807.79
1003.065	786.32
1003.359	778.41
1003.654	778.19
1003.949	807.11
1004.243	773.21
1004.538	790.16
1004.832	800.11
1005.127	777.51
1005.421	789.71
1005.715	772.31
1006.009	769.6
1006.304	757.17
1006.598	781.12
1006.892	764.85
1007.186	749.26
1007.48	739.32
1007.773	734.35
1008.067	750.62
1008.361	732.99
1008.655	735.7
1008.948	738.19
1009.242	760.33
1009.535	744.06
1009.829	742.03
1010.122	739.99
1010.415	738.86
1010.708	719.2
1011.001	721.92
1011.295	702.03
1011.588	724.18
1011.881	723.05
1012.173	720.11
1012.466	670.39
1012.759	692.76
1013.052	692.09
1013.344	696.61
1013.637	696.61
1013.93	696.61
1014.222	685.31
1014.514	688.7
1014.807	673.33
1015.099	662.93
1015.391	692.54
1015.683	683.05
1015.976	670.84
1016.268	663.16
1016.56	665.19
1016.851	660.9
1017.143	664.97
1017.435	645.76
1017.727	643.27
1018.018	672.88
1018.31	635.14
1018.602	635.36
1018.893	636.72
1019.185	666.55
1019.476	644.4
1019.767	645.31
1020.058	625.65
1020.35	647.57
1020.641	624.52
1020.932	639.66
1021.223	603.95
1021.514	601.24
1021.804	651.41
1022.095	627.46
1022.386	617.51
1022.677	623.61
1022.967	622.03
1023.258	610.05
1023.548	600.56
1023.839	599.66
1024.129	636.72
1024.419	584.07
1024.709	584.97
1025	563.28
1025.29	584.29
1025.58	611.18
1025.87	564.86
1026.16	564.86
1026.449	572.77
1026.739	583.39
1027.029	599.21
1027.319	560.79
1027.608	581.35
1027.898	558.3
1028.187	561.24
1028.477	585.65
1028.766	574.35
1029.055	566.44
1029.344	570.73
1029.634	563.73
1029.923	566.21
1030.212	551.07
1030.501	555.37
1030.79	554.24
1031.078	556.5
1031.367	551.98
1031.656	558.76
1031.945	543.62
1032.233	535.25
1032.522	538.19
1032.81	535.48
1033.099	532.32
1033.387	529.15
1033.675	531.19
1033.963	507.68
1034.251	545.65
1034.54	525.99
1034.828	530.28
1035.116	514.46
1035.403	528.47
1035.691	546.33
1035.979	527.12
1036.267	514.92
1036.554	507.23
1036.842	507.68
1037.129	516.27
1037.417	505.2
1037.704	504.52
1037.992	502.94
1038.279	520.34
1038.566	492.54
1038.853	492.54
1039.14	492.54
