Data from black_metal_pc_casing_FLMS001491_00096.txt Node
Date: Wed Feb 08 14:33:48 GMT 2017
User: dcchb
Spectrometer: FLMS00149
Trigger mode: 0
Integration Time (sec): 2.000000E-2
Scans to average: 10
Electric dark correction enabled: true
Nonlinearity correction enabled: false
Boxcar width: 0
XAxis mode: Wavelengths
Number of Pixels in Spectrum: 2048
>>>>>Begin Spectral Data<<<<<
341.393	-5.88
341.776	-5.88
342.16	-5.88
342.543	-69.6
342.927	-66.66
343.31	-82.94
343.693	-67.79
344.077	-68.25
344.46	-49.72
344.843	-33.67
345.226	-49.26
345.61	-31.64
345.993	-34.12
346.376	3.62
346.759	28.47
347.142	25.54
347.525	34.12
347.908	72.99
348.291	87.68
348.674	75.03
349.057	89.94
349.44	132.43
349.823	158.87
350.206	149.15
350.588	190.28
350.971	188.47
351.354	218.98
351.737	233.89
352.119	252.2
352.502	255.13
352.884	286.32
353.267	274.12
353.65	281.12
354.032	277.96
354.414	307.79
354.797	292.87
355.179	305.53
355.562	321.8
355.944	328.35
356.326	331.52
356.709	330.61
357.091	346.88
357.473	325.64
357.855	334
358.238	345.08
358.62	334
359.002	335.36
359.384	330.61
359.766	354.11
360.148	317.96
360.53	314.12
360.912	325.87
361.294	313.21
361.676	331.97
362.057	335.13
362.439	326.55
362.821	334.23
363.203	319.09
363.584	316.83
363.966	314.12
364.348	331.52
364.729	323.83
365.111	317.51
365.493	324.06
365.874	325.42
366.256	305.3
366.637	301.01
367.019	297.17
367.4	309.6
367.781	315.92
368.163	322.93
368.544	314.79
368.925	302.59
369.306	329.71
369.688	303.04
370.069	301.69
370.45	311.63
370.831	300.78
371.212	333.55
371.593	322.93
371.974	311.63
372.355	312.08
372.736	309.37
373.117	308.01
373.498	309.37
373.879	329.26
374.26	306.66
374.641	320.9
375.021	305.53
375.402	315.7
375.783	334.23
376.163	335.36
376.544	364.28
376.925	336.49
377.305	325.19
377.686	317.73
378.066	336.26
378.447	352.08
378.827	342.59
379.208	359.31
379.588	335.58
379.968	338.97
380.349	347.56
380.729	371.29
381.109	365.19
381.489	330.84
381.87	353.89
382.25	358.41
382.63	350.27
383.01	335.58
383.39	371.29
383.77	349.37
384.15	362.7
384.53	372.42
384.91	367.67
385.29	371.06
385.67	385.3
386.049	376.04
386.429	368.13
386.809	351.4
387.189	393.21
387.568	368.35
387.948	384.85
388.328	369.26
388.707	367.9
389.087	391.85
389.466	381.46
389.846	392.76
390.225	397.96
390.605	418.97
390.984	415.36
391.363	391.18
391.743	409.25
392.122	396.83
392.501	389.14
392.881	416.94
393.26	432.76
393.639	404.74
394.018	425.07
394.397	432.76
394.776	416.03
395.155	411.29
395.534	435.69
395.913	432.31
396.292	424.85
396.671	417.16
397.05	432.08
397.429	442.7
397.808	452.42
398.186	427.11
398.565	446.77
398.944	437.5
399.323	432.08
399.701	473.66
400.08	444.51
400.458	462.81
400.837	453.1
401.215	444.73
401.594	477.05
401.972	464.85
402.351	465.52
402.729	472.3
403.107	465.07
403.486	474.79
403.864	484.73
404.242	491.74
404.62	455.13
404.999	497.16
405.377	495.13
405.755	511.85
406.133	516.6
406.511	508.91
406.889	487.67
407.267	503.94
407.645	537.84
408.023	524.96
408.401	519.08
408.779	520.66
409.156	505.52
409.534	525.86
409.912	550.27
410.29	550.95
410.667	547.78
411.045	538.97
411.422	547.1
411.8	562.92
412.178	566.54
412.555	589.82
412.933	577.39
413.31	581
413.687	564.73
414.065	595.46
414.442	602.92
414.819	600.44
415.197	614.9
415.574	587.56
415.951	620.55
416.328	628.01
416.705	623.94
417.082	630.94
417.46	620.1
417.837	631.4
418.214	627.1
418.591	638.85
418.967	652.86
419.344	650.83
419.721	657.84
420.098	689.47
420.475	671.17
420.852	657.84
421.228	670.72
421.605	696.48
421.982	656.03
422.358	681.56
422.735	693.99
423.111	701
423.488	706.42
423.864	711.39
424.241	728.34
424.617	734.44
424.994	734.67
425.37	756.14
425.746	727.89
426.123	767.21
426.499	739.64
426.875	757.72
427.251	777.15
427.627	770.83
428.003	796.82
428.379	785.97
428.756	800.43
429.132	802.69
429.507	803.82
429.883	826.64
430.259	840.66
430.635	831.62
431.011	859.86
431.387	849.92
431.763	851.5
432.138	850.83
432.514	883.82
432.89	889.02
433.265	909.58
433.641	904.61
434.016	919.98
434.392	954.55
434.767	951.16
435.143	936.02
435.518	966.75
435.894	981.22
436.269	984.15
436.644	978.73
437.02	992.74
437.395	988
437.77	1027.09
438.145	1002.91
438.52	1021.89
438.895	1035.23
439.271	1000.88
439.646	1071.38
440.021	1073.87
440.395	1071.61
440.77	1053.08
441.145	1046.75
441.52	1091.5
441.895	1095.56
442.27	1099.86
442.645	1089.01
443.019	1121.78
443.394	1128.33
443.769	1122.23
444.143	1105.28
444.518	1128.78
444.892	1141.89
445.267	1178.05
445.641	1132.85
446.016	1151.61
446.39	1155.45
446.764	1163.81
447.139	1176.01
447.513	1202.45
447.887	1172.17
448.262	1208.33
448.636	1203.81
449.01	1223.24
449.384	1242.91
449.758	1239.29
450.132	1249.23
450.506	1266.63
450.88	1279.29
451.254	1261.89
451.628	1289.46
452.002	1274.77
452.376	1303.69
452.75	1320.19
453.123	1333.98
453.497	1339.17
453.871	1338.72
454.244	1371.94
454.618	1393.86
454.992	1369.68
455.365	1374.43
455.739	1427.31
456.112	1432.96
456.486	1482.22
456.859	1481.54
457.232	1470.24
457.606	1489.9
457.979	1531.03
458.352	1523.35
458.725	1546.4
459.099	1553.63
459.472	1601.31
459.845	1621.88
460.218	1637.02
460.591	1666.62
460.964	1616.23
461.337	1689
461.71	1670.24
462.083	1725.15
462.456	1735.1
462.829	1721.08
463.201	1750.24
463.574	1754.76
463.947	1756.34
464.32	1836.34
464.692	1814.42
465.065	1828.65
465.438	1876.33
465.81	1899.61
466.183	1914.3
466.555	1929.67
466.928	1938.48
467.3	1924.02
467.672	1955.88
468.045	2045.6
468.417	2037.23
468.789	2052.15
469.161	2060.74
469.534	2097.12
469.906	2132.37
470.278	2173.5
470.65	2191.58
471.022	2186.38
471.394	2237.46
471.766	2291.24
472.138	2316.32
472.51	2290.34
472.882	2356.1
473.253	2378.24
473.625	2422.31
473.997	2479.71
474.369	2481.52
474.74	2496.21
475.112	2556.77
475.484	2590.44
475.855	2644
476.227	2653.04
476.598	2715.63
476.97	2736.65
477.341	2819.13
477.713	2859.36
478.084	2854.39
478.455	2928.06
478.827	2996.08
479.198	3021.62
479.569	3040.6
479.94	3079.02
480.311	3147.71
480.682	3178.22
481.053	3248.05
481.424	3282.17
481.795	3356.75
482.166	3385
482.537	3439.68
482.908	3479.91
483.279	3549.51
483.65	3583.63
484.021	3629.28
484.391	3696.17
484.762	3724.2
485.133	3751.31
485.503	3792.22
485.874	3882.38
486.244	3930.97
486.615	4029.27
486.985	4052.55
487.356	4101.59
487.726	4161.25
488.097	4189.49
488.467	4223.17
488.837	4322.82
489.207	4386.78
489.578	4469.26
489.948	4470.84
490.318	4534.12
490.688	4497.28
491.058	4596.72
491.428	4654.34
491.798	4722.81
492.168	4812.3
492.538	4834
492.908	4870.83
493.278	4874
493.648	4900.89
494.017	4977.5
494.387	5009.81
494.757	5101.11
495.126	5182.46
495.496	5168
495.866	5232.4
496.235	5250.03
496.605	5266.75
496.974	5332.06
497.344	5404.83
497.713	5450.48
498.082	5468.1
498.452	5508.56
498.821	5521.21
499.19	5568.89
499.559	5598.04
499.928	5645.95
500.298	5728.66
500.667	5741.54
501.036	5718.49
501.405	5776.35
501.774	5831.71
502.143	5838.49
502.512	5935.89
502.88	5984.02
503.249	6004.59
503.618	5983.57
503.987	6070.57
504.356	6124.81
504.724	6121.19
505.093	6123.91
505.462	6179.5
505.83	6213.4
506.199	6270.57
506.567	6392.37
506.936	6329.55
507.304	6445.93
507.672	6471.69
508.041	6493.84
508.409	6547.4
508.777	6626.94
509.145	6659.94
509.514	6675.76
509.882	6690.22
510.25	6715.98
510.618	6803.44
510.986	6812.48
511.354	6872.81
511.722	6978.12
512.09	6999.36
512.458	6995.52
512.826	7125.01
513.193	7103.54
513.561	7104.45
513.929	7169.08
514.297	7294.5
514.664	7387.38
515.032	7369.75
515.4	7430.77
515.767	7421.95
516.135	7460.82
516.502	7459.92
516.869	7655.62
517.237	7624.43
517.604	7631.89
517.972	7729.97
518.339	7799.12
518.706	7860.36
519.073	7912.33
519.44	7970.86
519.808	8055.16
520.175	8030.75
520.542	8208.37
520.909	8170.18
521.276	8197.52
521.643	8323.85
522.009	8378.76
522.376	8398.2
522.743	8431.42
523.11	8573.79
523.477	8583.96
523.843	8654.46
524.21	8767.45
524.577	8861.46
524.943	8864.85
525.31	8932.19
525.676	9002.93
526.043	9067.56
526.409	9175.13
526.776	9214.45
527.142	9265.07
527.508	9276.14
527.874	9399.53
528.241	9400.88
528.607	9416.48
528.973	9514.55
529.339	9592.06
529.705	9682.23
530.071	9700.31
530.437	9799.06
530.803	9826.18
531.169	9792.06
531.535	9857.82
531.901	9958.38
532.267	9957.48
532.632	10058.04
532.998	10111.15
533.364	10111.15
533.73	10199.05
534.095	10318.15
534.461	10333.06
534.826	10423.23
535.192	10452.15
535.557	10523.34
535.923	10448.31
536.288	10630.91
536.653	10550.46
537.019	10628.65
537.384	10680.85
537.749	10727.85
538.114	10749.55
538.479	10733.28
538.845	10849.66
539.21	10858.92
539.575	10906.38
539.94	10948.64
540.305	10981.86
540.67	10974.63
541.034	11034.29
541.399	11062.76
541.764	11132.81
542.129	11126.04
542.494	11234.05
542.858	11282.87
543.223	11257.33
543.587	11393.6
543.952	11382.07
544.316	11406.03
544.681	11412.13
545.045	11469.53
545.41	11558.79
545.774	11534.84
546.138	11628.85
546.503	11629.98
546.867	11636.08
547.231	11709.52
547.595	11756.98
547.959	11742.97
548.324	11817.99
548.688	11838.33
549.052	11887.37
549.416	11911.55
549.779	11907.03
550.143	11989.74
550.507	12103.18
550.871	12081.94
551.235	12131.88
551.599	12172.79
551.962	12249.85
552.326	12310.64
552.689	12405.55
553.053	12364.65
553.417	12340.92
553.78	12444.19
554.143	12474.02
554.507	12539.56
554.87	12590.86
555.234	12689.61
555.597	12639.67
555.96	12754.24
556.323	12754.47
556.686	12841.24
557.05	12957.63
557.413	12937.06
557.776	12957.4
558.139	13094.57
558.502	13119.66
558.865	13130.05
559.228	13245.98
559.59	13278.75
559.953	13319.2
560.316	13468.8
560.679	13465.86
561.041	13493.88
561.404	13594.22
561.767	13724.61
562.129	13683.71
562.492	13829.01
562.854	13809.13
563.217	13878.05
563.579	13847.09
563.941	13973.64
564.304	13997.6
564.666	14127.09
565.028	14157.37
565.39	14201.66
565.753	14293.86
566.115	14313.75
566.477	14390.13
566.839	14409.56
567.201	14492.27
567.563	14491.37
567.925	14622.21
568.287	14658.15
568.648	14670.35
569.01	14817.01
569.372	14851.81
569.734	14806.62
570.095	14874.19
570.457	15045.25
570.819	14961.87
571.18	15076.21
571.542	15166.61
571.903	15234.4
572.265	15159.15
572.626	15318.24
572.987	15264.91
573.349	15259.49
573.71	15355.53
574.071	15444.57
574.432	15454.96
574.794	15614.96
575.155	15615.41
575.516	15516.43
575.877	15614.73
576.238	15532.25
576.599	15775.86
576.96	15721.62
577.32	15751.22
577.681	15794.16
578.042	15811.34
578.403	15833.71
578.763	15845.69
579.124	15925.91
579.485	15963.65
579.845	15939.92
580.206	16021.05
580.566	15996.19
580.927	15993.48
581.287	15898.79
581.648	16013.36
582.008	16089.29
582.368	16072.57
582.728	16158.67
583.089	16085.9
583.449	16081.84
583.809	16119.58
584.169	16168.61
584.529	16104.89
584.889	16236.18
585.249	16033.7
585.609	16097.88
585.969	16205.45
586.329	16103.76
586.688	16182.63
587.048	16189.18
587.408	16154.38
587.768	16167.48
588.127	16171.55
588.487	16046.58
588.846	16237.99
589.206	16110.08
589.565	16135.17
589.925	16201.61
590.284	16283.19
590.643	16188.27
591.003	16221.72
591.362	16324.77
591.721	16254.26
592.08	16196.64
592.44	16236.41
592.799	16332.68
593.158	16252.91
593.517	16235.73
593.876	16356.18
594.235	16243.64
594.593	16319.8
594.952	16311.44
595.311	16260.82
595.67	16360.47
596.029	16428.04
596.387	16427.82
596.746	16482.28
597.104	16309.18
597.463	16329.06
597.822	16531.77
598.18	16345.33
598.538	16379.46
598.897	16477.53
599.255	16426.23
599.613	16554.59
599.972	16470.3
600.33	16435.5
600.688	16514.14
601.046	16558.43
601.404	16572.9
601.762	16564.54
602.12	16608.15
602.478	16639.56
602.836	16636.4
603.194	16528.83
603.552	16581.71
603.91	16547.81
604.268	16726.57
604.625	16602.28
604.983	16693.35
605.341	16729.73
605.698	16636.62
606.056	16770.18
606.413	16746.9
606.771	16746.68
607.128	16792.33
607.485	16710.3
607.843	16682.05
608.2	16806.11
608.557	16941.7
608.914	16830.74
609.272	16955.03
609.629	16988.71
609.986	16965.43
610.343	16940.8
610.7	17095.6
611.057	17046.11
611.414	16971.76
611.771	17005.65
612.127	17065.09
612.484	16997.29
612.841	17153.9
613.198	17028.25
613.554	17105.54
613.911	17173.33
614.267	17220.34
614.624	17135.59
614.98	17177.4
615.337	17260.56
615.693	17183.28
616.05	17225.99
616.406	17394.8
616.762	17240.22
617.118	17213.33
617.475	17343.72
617.831	17320.22
618.187	17403.16
618.543	17424.85
618.899	17462.82
619.255	17300.11
619.611	17370.84
619.967	17461.69
620.323	17424.4
620.678	17300.79
621.034	17336.27
621.39	17345.76
621.746	17383.5
622.101	17524.96
622.457	17272.54
622.812	17462.14
623.168	17505.53
623.523	17527.45
623.879	17519.77
624.234	17477.51
624.589	17529.03
624.945	17524.51
625.3	17506.88
625.655	17401.12
626.01	17569.71
626.365	17521.12
626.72	17429.82
627.075	17466.21
627.43	17481.35
627.785	17454.68
628.14	17517.73
628.495	17585.53
628.85	17401.35
629.205	17413.78
629.559	17476.6
629.914	17405.87
630.269	17411.97
630.623	17313.44
630.978	17359.09
631.332	17363.61
631.687	17410.39
632.041	17329.26
632.396	17382.37
632.75	17306.89
633.104	17351.41
633.459	17232.09
633.813	17247.91
634.167	17276.61
634.521	17198.87
634.875	17237.96
635.229	17242.94
635.583	17037.29
635.937	17159.77
636.291	17161.36
636.645	17082.49
636.999	17153.9
637.352	17143.5
637.706	17020.12
638.06	17075.71
638.413	17100.12
638.767	17082.26
639.121	17016.5
639.474	17003.62
639.828	16921.59
640.181	16960.23
640.534	16947.8
640.888	16864.19
641.241	16807.92
641.594	16951.64
641.947	16884.75
642.301	16773.12
642.654	16833.46
643.007	16776.73
643.36	16720.69
643.713	16781.93
644.066	16922.27
644.419	16746.23
644.771	16534.25
645.124	16492.45
645.477	16406.35
645.83	16325.9
646.182	16170.42
646.535	16226.24
646.888	16211.1
647.24	16084.77
647.593	16223.08
647.945	16104.21
648.298	16162.96
648.65	16101.72
649.002	15980.14
649.355	16113.25
649.707	16032.35
650.059	15993.7
650.411	16285
650.763	16313.7
651.115	16517.98
651.467	16450.19
651.819	16439.79
652.171	16375.84
652.523	16376.52
652.875	16342.62
653.227	16275.73
653.578	16279.35
653.93	16310.76
654.282	16269.18
654.633	16202.06
654.985	16231.21
655.337	16178.56
655.688	16238.44
656.039	16279.8
656.391	16203.19
656.742	16211.78
657.094	16201.61
657.445	16275.96
657.796	16116.19
658.147	16149.18
658.498	16235.28
658.849	16220.14
659.2	16159.35
659.551	16043.42
659.902	16177.43
660.253	16016.3
660.604	16090.42
660.955	16028.73
661.306	16014.95
661.656	16069.41
662.007	16054.49
662.358	15935.4
662.708	16055.17
663.059	15990.31
663.409	15942.41
663.76	16019.69
664.11	15983.99
664.461	15994.16
664.811	15950.32
665.161	15944.89
665.511	15869.19
665.862	15902.41
666.212	15966.13
666.562	16012.23
666.912	16040.93
667.262	15954.16
667.612	15928.39
667.962	15904.44
668.312	15837.78
668.662	16017.66
669.011	15894.72
669.361	15903.08
669.711	15939.47
670.06	15793.94
670.41	15828.51
670.76	15812.01
671.109	15800.04
671.459	15809.98
671.808	15782.64
672.157	15864.22
672.507	15746.25
672.856	15725.01
673.205	15779.25
673.554	15842.3
673.904	15716.65
674.253	15791
674.602	15765.69
674.951	15594.39
675.3	15391.01
675.649	15701.73
675.998	15649.08
676.346	15645.92
676.695	15656.31
677.044	15552.36
677.393	15529.08
677.741	15620.38
678.09	15578.8
678.438	15553.49
678.787	15567.27
679.135	15491.12
679.484	15387.62
679.832	15414.74
680.181	15475.75
680.529	15513.49
680.877	15407.96
681.225	15254.51
681.573	15532.92
681.922	15301.74
682.27	15310.56
682.618	15379.26
682.966	15290.45
683.314	15372.03
683.661	15242.54
684.009	15143.1
684.357	15154.63
684.705	15111.92
685.053	15248.19
685.4	15089.09
685.748	15059.72
686.095	15038.25
686.443	15021.75
686.79	14974.97
687.138	15007.06
687.485	15042.09
687.832	14928.42
688.18	14860.85
688.527	14914.41
688.874	14877.12
689.221	14785.15
689.568	14763
689.915	14787.41
690.262	14709.22
690.609	14600.75
690.956	14635.1
691.303	14644.81
691.65	14574.08
691.997	14522.1
692.344	14400.98
692.69	14467.64
693.037	14409.56
693.383	14270.13
693.73	14370.92
694.077	14261.77
694.423	14332.5
694.769	14238.27
695.116	14203.47
695.462	14165.5
695.808	14017.48
696.155	14102.45
696.501	14016.58
696.847	13952.85
697.193	13851.84
697.539	13968.22
697.885	13881.67
698.231	13885.28
698.577	13853.65
698.923	13843.48
699.269	13767.32
699.614	13728
699.96	13706.98
700.306	13736.81
700.651	13689.58
700.997	13598.06
701.342	13588.34
701.688	13527.33
702.033	13478.52
702.379	13440.78
702.724	13453.66
703.069	13397.39
703.415	13311.97
703.76	13278.07
704.105	13291.18
704.45	13256.15
704.795	13276.71
705.14	13263.38
705.485	13192.65
705.83	13184.74
706.175	13101.8
706.52	13109.49
706.865	13064.06
707.209	13037.85
707.554	13037.85
707.899	13011.86
708.243	12964.63
708.588	12911.75
708.932	12860.45
709.277	12889.15
709.621	12872.2
709.966	12690.06
710.31	12773.45
710.654	12656.62
710.998	12715.15
711.342	12662.49
711.687	12650.97
712.031	12603.28
712.375	12556.96
712.719	12538.65
713.063	12524.64
713.407	12615.04
713.75	12474.93
714.094	12518.09
714.438	12446.68
714.782	12495.26
715.125	12449.16
715.469	12350.64
715.812	12331.43
716.156	12239.23
716.499	12266.34
716.843	12314.7
717.186	12107.03
717.53	12352.22
717.873	12254.59
718.216	12240.58
718.559	12180.7
718.902	12053.69
719.246	12100.7
719.589	12082.62
719.932	12055.5
720.275	12082.17
720.617	11950.87
720.96	12014.37
721.303	11964.88
721.646	11942.96
721.989	11890.08
722.331	11932.34
722.674	11916.3
723.016	11959.69
723.359	11865.68
723.701	11906.35
724.044	11754.04
724.386	11687.83
724.729	11848.05
725.071	11802.63
725.413	11806.24
725.755	11740.93
726.097	11699.35
726.439	11625.68
726.782	11685.79
727.124	11677.89
727.465	11608.28
727.807	11594.27
728.149	11568.74
728.491	11606.47
728.833	11583.2
729.175	11556.08
729.516	11565.8
729.858	11545.91
730.199	11462.3
730.541	11479.47
730.882	11435.86
731.224	11439.25
731.565	11368.29
731.906	11415.07
732.248	11430.21
732.589	11367.16
732.93	11377.33
733.271	11329.87
733.612	11352.7
733.953	11333.71
734.294	11296.43
734.635	11257.78
734.976	11240.61
735.317	11174.62
735.658	11195.41
735.999	11181.17
736.339	11263.66
736.68	11234.05
737.021	11163.1
737.361	11089.2
737.702	11115.41
738.042	11183.89
738.383	11109.54
738.723	11168.97
739.063	11113.38
739.404	11152.7
739.744	11060.5
740.084	11001.97
740.424	11039.03
740.764	10975.98
741.104	11093.04
741.444	10862.77
741.784	10963.33
742.124	10907.28
742.464	10910
742.804	10915.65
743.143	10854.4
743.483	10899.83
743.823	10815.08
744.162	10761.07
744.502	10800.62
744.841	10754.07
745.181	10838.81
745.52	10718.81
745.86	10797.46
746.199	10689.66
746.538	10746.84
746.877	10724.46
747.216	10753.16
747.556	10664.8
747.895	10683.33
748.234	10595.43
748.573	10645.37
748.911	10600.4
749.25	10547.52
749.589	10605.82
749.928	10564.92
750.267	10584.81
750.605	10495.09
750.944	10488.54
751.283	10427.07
751.621	10455.09
751.96	10437.01
752.298	10369.9
752.636	10340.52
752.975	10312.95
753.313	10227.08
753.651	10260.07
753.989	10253.74
754.327	10235.44
754.666	10194.31
755.004	10208.77
755.342	10218.04
755.679	10190.47
756.017	10165.16
756.355	10127.42
756.693	10140.3
757.031	10019.4
757.368	10013.52
757.706	10038.83
758.044	9952.28
758.381	10020.98
758.719	9884.03
759.056	9976.01
759.394	9916.12
759.731	9829.57
760.068	9850.81
760.405	9765.39
760.743	9823.92
761.08	9792.74
761.417	9732.63
761.754	9725.17
762.091	9728.78
762.428	9619.86
762.765	9582.8
763.102	9576.02
763.438	9516.81
763.775	9496.93
764.112	9526.08
764.449	9573.76
764.785	9499.86
765.122	9374.89
765.458	9376.25
765.795	9332.41
766.131	9279.98
766.467	9330.6
766.804	9275.24
767.14	9235.24
767.476	9192.53
767.812	9177.84
768.148	9178.29
768.485	9147.56
768.821	9084.73
769.157	9098.29
769.492	9051.29
769.828	9055.36
770.164	8908.24
770.5	9004.06
770.836	8965.19
771.171	8871.18
771.507	8813.1
771.842	8789.37
772.178	8839.77
772.513	8751.18
772.849	8777.62
773.184	8711.41
773.519	8745.53
773.855	8637.96
774.19	8604.75
774.525	8652.43
774.86	8597.97
775.195	8600.68
775.53	8561.13
775.865	8555.03
776.2	8476.16
776.535	8463.05
776.87	8456.27
777.205	8377.63
777.539	8353.9
777.874	8353.45
778.209	8309.16
778.543	8208.6
778.878	8172.67
779.212	8198.2
779.547	8183.51
779.881	8145.77
780.215	8107.81
780.55	8139.45
780.884	8070.52
781.218	8025.55
781.552	7998.43
781.886	8012.44
782.22	7962.5
782.554	7896.29
782.888	7853.8
783.222	7844.77
783.556	7820.59
783.889	7792.34
784.223	7747.82
784.557	7725.9
784.89	7709.4
785.224	7699.91
785.557	7645.22
785.891	7614.04
786.224	7562.29
786.558	7641.16
786.891	7502.4
787.224	7476.19
787.557	7503.98
787.891	7489.75
788.224	7435.96
788.557	7464.21
788.89	7414.49
789.223	7389.86
789.556	7325.23
789.888	7330.88
790.221	7370.2
790.554	7206.36
790.887	7223.09
791.219	7219.25
791.552	7175.18
791.884	7172.47
792.217	7123.2
792.549	7146.48
792.882	7071.23
793.214	7028.06
793.546	7085.69
793.879	7038.91
794.211	6991.45
794.543	7035.07
794.875	6931.57
795.207	7025.8
795.539	6923.21
795.871	6975.64
796.203	6822.65
796.535	6821.97
796.867	6895.41
797.198	6759.6
797.53	6785.58
797.862	6757.79
798.193	6697.45
798.525	6735.19
798.856	6695.87
799.188	6635.76
799.519	6684.8
799.85	6619.26
800.182	6654.29
800.513	6639.15
800.844	6603.44
801.175	6625.59
801.506	6634.85
801.837	6560.73
802.168	6519.83
802.499	6482.54
802.83	6478.7
803.161	6460.62
803.491	6455.65
803.822	6419.27
804.153	6395.99
804.483	6349.89
804.814	6389.66
805.145	6321.87
805.475	6333.62
805.805	6304.24
806.136	6366.39
806.466	6359.83
806.796	6286.61
807.126	6242.77
807.457	6267.41
807.787	6219.05
808.117	6138.14
808.447	6209.33
808.777	6220.18
809.107	6137.01
809.436	6130.46
809.766	6173.85
810.096	6059.73
810.426	6084.36
810.755	6080.52
811.085	6097.69
811.414	6023.34
811.744	5982.22
812.073	6008.66
812.403	5989.9
812.732	5931.6
813.061	6010.24
813.39	5933.63
813.719	5958.26
814.049	5933.86
814.378	5923.69
814.707	5901.54
815.036	5892.05
815.365	5866.29
815.693	5828.77
816.022	5833.74
816.351	5803.46
816.68	5786.29
817.008	5732.5
817.337	5724.14
817.665	5763.92
817.994	5764.59
818.322	5739.06
818.651	5678.04
818.979	5701.32
819.307	5707.87
819.636	5680.3
819.964	5645.5
820.292	5659.29
820.62	5669.23
820.948	5639.17
821.276	5673.52
821.604	5627.87
821.932	5671.94
822.259	5590.14
822.587	5649.57
822.915	5625.16
823.243	5642.79
823.57	5591.27
823.898	5665.39
824.225	5656.8
824.553	5590.14
824.88	5625.84
825.207	5618.84
825.535	5582.68
825.862	5619.74
826.189	5629.23
826.516	5605.28
826.843	5611.15
827.17	5615.45
827.497	5619.06
827.824	5600.53
828.151	5594.88
828.478	5582
828.805	5666.07
829.131	5558.95
829.458	5623.13
829.785	5612.96
830.111	5614.54
830.438	5625.39
830.764	5530.25
831.09	5639.17
831.417	5563.7
831.743	5543.58
832.069	5608.67
832.395	5572.73
832.722	5636.24
833.048	5569.35
833.374	5585.84
833.7	5559.18
834.026	5530.25
834.351	5578.84
834.677	5551.27
835.003	5565.73
835.329	5521.89
835.654	5532.96
835.98	5511.72
836.306	5509.69
836.631	5535.67
836.956	5557.59
837.282	5560.53
837.607	5532.06
837.932	5443.02
838.258	5461.33
838.583	5520.08
838.908	5420.2
839.233	5468.1
839.558	5433.08
839.883	5472.4
840.208	5424.94
840.533	5419.52
840.858	5442.34
841.182	5426.07
841.507	5396.24
841.832	5356.02
842.156	5346.53
842.481	5376.13
842.805	5351.5
843.13	5313.98
843.454	5334.55
843.778	5327.77
844.103	5333.87
844.427	5276.47
844.751	5298.84
845.075	5223.14
845.399	5255.23
845.723	5259.75
846.047	5237.6
846.371	5152.86
846.695	5143.14
847.019	5146.76
847.343	5130.49
847.666	5137.04
847.99	5069.92
848.313	5032.41
848.637	5067.66
848.96	5045.29
849.284	4978.4
849.607	5031.96
849.931	4991.96
850.254	4956.71
850.577	4916.93
850.9	4920.77
851.223	4867.22
851.546	4839.42
851.869	4816.14
852.192	4903.83
852.515	4832.87
852.838	4782.02
853.161	4829.25
853.483	4749.48
853.806	4768.24
854.129	4803.49
854.451	4697.5
854.774	4727.79
855.096	4751.51
855.419	4678.3
855.741	4696.15
856.063	4658.18
856.385	4628.8
856.708	4637.62
857.03	4635.36
857.352	4655.7
857.674	4647.79
857.996	4593.1
858.318	4585.64
858.64	4560.56
858.961	4586.77
859.283	4550.39
859.605	4473.78
859.926	4533.89
860.248	4488.92
860.57	4478.75
860.891	4541.58
861.212	4505.64
861.534	4461.35
861.855	4434.46
862.176	4473.55
862.498	4456.61
862.819	4477.62
863.14	4441.69
863.461	4463.84
863.782	4460.67
864.103	4426.32
864.424	4368.92
864.745	4397.85
865.065	4378.42
865.386	4379.09
865.707	4370.96
866.027	4397.62
866.348	4348.36
866.668	4341.58
866.989	4359.21
867.309	4342.03
867.63	4349.26
867.95	4301.36
868.27	4264.29
868.59	4302.49
868.91	4300.45
869.23	4321.24
869.55	4257.29
869.87	4320.11
870.19	4265.42
870.51	4211.41
870.83	4258.65
871.15	4264.29
871.469	4198.31
871.789	4276.5
872.109	4227.23
872.428	4245.54
872.748	4255.03
873.067	4213.9
873.386	4246.67
873.706	4206.44
874.025	4185.2
874.344	4135.03
874.663	4242.15
874.982	4177.52
875.301	4151.76
875.62	4137.52
875.939	4175.71
876.258	4146.78
876.577	4144.07
876.896	4112.21
877.214	4096.39
877.533	4083.28
877.852	4110.63
878.17	4109.95
878.489	4084.86
878.807	4102.72
879.125	4115.6
879.444	4152.43
879.762	4071.08
880.08	4080.12
880.398	4050.29
880.716	4096.39
881.034	4048.48
881.352	4063.17
881.67	4084.41
881.988	4024.75
882.306	4002.61
882.624	4009.16
882.941	4021.59
883.259	3967.81
883.577	4036.28
883.894	3951.31
884.212	3948.6
884.529	3964.87
884.846	3987.47
885.164	3941.14
885.481	3933.68
885.798	3970.74
886.115	3934.59
886.432	3920.57
886.75	3902.27
887.067	3886.68
887.383	3870.63
887.7	3884.64
888.017	3849.84
888.334	3844.19
888.651	3824.76
888.967	3838.32
889.284	3841.25
889.6	3825.66
889.917	3805.1
890.233	3848.49
890.55	3810.97
890.866	3802.16
891.182	3803.52
891.498	3772.1
891.815	3754.93
892.131	3722.16
892.447	3751.31
892.763	3730.52
893.079	3724.42
893.395	3690.75
893.71	3683.74
894.026	3668.15
894.342	3677.42
894.657	3627.93
894.973	3652.11
895.289	3639.9
895.604	3685.55
895.92	3632.22
896.235	3644.88
896.55	3638.32
896.865	3615.95
897.181	3554.71
897.496	3575.73
897.811	3550.42
898.126	3533.24
898.441	3528.95
898.756	3502.05
899.071	3484.2
899.386	3486.01
899.7	3448.95
900.015	3483.3
900.33	3445.33
900.644	3450.98
900.959	3446.46
901.273	3391.32
901.588	3432.45
901.902	3405.33
902.216	3429.51
902.531	3394.94
902.845	3346.8
903.159	3347.26
903.473	3340.25
903.787	3323.3
904.101	3333.92
904.415	3323.98
904.729	3308.84
905.042	3305.9
905.356	3279.24
905.67	3297.09
905.984	3287.37
906.297	3271.78
906.611	3200.59
906.924	3230.65
907.237	3265.9
907.551	3207.83
907.864	3171.22
908.177	3204.21
908.491	3200.82
908.804	3161.05
909.117	3171.67
909.43	3136.19
909.743	3132.35
910.056	3152.46
910.368	3117.21
910.681	3114.49
910.994	3065.91
911.307	3065.68
911.619	3080.6
911.932	3086.47
912.244	3033.59
912.557	3058
912.869	3001.05
913.181	2997.21
913.494	2954.72
913.806	2966.48
914.118	2973.48
914.43	2962.63
914.742	2908.62
915.054	2909.98
915.366	2923.54
915.678	2950.2
915.99	2915.18
916.302	2841.96
916.613	2896.87
916.925	2878.34
917.236	2891.22
917.548	2856.2
917.859	2843.54
918.171	2832.47
918.482	2873.6
918.794	2867.5
919.105	2787.27
919.416	2791.79
919.727	2783.66
920.038	2785.24
920.349	2746.37
920.66	2748.18
920.971	2773.03
921.282	2702.08
921.593	2743.43
921.903	2731.91
922.214	2712.02
922.525	2708.63
922.835	2663.66
923.146	2639.7
923.456	2653.94
923.767	2665.01
924.077	2630.44
924.387	2622.3
924.697	2612.81
925.008	2592.47
925.318	2596.32
925.628	2580.27
925.938	2554.06
926.248	2540.95
926.558	2548.41
926.867	2565.58
927.177	2540.27
927.487	2519.03
927.796	2507.05
928.106	2483.55
928.416	2518.13
928.725	2490.33
929.034	2498.01
929.344	2468.64
929.653	2442.42
929.962	2457.34
930.271	2440.16
930.581	2433.38
930.89	2408.75
931.199	2427.96
931.508	2402.42
931.817	2371.01
932.125	2389.32
932.434	2378.69
932.743	2347.51
933.051	2356.32
933.36	2335.08
933.669	2326.94
933.977	2326.04
934.286	2335.76
934.594	2311.13
934.902	2299.37
935.21	2273.84
935.519	2290.11
935.827	2292.37
936.135	2262.31
936.443	2272.03
936.751	2254.86
937.059	2219.6
937.367	2224.12
937.674	2224.8
937.982	2217.79
938.29	2197.23
938.597	2194.97
938.905	2163.78
939.213	2155.65
939.52	2174.41
939.827	2156.33
940.135	2169.66
940.442	2122.66
940.749	2171.69
941.056	2131.7
941.363	2089.44
941.67	2097.12
941.977	2112.49
942.284	2114.52
942.591	2063.45
942.898	2083.79
943.205	2074.52
943.511	2046.5
943.818	2060.74
944.125	2035.65
944.431	2019.16
944.738	2019.83
945.044	2046.73
945.35	2033.84
945.657	1993.39
945.963	2012.6
946.269	2001.08
946.575	1985.26
946.881	1977.35
947.187	1966.28
947.493	1943.9
947.799	1957.91
948.105	1948.2
948.41	1929.44
948.716	1910.23
949.022	1897.58
949.327	1966.28
949.633	1940.06
949.938	1920.18
950.244	1905.71
950.549	1887.86
950.854	1890.12
951.16	1858.26
951.465	1868.65
951.77	1874.53
952.075	1847.86
952.38	1853.28
952.685	1859.61
952.99	1834.3
953.294	1811.03
953.599	1818.26
953.904	1814.64
954.209	1818.03
954.513	1812.83
954.818	1782.1
955.122	1812.83
955.426	1793.17
955.731	1783.46
956.035	1756.56
956.339	1745.04
956.643	1755.43
956.948	1757.24
957.252	1750.24
957.556	1722.67
957.86	1712.5
958.163	1727.64
958.467	1747.52
958.771	1731.03
959.075	1727.41
959.378	1717.92
959.682	1705.27
959.985	1702.33
960.289	1693.74
960.592	1673.4
960.896	1670.69
961.199	1664.59
961.502	1658.71
961.805	1646.74
962.108	1641.31
962.411	1630.24
962.714	1614.19
963.017	1630.01
963.32	1625.27
963.623	1621.43
963.926	1602.9
964.228	1616.45
964.531	1570.58
964.833	1620.3
965.136	1595.44
965.438	1588.66
965.741	1582.11
966.043	1565.38
966.345	1563.35
966.648	1576.68
966.95	1549.11
967.252	1540.07
967.554	1547.98
967.856	1534.2
968.158	1526.06
968.46	1508.66
968.761	1513.41
969.063	1507.76
969.365	1507.31
969.666	1513.18
969.968	1484.71
970.269	1492.39
970.571	1470.7
970.872	1481.32
971.174	1480.87
971.475	1450.58
971.776	1476.35
972.077	1456.68
972.378	1448.78
972.679	1468.21
972.98	1485.16
973.281	1451.26
973.582	1467.08
973.883	1419.85
974.183	1405.39
974.484	1402
974.785	1405.61
975.085	1394.77
975.386	1378.49
975.686	1378.27
975.986	1387.99
976.287	1372.39
976.587	1373.98
976.887	1357.7
977.187	1378.49
977.487	1333.98
977.787	1333.98
978.087	1352.05
978.387	1359.06
978.687	1359.29
978.987	1314.32
979.286	1331.49
979.586	1312.06
979.885	1302.34
980.185	1298.27
980.484	1310.02
980.784	1308.67
981.083	1311.6
981.382	1305.05
981.682	1300.98
981.981	1277.71
982.28	1258.05
982.579	1256.92
982.878	1244.49
983.177	1277.48
983.475	1299.4
983.774	1261.21
984.073	1253.98
984.372	1238.16
984.67	1258.95
984.969	1239.06
985.267	1249.68
985.566	1221.89
985.864	1220.31
986.162	1221.44
986.461	1202
986.759	1189.8
987.057	1211.49
987.355	1184.6
987.653	1210.14
987.951	1207.2
988.249	1222.11
988.547	1190.48
988.844	1177.37
989.142	1178.05
989.44	1196.58
989.737	1167.88
990.035	1158.39
990.332	1171.49
990.63	1171.95
990.927	1204.26
991.224	1157.03
991.521	1146.64
991.819	1131.5
992.116	1139.41
992.413	1118.39
992.71	1131.5
993.006	1096.02
993.303	1114.32
993.6	1101.89
993.897	1089.91
994.193	1121.33
994.49	1103.02
994.787	1104.15
995.083	1100.76
995.379	1105.51
995.676	1070.03
995.972	1071.38
996.268	1076.58
996.565	1070.03
996.861	1066.86
997.157	1056.24
997.453	1033.42
997.749	1023.7
998.044	1060.31
998.34	1035
998.636	1026.41
998.932	1029.35
999.227	1041.33
999.523	1014.66
999.818	1031.84
1000.114	1001.33
1000.409	1007.21
1000.704	994.55
1001	992.29
1001.295	1015.34
1001.59	988.22
1001.885	1016.24
1002.18	977.83
1002.475	961.78
1002.77	989.35
1003.065	978.51
1003.359	975.34
1003.654	961.78
1003.949	983.03
1004.243	976.92
1004.538	952.74
1004.832	943.93
1005.127	917.04
1005.421	954.78
1005.715	933.31
1006.009	913.87
1006.304	928.11
1006.598	921.33
1006.892	922.69
1007.186	912.29
1007.48	924.27
1007.773	897.6
1008.067	903.93
1008.361	902.58
1008.655	886.3
1008.948	897.83
1009.242	900.54
1009.535	886.98
1009.829	878.17
1010.122	877.27
1010.415	860.54
1010.708	867.1
1011.001	897.15
1011.295	846.76
1011.588	856.25
1011.881	849.92
1012.173	869.36
1012.466	824.84
1012.759	854.67
1013.052	851.73
1013.344	830.94
1013.637	849.24
1013.93	854.89
1014.222	807.89
1014.514	809.24
1014.807	825.74
1015.099	826.19
1015.391	822.8
1015.683	795.69
1015.976	803.37
1016.268	818.28
1016.56	813.76
1016.851	807.44
1017.143	800.2
1017.435	787.32
1017.727	792.07
1018.018	782.8
1018.31	783.48
1018.602	778.28
1018.893	740.55
1019.185	777.61
1019.476	758.85
1019.767	743.26
1020.058	771.51
1020.35	738.96
1020.641	739.42
1020.932	714.33
1021.223	724.27
1021.514	746.87
1021.804	750.26
1022.095	747.32
1022.386	724.27
1022.677	735.35
1022.967	739.42
1023.258	720.89
1023.548	713.65
1023.839	721.56
1024.129	704.16
1024.419	716.59
1024.709	708.46
1025	691.28
1025.29	700.32
1025.58	692.41
1025.87	686.99
1026.16	683.37
1026.449	684.05
1026.739	639.98
1027.029	684.95
1027.319	661.9
1027.608	667.78
1027.898	674.56
1028.187	643.82
1028.477	669.36
1028.766	655.8
1029.055	647.21
1029.344	635.69
1029.634	655.58
1029.923	646.31
1030.212	646.99
1030.501	642.69
1030.79	623.03
1031.078	635.92
1031.367	632.07
1031.656	611.51
1031.945	617.16
1032.233	609.02
1032.522	617.16
1032.81	610.83
1033.099	602.47
1033.387	586.43
1033.675	630.49
1033.963	612.19
1034.251	600.21
1034.54	587.1
1034.828	585.07
1035.116	585.97
1035.403	613.09
1035.691	609.48
1035.979	582.36
1036.267	596.14
1036.554	592.07
1036.842	597.27
1037.129	580.1
1037.417	580.55
1037.704	575.13
1037.992	582.36
1038.279	571.06
1038.566	558.18
1038.853	558.18
1039.14	558.18
