Data from black_metal_pc_casing_FLMS001491_00061.txt Node
Date: Wed Feb 08 14:33:17 GMT 2017
User: dcchb
Spectrometer: FLMS00149
Trigger mode: 0
Integration Time (sec): 2.000000E-2
Scans to average: 10
Electric dark correction enabled: true
Nonlinearity correction enabled: false
Boxcar width: 0
XAxis mode: Wavelengths
Number of Pixels in Spectrum: 2048
>>>>>Begin Spectral Data<<<<<
341.393	-9.9
341.776	-9.9
342.16	-9.9
342.543	-73.85
342.927	-77.92
343.31	-75.66
343.693	-81.54
344.077	-45.61
344.46	-68.88
344.843	-65.72
345.226	-35.66
345.61	-17.81
345.993	-42.22
346.376	-15.32
346.759	35.3
347.142	19.93
347.525	42.75
347.908	63.32
348.291	89.53
348.674	66.71
349.057	130.89
349.44	129.76
349.823	134.05
350.206	151.68
350.588	175.18
350.971	180.15
351.354	211.56
351.737	232.58
352.119	224.67
352.502	242.97
352.884	264.44
353.267	241.84
353.65	265.8
354.032	285.23
354.414	290.66
354.797	291.56
355.179	313.93
355.562	318.9
355.944	311.67
356.326	314.61
356.709	321.39
357.091	333.14
357.473	336.98
357.855	328.17
358.238	347.15
358.62	335.4
359.002	333.37
359.384	338.56
359.766	329.3
360.148	319.13
360.53	326.14
360.912	341.05
361.294	302.63
361.676	321.84
362.057	309.86
362.439	339.02
362.821	334.95
363.203	322.75
363.584	308.96
363.966	290.88
364.348	333.37
364.729	321.16
365.111	301.73
365.493	311.22
365.874	322.52
366.256	310.09
366.637	320.49
367.019	322.52
367.4	310.32
367.781	297.44
368.163	302.63
368.544	293.59
368.925	322.52
369.306	310.09
369.688	305.35
370.069	307.6
370.45	305.57
370.831	311.67
371.212	283.88
371.593	314.84
371.974	302.63
372.355	308.51
372.736	312.58
373.117	298.34
373.498	302.86
373.879	321.39
374.26	311.45
374.641	320.26
375.021	311.22
375.402	312.35
375.783	327.04
376.163	318.23
376.544	329.98
376.925	313.25
377.305	327.04
377.686	321.16
378.066	335.85
378.447	333.59
378.827	318.68
379.208	333.14
379.588	326.59
379.968	341.95
380.349	322.75
380.729	339.24
381.109	337.66
381.489	343.31
381.87	325.68
382.25	337.89
382.63	333.14
383.01	332.46
383.39	351.9
383.77	344.44
384.15	325.91
384.53	339.24
384.91	361.61
385.29	338.79
385.67	346.47
386.049	357.77
386.429	371.56
386.809	354.61
387.189	332.91
387.568	358.9
387.948	332.91
388.328	355.06
388.707	370.65
389.087	353.93
389.466	369.07
389.846	339.24
390.225	369.3
390.605	375.4
390.984	388.96
391.363	394.16
391.743	363.42
392.122	376.98
392.501	370.88
392.881	384.21
393.26	390.09
393.639	401.61
394.018	398.68
394.397	393.93
394.776	393.03
395.155	404.55
395.534	393.25
395.913	387.38
396.292	408.62
396.671	390.54
397.05	416.3
397.429	430.09
397.808	403.65
398.186	418.79
398.565	390.54
398.944	410.43
399.323	417.66
399.701	419.92
400.08	414.72
400.458	414.27
400.837	417.88
401.215	421.73
401.594	421.27
401.972	436.19
402.351	445.68
402.729	428.73
403.107	440.71
403.486	442.52
403.864	422.4
404.242	445
404.62	438.45
404.999	428.96
405.377	456.08
405.755	460.37
406.133	447.94
406.511	463.98
406.889	444.1
407.267	482.74
407.645	474.83
408.023	472.35
408.401	478.9
408.779	472.12
409.156	480.71
409.534	503.76
409.912	476.19
410.29	468.5
410.667	502.18
411.045	517.77
411.422	522.06
411.8	509.41
412.178	509.41
412.555	525.45
412.933	523.87
413.31	548.05
413.687	511.89
414.065	529.07
414.442	522.51
414.819	555.73
415.197	548.28
415.574	536.07
415.951	546.92
416.328	542.63
416.705	556.19
417.082	561.38
417.46	557.54
417.837	544.21
418.214	546.47
418.591	557.32
418.967	594.15
419.344	583.53
419.721	571.1
420.098	589.41
420.475	573.36
420.852	601.38
421.228	595.28
421.605	619.46
421.982	597.09
422.358	610.42
422.735	600.03
423.111	625.56
423.488	639.8
423.864	626.92
424.241	643.42
424.617	630.31
424.994	632.57
425.37	644.09
425.746	664.88
426.123	652.91
426.499	640.93
426.875	655.62
427.251	660.14
427.627	678.44
428.003	669.18
428.379	681.83
428.756	685.9
429.132	698.33
429.507	695.17
429.883	706.92
430.259	712.11
430.635	708.5
431.011	732.23
431.387	749.4
431.763	737.65
432.138	752.34
432.514	767.25
432.89	734.94
433.265	753.24
433.641	778.55
434.016	787.14
434.392	779.23
434.767	814.03
435.143	816.07
435.518	823.52
435.894	842.96
436.269	815.39
436.644	827.14
437.02	835.5
437.395	825.56
437.77	834.6
438.145	860.36
438.52	842.73
438.895	845.9
439.271	875.95
439.646	853.13
440.021	870.75
440.395	899.23
440.77	899.68
441.145	882.73
441.52	915.27
441.895	899.45
442.27	912.33
442.645	924.99
443.019	920.47
443.394	942.84
443.769	947.36
444.143	946.91
444.518	944.42
444.892	935.16
445.267	947.14
445.641	952.11
446.016	973.35
446.39	948.27
446.764	967.7
447.139	988.04
447.513	998.21
447.887	979
448.262	994.82
448.636	999.56
449.01	1007.93
449.384	1012.22
449.758	1041.14
450.132	1027.59
450.506	1032.11
450.88	1066.46
451.254	1033.46
451.628	1064.2
452.002	1053.8
452.376	1074.59
452.75	1080.01
453.123	1079.34
453.497	1099.45
453.871	1106.45
454.244	1131.99
454.618	1146
454.992	1122.95
455.365	1115.72
455.739	1174.02
456.112	1226.68
456.486	1190.07
456.859	1220.8
457.232	1224.42
457.606	1221.48
457.979	1233.91
458.352	1219.67
458.725	1265.09
459.099	1270.52
459.472	1245.21
459.845	1288.6
460.218	1289.5
460.591	1293.12
460.964	1308.48
461.337	1354.81
461.71	1356.84
462.083	1366.11
462.456	1357.97
462.829	1363.17
463.201	1420.34
463.574	1419.21
463.947	1416.5
464.32	1470.06
464.692	1475.48
465.065	1465.09
465.438	1498.76
465.81	1513
466.183	1529.95
466.555	1619.21
466.928	1560.91
467.3	1561.13
467.672	1599.77
468.045	1604.07
468.417	1644.74
468.789	1662.82
469.161	1645.65
469.534	1684.74
469.906	1707.12
470.278	1703.27
470.65	1788.92
471.022	1766.32
471.394	1792.54
471.766	1785.53
472.138	1832.76
472.51	1891.97
472.882	1864.63
473.253	1885.42
473.625	1921.12
473.997	1969.71
474.369	1983.95
474.74	1999.76
475.112	1996.83
475.484	2082.7
475.855	2041.57
476.227	2099.65
476.598	2164.05
476.97	2157.5
477.341	2186.65
477.713	2245.63
478.084	2239.98
478.455	2302.58
478.827	2329.25
479.198	2359.3
479.569	2385.74
479.94	2467.1
480.311	2482.24
480.682	2512.07
481.053	2545.96
481.424	2627.09
481.795	2616.24
482.166	2626.19
482.537	2703.7
482.908	2717.71
483.279	2764.72
483.65	2802.91
484.021	2866.18
484.391	2861.21
484.762	2916.12
485.133	2929.91
485.503	2985.95
485.874	3060.07
486.244	3064.59
486.615	3110.7
486.985	3138.49
487.356	3183.24
487.726	3251.03
488.097	3271.82
488.467	3288.54
488.837	3372.38
489.207	3373.29
489.578	3432.95
489.948	3459.16
490.318	3488.99
490.688	3546.39
491.058	3590.68
491.428	3642.66
491.798	3669.32
492.168	3684.69
492.538	3792.26
492.908	3788.19
493.278	3818.25
493.648	3858.02
494.017	3872.26
494.387	3919.94
494.757	3953.84
495.126	4029.54
495.496	4052.59
495.866	4051.69
496.235	4071.8
496.605	4117.45
496.974	4148.86
497.344	4179.14
497.713	4231.57
498.082	4234.96
498.452	4277.44
498.821	4298.69
499.19	4298.23
499.559	4358.35
499.928	4361.06
500.298	4401.73
500.667	4513.37
501.036	4444.22
501.405	4470.66
501.774	4516.76
502.143	4559.02
502.512	4601.5
502.88	4617.32
503.249	4554.95
503.618	4693.48
503.987	4660.03
504.356	4723.31
504.724	4705.23
505.093	4770.99
505.462	4781.61
505.83	4864.32
506.199	4866.58
506.567	4875.62
506.936	4892.34
507.304	4956.75
507.672	4993.36
508.041	4957.2
508.409	5074.26
508.777	5069.74
509.145	5139.79
509.514	5151.77
509.882	5155.84
510.25	5126.69
510.618	5249.85
510.986	5278.77
511.354	5302.05
511.722	5345.21
512.09	5347.02
512.458	5442.39
512.826	5431.31
513.193	5467.7
513.561	5522.61
513.929	5585.88
514.297	5623.17
514.664	5674.92
515.032	5641.48
515.4	5635.37
515.767	5737.07
516.135	5785.88
516.502	5755.37
516.869	5839.89
517.237	5837.18
517.604	5852.32
517.972	5944.52
518.339	6022.03
518.706	6030.17
519.073	6007.57
519.44	6051.86
519.808	6200.56
520.175	6206.43
520.542	6236.94
520.909	6250.05
521.276	6222.25
521.643	6294.34
522.009	6373.66
522.376	6423.83
522.743	6492.08
523.11	6560.32
523.477	6552.19
523.843	6595.8
524.21	6735.01
524.577	6752.63
524.943	6753.99
525.31	6786.08
525.676	6908.56
526.043	6892.29
526.409	6944.94
526.776	6977.71
527.142	7047.31
527.508	7096.35
527.874	7121.21
528.241	7168.67
528.607	7172.06
528.973	7256.57
529.339	7211.6
529.705	7338.15
530.071	7378.61
530.437	7421.32
530.803	7430.58
531.169	7542.89
531.535	7484.14
531.901	7540.86
532.267	7543.12
532.632	7585.61
532.998	7703.34
533.364	7732.72
533.73	7700.63
534.095	7789.22
534.461	7845.94
534.826	7881.42
535.192	7854.75
535.557	7927.07
535.923	8014.97
536.288	8068.76
536.653	8111.69
537.019	8088.19
537.384	8117.34
537.749	8140.62
538.114	8190.11
538.479	8161.18
538.845	8294.74
539.21	8219.71
539.575	8338.81
539.94	8409.76
540.305	8333.61
540.67	8432.14
541.034	8416.77
541.399	8438.01
541.764	8434.85
542.129	8462.64
542.494	8498.58
542.858	8528.18
543.223	8613.15
543.587	8621.96
543.952	8596.2
544.316	8620.61
544.681	8632.81
545.045	8731.56
545.41	8703.77
545.774	8699.47
546.138	8801.39
546.503	8836.87
546.867	8794.84
547.231	8854.72
547.595	8909.64
547.959	8928.85
548.324	8960.26
548.688	8941.05
549.052	8996.64
549.416	9027.15
549.779	9088.16
550.143	9102.85
550.507	9152.34
550.871	9209.07
551.235	9149.18
551.599	9270.31
551.962	9279.12
552.326	9210.87
552.689	9351.21
553.053	9314.37
553.417	9336.75
553.78	9430.53
554.143	9458.55
554.507	9555.27
554.87	9484.54
555.234	9536.51
555.597	9557.76
555.96	9634.37
556.323	9679.11
556.686	9701.26
557.05	9676.62
557.413	9789.16
557.776	9786.68
558.139	9875.49
558.502	9902.15
558.865	9901.93
559.228	9986.9
559.59	10030.97
559.953	10033.22
560.316	10146.89
560.679	10097.86
561.041	10210.4
561.404	10276.61
561.767	10294.23
562.129	10308.02
562.492	10367.45
562.854	10427.56
563.217	10411.75
563.579	10467.34
563.941	10558.18
564.304	10538.3
564.666	10555.92
565.028	10770.61
565.39	10686.54
565.753	10740.55
566.115	10772.19
566.477	10841.79
566.839	10857.16
567.201	10924.73
567.563	10941.68
567.925	11041.79
568.287	11059.64
568.648	11049.7
569.01	11145.06
569.372	11226.87
569.734	11124.04
570.095	11216.92
570.457	11295.56
570.819	11366.07
571.18	11340.99
571.542	11355.22
571.903	11408.1
572.265	11424.83
572.626	11485.39
572.987	11475.45
573.349	11567.2
573.71	11623.47
574.071	11624.37
574.432	11661.43
574.794	11823.91
575.155	11662.79
575.516	11737.13
575.877	11725.61
576.238	11781.2
576.599	11877.7
576.96	11833.63
577.32	11892.16
577.681	11905.49
578.042	11883.12
578.403	11936.45
578.763	11934.87
579.124	11940.29
579.485	12012.83
579.845	12057.58
580.206	11985.04
580.566	12066.17
580.927	12054.87
581.287	12043.12
581.648	11926.28
582.008	12110.23
582.368	11959.73
582.728	12122.89
583.089	12070.69
583.449	12123.79
583.809	12122.89
584.169	12155.2
584.529	12043.12
584.889	12124.02
585.249	12054.64
585.609	12066.84
585.969	12181.64
586.329	12098.26
586.688	12124.92
587.048	12112.94
587.408	12055.77
587.768	12140.97
588.127	12142.55
588.487	12169.67
588.846	12286.72
589.206	12134.19
589.565	12183.9
589.925	12148.2
590.284	12131.47
590.643	12187.29
591.003	12179.38
591.362	12223
591.721	12262.32
592.08	12199.95
592.44	12220.51
592.799	12252.15
593.158	12267.97
593.517	12192.49
593.876	12184.81
594.235	12178.48
594.593	12285.6
594.952	12190.46
595.311	12147.07
595.67	12238.14
596.029	12305.93
596.387	12300.28
596.746	12321.75
597.104	12316.78
597.463	12298.7
597.822	12335.76
598.18	12299.83
598.538	12269.32
598.897	12363.56
599.255	12276.1
599.613	12455.76
599.972	12378.7
600.33	12411.24
600.688	12392.26
601.046	12328.98
601.404	12433.16
601.762	12406.04
602.12	12502.31
602.478	12533.05
602.836	12473.61
603.194	12370.56
603.552	12486.49
603.91	12395.87
604.268	12557.9
604.625	12438.13
604.983	12554.29
605.341	12446.49
605.698	12509.54
606.056	12617.34
606.413	12585.47
606.771	12575.3
607.128	12628.18
607.485	12553.61
607.843	12592.48
608.2	12655.98
608.557	12704.57
608.914	12644.23
609.272	12708.63
609.629	12668.41
609.986	12803.55
610.343	12673.61
610.7	12765.58
611.057	12752.02
611.414	12751.8
611.771	12718.8
612.127	12943.2
612.484	12783.89
612.841	12832.93
613.198	12777.33
613.554	12880.61
613.911	12876.77
614.267	12908.86
614.624	12918.35
614.98	12851.23
615.337	12933.26
615.693	12886.94
616.05	12938.69
616.406	12986.82
616.762	12963.54
617.118	12936.43
617.475	13009.42
617.831	13092.81
618.187	13017.33
618.543	13042.41
618.899	13161.28
619.255	13074.5
619.611	13048.51
619.967	13155.4
620.323	13101.17
620.678	13068.4
621.034	13006.71
621.39	13013.03
621.746	13034.28
622.101	13101.17
622.457	13177.32
622.812	13082.86
623.168	13116.08
623.523	13083.31
623.879	13091.9
624.234	13069.76
624.589	13163.31
624.945	13167.61
625.3	13128.28
625.655	13088.06
626.01	13227.27
626.365	13178.45
626.72	13110.43
627.075	13078.79
627.43	13157.44
627.785	13017.55
628.14	13135.06
628.495	13128.74
628.85	13053.71
629.205	13085.8
629.559	13051.22
629.914	13048.74
630.269	13057.1
630.623	13085.12
630.978	13012.58
631.332	13126.02
631.687	13089.42
632.041	12971.23
632.396	13039.7
632.75	12934.17
633.104	12987.5
633.459	12886.26
633.813	12880.16
634.167	12878.8
634.521	12931.45
634.875	12892.58
635.229	12913.38
635.583	12766.49
635.937	12848.74
636.291	12748.41
636.645	12764.9
636.999	12810.55
637.352	12865.47
637.706	12710.22
638.06	12778.69
638.413	12774.4
638.767	12770.78
639.121	12681.06
639.474	12656.21
639.828	12734.85
640.181	12642.87
640.534	12697.34
640.888	12631.12
641.241	12522.88
641.594	12576.21
641.947	12662.53
642.301	12617.11
642.654	12662.53
643.007	12601.52
643.36	12611.69
643.713	12567.85
644.066	12503.22
644.419	12481.3
644.771	12447.85
645.124	12312.94
645.477	12295.31
645.83	12240.4
646.182	12110.68
646.535	12087.86
646.888	12060.74
647.24	12050.57
647.593	12110.68
647.945	12112.49
648.298	11975.32
648.65	11982.78
649.002	12040.63
649.355	12058.03
649.707	12004.47
650.059	11971.03
650.411	12207.63
650.763	12162.43
651.115	12332.37
651.467	12301.87
651.819	12291.92
652.171	12211.02
652.523	12219.16
652.875	12162.89
653.227	12179.84
653.578	12254.18
653.93	12223.22
654.282	12199.95
654.633	12206.95
654.985	12135.32
655.337	12183.9
655.688	12147.75
656.039	12169.44
656.391	12041.76
656.742	12056.67
657.094	12077.92
657.445	12152.94
657.796	12053.96
658.147	12088.31
658.498	12098.48
658.849	12106.62
659.2	12079.5
659.551	12067.3
659.902	12152.27
660.253	12058.48
660.604	12070.01
660.955	12001.08
661.306	11993.63
661.656	12011.25
662.007	11954.76
662.358	12003.57
662.708	12008.99
663.059	12060.06
663.409	11882.22
663.76	12013.96
664.11	12017.58
664.461	12009.9
664.811	11946.17
665.161	11944.59
665.511	11997.02
665.862	11917.92
666.212	11928.99
666.562	11935.77
666.912	11893.74
667.262	11869.11
667.612	11929.22
667.962	11822.78
668.312	11825.72
668.662	11999.95
669.011	11944.36
669.361	11845.15
669.711	11910.01
670.06	11868.66
670.41	11844.7
670.76	11888.54
671.109	11934.87
671.459	11893.06
671.808	11818.94
672.157	11847.64
672.507	11717.7
672.856	11703.01
673.205	11734.65
673.554	11752.73
673.904	11716.12
674.253	11769.45
674.602	11783.91
674.951	11567.87
675.3	11567.42
675.649	11719.06
675.998	11755.67
676.346	11739.17
676.695	11738.04
677.044	11654.43
677.393	11631.37
677.741	11699.85
678.09	11701.43
678.438	11618.49
678.787	11624.82
679.135	11644.93
679.484	11581.66
679.832	11608.32
680.181	11514.32
680.529	11649.68
680.877	11625.5
681.225	11576.01
681.573	11592.51
681.922	11516.58
682.27	11478.16
682.618	11470.02
682.966	11415.34
683.314	11425.5
683.661	11349.57
684.009	11284.27
684.357	11373.75
684.705	11337.6
685.053	11399.74
685.4	11371.72
685.748	11257.15
686.095	11265.51
686.443	11293.3
686.79	11222.35
687.138	11166.98
687.485	11280.42
687.832	11206.53
688.18	11152.52
688.527	11104.84
688.874	11096.02
689.221	11045.85
689.568	11121.11
689.915	11005.63
690.262	11015.8
690.609	10976.48
690.956	10970.38
691.303	10977.15
691.65	10853.99
691.997	10830.72
692.344	10821.23
692.69	10799.53
693.037	10765.64
693.383	10696.26
693.73	10741
694.077	10663.94
694.423	10751.4
694.769	10700.78
695.116	10661.68
695.462	10543.49
695.808	10575.58
696.155	10653.1
696.501	10611.51
696.847	10476.6
697.193	10484.29
697.539	10470.28
697.885	10406.77
698.231	10304.86
698.577	10428.24
698.923	10355.7
699.269	10300.79
699.614	10316.16
699.96	10272.77
700.306	10350.28
700.651	10225.76
700.997	10195.71
701.342	10174.92
701.688	10195.93
702.033	10156.16
702.379	10111.87
702.724	10120
703.069	10096.95
703.415	10054.47
703.76	9996.16
704.105	10008.59
704.45	9953.68
704.795	9996.84
705.14	9898.77
705.485	9863.96
705.83	9837.07
706.175	9875.04
706.52	9829.39
706.865	9825.77
707.209	9821.71
707.554	9773.57
707.899	9837.3
708.243	9726.34
708.588	9693.57
708.932	9691.54
709.277	9650.41
709.621	9612.67
709.966	9627.13
710.31	9550.53
710.654	9462.39
710.998	9456.97
711.342	9488.61
711.687	9485.67
712.031	9457.87
712.375	9392.56
712.719	9376.52
713.063	9350.08
713.407	9444.99
713.75	9390.76
714.094	9433.69
714.438	9330.87
714.782	9374.71
715.125	9246.58
715.469	9376.29
715.812	9259.46
716.156	9250.87
716.499	9223.53
716.843	9243.19
717.186	9235.51
717.53	9234.83
717.873	9201.61
718.216	9192.34
718.559	9096.07
718.902	9094.94
719.246	9115.06
719.589	9103.08
719.932	9007.04
720.275	9016.98
720.617	9059.01
720.96	9010.43
721.303	8992.57
721.646	8941.73
721.989	8963.2
722.331	8968.62
722.674	9009.97
723.016	8927.49
723.359	8891.11
723.701	8868.28
724.044	8900.6
724.386	8821.05
724.729	8865.35
725.071	8873.48
725.413	8817.89
725.755	8820.83
726.097	8805.23
726.439	8778.12
726.782	8734.28
727.124	8786.03
727.465	8682.07
727.807	8676.42
728.149	8718.23
728.491	8692.92
728.833	8697.67
729.175	8659.48
729.516	8654.96
729.858	8636.2
730.199	8625.35
730.541	8573.38
730.882	8575.86
731.224	8620.15
731.565	8595.3
731.906	8505.58
732.248	8537.9
732.589	8515.52
732.93	8474.4
733.271	8447.5
733.612	8498.35
733.953	8504.68
734.294	8540.16
734.635	8435.3
734.976	8509.42
735.317	8401.18
735.658	8363.66
735.999	8449.99
736.339	8321.63
736.68	8394.4
737.021	8344.68
737.361	8327.96
737.702	8361.18
738.042	8399.6
738.383	8334.06
738.723	8341.74
739.063	8276.21
739.404	8341.29
739.744	8295.42
740.084	8256.77
740.424	8269.2
740.764	8248.41
741.104	8299.94
741.444	8205.93
741.784	8207.74
742.124	8188.53
742.464	8197.57
742.804	8142.43
743.143	8135.65
743.483	8159.6
743.823	8137.68
744.162	8071.69
744.502	8119.15
744.841	8027.4
745.181	8085.93
745.52	8043.45
745.86	8104.46
746.199	8036.44
746.538	8012.94
746.877	8076.21
747.216	8028.08
747.556	7955.99
747.895	7995.54
748.234	7965.93
748.573	7973.84
748.911	7963.67
749.25	7871.93
749.589	7895.2
749.928	7901.08
750.267	7924.13
750.605	7851.14
750.944	7873.28
751.283	7868.54
751.621	7837.8
751.96	7777.69
752.298	7786.96
752.636	7808.42
752.975	7757.8
753.313	7748.31
753.651	7760.52
753.989	7754.64
754.327	7698.6
754.666	7670.58
755.004	7647.3
755.342	7646.62
755.679	7708.09
756.017	7622.67
756.355	7632.61
756.693	7609.33
757.031	7618.37
757.368	7543.12
757.706	7543.57
758.044	7492.5
758.381	7510.13
758.719	7493.18
759.056	7436.01
759.394	7436.46
759.731	7397.59
760.068	7470.13
760.405	7360.3
760.743	7392.62
761.08	7356.23
761.417	7271.26
761.754	7293.41
762.091	7268.55
762.428	7239.85
762.765	7149.23
763.102	7257.7
763.438	7178.38
763.775	7211.6
764.112	7172.06
764.449	7159.85
764.785	7135.22
765.122	7062.23
765.458	7026.98
765.795	7047.09
766.131	7086.18
766.467	7014.1
766.804	6980.2
767.14	6984.04
767.476	6957.37
767.812	6884.16
768.148	6962.57
768.485	6876.7
768.821	6897.94
769.157	6861.1
769.492	6861.78
769.828	6788.34
770.164	6747.89
770.5	6748.34
770.836	6732.97
771.171	6703.14
771.507	6717.38
771.842	6669.25
772.178	6659.75
772.513	6635.8
772.849	6595.58
773.184	6506.99
773.519	6544.96
773.855	6505.41
774.19	6466.31
774.525	6459.53
774.86	6478.74
775.195	6499.08
775.53	6428.12
775.865	6413.21
776.2	6383.83
776.535	6335.92
776.87	6336.6
777.205	6309.71
777.539	6290.72
777.874	6241.69
778.209	6227.9
778.543	6216.38
778.878	6134.34
779.212	6139.09
779.547	6105.19
779.881	6195.36
780.215	6107.9
780.55	6107.9
780.884	6097.96
781.218	6031.75
781.552	6051.86
781.886	6004.86
782.22	5989.04
782.554	5937.29
782.888	5916.05
783.222	5838.08
783.556	5870.62
783.889	5921.69
784.223	5845.54
784.557	5852.54
784.89	5839.89
785.224	5836.73
785.557	5745.43
785.891	5787.23
786.224	5741.13
786.558	5745.2
786.891	5701.59
787.224	5720.12
787.557	5624.3
787.891	5711.53
788.224	5625.88
788.557	5634.47
788.89	5579.56
789.223	5600.8
789.556	5568.94
789.888	5572.1
790.221	5549.5
790.554	5492.33
790.887	5442.39
791.219	5452.33
791.552	5433.35
791.884	5407.81
792.217	5402.39
792.549	5425.66
792.882	5347.25
793.214	5339.34
793.546	5297.76
793.879	5275.61
794.211	5300.47
794.543	5316.29
794.875	5257.08
795.207	5244.65
795.539	5258.44
795.871	5239
796.203	5241.49
796.535	5159
796.867	5173.69
797.198	5182.96
797.53	5160.81
797.862	5096.63
798.193	5149.29
798.525	5147.93
798.856	5079
799.188	5035.62
799.519	5058.21
799.85	5029.06
800.182	5053.92
800.513	5059.57
800.844	5017.31
801.175	5012.11
801.506	4951.32
801.837	4962.17
802.168	4932.34
802.499	4967.37
802.83	4923.3
803.161	4913.81
803.491	4883.08
803.822	4830.65
804.153	4894.6
804.483	4859.8
804.814	4824.77
805.145	4843.53
805.475	4801.95
805.805	4785.23
806.136	4835.62
806.466	4774.38
806.796	4754.95
807.126	4722.86
807.457	4749.07
807.787	4722.18
808.117	4720.82
808.447	4684.44
808.777	4722.86
809.107	4701.39
809.436	4678.56
809.766	4679.92
810.096	4637.21
810.426	4614.16
810.755	4674.95
811.085	4625.46
811.414	4577.32
811.744	4567.38
812.073	4550.88
812.403	4532.35
812.732	4540.49
813.061	4534.39
813.39	4489.19
813.719	4493.48
814.049	4532.8
814.378	4505.01
814.707	4443.32
815.036	4463.88
815.365	4446.71
815.693	4397.67
816.022	4463.88
816.351	4389.53
816.68	4398.57
817.008	4395.41
817.337	4379.14
817.665	4348.63
817.994	4380.94
818.322	4369.64
818.651	4365.8
818.979	4326.26
819.307	4363.77
819.636	4334.62
819.964	4341.4
820.292	4366.71
820.62	4300.72
820.948	4346.14
821.276	4300.72
821.604	4299.14
821.932	4304.11
822.259	4275.41
822.587	4291.91
822.915	4248.97
823.243	4267.05
823.57	4257.78
823.898	4286.03
824.225	4260.95
824.553	4246.71
824.88	4254.62
825.207	4259.82
825.535	4278.8
825.862	4253.04
826.189	4225.92
826.516	4308.63
826.843	4299.14
827.17	4305.24
827.497	4277.22
827.824	4254.85
828.151	4316.54
828.478	4306.82
828.805	4315.18
829.131	4276.54
829.458	4318.12
829.785	4255.3
830.111	4286.94
830.438	4291.68
830.764	4257.78
831.09	4307.27
831.417	4238.8
831.743	4275.41
832.069	4284
832.395	4227.05
832.722	4290.1
833.048	4261.4
833.374	4260.72
833.7	4223.66
834.026	4241.29
834.351	4263.21
834.677	4210.78
835.003	4242.19
835.329	4201.06
835.654	4247.39
835.98	4195.41
836.306	4214.39
836.631	4194.28
836.956	4217.11
837.282	4202.42
837.607	4154.28
837.932	4181.85
838.258	4131.91
838.583	4150.89
838.908	4145.02
839.233	4161.97
839.558	4111.12
839.883	4151.57
840.208	4139.14
840.533	4121.74
840.858	4108.86
841.182	4096.88
841.507	4128.52
841.832	4092.36
842.156	4114.28
842.481	4093.27
842.805	4058.69
843.13	4083.78
843.454	4049.43
843.778	4022.76
844.103	4017.11
844.427	4021.86
844.751	4006.04
845.075	4014.4
845.399	3978.69
845.723	3966.27
846.047	3997.9
846.371	3961.75
846.695	3938.92
847.019	3940.5
847.343	3928.3
847.666	3905.25
847.99	3879.94
848.313	3899.83
848.637	3846.72
848.96	3860.96
849.284	3827.96
849.607	3806.5
849.931	3779.6
850.254	3771.47
850.577	3755.88
850.9	3722.66
851.223	3666.16
851.546	3706.16
851.869	3671.81
852.192	3726.95
852.515	3664.8
852.838	3684.01
853.161	3648.08
853.483	3650.34
853.806	3615.99
854.129	3640.17
854.451	3628.42
854.774	3605.6
855.096	3595.43
855.419	3613.05
855.741	3618.7
856.063	3574.19
856.385	3566.95
856.708	3553.85
857.03	3556.56
857.352	3503.68
857.674	3503.68
857.996	3530.35
858.318	3521.76
858.64	3484.24
858.961	3440.18
859.283	3451.93
859.605	3427.97
859.926	3434.98
860.248	3409.44
860.57	3414.64
860.891	3467.75
861.212	3418.03
861.534	3418.48
861.855	3418.71
862.176	3420.97
862.498	3396.56
862.819	3382.1
863.14	3362.67
863.461	3412.38
863.782	3373.74
864.103	3366.73
864.424	3414.19
864.745	3361.76
865.065	3340.97
865.386	3355.89
865.707	3355.43
866.027	3310.46
866.348	3329.45
866.668	3322.67
866.989	3297.81
867.309	3286.74
867.63	3316.79
867.95	3344.81
868.27	3268.66
868.59	3300.97
868.91	3261.2
869.23	3226.4
869.55	3256.23
869.87	3293.97
870.19	3288.09
870.51	3241.54
870.83	3262.1
871.15	3251.93
871.469	3216.68
871.789	3242.67
872.109	3237.02
872.428	3245.61
872.748	3212.16
873.067	3243.57
873.386	3265.27
873.706	3220.97
874.025	3168.32
874.344	3183.91
874.663	3233.4
874.982	3213.97
875.301	3181.43
875.62	3158.38
875.939	3209
876.258	3190.24
876.577	3181.43
876.896	3177.59
877.214	3133.29
877.533	3156.8
877.852	3153.63
878.17	3157.47
878.489	3159.28
878.807	3190.47
879.125	3095.1
879.444	3139.39
879.762	3121.54
880.08	3152.73
880.398	3106.63
880.716	3097.14
881.034	3124.71
881.352	3110.47
881.67	3080.87
881.988	3101.43
882.306	3087.64
882.624	3091.94
882.941	3061.66
883.259	3065.05
883.577	3061.66
883.894	3039.74
884.212	3015.1
884.529	3030.25
884.846	3017.82
885.164	3024.37
885.481	3031.15
885.798	3001.77
886.115	2975.78
886.432	2996.57
886.75	2976.91
887.067	2978.27
887.383	2930.36
887.7	2974.43
888.017	2955.9
888.334	2950.25
888.651	2951.83
888.967	2936.24
889.284	2916.35
889.6	2926.29
889.917	2924.26
890.233	2886.75
890.55	2902.11
890.866	2856.24
891.182	2884.26
891.498	2875.67
891.815	2880.64
892.131	2904.6
892.447	2849.23
892.763	2851.27
893.079	2825.96
893.395	2858.05
893.71	2820.76
894.026	2832.74
894.342	2804.71
894.657	2830.02
894.973	2800.65
895.289	2828.89
895.604	2798.16
895.92	2771.72
896.235	2792.29
896.55	2731.5
896.865	2748.67
897.181	2740.99
897.496	2755.9
897.811	2746.86
898.126	2707.99
898.441	2694.43
898.756	2691.95
899.071	2683.81
899.386	2703.02
899.7	2689.24
900.015	2679.75
900.33	2640.65
900.644	2606.3
900.959	2638.62
901.273	2625.51
901.588	2623.02
901.902	2616.02
902.216	2631.16
902.531	2613.53
902.845	2614.66
903.159	2610.14
903.473	2590.48
903.787	2560.43
904.101	2577.38
904.415	2550.03
904.729	2554.55
905.042	2522.01
905.356	2519.3
905.67	2533.99
905.984	2536.7
906.297	2484.95
906.611	2511.16
906.924	2484.5
907.237	2473.2
907.551	2511.84
907.864	2470.49
908.177	2460.32
908.491	2471.84
908.804	2445.18
909.117	2425.97
909.43	2458.73
909.743	2429.81
910.056	2416.48
910.368	2410.83
910.681	2397.72
910.994	2374.44
911.307	2359.98
911.619	2352.52
911.932	2365.4
912.244	2366.99
912.557	2347.33
912.869	2313.88
913.181	2294.67
913.494	2308
913.806	2331.51
914.118	2319.98
914.43	2290.83
914.742	2290.15
915.054	2278.17
915.366	2306.65
915.678	2256.71
915.99	2249.02
916.302	2243.15
916.613	2246.76
916.925	2223.26
917.236	2246.31
917.548	2239.98
917.859	2218.29
918.171	2195.46
918.482	2186.2
918.794	2212.41
919.105	2202.7
919.416	2192.3
919.727	2168.12
920.038	2170.38
920.349	2155.92
920.66	2128.8
920.971	2128.35
921.282	2126.54
921.593	2139.42
921.903	2103.26
922.214	2068.24
922.525	2082.7
922.835	2085.19
923.146	2053.1
923.456	2070.04
923.767	2030.72
924.077	2061.46
924.387	2049.25
924.697	2034.79
925.008	2042.7
925.318	2013.1
925.628	2021.23
925.938	1996.37
926.248	1969.93
926.558	1975.13
926.867	1953.21
927.177	1986.66
927.487	1971.52
927.796	1973.32
928.106	1985.98
928.416	1971.74
928.725	1916.6
929.034	1901.46
929.344	1924.29
929.653	1912.76
929.962	1945.53
930.271	1887.9
930.581	1867.79
930.89	1867.79
931.199	1885.19
931.508	1880.22
931.817	1907.11
932.125	1858.52
932.434	1844.06
932.743	1865.98
933.051	1830.73
933.36	1842.71
933.669	1815.81
933.977	1812.88
934.286	1791.63
934.594	1796.83
934.902	1762.48
935.21	1730.84
935.519	1804.06
935.827	1760.9
936.135	1750.05
936.443	1726.78
936.751	1745.76
937.059	1773.33
937.367	1783.72
937.674	1757.74
937.982	1748.24
938.29	1726.32
938.597	1761.8
938.905	1717.96
939.213	1742.37
939.52	1701.69
939.827	1686.55
940.135	1701.24
940.442	1673.22
940.749	1699.66
941.056	1675.03
941.363	1660.11
941.67	1636.84
941.977	1642.26
942.284	1668.25
942.591	1612.43
942.898	1610.17
943.205	1648.36
943.511	1611.53
943.818	1607.91
944.125	1614.01
944.431	1619.21
944.738	1623.28
945.044	1610.85
945.35	1607.68
945.657	1583.73
945.963	1577.63
946.269	1566.55
946.575	1573.11
946.881	1563.84
947.187	1561.58
947.493	1540.79
947.799	1562.04
948.105	1576.5
948.41	1524.52
948.716	1522.04
949.022	1544.86
949.327	1526.33
949.633	1512.32
949.938	1481.59
950.244	1515.93
950.549	1496.95
950.854	1490.17
951.16	1484.75
951.465	1494.24
951.77	1463.05
952.075	1479.55
952.38	1442.49
952.685	1426.67
952.99	1470.74
953.294	1462.38
953.599	1466.44
953.904	1446.33
954.209	1425.77
954.513	1423.73
954.818	1405.2
955.122	1416.05
955.426	1438.87
955.731	1403.85
956.035	1429.61
956.339	1395.03
956.643	1388.93
956.948	1375.83
957.252	1391.19
957.556	1390.29
957.86	1383.51
958.163	1381.7
958.467	1357.75
958.771	1371.53
959.075	1334.47
959.378	1347.58
959.682	1341.25
959.985	1348.71
960.289	1334.7
960.592	1347.8
960.896	1342.83
961.199	1331.31
961.502	1308.48
961.805	1333.57
962.108	1310.52
962.411	1319.78
962.714	1300.8
963.017	1294.47
963.32	1281.82
963.623	1283.17
963.926	1269.39
964.228	1285.43
964.531	1298.09
964.833	1278.2
965.136	1252.44
965.438	1250.4
965.741	1240.46
966.043	1253.12
966.345	1247.47
966.648	1255.38
966.95	1258.99
967.252	1221.93
967.554	1226.22
967.856	1231.42
968.158	1232.1
968.46	1232.33
968.761	1213.12
969.063	1224.42
969.365	1202.5
969.666	1205.21
969.968	1209.5
970.269	1177.86
970.571	1203.4
970.872	1182.38
971.174	1185.1
971.475	1184.87
971.776	1151.2
972.077	1153.68
972.378	1157.75
972.679	1150.52
972.98	1168.6
973.281	1147.58
973.582	1148.94
973.883	1114.82
974.183	1125.66
974.484	1166.11
974.785	1145.1
975.085	1148.26
975.386	1130.18
975.686	1112.78
975.986	1097.41
976.287	1117.08
976.587	1111.88
976.887	1089.51
977.187	1101.93
977.487	1064.87
977.787	1077.08
978.087	1069.84
978.387	1073.91
978.687	1059.22
978.987	1059.45
979.286	1069.62
979.586	1080.24
979.885	1078.21
980.185	1075.04
980.484	1053.12
980.784	1061.48
981.083	1040.02
981.382	1055.38
981.682	1057.19
981.981	1030.75
982.28	1051.09
982.579	1050.18
982.878	1026
983.177	1035.95
983.475	1017.64
983.774	1006.8
984.073	1011.99
984.372	1011.32
984.67	1014.25
984.969	1001.6
985.267	998.66
985.566	993.01
985.864	983.75
986.162	1000.02
986.461	1003.18
986.759	1000.24
987.057	975.38
987.355	985.78
987.653	983.75
987.951	953.69
988.249	964.31
988.547	961.15
988.844	961.6
989.142	948.94
989.44	960.7
989.737	948.94
990.035	929.28
990.332	949.4
990.63	927.02
990.927	937.42
991.224	919.57
991.521	935.16
991.819	936.51
992.116	929.28
992.413	906.91
992.71	923.41
993.006	920.02
993.303	916.85
993.6	931.77
993.897	892.45
994.193	889.74
994.49	906.23
994.787	909.17
995.083	910.75
995.379	883.86
995.676	902.17
995.972	870.53
996.268	872.79
996.565	879.79
996.861	878.21
997.157	873.01
997.453	886.35
997.749	850.19
998.044	889.96
998.34	848.83
998.636	854.03
998.932	873.01
999.227	863.75
999.523	842.73
999.818	846.57
1000.114	842.73
1000.409	839.79
1000.704	838.89
1001	852.68
1001.295	828.04
1001.59	825.11
1001.885	813.35
1002.18	805.22
1002.475	819.46
1002.77	814.26
1003.065	795.28
1003.359	795.95
1003.654	830.53
1003.949	815.61
1004.243	801.83
1004.538	788.5
1004.832	801.38
1005.127	773.13
1005.421	791.66
1005.715	795.95
1006.009	795.95
1006.304	786.24
1006.598	784.88
1006.892	775.84
1007.186	773.36
1007.48	762.51
1007.773	759.8
1008.067	760.47
1008.361	749.85
1008.655	746.46
1008.948	766.35
1009.242	721.83
1009.535	745.33
1009.829	753.47
1010.122	718.67
1010.415	752.56
1010.708	736.75
1011.001	762.51
1011.295	715.73
1011.588	734.26
1011.881	712.79
1012.173	721.38
1012.466	707.14
1012.759	704.2
1013.052	713.02
1013.344	693.58
1013.637	702.17
1013.93	672.34
1014.222	675.5
1014.514	714.83
1014.807	698.78
1015.099	689.97
1015.391	704.2
1015.683	681.15
1015.976	675.5
1016.268	672.79
1016.56	669.86
1016.851	646.81
1017.143	694.71
1017.435	675.73
1017.727	683.64
1018.018	669.18
1018.31	635.96
1018.602	649.74
1018.893	648.16
1019.185	652.68
1019.476	668.73
1019.767	653.58
1020.058	623.98
1020.35	621.95
1020.641	629.63
1020.932	646.81
1021.223	630.31
1021.514	651.32
1021.804	628.95
1022.095	635.05
1022.386	613.36
1022.677	629.4
1022.967	614.72
1023.258	595.51
1023.548	616.3
1023.839	621.95
1024.129	627.14
1024.419	615.39
1024.709	607.94
1025	605.68
1025.29	566.58
1025.58	593.02
1025.87	606.58
1026.16	612
1026.449	608.16
1026.739	587.37
1027.029	617.43
1027.319	592.8
1027.608	570.65
1027.898	569.52
1028.187	572.46
1028.477	567.49
1028.766	581.72
1029.055	589.86
1029.344	544.66
1029.634	551.21
1029.923	542.85
1030.212	559.12
1030.501	560.03
1030.79	534.27
1031.078	536.07
1031.367	550.31
1031.656	560.93
1031.945	524.77
1032.233	550.99
1032.522	531.33
1032.81	554.38
1033.099	540.82
1033.387	530.65
1033.675	532.91
1033.963	537.43
1034.251	535.62
1034.54	556.86
1034.828	520.71
1035.116	499.92
1035.403	512.8
1035.691	532.68
1035.979	523.64
1036.267	517.99
1036.554	517.09
1036.842	509.18
1037.129	508.05
1037.417	503.08
1037.704	494.27
1037.992	495.85
1038.279	501.72
1038.566	503.76
1038.853	503.76
1039.14	503.76
