Data from black_plastic_tray_FLMS001491_060.txt Node
Date: Tue Feb 07 10:40:10 GMT 2017
User: dcchb
Spectrometer: FLMS00149
Trigger mode: 0
Integration Time (sec): 2.000000E-2
Scans to average: 10
Electric dark correction enabled: true
Nonlinearity correction enabled: false
Boxcar width: 0
XAxis mode: Wavelengths
Number of Pixels in Spectrum: 2048
>>>>>Begin Spectral Data<<<<<
341.393	-26.24
341.776	-26.24
342.16	-26.24
342.543	-56.07
342.927	-63.98
343.31	-44.77
343.693	-78.22
344.077	-54.04
344.46	-48.16
344.843	-51.78
345.226	-31.67
345.61	-22.17
345.993	-15.62
346.376	-13.59
346.759	-11.78
347.142	31.16
347.525	37.26
347.908	53.08
348.291	70.48
348.674	73.64
349.057	106.18
349.44	130.82
349.823	138.05
350.206	176.92
350.588	205.62
350.971	177.14
351.354	203.36
351.737	213.98
352.119	221.43
352.502	259.4
352.884	243.81
353.267	263.24
353.65	279.06
354.032	284.03
354.414	300.08
354.797	297.37
355.179	310.47
355.562	301.21
355.944	336.46
356.326	328.78
356.709	314.99
357.091	331.04
357.473	318.83
357.855	316.12
358.238	335.1
358.62	328.78
359.002	336.01
359.384	324.26
359.766	334.2
360.148	330.58
360.53	337.14
360.912	343.92
361.294	352.05
361.676	331.49
362.057	322
362.439	300.98
362.821	329.23
363.203	318.83
363.584	314.77
363.966	317.48
364.348	344.6
364.729	320.64
365.111	321.09
365.493	331.26
365.874	322.68
366.256	312.96
366.637	302.34
367.019	300.53
367.4	333.52
367.781	319.06
368.163	323.58
368.544	323.13
368.925	296.69
369.306	306.18
369.688	298.04
370.069	307.08
370.45	323.81
370.831	310.92
371.212	300.98
371.593	309.12
371.974	297.14
372.355	305.05
372.736	318.61
373.117	307.76
373.498	322.68
373.879	317.48
374.26	319.29
374.641	315.44
375.021	297.82
375.402	326.74
375.783	334.2
376.163	316.35
376.544	336.69
376.925	321.77
377.305	316.12
377.686	326.52
378.066	323.35
378.447	344.37
378.827	339.4
379.208	333.75
379.588	349.12
379.968	341.88
380.349	345.95
380.729	357.02
381.109	346.18
381.489	337.36
381.87	345.73
382.25	354.99
382.63	340.98
383.01	362.45
383.39	364.93
383.77	360.87
384.15	354.09
384.53	346.63
384.91	362
385.29	380.3
385.67	365.84
386.049	370.81
386.429	390.7
386.809	383.46
387.189	360.41
387.568	371.49
387.948	357.7
388.328	381.66
388.707	384.14
389.087	402
389.466	374.88
389.846	382.79
390.225	381.43
390.605	397.93
390.984	385.05
391.363	380.98
391.743	425.72
392.122	386.4
392.501	399.74
392.881	400.64
393.26	392.5
393.639	409.45
394.018	395.67
394.397	415.55
394.776	396.8
395.155	431.15
395.534	418.94
395.913	421.88
396.292	403.12
396.671	433.41
397.05	424.37
397.429	407.19
397.808	437.47
398.186	456.46
398.565	455.78
398.944	431.15
399.323	424.37
399.701	442.9
400.08	439.51
400.458	461.43
400.837	443.12
401.215	461.2
401.594	434.99
401.972	447.64
402.351	462.78
402.729	464.59
403.107	478.15
403.486	467.08
403.864	477.47
404.242	490.13
404.62	468.66
404.999	488.09
405.377	477.47
405.755	492.16
406.133	480.41
406.511	485.83
406.889	510.92
407.267	486.29
407.645	511.14
408.023	512.27
408.401	508.21
408.779	513.86
409.156	531.71
409.534	523.35
409.912	529.9
410.29	531.48
410.667	559.28
411.045	556.12
411.422	545.27
411.8	554.31
412.178	564.25
412.555	553.86
412.933	571.03
413.31	598.15
413.687	573.52
414.065	585.27
414.442	598.37
414.819	618.94
415.197	602.67
415.574	603.8
415.951	601.09
416.328	631.37
416.705	596.34
417.082	630.46
417.46	617.81
417.837	627.98
418.214	645.15
418.591	645.15
418.967	644.7
419.344	637.24
419.721	666.39
420.098	673.4
420.475	646.73
420.852	663.01
421.228	678.82
421.605	655.77
421.982	670.91
422.358	696.68
422.735	684.93
423.111	697.58
423.488	699.84
423.864	699.61
424.241	724.25
424.617	724.7
424.994	744.58
425.37	724.02
425.746	746.17
426.123	744.36
426.499	744.13
426.875	741.42
427.251	772.83
427.627	768.99
428.003	795.88
428.379	787.07
428.756	786.39
429.132	792.49
429.507	833.85
429.883	817.13
430.259	801.08
430.635	817.35
431.011	828.2
431.387	846.96
431.763	846.5
432.138	856.67
432.514	866.39
432.89	871.81
433.265	870.23
433.641	912.72
434.016	891.02
434.392	928.99
434.767	942.55
435.143	908.2
435.518	954.52
435.894	960.85
436.269	953.84
436.644	968.76
437.02	990.45
437.395	983.22
437.77	982.77
438.145	985.71
438.52	999.27
438.895	1020.28
439.271	1054.63
439.646	1040.17
440.021	1037.91
440.395	1042.2
440.77	1065.25
441.145	1044.92
441.52	1066.61
441.895	1055.09
442.27	1080.85
442.645	1093.28
443.019	1095.08
443.394	1057.57
443.769	1104.8
444.143	1093.95
444.518	1142.09
444.892	1110.23
445.267	1128.76
445.641	1151.58
446.016	1126.72
446.39	1159.04
446.764	1171.69
447.139	1178.7
447.513	1158.59
447.887	1149.09
448.262	1206.27
448.636	1211.92
449.01	1211.47
449.384	1199.26
449.758	1237.45
450.132	1194.74
450.506	1236.32
450.88	1230.67
451.254	1240.39
451.628	1264.8
452.002	1279.26
452.376	1283.33
452.75	1298.92
453.123	1310.67
453.497	1306.6
453.871	1340.5
454.244	1369.2
454.618	1360.84
454.992	1400.39
455.365	1376.66
455.739	1448.07
456.112	1417.79
456.486	1430.44
456.859	1454.4
457.232	1471.12
457.606	1479.03
457.979	1498.92
458.352	1518.58
458.725	1504.56
459.099	1529.42
459.472	1565.58
459.845	1570.55
460.218	1613.26
460.591	1604.45
460.964	1617.78
461.337	1648.97
461.71	1676.99
462.083	1691.23
462.456	1700.49
462.829	1681.74
463.201	1737.1
463.574	1712.24
463.947	1751.79
464.32	1804.44
464.692	1820.04
465.065	1834.5
465.438	1853.93
465.81	1886.7
466.183	1889.87
466.555	1892.35
466.928	1933.71
467.3	1940.49
467.672	1954.72
468.045	2010.77
468.417	1969.41
468.789	2068.17
469.161	2047.6
469.534	2075.4
469.906	2097.32
470.278	2142.06
470.65	2169.86
471.022	2170.08
471.394	2236.07
471.766	2214.15
472.138	2272
472.51	2300.93
472.882	2326.01
473.253	2357.88
473.625	2397.87
473.997	2466.12
474.369	2475.61
474.74	2495.27
475.112	2522.39
475.484	2551.32
475.855	2605.55
476.227	2605.33
476.598	2676.51
476.97	2715.83
477.341	2768.03
477.713	2792.89
478.084	2818.65
478.455	2879.9
478.827	2921.48
479.198	2941.36
479.569	3016.39
479.94	3062.94
480.311	3096.16
480.682	3149.04
481.053	3246.21
481.424	3287.57
481.795	3318.98
482.166	3376.61
482.537	3411.18
482.908	3474.46
483.279	3495.7
483.65	3546.77
484.021	3580.44
484.391	3636.26
484.762	3716.94
485.133	3706.09
485.503	3770.27
485.874	3851.4
486.244	3836.93
486.615	3919.64
486.985	3972.07
487.356	4055.68
487.726	4051.84
488.097	4162.57
488.467	4189.47
488.837	4268.56
489.207	4329.58
489.578	4366.18
489.948	4398.05
490.318	4423.58
490.688	4474.66
491.058	4516.46
491.428	4583.13
491.798	4608.21
492.168	4680.3
492.538	4714.88
492.908	4814.53
493.278	4854.53
493.648	4859.73
494.017	4940.63
494.387	4958.71
494.757	4992.61
495.126	5068.31
495.496	5051.14
495.866	5140.4
496.235	5163.45
496.605	5202.55
496.974	5236.67
497.344	5312.15
497.713	5315.99
498.082	5332.49
498.452	5381.07
498.821	5435.76
499.19	5445.7
499.559	5494.06
499.928	5585.14
500.298	5602.76
500.667	5653.38
501.036	5663.33
501.405	5679.6
501.774	5753.27
502.143	5791.01
502.512	5802.53
502.88	5849.31
503.249	5903.32
503.618	5934.05
503.987	5979.48
504.356	5986.03
504.724	6035.07
505.093	6066.25
505.462	6098.34
505.83	6149.41
506.199	6130.88
506.567	6271.22
506.936	6231.67
507.304	6379.69
507.672	6343.31
508.041	6374.27
508.409	6474.6
508.777	6544.21
509.145	6462.17
509.514	6548.5
509.882	6645.67
510.25	6630.53
510.618	6653.36
510.986	6701.94
511.354	6800.92
511.722	6916.4
512.09	6943.07
512.458	6901.49
512.826	7026.91
513.193	7051.09
513.561	7067.13
513.929	7111.65
514.297	7218.76
514.664	7199.56
515.032	7198.43
515.4	7317.97
515.767	7312.1
516.135	7421.47
516.502	7386.9
516.869	7504.63
517.237	7594.57
517.604	7528.59
517.972	7618.53
518.339	7740.11
518.706	7755.25
519.073	7735.59
519.44	7822.59
519.808	7845.19
520.175	7969.25
520.542	8004.51
520.909	8112.07
521.276	8101.45
521.643	8170.38
522.009	8245.86
522.376	8223.94
522.743	8328.79
523.11	8393.42
523.477	8493.08
523.843	8489.24
524.21	8619.63
524.577	8617.37
524.943	8730.59
525.31	8795.67
525.676	8871.83
526.043	8943.92
526.409	8948.44
526.776	9053.07
527.142	9081.77
527.508	9145.27
527.874	9190.69
528.241	9208.32
528.607	9279.95
528.973	9342.78
529.339	9358.6
529.705	9455.54
530.071	9593.39
530.437	9572.15
530.803	9590
531.169	9712.03
531.535	9723.78
531.901	9751.13
532.267	9840.39
532.632	9845.14
532.998	9961.74
533.364	10009.43
533.73	9954.06
534.095	10124.9
534.461	10107.28
534.826	10234.73
535.192	10189.99
535.557	10295.07
535.923	10239.93
536.288	10310.21
536.653	10344.56
537.019	10316.31
537.384	10466.36
537.749	10534.16
538.114	10498
538.479	10537.77
538.845	10628.17
539.21	10582.52
539.575	10627.26
539.94	10778.22
540.305	10781.61
540.67	10740.25
541.034	10806.92
541.399	10874.26
541.764	10908.61
542.129	10935.73
542.494	10922.4
542.858	10981.38
543.223	10984.99
543.587	11064.77
543.952	11066.12
544.316	11148.61
544.681	11139.79
545.045	11257.98
545.41	11214.37
545.774	11275.83
546.138	11305.44
546.503	11366
546.867	11372.33
547.231	11451.87
547.595	11536.39
547.959	11525.09
548.324	11512.21
548.688	11545.43
549.052	11506.34
549.416	11702.71
549.779	11587.24
550.143	11709.04
550.507	11789.27
550.871	11818.42
551.235	11806.67
551.599	11958.53
551.962	11962.82
552.326	12001.46
552.689	12038.07
553.053	11940.22
553.417	12125.08
553.78	12198.07
554.143	12222.02
554.507	12250.72
554.87	12294.56
555.234	12486.42
555.597	12373.43
555.96	12431.28
556.323	12558.06
556.686	12533.88
557.05	12632.18
557.413	12562.13
557.776	12560.77
558.139	12740.2
558.502	12807.54
558.865	12810.26
559.228	12897.26
559.59	13006.41
559.953	12935.9
560.316	13079.85
560.679	13082.11
561.041	13137.71
561.404	13217.03
561.767	13288.66
562.129	13222.9
562.492	13425.16
562.854	13468.32
563.217	13546.28
563.579	13556.45
563.941	13613.85
564.304	13659.05
564.666	13803.9
565.028	13776.11
565.39	13774.98
565.753	13843
566.115	13921.87
566.477	13996.44
566.839	14047.96
567.201	14101.52
567.563	14141.52
567.925	14173.61
568.287	14223.33
568.648	14264.68
569.01	14285.92
569.372	14424.23
569.734	14368.41
570.095	14543.54
570.457	14578.35
570.819	14621.73
571.18	14686.37
571.542	14649.76
571.903	14797.77
572.265	14806.59
572.626	14831.9
572.987	14829.41
573.349	14794.39
573.71	14884.33
574.071	14911.9
574.432	15008.84
574.794	15025.79
575.155	15131.1
575.516	15047.71
575.877	15129.07
576.238	15223.75
576.599	15179.91
576.96	15304.2
577.32	15227.37
577.681	15315.5
578.042	15397.08
578.403	15404.31
578.763	15415.39
579.124	15438.66
579.485	15522.28
579.845	15418.1
580.206	15427.81
580.566	15359.57
580.927	15507.81
581.287	15501.94
581.648	15426.01
582.008	15604.31
582.368	15532.44
582.728	15501.94
583.089	15465.33
583.449	15657.87
583.809	15512.56
584.169	15583.29
584.529	15550.07
584.889	15651.76
585.249	15514.14
585.609	15531.77
585.969	15593.91
586.329	15526.57
586.688	15577.42
587.048	15571.54
587.408	15595.04
587.768	15611.76
588.127	15584.19
588.487	15562.95
588.846	15722.72
589.206	15506
589.565	15548.94
589.925	15557.75
590.284	15631.43
590.643	15675.04
591.003	15726.34
591.362	15722.72
591.721	15697.86
592.08	15734.7
592.44	15772.44
592.799	15693.57
593.158	15714.81
593.517	15720.91
593.876	15758.65
594.235	15762.95
594.593	15763.17
594.952	15810.86
595.311	15734.47
595.67	15763.63
596.029	15768.14
596.387	15832.32
596.746	15779.67
597.104	15691.76
597.463	15773.12
597.822	15772.66
598.18	15694.25
598.538	15634.36
598.897	15834.13
599.255	15752.78
599.613	16010.62
599.972	15796.84
600.33	15864.87
600.688	15738.99
601.046	15870.74
601.404	16026.67
601.762	15920.91
602.12	15967.24
602.478	16047.23
602.836	15966.78
603.194	15988.25
603.552	15988.25
603.91	15950.96
604.268	16007.91
604.625	16079.77
604.983	15986.9
605.341	15910.97
605.698	15967.69
606.056	15993.9
606.413	16009.95
606.771	16081.36
607.128	16060.79
607.485	16049.95
607.843	16006.1
608.2	16197.06
608.557	16156.38
608.914	16121.36
609.272	16124.75
609.629	16179.66
609.986	16224.86
610.343	16135.82
610.7	16211.3
611.057	16284.06
611.414	16284.97
611.771	16245.87
612.127	16374.91
612.484	16326.1
612.841	16414.68
613.198	16382.14
613.554	16347.56
613.911	16496.49
614.267	16462.36
614.624	16351.41
614.98	16435.7
615.337	16451.29
615.693	16464.4
616.05	16448.58
616.406	16517.28
616.762	16583.49
617.118	16546.88
617.475	16606.77
617.831	16575.81
618.187	16531.29
618.543	16623.72
618.899	16735.8
619.255	16705.52
619.611	16607.22
619.967	16729.48
620.323	16707.78
620.678	16670.04
621.034	16578.97
621.39	16581
621.746	16595.69
622.101	16815.12
622.457	16604.05
622.812	16717.5
623.168	16690.83
623.523	16761.56
623.879	16802.92
624.234	16622.36
624.589	16731.51
624.945	16784.39
625.3	16729.02
625.655	16761.56
626.01	16757.72
626.365	16876.59
626.72	16730.38
627.075	16749.14
627.43	16716.59
627.785	16691.51
628.14	16655.8
628.495	16691.51
628.85	16762.92
629.205	16613.09
629.559	16818.29
629.914	16743.71
630.269	16633.66
630.623	16598.63
630.978	16517.5
631.332	16604.96
631.687	16695.13
632.041	16639.31
632.396	16701.68
632.75	16579.42
633.104	16555.92
633.459	16514.11
633.813	16484.06
634.167	16574.68
634.521	16418.98
634.875	16521.57
635.229	16424.85
635.583	16421.69
635.937	16364.97
636.291	16302.14
636.645	16254.91
636.999	16182.82
637.352	16251.97
637.706	16140.79
638.06	16255.14
638.413	16213.33
638.767	16149.83
639.121	16167.91
639.474	16051.3
639.828	16145.76
640.181	16028.93
640.534	16092.66
640.888	15967.24
641.241	15889.27
641.594	15989.61
641.947	16012.88
642.301	15900.34
642.654	16006.33
643.007	15893.57
643.36	15873
643.713	15846.11
644.066	15975.82
644.419	15788.94
644.771	15753.68
645.124	15556.62
645.477	15603.86
645.83	15495.16
646.182	15357.99
646.535	15394.82
646.888	15360.02
647.24	15277.99
647.593	15409.74
647.945	15323.18
648.298	15275.73
648.65	15226.24
649.002	15155.28
649.355	15176.97
649.707	15121.83
650.059	15202.51
650.411	15395.27
650.763	15406.57
651.115	15647.7
651.467	15582.16
651.819	15563.4
652.171	15449.06
652.523	15488.6
652.875	15354.82
653.227	15324.54
653.578	15483.86
653.93	15453.35
654.282	15287.03
654.633	15372.67
654.985	15283.64
655.337	15427.36
655.688	15292.9
656.039	15304.43
656.391	15180.14
656.742	15174.04
657.094	15246.8
657.445	15335.16
657.796	15302.85
658.147	15384.43
658.498	15279.12
658.849	15317.99
659.2	15215.62
659.551	15238.44
659.902	15317.76
660.253	15212.68
660.604	15191.21
660.955	15103.98
661.306	15185.79
661.656	15064.89
662.007	15162.96
662.358	15100.14
662.708	15090.42
663.059	15126.13
663.409	15057.88
663.76	15189.18
664.11	15078.45
664.461	15129.97
664.811	15140.59
665.161	15122.29
665.511	15049.97
665.862	15110.76
666.212	15080.71
666.562	15048.84
666.912	15062.4
667.262	15032.34
667.612	15022.63
667.962	15053.36
668.312	15018.11
668.662	15030.09
669.011	15040.25
669.361	14980.59
669.711	14980.14
670.06	14861.73
670.41	14843.65
670.76	14835.51
671.109	14853.14
671.459	14807.94
671.808	14812.92
672.157	14849.98
672.507	14777.21
672.856	14860.15
673.205	14862.41
673.554	14837.55
673.904	14750.77
674.253	14832.35
674.602	14771.11
674.951	14542.87
675.3	14518.91
675.649	14743.99
675.998	14655.63
676.346	14766.36
676.695	14810.88
677.044	14677.1
677.393	14675.97
677.741	14674.39
678.09	14596.2
678.438	14561.4
678.787	14588.06
679.135	14583.54
679.484	14506.26
679.832	14625.12
680.181	14508.06
680.529	14508.29
680.877	14566.59
681.225	14525.01
681.573	14500.83
681.922	14423.32
682.27	14390.55
682.618	14385.58
682.966	14393.04
683.314	14394.62
683.661	14373.61
684.009	14273.27
684.357	14188.07
684.705	14214.51
685.053	14298.35
685.4	14282.53
685.748	14185.81
686.095	14107.85
686.443	14017.68
686.79	14016.78
687.138	14015.87
687.485	14030.34
687.832	14059.26
688.18	13996.21
688.527	13880.51
688.874	13949.21
689.221	13870.57
689.568	13880.28
689.915	13865.14
690.262	13781.76
690.609	13765.94
690.956	13724.81
691.303	13626.96
691.65	13633.51
691.997	13610.91
692.344	13469.9
692.69	13432.16
693.037	13534.08
693.383	13430.81
693.73	13463.35
694.077	13421.54
694.423	13403.91
694.769	13361.65
695.116	13300.41
695.462	13361.88
695.808	13219.74
696.155	13313.75
696.501	13203.47
696.847	13217.7
697.193	13119.85
697.539	13130.93
697.885	13099.06
698.231	13043.24
698.577	13014.54
698.923	13015
699.269	12971.83
699.614	12912.63
699.96	12880.76
700.306	12806.64
700.651	12707.89
700.997	12737.49
701.342	12710.15
701.688	12683.48
702.033	12666.53
702.379	12655.91
702.724	12603.03
703.069	12638.28
703.415	12493.65
703.76	12512.86
704.105	12459.98
704.45	12516.03
704.795	12484.62
705.14	12378.63
705.485	12404.39
705.83	12319.87
706.175	12237.16
706.52	12305.64
706.865	12238.75
707.209	12248.92
707.554	12147
707.899	12212.76
708.243	12146.09
708.588	12150.16
708.932	12042.37
709.277	12048.02
709.621	12078.3
709.966	11968.92
710.31	12051.18
710.654	11891.86
710.998	11895.7
711.342	11973.67
711.687	11896.83
712.031	11825.88
712.375	11732.77
712.719	11807.57
713.063	11670.17
713.407	11674.47
713.75	11655.26
714.094	11664.52
714.438	11581.81
714.782	11640.8
715.125	11610.97
715.469	11620.23
715.812	11589.05
716.156	11514.25
716.499	11486.68
716.843	11493.91
717.186	11395.38
717.53	11530.29
717.873	11440.57
718.216	11421.82
718.559	11393.12
718.902	11307.02
719.246	11316.74
719.589	11369.84
719.932	11276.06
720.275	11236.96
720.617	11162.39
720.96	11125.55
721.303	11147.25
721.646	11242.39
721.989	11080.36
722.331	11099.34
722.674	11100.47
723.016	11115.61
723.359	11075.61
723.701	11150.86
724.044	11034.48
724.386	10998.33
724.729	11036.97
725.071	10937.76
725.413	11017.08
725.755	10970.76
726.097	10859.12
726.439	10891.21
726.782	10881.72
727.124	10897.54
727.465	10835.62
727.807	10800.37
728.149	10825
728.491	10850.76
728.833	10782.29
729.175	10806.02
729.516	10701.61
729.858	10687.6
730.199	10754.49
730.541	10748.62
730.882	10680.14
731.224	10665.23
731.565	10657.54
731.906	10644.21
732.248	10605.79
732.589	10634.27
732.93	10589.75
733.271	10586.13
733.612	10559.24
733.953	10570.32
734.294	10511.79
734.635	10511.79
734.976	10503.2
735.317	10464.78
735.658	10486.25
735.999	10451.9
736.339	10487.38
736.68	10406.03
737.021	10366.7
737.361	10399.02
737.702	10347.72
738.042	10297.1
738.383	10311.79
738.723	10362.86
739.063	10289.19
739.404	10243.09
739.744	10193.83
740.084	10166.71
740.424	10261.17
740.764	10153.15
741.104	10335.52
741.444	10161.06
741.784	10074.96
742.124	10183.21
742.464	10088.52
742.804	10137.11
743.143	10113.83
743.483	10097.11
743.823	10091.91
744.162	10028.41
744.502	10037
744.841	10066.37
745.181	10086.94
745.52	10046.71
745.86	10052.59
746.199	10041.52
746.538	9999.48
746.877	9928.3
747.216	9820.28
747.556	9799.49
747.895	9813.5
748.234	9846.94
748.573	9862.99
748.911	9822.31
749.25	9783.67
749.589	9822.54
749.928	9825.93
750.267	9750.45
750.605	9743.67
750.944	9728.53
751.283	9639.49
751.621	9673.84
751.96	9728.98
752.298	9666.38
752.636	9667.74
752.975	9674.52
753.313	9628.87
753.651	9637.91
753.989	9514.07
754.327	9507.52
754.666	9524.47
755.004	9483.34
755.342	9465.94
755.679	9489.89
756.017	9405.6
756.355	9391.14
756.693	9340.74
757.031	9398.82
757.368	9372.38
757.706	9445.37
758.044	9293.96
758.381	9319.27
758.719	9250.58
759.056	9294.87
759.394	9238.15
759.731	9145.27
760.068	9151.6
760.405	9105.04
760.743	9047.42
761.08	9025.27
761.417	8971.49
761.754	9070.24
762.091	9029.34
762.428	9001.32
762.765	8962.45
763.102	9004.25
763.438	8822.79
763.775	8835.22
764.112	8863.92
764.449	8862.56
764.785	8786.41
765.122	8721.32
765.458	8752.28
765.795	8692.85
766.131	8692.17
766.467	8626.64
766.804	8583.93
767.14	8533.53
767.476	8544.83
767.812	8540.54
768.148	8544.15
768.485	8435.23
768.821	8483.14
769.157	8443.37
769.492	8371.28
769.828	8430.48
770.164	8347.1
770.5	8378.73
770.836	8382.12
771.171	8298.74
771.507	8271.17
771.842	8243.82
772.178	8218.96
772.513	8164.05
772.849	8183.71
773.184	8054.45
773.519	8068.23
773.855	8054.9
774.19	8000.21
774.525	8044.51
774.86	7994.34
775.195	7966.32
775.53	7889.26
775.865	7888.35
776.2	7805.42
776.535	7801.8
776.87	7841.35
777.205	7806.09
777.539	7801.8
777.874	7811.97
778.209	7729.49
778.543	7694.68
778.878	7663.05
779.212	7664.4
779.547	7636.61
779.881	7569.49
780.215	7504.86
780.55	7529.27
780.884	7446.56
781.218	7414.01
781.552	7452.88
781.886	7377.63
782.22	7318.2
782.554	7285.66
782.888	7182.38
783.222	7202.72
783.556	7161.82
783.889	7226.22
784.223	7159.11
784.557	7186.9
784.89	7136.51
785.224	7093.57
785.557	7144.42
785.891	7123.85
786.224	7036.4
786.558	7072.33
786.891	6966.79
787.224	7011.76
787.557	7010.86
787.891	6930.64
788.224	6967.02
788.557	6966.12
788.89	6979.22
789.223	6881.82
789.556	6826.01
789.888	6818.32
790.221	6821.94
790.554	6790.08
790.887	6775.84
791.219	6731.09
791.552	6707.82
791.884	6616.97
792.217	6647.25
792.549	6572
792.882	6564.77
793.214	6574.26
793.546	6574.94
793.879	6566.35
794.211	6487.71
794.543	6566.8
794.875	6470.76
795.207	6548.5
795.539	6497.88
795.871	6469.86
796.203	6455.62
796.535	6300.6
796.867	6388.96
797.198	6361.39
797.53	6280.71
797.862	6302.86
798.193	6269.64
798.525	6209.53
798.856	6276.42
799.188	6178.11
799.519	6111.22
799.85	6127.95
800.182	6121.17
800.513	6136.53
800.844	6079.59
801.175	6120.26
801.506	6164.56
801.837	6091.11
802.168	6092.69
802.499	6044.33
802.83	6038.91
803.161	5961.85
803.491	5995.97
803.822	5976.99
804.153	5903.09
804.483	5879.82
804.814	5829.42
805.145	5861.74
805.475	5832.13
805.805	5880.27
806.136	5827.84
806.466	5867.61
806.796	5839.14
807.126	5795.3
807.457	5743.55
807.787	5746.71
808.117	5745.81
808.447	5722.31
808.777	5745.36
809.107	5717.11
809.436	5760.27
809.766	5727.28
810.096	5684.12
810.426	5656.55
810.755	5659.03
811.085	5631.46
811.414	5628.3
811.744	5618.81
812.073	5561.18
812.403	5559.37
812.732	5553.05
813.061	5542.2
813.39	5550.56
813.719	5465.36
814.049	5482.31
814.378	5506.72
814.707	5464.46
815.036	5509.21
815.365	5429.21
815.693	5388.76
816.022	5413.16
816.351	5353.73
816.68	5372.03
817.008	5365.25
817.337	5353.05
817.665	5334.29
817.994	5312.37
818.322	5313.5
818.651	5333.84
818.979	5323.22
819.307	5323
819.636	5270.12
819.964	5264.24
820.292	5263.11
820.62	5275.54
820.948	5214.75
821.276	5273.73
821.604	5271.25
821.932	5265.37
822.259	5321.19
822.587	5246.16
822.915	5221.3
823.243	5254.75
823.57	5220.63
823.898	5204.35
824.225	5190.8
824.553	5267.4
824.88	5246.61
825.207	5264.47
825.535	5263.34
825.862	5209.78
826.189	5303.79
826.516	5288.87
826.843	5264.01
827.17	5279.61
827.497	5225.82
827.824	5261.75
828.151	5241.64
828.478	5260.17
828.805	5252.49
829.131	5273.96
829.458	5234.64
829.785	5195.99
830.111	5178.37
830.438	5241.87
830.764	5225.82
831.09	5215.43
831.417	5158.48
831.743	5212.26
832.069	5195.99
832.395	5158.25
832.722	5179.04
833.048	5196.45
833.374	5189.44
833.7	5121.87
834.026	5184.02
834.351	5168.88
834.677	5077.58
835.003	5169.1
835.329	5120.74
835.654	5162.32
835.98	5102.89
836.306	5119.16
836.631	5089.33
836.956	5106.28
837.282	5139.95
837.607	5096.79
837.932	5066.96
838.258	5066.05
838.583	5042.33
838.908	5036.68
839.233	5008.2
839.558	5032.38
839.883	5044.58
840.208	5003.23
840.533	5063.34
840.858	5012.5
841.182	5037.81
841.507	5007.98
841.832	5006.85
842.156	5013.17
842.481	5002.1
842.805	4994.42
843.13	4978.6
843.454	4951.48
843.778	4894.53
844.103	4919.39
844.427	4889.33
844.751	4892.27
845.075	4907.41
845.399	4886.4
845.723	4862.44
846.047	4857.25
846.371	4821.99
846.695	4809.79
847.019	4829
847.343	4814.76
847.666	4784.25
847.99	4746.06
848.313	4739.06
848.637	4711.49
848.96	4667.19
849.284	4667.65
849.607	4637.59
849.931	4633.3
850.254	4616.57
850.577	4568.44
850.9	4556.69
851.223	4582.9
851.546	4544.71
851.869	4524.15
852.192	4507.2
852.515	4474.2
852.838	4519.63
853.161	4450.48
853.483	4430.36
853.806	4391.49
854.129	4409.12
854.451	4398.5
854.774	4387.88
855.096	4412.29
855.419	4364.38
855.741	4319.86
856.063	4327.32
856.385	4356.92
856.708	4353.98
857.03	4287.77
857.352	4353.76
857.674	4228.11
857.996	4209.8
858.318	4233.31
858.64	4239.18
858.961	4233.98
859.283	4253.19
859.605	4194.21
859.926	4224.04
860.248	4201.22
860.57	4184.27
860.891	4162.8
861.212	4132.52
861.534	4141.56
861.855	4120.54
862.176	4162.57
862.498	4157.83
862.819	4140.65
863.14	4111.5
863.461	4111.73
863.782	4076.02
864.103	4098.62
864.424	4057.72
864.745	4056.14
865.065	4072.86
865.386	4082.35
865.707	4071.05
866.027	4072.41
866.348	4039.19
866.668	4052.07
866.989	4035.12
867.309	4009.36
867.63	4019.75
867.95	4047.55
868.27	3903.6
868.59	3994.22
868.91	3981.56
869.23	3984.73
869.55	3973.2
869.87	3996.48
870.19	3970.04
870.51	3991.73
870.83	3979.08
871.15	3942.24
871.469	3995.12
871.789	3995.35
872.109	3956.93
872.428	3969.36
872.748	3958.29
873.067	3942.92
873.386	3904.73
873.706	3901.34
874.025	3906.54
874.344	3879.64
874.663	3838.74
874.982	3842.81
875.301	3855.69
875.62	3836.48
875.939	3822.24
876.258	3847.78
876.577	3830.61
876.896	3811.4
877.214	3840.1
877.533	3819.08
877.852	3786.76
878.17	3837.38
878.489	3837.84
878.807	3780.21
879.125	3824.28
879.444	3765.75
879.762	3788.8
880.08	3774.34
880.398	3835.8
880.716	3755.81
881.034	3797.61
881.352	3781.79
881.67	3779.99
881.988	3750.83
882.306	3754.9
882.624	3739.53
882.941	3722.13
883.259	3709.93
883.577	3765.3
883.894	3690.27
884.212	3735.47
884.529	3762.36
884.846	3685.52
885.164	3668.58
885.481	3714.9
885.798	3688.69
886.115	3644.17
886.432	3615.92
886.75	3579.09
887.067	3572.99
887.383	3581.35
887.7	3551.06
888.017	3582.48
888.334	3519.65
888.651	3563.95
888.967	3573.89
889.284	3550.39
889.6	3522.37
889.917	3532.76
890.233	3529.14
890.55	3521.24
890.866	3515.13
891.182	3526.88
891.498	3493.89
891.815	3499.31
892.131	3498.64
892.447	3474.68
892.763	3474.68
893.079	3448.47
893.395	3443.5
893.71	3449.6
894.026	3451.41
894.342	3417.96
894.657	3435.36
894.973	3381.13
895.289	3433.78
895.604	3383.61
895.92	3357.17
896.235	3388.36
896.55	3348.58
896.865	3340.9
897.181	3324.18
897.496	3317.62
897.811	3311.52
898.126	3288.02
898.441	3294.12
898.756	3254.58
899.071	3256.16
899.386	3242.15
899.7	3203.28
900.015	3240.11
900.33	3215.25
900.644	3191.07
900.959	3245.31
901.273	3214.58
901.588	3198.76
901.902	3193.33
902.216	3207.57
902.531	3183.39
902.845	3168.7
903.159	3111.08
903.473	3108.36
903.787	3139.32
904.101	3107.23
904.415	3117.86
904.729	3125.77
905.042	3085.09
905.356	3068.82
905.67	3034.47
905.984	3039.67
906.297	3040.34
906.611	3008.93
906.924	3024.75
907.237	3002.15
907.551	2990.18
907.864	2993.11
908.177	2956.05
908.491	2974.81
908.804	2950.4
909.117	2944.75
909.43	2917.41
909.743	2890.07
910.056	2846.68
910.368	2879.44
910.681	2891.2
910.994	2875.6
911.307	2865.43
911.619	2862.72
911.932	2859.56
912.244	2834.02
912.557	2869.05
912.869	2814.59
913.181	2836.96
913.494	2794.7
913.806	2793.12
914.118	2779.33
914.43	2755.38
914.742	2733.46
915.054	2740.24
915.366	2757.87
915.678	2695.27
915.99	2726.68
916.302	2725.32
916.613	2638.77
916.925	2707.25
917.236	2671.99
917.548	2677.64
917.859	2634.03
918.171	2612.33
918.482	2637.64
918.794	2625.67
919.105	2603.52
919.416	2578.44
919.727	2588.15
920.038	2579.56
920.349	2562.39
920.66	2550.64
920.971	2553.8
921.282	2499.34
921.593	2507.48
921.903	2526.23
922.214	2496.4
922.525	2450.3
922.835	2480.36
923.146	2484.43
923.456	2503.86
923.767	2484.88
924.077	2437.87
924.387	2434.26
924.697	2421.15
925.008	2400.36
925.318	2466.57
925.628	2435.84
925.938	2424.99
926.248	2404.43
926.558	2383.19
926.867	2384.54
927.177	2383.86
927.487	2349.74
927.796	2320.81
928.106	2323.75
928.416	2290.31
928.725	2319.46
929.034	2307.03
929.344	2293.02
929.653	2314.71
929.962	2264.54
930.271	2233.81
930.581	2247.6
930.89	2256.64
931.199	2266.13
931.508	2253.02
931.817	2229.07
932.125	2218.9
932.434	2235.62
932.743	2222.51
933.051	2199.91
933.36	2196.3
933.669	2183.19
933.977	2151.1
934.286	2152.23
934.594	2164.89
934.902	2157.66
935.21	2149.75
935.519	2159.91
935.827	2168.95
936.135	2093.93
936.443	2095.06
936.751	2096.64
937.059	2124.66
937.367	2092.35
937.674	2076.08
937.982	2081.05
938.29	2065
938.597	2031.1
938.905	2047.15
939.213	2046.25
939.52	2027.72
939.827	2053.7
940.135	2037.43
940.442	2039.69
940.749	2015.74
941.056	2034.95
941.363	1980.71
941.67	1983.87
941.977	1959.47
942.284	1981.39
942.591	1965.12
942.898	1954.5
943.205	1925.57
943.511	1926.7
943.818	1911.79
944.125	1881.96
944.431	1928.73
944.738	1921.05
945.044	1930.99
945.35	1907.94
945.657	1917.66
945.963	1915.18
946.269	1883.99
946.575	1871.79
946.881	1872.24
947.187	1845.12
947.493	1842.64
947.799	1844.67
948.105	1818.46
948.41	1850.09
948.716	1815.07
949.022	1783.65
949.327	1834.73
949.633	1766.25
949.938	1787.72
950.244	1798.79
950.549	1781.85
950.854	1760.6
951.16	1773.71
951.465	1774.16
951.77	1786.82
952.075	1774.39
952.38	1747.04
952.685	1763.54
952.99	1737.33
953.294	1727.61
953.599	1702.98
953.904	1714.28
954.209	1691
954.513	1696.65
954.818	1681.74
955.122	1707.27
955.426	1684.22
955.731	1670.89
956.035	1681.74
956.339	1670.44
956.643	1660.04
956.948	1683.77
957.252	1644
957.556	1652.36
957.86	1648.52
958.163	1645.13
958.467	1618.46
958.771	1584.34
959.075	1626.14
959.378	1577.11
959.682	1617.56
959.985	1619.82
960.289	1589.53
960.592	1589.99
960.896	1599.48
961.199	1546.6
961.502	1551.12
961.805	1572.81
962.108	1533.72
962.411	1571
962.714	1556.32
963.017	1511.12
963.32	1512.7
963.623	1524.23
963.926	1521.97
964.228	1510.44
964.531	1517.22
964.833	1508.86
965.136	1485.58
965.438	1469.31
965.741	1468.86
966.043	1500.72
966.345	1483.1
966.648	1462.08
966.95	1468.18
967.252	1447.17
967.554	1441.29
967.856	1448.97
968.158	1435.41
968.46	1422.76
968.761	1398.58
969.063	1425.92
969.365	1408.07
969.666	1427.73
969.968	1378.47
970.269	1408.3
970.571	1394.29
970.872	1385.7
971.174	1375.53
971.475	1369.43
971.776	1387.05
972.077	1382.08
972.378	1371.46
972.679	1357
972.98	1347.05
973.281	1371.24
973.582	1346.38
973.883	1376.88
974.183	1382.08
974.484	1327.62
974.785	1325.59
975.085	1313.38
975.386	1319.03
975.686	1313.38
975.986	1297.34
976.287	1309.54
976.587	1310.22
976.887	1288.3
977.187	1294.85
977.487	1298.47
977.787	1308.64
978.087	1283.55
978.387	1268.19
978.687	1267.06
978.987	1276.55
979.286	1258.02
979.586	1247.62
979.885	1270.22
980.185	1250.79
980.484	1230.22
980.784	1250.56
981.083	1218.7
981.382	1201.07
981.682	1201.3
981.981	1215.31
982.28	1238.81
982.579	1190.22
982.878	1192.71
983.177	1213.5
983.475	1175.08
983.774	1234.52
984.073	1179.6
984.372	1183.22
984.67	1174.18
984.969	1199.94
985.267	1155.2
985.566	1188.42
985.864	1116.1
986.162	1147.51
986.461	1177.34
986.759	1157
987.057	1136.44
987.355	1100.73
987.653	1142.54
987.951	1149.09
988.249	1100.51
988.547	1143.22
988.844	1139.6
989.142	1109.77
989.44	1099.15
989.737	1114.97
990.035	1095.76
990.332	1108.87
990.63	1105.93
990.927	1082.88
991.224	1097.57
991.521	1066.61
991.819	1080.62
992.116	1051.92
992.413	1072.71
992.71	1066.61
993.006	1071.81
993.303	1043.33
993.6	1058.7
993.897	1070.9
994.193	1062.99
994.49	1050.34
994.787	1011.24
995.083	1058.25
995.379	1022.32
995.676	1026.16
995.972	1008.08
996.268	1034.75
996.565	1003.34
996.861	1005.82
997.157	1010.11
997.453	1017.12
997.749	997.91
998.044	977.57
998.34	979.38
998.636	971.25
998.932	990
999.227	972.6
999.523	982.54
999.818	990.23
1000.114	975.54
1000.409	973.96
1000.704	949.33
1001	966.05
1001.295	953.62
1001.59	936.22
1001.885	951.36
1002.18	956.33
1002.475	954.97
1002.77	959.27
1003.065	930.34
1003.359	927.4
1003.654	899.61
1003.949	920.4
1004.243	922.66
1004.538	931.47
1004.832	922.66
1005.127	902.09
1005.421	891.47
1005.715	881.3
1006.009	872.72
1006.304	874.75
1006.598	873.85
1006.892	886.28
1007.186	863
1007.48	889.89
1007.773	882.66
1008.067	875.43
1008.361	868.88
1008.655	871.36
1008.948	838.14
1009.242	853.96
1009.535	858.48
1009.829	854.64
1010.122	857.35
1010.415	841.08
1010.708	821.42
1011.001	827.75
1011.295	841.08
1011.588	822.77
1011.881	809.67
1012.173	798.82
1012.466	813.06
1012.759	789.1
1013.052	797.46
1013.344	779.61
1013.637	802.66
1013.93	792.49
1014.222	791.82
1014.514	798.82
1014.807	785.71
1015.099	789.1
1015.391	779.84
1015.683	756.11
1015.976	760.86
1016.268	765.83
1016.56	767.18
1016.851	763.57
1017.143	769.9
1017.435	756.34
1017.727	745.26
1018.018	747.52
1018.31	762.89
1018.602	754.53
1018.893	723.79
1019.185	740.07
1019.476	716.79
1019.767	742.55
1020.058	728.99
1020.35	717.24
1020.641	709.56
1020.932	727.86
1021.223	687.41
1021.514	675.21
1021.804	686.51
1022.095	677.24
1022.386	679.5
1022.677	694.64
1022.967	672.27
1023.258	667.07
1023.548	683.8
1023.839	679.73
1024.129	675.89
1024.419	672.72
1024.709	673.17
1025	678.15
1025.29	660.07
1025.58	663.68
1025.87	663.23
1026.16	648.32
1026.449	647.86
1026.739	635.89
1027.029	650.8
1027.319	624.36
1027.608	633.18
1027.898	651.71
1028.187	668.65
1028.477	615.32
1028.766	617.13
1029.055	633.18
1029.344	624.59
1029.634	604.48
1029.923	625.94
1030.212	613.97
1030.501	616.68
1030.79	614.87
1031.078	616.68
1031.367	592.95
1031.656	578.04
1031.945	624.59
1032.233	583.01
1032.522	605.61
1032.81	585.72
1033.099	601.76
1033.387	582.78
1033.675	587.53
1033.963	582.1
1034.251	579.84
1034.54	567.64
1034.828	578.71
1035.116	578.26
1035.403	552.5
1035.691	577.36
1035.979	574.87
1036.267	539.62
1036.554	542.56
1036.842	555.44
1037.129	546.17
1037.417	562.22
1037.704	563.35
1037.992	553.4
1038.279	549.79
1038.566	550.01
1038.853	550.01
1039.14	550.01
