Data from black_plastic_tray_FLMS001491_089.txt Node
Date: Tue Feb 07 10:40:52 GMT 2017
User: dcchb
Spectrometer: FLMS00149
Trigger mode: 0
Integration Time (sec): 2.000000E-2
Scans to average: 10
Electric dark correction enabled: true
Nonlinearity correction enabled: false
Boxcar width: 0
XAxis mode: Wavelengths
Number of Pixels in Spectrum: 2048
>>>>>Begin Spectral Data<<<<<
341.393	-27.85
341.776	-27.85
342.16	-27.85
342.543	-59.72
342.927	-72.14
343.31	-62.2
343.693	-93.16
344.077	-42.99
344.46	-59.49
344.843	-59.04
345.226	-49.09
345.61	-26.27
345.993	-21.07
346.376	10.56
346.759	7.85
347.142	27.97
347.525	40.17
347.908	63.22
348.291	77
348.674	92.6
349.057	93.95
349.44	127.4
349.823	124.91
350.206	153.16
350.588	189.32
350.971	194.74
351.354	215.08
351.737	222.99
352.119	249.2
352.502	254.85
352.884	262.76
353.267	252.14
353.65	275.19
354.032	307.73
354.414	290.33
354.797	309.77
355.179	310.9
355.562	317.22
355.944	311.35
356.326	297.79
356.709	318.13
357.091	325.58
357.473	324.23
357.855	311.35
358.238	337.11
358.62	322.87
359.002	305.25
359.384	326.71
359.766	332.82
360.148	303.66
360.53	311.8
360.912	327.39
361.294	299.82
361.676	332.14
362.057	316.09
362.439	309.09
362.821	331.23
363.203	316.77
363.584	310.22
363.966	323.55
364.348	336.21
364.729	313.38
365.111	314.74
365.493	332.14
365.874	301.4
366.256	311.57
366.637	309.54
367.019	323.32
367.4	314.96
367.781	324.23
368.163	304.79
368.544	303.66
368.925	304.79
369.306	317.9
369.688	312.25
370.069	303.89
370.45	298.01
370.831	339.82
371.212	291.24
371.593	321.29
371.974	306.83
372.355	297.56
372.736	281.74
373.117	318.35
373.498	306.83
373.879	302.99
374.26	313.61
374.641	311.12
375.021	324.23
375.402	314.06
375.783	330.78
376.163	322.19
376.544	301.63
376.925	331.01
377.305	325.13
377.686	338.24
378.066	327.84
378.447	329.65
378.827	332.36
379.208	343.66
379.588	311.57
379.968	344.34
380.349	332.82
380.729	332.82
381.109	350.22
381.489	334.85
381.87	337.56
382.25	336.88
382.63	327.62
383.01	332.59
383.39	349.54
383.77	337.79
384.15	359.71
384.53	342.99
384.91	347.05
385.29	355.64
385.67	362.87
386.049	362.19
386.429	367.17
386.809	345.02
387.189	349.09
387.568	365.36
387.948	372.14
388.328	378.24
388.707	376.66
389.087	381.63
389.466	386.6
389.846	376.43
390.225	361.52
390.605	388.18
390.984	358.58
391.363	397
391.743	401.97
392.122	380.05
392.501	385.7
392.881	388.18
393.26	412.14
393.639	388.41
394.018	393.83
394.397	400.84
394.776	388.63
395.155	394.51
395.534	409.2
395.913	406.94
396.292	417.79
396.671	408.97
397.05	413.27
397.429	431.34
397.808	416.66
398.186	392.25
398.565	422.53
398.944	414.85
399.323	427.95
399.701	423.89
400.08	432.47
400.458	437.9
400.837	434.96
401.215	447.39
401.594	434.96
401.972	441.29
402.351	428.86
402.729	435.41
403.107	467.28
403.486	428.86
403.864	441.97
404.242	445.58
404.62	455.07
404.999	464.11
405.377	487.84
405.755	454.39
406.133	492.36
406.511	481.74
406.889	484.45
407.267	488.29
407.645	487.39
408.023	510.44
408.401	476.09
408.779	496.88
409.156	510.66
409.534	497.78
409.912	510.21
410.29	536.2
410.667	513.6
411.045	517.67
411.422	553.6
411.8	516.77
412.178	538.23
412.555	531.23
412.933	542.53
413.31	535.75
413.687	567.16
414.065	558.12
414.442	537.33
414.819	556.31
415.197	548.63
415.574	560.61
415.951	583.88
416.328	559.02
416.705	577.33
417.082	588.63
417.46	575.75
417.837	577.78
418.214	587.05
418.591	594.73
418.967	598.12
419.344	606.48
419.721	611.45
420.098	611.23
420.475	619.14
420.852	651.23
421.228	622.07
421.605	629.98
421.982	622.3
422.358	653.94
422.735	638.12
423.111	643.32
423.488	649.64
423.864	670.21
424.241	669.08
424.617	669.98
424.994	689.87
425.37	671.56
425.746	691.22
426.123	692.13
426.499	694.16
426.875	674.05
427.251	701.62
427.627	737.78
428.003	726.93
428.379	723.31
428.756	740.49
429.132	759.92
429.507	741.84
429.883	749.98
430.259	779.81
430.635	757.89
431.011	793.37
431.387	811.22
431.763	807.15
432.138	796.08
432.514	803.76
432.89	828.62
433.265	838.34
433.641	834.27
434.016	833.59
434.392	852.12
434.767	853.48
435.143	885.12
435.518	843.54
435.894	864.1
436.269	904.55
436.644	895.97
437.02	910.88
437.395	903.65
437.77	919.47
438.145	920.82
438.52	941.61
438.895	915.63
439.271	944.78
439.646	951.78
440.021	939.35
440.395	965.12
440.77	996.98
441.145	979.35
441.52	989.3
441.895	991.1
442.27	992.69
442.645	989.75
443.019	1018.67
443.394	972.8
443.769	1034.27
444.143	1006.47
444.518	1023.87
444.892	1042.85
445.267	1034.49
445.641	1039.69
446.016	1037.88
446.39	1044.21
446.764	1066.36
447.139	1074.27
447.513	1079.01
447.887	1076.07
448.262	1063.42
448.636	1096.19
449.01	1102.06
449.384	1094.6
449.758	1111.78
450.132	1141.83
450.506	1126.69
450.88	1141.83
451.254	1128.73
451.628	1126.47
452.002	1163.75
452.376	1179.35
452.75	1165.34
453.123	1202.85
453.497	1240.36
453.871	1231.32
454.244	1254.37
454.618	1246.46
454.992	1237.65
455.365	1259.12
455.739	1281.49
456.112	1278.55
456.486	1289.63
456.859	1321.26
457.232	1321.94
457.606	1354.26
457.979	1373.47
458.352	1374.6
458.725	1384.99
459.099	1387.48
459.472	1419.79
459.845	1432.22
460.218	1477.42
460.591	1458.66
460.964	1470.41
461.337	1492.79
461.71	1526.01
462.083	1540.92
462.456	1547.25
462.829	1532.11
463.201	1542.73
463.574	1553.8
463.947	1606.68
464.32	1622.5
464.692	1621.6
465.065	1629.96
465.438	1671.99
465.81	1670.18
466.183	1684.87
466.555	1724.19
466.928	1743.85
467.3	1753.34
467.672	1756.06
468.045	1815.49
468.417	1790.4
468.789	1829.27
469.161	1857.07
469.534	1867.24
469.906	1889.84
470.278	1944.07
470.65	1948.82
471.022	1956.95
471.394	2045.31
471.766	2038.76
472.138	2053.45
472.51	2093.9
472.882	2137.51
473.253	2134.58
473.625	2162.15
473.997	2200.56
474.369	2205.54
474.74	2248.92
475.112	2313.78
475.484	2329.83
475.855	2334.35
476.227	2385.87
476.598	2392.87
476.97	2455.25
477.341	2467
477.713	2495.02
478.084	2512.19
478.455	2586.99
478.827	2626.77
479.198	2704.51
479.569	2687.1
479.94	2759.42
480.311	2744.73
480.682	2792.64
481.053	2891.17
481.424	2916.93
481.795	2953.76
482.166	2981.56
482.537	3060.43
482.908	3095.23
483.279	3101.33
483.65	3130.93
484.021	3219.07
484.391	3266.3
484.762	3275.34
485.133	3324.15
485.503	3339.52
485.874	3431.94
486.244	3497.03
486.615	3497.25
486.985	3553.75
487.356	3626.06
487.726	3666.29
488.097	3742.22
488.467	3730.69
488.837	3809.56
489.207	3835.77
489.578	3914.19
489.948	3925.72
490.318	3973.85
490.688	3999.84
491.058	4054.3
491.428	4120.74
491.798	4157.35
492.168	4242.77
492.538	4237.35
492.908	4290.45
493.278	4314.41
493.648	4372.94
494.017	4383.11
494.387	4447.28
494.757	4472.37
495.126	4564.8
495.496	4542.2
495.866	4574.51
496.235	4612.93
496.605	4640.73
496.974	4732.7
497.344	4763.89
497.713	4768.41
498.082	4803.66
498.452	4886.14
498.821	4855.86
499.19	4875.75
499.559	4930.21
499.928	4966.14
500.298	5056.31
500.667	5068.51
501.036	4995.07
501.405	5132.46
501.774	5131.33
502.143	5168.4
502.512	5202.74
502.88	5220.37
503.249	5227.15
503.618	5303.53
503.987	5356.86
504.356	5317.77
504.724	5397.09
505.093	5356.86
505.462	5397.54
505.83	5505.34
506.199	5511.44
506.567	5574.03
506.936	5618.78
507.304	5683.41
507.672	5627.82
508.041	5701.26
508.409	5726.35
508.777	5778.1
509.145	5856.29
509.514	5835.27
509.882	5874.37
510.25	5885.89
510.618	5898.09
510.986	5943.97
511.354	6053.34
511.722	6104.42
512.09	6164.08
512.458	6158.43
512.826	6243.62
513.193	6276.61
513.561	6313.45
513.929	6300.79
514.297	6353
514.664	6365.88
515.032	6433.45
515.4	6534.46
515.767	6560.45
516.135	6581.01
516.502	6522.94
516.869	6721.57
517.237	6702.82
517.604	6725.42
517.972	6792.76
518.339	6825.98
518.706	6883.6
519.073	6949.59
519.44	6982.36
519.808	7015.8
520.175	7066.2
520.542	7123.82
520.909	7237.04
521.276	7170.6
521.643	7239.75
522.009	7357.49
522.376	7372.18
522.743	7468.45
523.11	7472.74
523.477	7595.68
523.843	7588.9
524.21	7724.03
524.577	7692.4
524.943	7778.72
525.31	7778.72
525.676	7886.97
526.043	7994.31
526.409	7989.34
526.776	8083.57
527.142	8087.64
527.508	8139.16
527.874	8213.51
528.241	8345.71
528.607	8346.62
528.973	8458.03
529.339	8418.93
529.705	8511.36
530.071	8561.53
530.437	8587.97
530.803	8676.1
531.169	8679.26
531.535	8641.98
531.901	8733.27
532.267	8775.98
532.632	8793.61
532.998	8905.7
533.364	8928.3
533.73	8925.36
534.095	8972.14
534.461	9048.07
534.826	9107.73
535.192	9136.88
535.557	9259.36
535.923	9189.76
536.288	9259.59
536.653	9354.95
537.019	9246.93
537.384	9273.15
537.749	9324.44
538.114	9374.39
538.479	9464.33
538.845	9512.91
539.21	9488.51
539.575	9503.42
539.94	9555.4
540.305	9593.14
540.67	9543.65
541.034	9649.86
541.399	9755.85
541.764	9725.79
542.129	9744.55
542.494	9765.79
542.858	9778.22
543.223	9806.69
543.587	9954.48
543.952	9910.19
544.316	9903.86
544.681	9929.17
545.045	10032.67
545.41	10106.57
545.774	10036.74
546.138	10093.92
546.503	10137.3
546.867	10173.91
547.231	10261.82
547.595	10254.59
547.959	10268.37
548.324	10297.07
548.688	10380.01
549.052	10337.07
549.416	10347.47
549.779	10410.74
550.143	10441.7
550.507	10561.7
550.871	10554.02
551.235	10573.68
551.599	10637.4
551.962	10677.4
552.326	10666.56
552.689	10711.75
553.053	10792.65
553.417	10761.69
553.78	10885.76
554.143	10903.61
554.507	10985.64
554.87	10946.55
555.234	11078.52
555.597	10992.2
555.96	11132.08
556.323	11136.15
556.686	11220.44
557.05	11260.44
557.413	11320.78
557.776	11293.43
558.139	11400.32
558.502	11426.76
558.865	11522.13
559.228	11538.85
559.59	11561.22
559.953	11589.92
560.316	11647.55
560.679	11739.3
561.041	11827.66
561.404	11817.94
561.767	11871.5
562.129	11949.01
562.492	12092.28
562.854	12138.83
563.217	12045.05
563.579	12081.89
563.941	12186.29
564.304	12260.86
564.666	12330.24
565.028	12359.17
565.39	12430.35
565.753	12493.63
566.115	12471.03
566.477	12526.62
566.839	12483.46
567.201	12655.88
567.563	12617.46
567.925	12758.7
568.287	12693.4
568.648	12718.48
569.01	12770.91
569.372	12824.69
569.734	12922.09
570.095	13092.48
570.457	13053.39
570.819	13117.34
571.18	13094.29
571.542	13221.06
571.903	13156.43
572.265	13270.1
572.626	13313.04
572.987	13341.06
573.349	13430.32
573.71	13401.17
574.071	13408.86
574.432	13413.15
574.794	13592.35
575.155	13520.72
575.516	13539.7
575.877	13606.14
576.238	13593.03
576.599	13642.52
576.96	13616.08
577.32	13694.05
577.681	13755.06
578.042	13713.48
578.403	13772.91
578.763	13884.55
579.124	13869.64
579.485	13891.33
579.845	13904.66
580.206	13927.49
580.566	13808.85
580.927	13848.62
581.287	13929.07
581.648	13926.13
582.008	13975.4
582.368	13950.99
582.728	13990.31
583.089	14031.66
583.449	13979.46
583.809	14010.87
584.169	14061.27
584.529	14113.47
584.889	14112.34
585.249	14040.7
585.609	13981.27
585.969	14120.7
586.329	14017.2
586.688	14086.8
587.048	14031.66
587.408	14065.34
587.768	14031.66
588.127	13921.16
588.487	14071.44
588.846	14073.47
589.206	13938.56
589.565	13947.6
589.925	14110.76
590.284	14004.1
590.643	14063.53
591.003	14094.04
591.362	14097.43
591.721	14118.44
592.08	14164.09
592.44	14112.57
592.799	14123.41
593.158	14018.56
593.517	14160.93
593.876	14221.94
594.235	14218.1
594.593	14127.03
594.952	14167.03
595.311	14094.94
595.67	14154.37
596.029	14268.49
596.387	14227.37
596.746	14262.17
597.104	14165.45
597.463	14129.52
597.822	14162.73
598.18	14155.28
598.538	14198.44
598.897	14280.02
599.255	14129.74
599.613	14348.49
599.972	14211.32
600.33	14346.23
600.688	14247.48
601.046	14331.54
601.404	14315.73
601.762	14399.34
602.12	14388.27
602.478	14342.39
602.836	14407.7
603.194	14410.41
603.552	14413.12
603.91	14331.32
604.268	14453.57
604.625	14396.4
604.983	14378.55
605.341	14337.19
605.698	14486.12
606.056	14431.65
606.413	14443.41
606.771	14502.61
607.128	14607.02
607.485	14490.64
607.843	14449.51
608.2	14575.15
608.557	14622.84
608.914	14499.68
609.272	14564.53
609.629	14669.61
609.986	14673.46
610.343	14566.11
610.7	14690.63
611.057	14695.38
611.414	14696.51
611.771	14683.63
612.127	14801.81
612.484	14787.58
612.841	14827.12
613.198	14782.38
613.554	14818.08
613.911	14861.02
614.267	14812.44
614.624	14741.7
614.98	14781.25
615.337	14822.15
615.693	14837.07
616.05	14831.64
616.406	14818.08
616.762	14925.88
617.118	14956.39
617.475	14847.46
617.831	14943.73
618.187	14973.56
618.543	14978.08
618.899	15073.9
619.255	14965.43
619.611	15008.36
619.967	15100.11
620.323	15062.6
620.678	14980.34
621.034	14958.87
621.39	15016.5
621.746	14967.91
622.101	15121.81
622.457	15031.64
622.812	15040
623.168	15154.8
623.523	15033.9
623.879	15101.02
624.234	14924.97
624.589	15079.77
624.945	15054.69
625.3	15135.14
625.655	15037.29
626.01	15071.41
626.365	15136.49
626.72	15044.29
627.075	15022.15
627.43	15058.3
627.785	15040.23
628.14	15001.36
628.495	15002.26
628.85	14957.74
629.205	15042.03
629.559	14987.57
629.914	14967.69
630.269	15007.46
630.623	14945.99
630.978	14832.32
631.332	14942.6
631.687	14918.65
632.041	15070.73
632.396	14961.36
632.75	14840.68
633.104	14879.33
633.459	14862.6
633.813	14882.94
634.167	14746
634.521	14834.36
634.875	14801.59
635.229	14807.46
635.583	14662.83
635.937	14684.53
636.291	14595.04
636.645	14657.19
636.999	14617.64
637.352	14722.72
637.706	14536.28
638.06	14654.47
638.413	14596.4
638.767	14547.36
639.121	14617.86
639.474	14536.96
639.828	14470.98
640.181	14496.74
640.534	14484.08
640.888	14419.45
641.241	14308.72
641.594	14395.5
641.947	14411.99
642.301	14399.11
642.654	14475.27
643.007	14425.1
643.36	14377.42
643.713	14303.52
644.066	14397.53
644.419	14295.16
644.771	14181.94
645.124	14033.47
645.477	14044.77
645.83	13968.39
646.182	13891.56
646.535	13778.11
646.888	13954.6
647.24	13695.85
647.593	13790.09
647.945	13809.07
648.298	13718.23
648.65	13604.33
649.002	13727.27
649.355	13673.93
649.707	13685.91
650.059	13741.28
650.411	13972.46
650.763	14014.26
651.115	14084.77
651.467	14024.21
651.819	14008.39
652.171	14005.22
652.523	13952.35
652.875	13942.18
653.227	13947.37
653.578	14042.51
653.93	14017.88
654.282	13900.37
654.633	13869.86
654.985	14002.97
655.337	13874.38
655.688	13890.88
656.039	13881.16
656.391	13769.75
656.742	13813.59
657.094	13762.07
657.445	13863.08
657.796	13843.87
658.147	13774.5
658.498	13866.25
658.849	13893.59
659.2	13779.02
659.551	13717.77
659.902	13791.9
660.253	13812.24
660.604	13838.22
660.955	13654.05
661.306	13745.57
661.656	13634.39
662.007	13639.58
662.358	13757.55
662.708	13645.01
663.059	13695.4
663.409	13625.8
663.76	13668.28
664.11	13642.07
664.461	13692.46
664.811	13719.36
665.161	13710.32
665.511	13644.1
665.862	13654.73
666.212	13693.37
666.562	13695.63
666.912	13610.66
667.262	13607.27
667.612	13589.42
667.962	13564.33
668.312	13626.7
668.662	13663.54
669.011	13669.64
669.361	13586.7
669.711	13549.64
670.06	13617.21
670.41	13511.9
670.76	13560.26
671.109	13482.53
671.459	13598.23
671.808	13436.2
672.157	13488.85
672.507	13447.05
672.856	13484.56
673.205	13452.92
673.554	13554.62
673.904	13426.48
674.253	13549.19
674.602	13495.63
674.951	13267.39
675.3	13122.99
675.649	13382.64
675.998	13392.36
676.346	13359.82
676.695	13436.65
677.044	13381.29
677.393	13452.92
677.741	13386.48
678.09	13319.82
678.438	13327.5
678.787	13307.84
679.135	13289.31
679.484	13224.91
679.832	13234.17
680.181	13250.22
680.529	13193.04
680.877	13106.49
681.225	13280.72
681.573	13257.9
681.922	13197.56
682.27	13170.67
682.618	13134.74
682.966	13122.54
683.314	13131.12
683.661	13066.27
684.009	13049.77
684.357	12970
684.705	12946.5
685.053	12994.63
685.4	12986.04
685.748	12879.38
686.095	12840.74
686.443	12706.28
686.79	12757.57
687.138	12751.02
687.485	12807.06
687.832	12791.92
688.18	12717.35
688.527	12697.91
688.874	12589.89
689.221	12562.78
689.568	12518.94
689.915	12593.96
690.262	12519.84
690.609	12420.18
690.956	12335.44
691.303	12384.7
691.65	12317.59
691.997	12277.59
692.344	12212.73
692.69	12187.87
693.037	12217.93
693.383	12136.57
693.73	12253.63
694.077	12116.46
694.423	12189.45
694.769	12109
695.116	12120.53
695.462	12117.37
695.808	12043.47
696.155	12047.54
696.501	12006.18
696.847	12000.31
697.193	11825.85
697.539	11862.46
697.885	11775.23
698.231	11774.1
698.577	11768.45
698.923	11786.07
699.269	11714.66
699.614	11612.97
699.96	11676.92
700.306	11618.85
700.651	11631.5
700.997	11503.37
701.342	11494.33
701.688	11502.92
702.033	11411.85
702.379	11469.25
702.724	11420.43
703.069	11460.43
703.415	11382.92
703.76	11287.78
704.105	11250.95
704.45	11283.26
704.795	11165.75
705.14	11106.77
705.485	11178.18
705.83	11125.98
706.175	11180.89
706.52	11049.37
706.865	11102.02
707.209	11059.31
707.554	10913.55
707.899	11014.57
708.243	10939.09
708.588	10974.34
708.932	10905.87
709.277	10928.92
709.621	11053.21
709.966	10889.15
710.31	10917.17
710.654	10783.84
710.998	10846.89
711.342	10792.88
711.687	10780.68
712.031	10723.28
712.375	10629.04
712.719	10620
713.063	10666.78
713.407	10687.8
713.75	10658.87
714.094	10690.51
714.438	10607.35
714.782	10582.04
715.125	10547.46
715.469	10564.19
715.812	10567.58
716.156	10453
716.499	10528.03
716.843	10533.45
717.186	10419.56
717.53	10486.22
717.873	10488.03
718.216	10508.37
718.559	10362.61
718.902	10286.9
719.246	10301.37
719.589	10300.69
719.932	10292.55
720.275	10337.3
720.617	10304.08
720.96	10268.37
721.303	10232.67
721.646	10230.18
721.989	10178.43
722.331	10227.7
722.674	10133.46
723.016	10189.51
723.359	10166.23
723.701	10196.96
724.044	10124.2
724.386	10034.93
724.729	9990.87
725.071	10070.64
725.413	9994.71
725.755	9966.24
726.097	9917.87
726.439	9939.8
726.782	9903.64
727.124	10005.33
727.465	9941.38
727.807	9889.85
728.149	9913.81
728.491	9827.03
728.833	9938.67
729.175	9833.36
729.516	9821.83
729.858	9781.61
730.199	9844.88
730.541	9781.38
730.882	9806.92
731.224	9843.3
731.565	9658.9
731.906	9751.55
732.248	9726.92
732.589	9703.64
732.93	9645.11
733.271	9636.3
733.612	9714.72
733.953	9677.43
734.294	9563.99
734.635	9588.39
734.976	9578.45
735.317	9529.18
735.658	9535.96
735.999	9560.6
736.339	9504.55
736.68	9606.24
737.021	9452.8
737.361	9375.97
737.702	9488.96
738.042	9461.84
738.383	9459.81
738.723	9406.25
739.063	9386.14
739.404	9333.48
739.744	9352.47
740.084	9338.23
740.424	9355.63
740.764	9319.92
741.104	9405.35
741.444	9338.91
741.784	9295.74
742.124	9362.41
742.464	9253.26
742.804	9236.54
743.143	9197.67
743.483	9182.07
743.823	9196.54
744.162	9109.31
744.502	9259.81
744.841	9202.87
745.181	9179.82
745.52	9124.9
745.86	9213.71
746.199	9067.5
746.538	9120.16
746.877	9137.78
747.216	9024.11
747.556	8989.31
747.895	9031.8
748.234	9021.85
748.573	9022.98
748.911	8934.17
749.25	9026.6
749.589	8911.12
749.928	8919.93
750.267	8991.57
750.605	8926.26
750.944	8855.76
751.283	8854.4
751.621	8847.62
751.96	8847.39
752.298	8822.08
752.636	8777.34
752.975	8766.72
753.313	8676.1
753.651	8815.08
753.989	8723.33
754.327	8693.73
754.666	8695.08
755.004	8641.07
755.342	8653.73
755.679	8673.84
756.017	8525.82
756.355	8603.33
756.693	8489.21
757.031	8521.75
757.368	8468.42
757.706	8519.49
758.044	8487.4
758.381	8447.86
758.719	8422.77
759.056	8434.75
759.394	8371.25
759.731	8352.72
760.068	8338.71
760.405	8271.82
760.743	8295.09
761.08	8304.81
761.417	8262.55
761.754	8256.68
762.091	8215.32
762.428	8197.47
762.765	8177.36
763.102	8145.04
763.438	8135.55
763.775	8061.2
764.112	8064.36
764.449	8046.06
764.785	8028.66
765.122	7964.71
765.458	7989.11
765.795	7936.01
766.131	7944.82
766.467	7909.79
766.804	7862.34
767.14	7828.21
767.476	7821.21
767.812	7861.66
768.148	7804.03
768.485	7760.87
768.821	7741.66
769.157	7731.04
769.492	7718.38
769.828	7673.64
770.164	7601.55
770.5	7591.61
770.836	7622.12
771.171	7610.36
771.507	7524.72
771.842	7504.6
772.178	7476.58
772.513	7446.08
772.849	7425.96
773.184	7345.97
773.519	7346.42
773.855	7308.68
774.19	7287.21
774.525	7287.21
774.86	7284.05
775.195	7223.71
775.53	7190.71
775.865	7201.56
776.2	7145.97
776.535	7115.69
776.87	7141.68
777.205	7084.95
777.539	7019.42
777.874	7070.04
778.209	6982.13
778.543	6972.42
778.878	6927.9
779.212	6947.33
779.547	6903.04
779.881	6910.27
780.215	6788.24
780.55	6850.61
780.884	6786.21
781.218	6813.32
781.552	6782.36
781.886	6723.61
782.22	6716.15
782.554	6757.73
782.888	6665.08
783.222	6640.22
783.556	6563.16
783.889	6567.23
784.223	6576.95
784.557	6528.36
784.89	6493.56
785.224	6494.24
785.557	6532.2
785.891	6418.53
786.224	6510.51
786.558	6470.96
786.891	6390.74
787.224	6399.1
787.557	6466.44
787.891	6405.88
788.224	6385.31
788.557	6364.97
788.89	6295.15
789.223	6333.79
789.556	6325.43
789.888	6290.85
790.221	6239.33
790.554	6224.19
790.887	6219.44
791.219	6181.48
791.552	6163.17
791.884	6045.66
792.217	6056.51
792.549	5994.14
792.882	6053.12
793.214	6042.95
793.546	6009.95
793.879	6012.89
794.211	5941.48
794.543	5909.84
794.875	5926.34
795.207	5942.84
795.539	5938.32
795.871	5928.83
796.203	5861.71
796.535	5794.82
796.867	5839.34
797.198	5790.98
797.53	5844.08
797.862	5762.73
798.193	5793.01
798.525	5754.14
798.856	5727.48
799.188	5742.62
799.519	5678.89
799.85	5628.5
800.182	5560.93
800.513	5616.74
800.844	5589.63
801.175	5628.04
801.506	5620.13
801.837	5594.82
802.168	5599.8
802.499	5583.75
802.83	5535.39
803.161	5522.96
803.491	5492.68
803.822	5541.49
804.153	5482.51
804.483	5434.83
804.814	5392.12
805.145	5370.65
805.475	5431.67
805.805	5449.52
806.136	5367.26
806.466	5405.9
806.796	5381.95
807.126	5371.78
807.457	5360.48
807.787	5324.1
808.117	5294.95
808.447	5278.9
808.777	5291.1
809.107	5331.33
809.436	5268.05
809.766	5275.74
810.096	5259.01
810.426	5161.16
810.755	5258.11
811.085	5224.21
811.414	5200.71
811.744	5168.4
812.073	5132.01
812.403	5148.73
812.732	5139.47
813.061	5108.28
813.39	5112.58
813.719	5117.78
814.049	5092.69
814.378	5088.4
814.707	5075.97
815.036	5024.67
815.365	5037.78
815.693	5005.01
816.022	5032.81
816.351	4990.09
816.68	4964.11
817.008	4971.79
817.337	4958.23
817.665	4913.71
817.994	4910.77
818.322	4945.12
818.651	4903.32
818.979	4850.89
819.307	4860.15
819.636	4899.48
819.964	4809.08
820.292	4877.1
820.62	4867.39
820.948	4838.46
821.276	4851.79
821.604	4854.05
821.932	4892.47
822.259	4845.92
822.587	4851.12
822.915	4881.4
823.243	4899.93
823.57	4827.39
823.898	4891.11
824.225	4784.68
824.553	4840.49
824.88	4831.91
825.207	4838.01
825.535	4905.8
825.862	4890.89
826.189	4826.48
826.516	4847.05
826.843	4815.18
827.17	4824.22
827.497	4858.12
827.824	4875.97
828.151	4820.38
828.478	4775.64
828.805	4845.92
829.131	4847.27
829.458	4786.48
829.785	4794.85
830.111	4793.94
830.438	4796.65
830.764	4802.98
831.09	4825.58
831.417	4742.64
831.743	4800.95
832.069	4803.21
832.395	4798.24
832.722	4777.67
833.048	4774.96
833.374	4784
833.7	4768.86
834.026	4745.58
834.351	4750.78
834.677	4746.03
835.003	4734.28
835.329	4763.66
835.654	4736.99
835.98	4668.75
836.306	4705.81
836.631	4705.58
836.956	4734.96
837.282	4678.46
837.607	4665.13
837.932	4662.65
838.258	4638.69
838.583	4609.09
838.908	4626.71
839.233	4617.68
839.558	4596.21
839.883	4641.63
840.208	4609.54
840.533	4609.54
840.858	4553.04
841.182	4593.5
841.507	4614.96
841.832	4519.15
842.156	4524.34
842.481	4572.03
842.805	4513.95
843.13	4536.55
843.454	4494.06
843.778	4504.23
844.103	4503.33
844.427	4533.61
844.751	4467.17
845.075	4509.88
845.399	4508.53
845.723	4413.61
846.047	4425.14
846.371	4403.44
846.695	4457.23
847.019	4397.79
847.343	4377.46
847.666	4350.56
847.99	4384.24
848.313	4344.24
848.637	4282.99
848.96	4310.11
849.284	4271.7
849.607	4243.67
849.931	4217.23
850.254	4159.16
850.577	4168.42
850.9	4194.18
851.223	4146.73
851.546	4146.73
851.869	4131.59
852.192	4125.94
852.515	4094.75
852.838	4078.48
853.161	4081.64
853.483	4036.9
853.806	4053.62
854.129	4070.34
854.451	4011.59
854.774	4025.37
855.096	3969.78
855.419	3995.32
855.741	3988.99
856.063	3999.61
856.385	3991.25
856.708	3928.65
857.03	3943.34
857.352	3931.37
857.674	3903.57
857.996	3947.64
858.318	3860.18
858.64	3897.92
858.961	3915.77
859.283	3873.51
859.605	3847.75
859.926	3880.07
860.248	3848.2
860.57	3834.19
860.891	3844.14
861.212	3808.88
861.534	3821.09
861.855	3774.76
862.176	3802.33
862.498	3834.64
862.819	3806.4
863.14	3787.64
863.461	3751.03
863.782	3779.73
864.103	3786.06
864.424	3711.03
864.745	3773.4
865.065	3734.08
865.386	3713.29
865.707	3747.19
866.027	3700.19
866.348	3717.81
866.668	3715.33
866.989	3679.62
867.309	3662.9
867.63	3663.8
867.95	3692.95
868.27	3668.32
868.59	3695.44
868.91	3649.57
869.23	3701.54
869.55	3659.73
869.87	3675.55
870.19	3693.41
870.51	3657.47
870.83	3673.29
871.15	3634.65
871.469	3603.92
871.789	3644.82
872.109	3634.42
872.428	3580.64
872.748	3614.54
873.067	3608.66
873.386	3613.18
873.706	3602.56
874.025	3542
874.344	3576.8
874.663	3615.44
874.982	3565.05
875.301	3546.29
875.62	3526.4
875.939	3564.82
876.258	3571.83
876.577	3561.21
876.896	3547.87
877.214	3507.87
877.533	3526.4
877.852	3501.09
878.17	3502.9
878.489	3536.57
878.807	3558.95
879.125	3497.7
879.444	3480.08
879.762	3472.17
880.08	3473.52
880.398	3495.22
880.716	3515.33
881.034	3470.13
881.352	3485.95
881.67	3417.71
881.988	3487.08
882.306	3460.19
882.624	3459.51
882.941	3412.28
883.259	3392.4
883.577	3433.3
883.894	3433.53
884.212	3458.84
884.529	3485.28
884.846	3407.76
885.164	3410.25
885.481	3364.37
885.798	3372.28
886.115	3387.88
886.432	3342
886.75	3314.88
887.067	3312.85
887.383	3316.01
887.7	3324.6
888.017	3335
888.334	3317.37
888.651	3363.24
888.967	3275.79
889.284	3294.09
889.6	3270.82
889.917	3235.56
890.233	3248.45
890.55	3251.61
890.866	3253.42
891.182	3247.54
891.498	3231.72
891.815	3210.03
892.131	3239.18
892.447	3202.12
892.763	3202.12
893.079	3207.99
893.395	3211.16
893.71	3191.05
894.026	3200.09
894.342	3182.68
894.657	3125.74
894.973	3129.13
895.289	3138.62
895.604	3136.13
895.92	3130.03
896.235	3112.18
896.55	3097.72
896.865	3112.4
897.181	3099.3
897.496	3087.77
897.811	3078.28
898.126	3035.12
898.441	3043.25
898.756	3062.24
899.071	3037.15
899.386	2972.97
899.7	3010.49
900.015	3008
900.33	3021.56
900.644	3000.09
900.959	2984.72
901.273	2984.05
901.588	2950.37
901.902	2931.17
902.216	2950.83
902.531	2912.64
902.845	2951.5
903.159	2924.61
903.473	2914.44
903.787	2916.7
904.101	2926.42
904.415	2867.44
904.729	2850.04
905.042	2857.04
905.356	2846.87
905.67	2863.6
905.984	2866.76
906.297	2846.42
906.611	2772.75
906.924	2807.55
907.237	2779.08
907.551	2765.29
907.864	2774.56
908.177	2782.92
908.491	2747.22
908.804	2742.02
909.117	2728.46
909.43	2669.7
909.743	2693.43
910.056	2702.47
910.368	2716.48
910.681	2682.58
910.994	2654.11
911.307	2660.89
911.619	2666.09
911.932	2647.11
912.244	2623.6
912.557	2642.36
912.869	2602.81
913.181	2600.78
913.494	2606.2
913.806	2608.91
914.118	2598.97
914.43	2556.71
914.742	2556.49
915.054	2529.59
915.366	2543.83
915.678	2520.33
915.99	2526.88
916.302	2501.57
916.613	2479.88
916.925	2510.16
917.236	2435.13
917.548	2454.34
917.859	2438.07
918.171	2438.07
918.482	2413.44
918.794	2407.11
919.105	2434.23
919.416	2393.1
919.727	2424.06
920.038	2385.87
920.349	2391.97
920.66	2386.77
920.971	2384.74
921.282	2318.98
921.593	2350.39
921.903	2347.45
922.214	2356.49
922.525	2325.98
922.835	2343.61
923.146	2292.31
923.456	2303.16
923.767	2307
924.077	2314.68
924.387	2296.83
924.697	2287.34
925.008	2245.76
925.318	2215.93
925.628	2266.55
925.938	2251.18
926.248	2255.48
926.558	2226.78
926.867	2224.29
927.177	2222.26
927.487	2183.84
927.796	2194.24
928.106	2172.54
928.416	2167.57
928.725	2149.49
929.034	2163.28
929.344	2180
929.653	2131.41
929.962	2143.84
930.271	2116.05
930.581	2095.48
930.89	2095.71
931.199	2067.46
931.508	2078.53
931.817	2103.39
932.125	2059.32
932.434	2074.69
932.743	2040.34
933.051	2055.48
933.36	2040.34
933.669	2028.36
933.977	2036.05
934.286	2032.21
934.594	1984.07
934.902	2014.13
935.21	2010.06
935.519	1976.61
935.827	1975.03
936.135	1975.94
936.443	1987.91
936.751	1979.33
937.059	1962.83
937.367	1956.05
937.674	1923.96
937.982	1922.15
938.29	1896.39
938.597	1929.61
938.905	1908.82
939.213	1900.46
939.52	1908.14
939.827	1882.38
940.135	1891.19
940.442	1884.64
940.749	1879.44
941.056	1879.89
941.363	1867.24
941.67	1869.72
941.977	1850.06
942.284	1811.87
942.591	1816.84
942.898	1815.94
943.205	1803.06
943.511	1777.07
943.818	1771.87
944.125	1771.65
944.431	1769.84
944.738	1762.38
945.044	1741.14
945.35	1789.73
945.657	1761.25
945.963	1742.5
946.269	1736.85
946.575	1747.69
946.881	1730.97
947.187	1721.71
947.493	1710.18
947.799	1665.66
948.105	1704.76
948.41	1691.2
948.716	1701.37
949.022	1669.05
949.327	1678.77
949.633	1659.11
949.938	1660.92
950.244	1672.89
950.549	1652.78
950.854	1654.14
951.16	1660.69
951.465	1643.06
951.77	1639.22
952.075	1601.94
952.38	1616.17
952.685	1627.25
952.99	1610.07
953.294	1620.47
953.599	1586.79
953.904	1596.74
954.209	1585.66
954.513	1572.78
954.818	1560.58
955.122	1573.01
955.426	1568.94
955.731	1544.54
956.035	1549.28
956.339	1573.69
956.643	1562.61
956.948	1536.4
957.252	1535.5
957.556	1509.28
957.86	1509.73
958.163	1516.74
958.467	1511.99
958.771	1496.63
959.075	1498.21
959.378	1485.1
959.682	1529.17
959.985	1515.38
960.289	1476.97
960.592	1480.58
960.896	1475.38
961.199	1458.21
961.502	1441.49
961.805	1432.45
962.108	1434.93
962.411	1417.76
962.714	1391.55
963.017	1405.1
963.32	1426.57
963.623	1438.1
963.926	1406.91
964.228	1418.44
964.531	1376.86
964.833	1397.87
965.136	1384.99
965.438	1399.91
965.741	1392.68
966.043	1396.06
966.345	1365.56
966.648	1331.66
966.95	1362.39
967.252	1350.42
967.554	1359
967.856	1362.62
968.158	1361.72
968.46	1327.14
968.761	1318.33
969.063	1329.63
969.365	1329.63
969.666	1298.21
969.968	1303.41
970.269	1316.29
970.571	1316.75
970.872	1295.05
971.174	1279.91
971.475	1296.86
971.776	1278.33
972.077	1287.37
972.378	1282.17
972.679	1251.44
972.98	1239.91
973.281	1255.28
973.582	1234.26
973.883	1242.4
974.183	1240.59
974.484	1252.79
974.785	1232.68
975.085	1254.15
975.386	1200.14
975.686	1219.12
975.986	1216.18
976.287	1236.97
976.587	1193.81
976.887	1227.03
977.187	1229.06
977.487	1197.2
977.787	1196.3
978.087	1202.4
978.387	1187.48
978.687	1191.78
978.987	1154.72
979.286	1175.96
979.586	1166.24
979.885	1199.01
980.185	1158.56
980.484	1145.68
980.784	1149.29
981.083	1138.22
981.382	1137.99
981.682	1116.52
981.981	1127.6
982.28	1156.75
982.579	1140.48
982.878	1146.58
983.177	1132.8
983.475	1122.85
983.774	1123.08
984.073	1091.44
984.372	1132.34
984.67	1095.73
984.969	1101.84
985.267	1087.6
985.566	1096.41
985.864	1078.33
986.162	1071.55
986.461	1075.4
986.759	1073.36
987.057	1058.45
987.355	1081.27
987.653	1055.06
987.951	1065
988.249	1050.76
988.547	1065.68
988.844	1045.34
989.142	1036.98
989.44	1032.01
989.737	1063.19
990.035	1041.05
990.332	1023.42
990.63	1023.19
990.927	1022.06
991.224	1014.15
991.521	1006.7
991.819	1025.23
992.116	1020.03
992.413	1017.54
992.71	1012.35
993.006	979.8
993.303	992.69
993.6	977.77
993.897	974.61
994.193	978.9
994.49	975.29
994.787	972.57
995.083	972.12
995.379	970.77
995.676	973.48
995.972	967.15
996.268	938.22
996.565	946.59
996.861	951.56
997.157	935.06
997.453	932.57
997.749	939.58
998.044	973.03
998.34	936.64
998.636	917.66
998.932	926.7
999.227	905.68
999.523	915.4
999.818	901.84
1000.114	907.04
1000.409	877.66
1000.704	935.06
1001	897.1
1001.295	902.52
1001.59	914.04
1001.885	894.61
1002.18	879.24
1002.475	898.68
1002.77	899.13
1003.065	886.25
1003.359	892.12
1003.654	899.13
1003.949	879.69
1004.243	869.07
1004.538	873.82
1004.832	875.17
1005.127	868.17
1005.421	854.16
1005.715	852.35
1006.009	864.33
1006.304	826.36
1006.598	800.6
1006.892	824.78
1007.186	820.71
1007.48	845.35
1007.773	825.91
1008.067	829.75
1008.361	808.06
1008.655	814.39
1008.948	820.49
1009.242	820.94
1009.535	802.18
1009.829	792.69
1010.122	803.76
1010.415	807.61
1010.708	796.08
1011.001	782.52
1011.295	808.74
1011.588	801.05
1011.881	789.53
1012.173	764.67
1012.466	797.66
1012.759	752.92
1013.052	787.72
1013.344	770.54
1013.637	783.65
1013.93	768.51
1014.222	782.75
1014.514	753.6
1014.807	766.48
1015.099	754.27
1015.391	741.17
1015.683	733.48
1015.976	717.44
1016.268	741.62
1016.56	699.36
1016.851	732.35
1017.143	742.52
1017.435	736.42
1017.727	714.95
1018.018	684.45
1018.31	724.44
1018.602	700.04
1018.893	717.66
1019.185	736.42
1019.476	692.58
1019.767	691.68
1020.058	685.35
1020.35	676.99
1020.641	675.41
1020.932	694.61
1021.223	683.77
1021.514	646.93
1021.804	652.13
1022.095	692.13
1022.386	666.59
1022.677	675.86
1022.967	641.28
1023.258	655.07
1023.548	668.17
1023.839	656.42
1024.129	650.32
1024.419	674.28
1024.709	662.52
1025	630.21
1025.29	641.73
1025.58	625.01
1025.87	641.73
1026.16	615.07
1026.449	619.36
1026.739	601.96
1027.029	627.5
1027.319	638.57
1027.608	624.79
1027.898	614.39
1028.187	626.59
1028.477	592.02
1028.766	597.44
1029.055	589.76
1029.344	590.21
1029.634	598.8
1029.923	581.85
1030.212	610.1
1030.501	586.59
1030.79	596.09
1031.078	567.16
1031.367	582.08
1031.656	595.41
1031.945	566.48
1032.233	578.46
1032.522	581.85
1032.81	561.74
1033.099	576.88
1033.387	591.11
1033.675	574.84
1033.963	568.52
1034.251	588.18
1034.54	583.43
1034.828	559.02
1035.116	541.85
1035.403	552.7
1035.691	542.98
1035.979	560.61
1036.267	522.87
1036.554	521.29
1036.842	555.18
1037.129	530.55
1037.417	540.27
1037.704	542.98
1037.992	541.85
1038.279	541.4
1038.566	517.67
1038.853	517.67
1039.14	517.67
