Data from black_plastic_tray_FLMS001491_081.txt Node
Date: Tue Feb 07 10:40:51 GMT 2017
User: dcchb
Spectrometer: FLMS00149
Trigger mode: 0
Integration Time (sec): 2.000000E-2
Scans to average: 10
Electric dark correction enabled: true
Nonlinearity correction enabled: false
Boxcar width: 0
XAxis mode: Wavelengths
Number of Pixels in Spectrum: 2048
>>>>>Begin Spectral Data<<<<<
341.393	-18.7
341.776	-18.7
342.16	-18.7
342.543	-54.41
342.927	-76.33
343.31	-72.71
343.693	-68.87
344.077	-60.51
344.46	-69.32
344.843	-48.76
345.226	-48.76
345.61	-28.42
345.993	-8.53
346.376	2.99
346.759	24.69
347.142	15.65
347.525	46.83
347.908	41.64
348.291	86.16
348.674	79.83
349.057	108.08
349.44	115.53
349.823	138.13
350.206	159.83
350.588	162.76
350.971	228.3
351.354	207.96
351.737	230.78
352.119	245.47
352.502	224.23
352.884	244.34
353.267	261.07
353.65	287.51
354.032	283.66
354.414	295.64
354.797	304
355.179	302.65
355.562	310.33
355.944	301.52
356.326	320.27
356.709	325.02
357.091	307.39
357.473	300.61
357.855	300.61
358.238	338.58
358.62	322.08
359.002	325.7
359.384	338.8
359.766	336.09
360.148	314.85
360.53	317.79
360.912	330.9
361.294	316.88
361.676	320.27
362.057	310.56
362.439	320.95
362.821	323.89
363.203	322.99
363.584	311.91
363.966	285.02
364.348	331.12
364.729	318.24
365.111	309.88
365.493	306.04
365.874	324.34
366.256	300.16
366.637	310.1
367.019	324.79
367.4	319.37
367.781	295.42
368.163	298.81
368.544	296.55
368.925	299.94
369.306	318.01
369.688	315.3
370.069	309.43
370.45	327.73
370.831	309.65
371.212	313.27
371.593	290.44
371.974	297
372.355	311.01
372.736	322.31
373.117	315.53
373.498	311.01
373.879	311.23
374.26	317.11
374.641	320.27
375.021	306.49
375.402	316.43
375.783	327.05
376.163	336.54
376.544	327.05
376.925	337.45
377.305	320.5
377.686	311.69
378.066	322.53
378.447	334.96
378.827	345.13
379.208	328.41
379.588	331.12
379.968	322.53
380.349	333.61
380.729	342.65
381.109	319.82
381.489	332.7
381.87	337.22
382.25	356.88
382.63	348.75
383.01	346.94
383.39	352.82
383.77	334.28
384.15	334.96
384.53	351.01
384.91	363.21
385.29	339.03
385.67	363.66
386.049	364.34
386.429	343.55
386.809	356.21
387.189	360.72
387.568	365.7
387.948	362.76
388.328	377.9
388.707	364.57
389.087	367.73
389.466	345.81
389.846	368.41
390.225	389.65
390.605	393.72
390.984	403.44
391.363	361.85
391.743	382.42
392.122	423.1
392.501	386.71
392.881	379.71
393.26	388.75
393.639	377
394.018	376.54
394.397	395.3
394.776	398.69
395.155	405.24
395.534	413.15
395.913	412.7
396.292	407.96
396.671	406.37
397.05	433.27
397.429	412.25
397.808	425.81
398.186	420.16
398.565	440.95
398.944	424.9
399.323	435.53
399.701	429.2
400.08	438.92
400.458	426.03
400.837	429.42
401.215	421.29
401.594	422.64
401.972	451.8
402.351	465.13
402.729	448.18
403.107	460.61
403.486	447.73
403.864	464.45
404.242	451.12
404.62	480.5
404.999	490.89
405.377	474.39
405.755	453.6
406.133	475.52
406.511	466.94
406.889	483.43
407.267	479.59
407.645	483.21
408.023	492.7
408.401	478.24
408.779	493.15
409.156	503.32
409.534	513.94
409.912	516.88
410.29	520.49
410.667	531.12
411.045	512.36
411.422	520.95
411.8	526.37
412.178	530.21
412.555	526.6
412.933	527.73
413.31	547.16
413.687	539.48
414.065	555.3
414.442	552.36
414.819	560.27
415.197	584
415.574	563.66
415.951	569.53
416.328	577.89
416.705	557.33
417.082	597.1
417.46	598.23
417.837	596.65
418.214	604.56
418.591	595.75
418.967	617.44
419.344	623.77
419.721	617.44
420.098	618.57
420.475	621.28
420.852	631.68
421.228	643.66
421.605	633.49
421.982	628.51
422.358	647.27
422.735	627.61
423.111	670.32
423.488	642.53
423.864	652.69
424.241	672.81
424.617	677.78
424.994	687.04
425.37	697.89
425.746	687.04
426.123	673.94
426.499	690.89
426.875	677.78
427.251	698.8
427.627	714.84
428.003	720.04
428.379	737.89
428.756	762.75
429.132	739.25
429.507	752.81
429.883	714.61
430.259	767.49
430.635	785.57
431.011	779.7
431.387	781.73
431.763	808.4
432.138	788.51
432.514	824.67
432.89	808.17
433.265	833.03
433.641	839.13
434.016	852.69
434.392	833.03
434.767	842.29
435.143	855.85
435.518	873.25
435.894	855.63
436.269	875.74
436.644	887.04
437.02	896.76
437.395	913.7
437.77	926.59
438.145	929.07
438.52	953.03
438.895	946.7
439.271	950.54
439.646	974.72
440.021	969.75
440.395	968.39
440.77	942.86
441.145	966.58
441.52	972.91
441.895	974.95
442.27	984.21
442.645	985.79
443.019	990.31
443.394	1018.33
443.769	1003.87
444.143	1038.9
444.518	1040.03
444.892	1036.19
445.267	1039.58
445.641	1040.93
446.016	1041.16
446.39	1072.34
446.764	1097.88
447.139	1071.89
447.513	1070.08
447.887	1064.89
448.262	1061.27
448.636	1075.51
449.01	1082.74
449.384	1102.85
449.758	1107.37
450.132	1131.33
450.506	1135.39
450.88	1114.38
451.254	1153.02
451.628	1149.63
452.002	1151.21
452.376	1169.07
452.75	1181.04
453.123	1170.42
453.497	1201.61
453.871	1210.42
454.244	1233.02
454.618	1274.37
454.992	1264.2
455.365	1248.39
455.739	1280.93
456.112	1304.88
456.486	1339.91
456.859	1288.61
457.232	1311.89
457.606	1316.63
457.979	1352.56
458.352	1371.09
458.725	1383.52
459.099	1406.35
459.472	1430.98
459.845	1433.47
460.218	1450.19
460.591	1442.96
460.964	1479.57
461.337	1483.63
461.71	1507.36
462.083	1523.18
462.456	1512.56
462.829	1529.51
463.201	1563.86
463.574	1544.87
463.947	1589.85
464.32	1638.88
464.692	1607.02
465.065	1684.53
465.438	1669.84
465.81	1711.88
466.183	1687.47
466.555	1750.52
466.928	1731.54
467.3	1764.53
467.672	1786.45
468.045	1797.3
468.417	1815.15
468.789	1821.25
469.161	1841.36
469.534	1895.15
469.906	1927.01
470.278	1922.04
470.65	1936.73
471.022	1975.15
471.394	1989.61
471.766	2014.69
472.138	2030.06
472.51	2031.64
472.882	2097.4
473.253	2129.49
473.625	2150.28
473.997	2217.4
474.369	2189.15
474.74	2236.16
475.112	2287.68
475.484	2292.2
475.855	2355.47
476.227	2353.21
476.598	2416.26
476.97	2430.28
477.341	2485.64
477.713	2518.86
478.084	2506.66
478.455	2610.38
478.827	2609.25
479.198	2675.01
479.569	2674.11
479.94	2760.44
480.311	2785.29
480.682	2825.29
481.053	2879.53
481.424	2909.81
481.795	2975.12
482.166	2997.72
482.537	3074.33
482.908	3071.16
483.279	3119.75
483.65	3159.3
484.021	3217.15
484.391	3267.77
484.762	3299.63
485.133	3328.1
485.503	3394.77
485.874	3471.15
486.244	3468.89
486.615	3545.73
486.985	3550.7
487.356	3650.36
487.726	3693.52
488.097	3751.6
488.467	3684.03
488.837	3787.3
489.207	3855.1
489.578	3885.38
489.948	3895.77
490.318	4000.63
490.688	3998.14
491.058	4059.84
491.428	4130.57
491.798	4155.43
492.168	4217.35
492.538	4232.94
492.908	4271.81
493.278	4314.29
493.648	4330.79
494.017	4418.7
494.387	4428.64
494.757	4491.69
495.126	4479.49
495.496	4510.9
495.866	4594.29
496.235	4648.75
496.605	4693.94
496.974	4665.92
497.344	4765.13
497.713	4764
498.082	4827.95
498.452	4855.97
498.821	4860.27
499.19	4842.42
499.559	4930.77
499.928	4956.76
500.298	5014.39
500.667	5043.31
501.036	5078.12
501.405	5060.94
501.774	5107.49
502.143	5215.74
502.512	5231.56
502.88	5249.64
503.249	5223.2
503.618	5291.67
503.987	5306.58
504.356	5326.7
504.724	5412.34
505.093	5412.57
505.462	5415.28
505.83	5404.66
506.199	5495.28
506.567	5629.74
506.936	5629.29
507.304	5619.8
507.672	5690.08
508.041	5710.41
508.409	5777.76
508.777	5757.19
509.145	5884.42
509.514	5806.91
509.882	5886.46
510.25	5919.67
510.618	5938.21
510.986	5975.72
511.354	6073.34
511.722	6111.99
512.09	6186.56
512.458	6200.12
512.826	6237.63
513.193	6278.08
513.561	6239.89
513.929	6295.03
514.297	6381.36
514.664	6405.54
515.032	6433.79
515.4	6534.35
515.767	6547.45
516.135	6613.89
516.502	6583.61
516.869	6697.06
517.237	6678.75
517.604	6720.56
517.972	6757.39
518.339	6835.13
518.706	6877.39
519.073	6934.34
519.44	6945.86
519.808	7065.86
520.175	7060.44
520.542	7154.44
520.909	7169.59
521.276	7194.67
521.643	7262.69
522.009	7315.12
522.376	7414.32
522.743	7359.64
523.11	7486.41
523.477	7573.42
523.843	7570.03
524.21	7676.92
524.577	7757.59
524.943	7807.31
525.31	7716.24
525.676	7890.92
526.043	7911.03
526.409	7971.82
526.776	8091.6
527.142	8065.61
527.508	8170.24
527.874	8225.83
528.241	8273.74
528.607	8294.75
528.973	8335.88
529.339	8375.88
529.705	8453.85
530.071	8508.31
530.437	8588.76
530.803	8618.81
531.169	8735.65
531.535	8670.56
531.901	8694.74
532.267	8698.81
532.632	8829.88
532.998	8839.6
533.364	8886.6
533.73	8944.45
534.095	9028.75
534.461	9124.11
534.826	9058.35
535.192	9131.57
535.557	9217.44
535.923	9243.2
536.288	9288.63
536.653	9291.34
537.019	9245.69
537.384	9337.66
537.749	9409.98
538.114	9370.43
538.479	9379.7
538.845	9449.3
539.21	9509.86
539.575	9574.95
539.94	9640.03
540.305	9663.76
540.67	9613.14
541.034	9668.28
541.399	9698.56
541.764	9714.83
542.129	9768.61
542.494	9854.49
542.858	9828.5
543.223	9819.69
543.587	9911.89
543.952	9862.4
544.316	9978.33
544.681	9900.14
545.045	9986.91
545.41	10071.43
545.774	10102.16
546.138	10024.65
546.503	10149.85
546.867	10132.22
547.231	10239.56
547.595	10239.79
547.959	10228.04
548.324	10297.86
548.688	10272.55
549.052	10375.6
549.416	10290.41
549.779	10453.11
550.143	10454.47
550.507	10504.64
550.871	10497.63
551.235	10615.82
551.599	10645.2
551.962	10755.48
552.326	10697.18
552.689	10735.14
553.053	10836.61
553.417	10736.5
553.78	10956.6
554.143	10851.97
554.507	10969.03
554.87	10972.2
555.234	11091.52
555.597	11014
555.96	11109.82
556.323	11195.24
556.686	11131.74
557.05	11331.06
557.413	11294
557.776	11312.53
558.139	11400.66
558.502	11471.85
558.865	11487.44
559.228	11553.65
559.59	11566.31
559.953	11644.72
560.316	11795
560.679	11705.06
561.041	11806.98
561.404	11910.25
561.767	11976.24
562.129	11945.51
562.492	12003.13
562.854	11982.34
563.217	12054.43
563.579	12158.15
563.941	12299.62
564.304	12264.37
564.666	12332.16
565.028	12327.19
565.39	12346.62
565.753	12470.24
566.115	12489.67
566.477	12511.59
566.839	12572.83
567.201	12679.72
567.563	12716.11
567.925	12744.58
568.287	12750
568.648	12788.42
569.01	12853.05
569.372	12974.18
569.734	12885.59
570.095	13048.53
570.457	12978.47
570.819	13138.47
571.18	13121.07
571.542	13240.39
571.903	13192.48
572.265	13275.41
572.626	13291.46
572.987	13370.55
573.349	13375.52
573.71	13422.3
574.071	13414.62
574.432	13482.64
574.794	13645.8
575.155	13574.16
575.516	13487.39
575.877	13579.81
576.238	13632.01
576.599	13694.16
576.96	13658
577.32	13618.68
577.681	13676.08
578.042	13747.72
578.403	13760.82
578.763	13813.25
579.124	13825.91
579.485	13792.91
579.845	13874.72
580.206	13863.87
580.566	13867.71
580.927	13847.83
581.287	13930.31
581.648	13847.6
582.008	13904.1
582.368	13929.18
582.728	14063.64
583.089	14011.89
583.449	13966.92
583.809	13993.81
584.169	14062.96
584.529	14024.32
584.889	14099.57
585.249	14024.77
585.609	14046.24
585.969	14032
586.329	14019.8
586.688	14061.83
587.048	14047.14
587.408	13972.57
587.768	13945.9
588.127	13999.24
588.487	13979.58
588.846	14152.68
589.206	13913.81
589.565	13966.47
589.925	14036.52
590.284	13968.28
590.643	14022.74
591.003	14080.36
591.362	14065
591.721	14059.12
592.08	14104.09
592.44	14186.35
592.799	14099.12
593.158	14010.31
593.517	14053.25
593.876	14194.71
594.235	14089.18
594.593	14060.48
594.952	14122.85
595.311	14038.33
595.67	14081.27
596.029	14302.96
596.387	14166.24
596.746	14203.75
597.104	14178.21
597.463	14156.52
597.822	14162.4
598.18	14150.87
598.538	14129.18
598.897	14180.02
599.255	14135.28
599.613	14296.86
599.972	14280.13
600.33	14358.77
600.688	14214.15
601.046	14319.91
601.404	14408.04
601.762	14266.57
602.12	14389.06
602.478	14445.78
602.836	14373.01
603.194	14371.88
603.552	14376.63
603.91	14316.74
604.268	14501.37
604.625	14357.65
604.983	14453.46
605.341	14375.05
605.698	14438.77
606.056	14434.25
606.413	14415.27
606.771	14492.33
607.128	14467.25
607.485	14520.35
607.843	14532.78
608.2	14626.34
608.557	14608.49
608.914	14631.54
609.272	14678.09
609.629	14633.34
609.986	14633.34
610.343	14599.22
610.7	14729.39
611.057	14670.86
611.414	14634.25
611.771	14791.76
612.127	14833.79
612.484	14710.18
612.841	14819.33
613.198	14819.78
613.554	14851.87
613.911	14861.81
614.267	14831.3
614.624	14876.73
614.98	14848.03
615.337	14899.78
615.693	14896.16
616.05	14821.81
616.406	14996.27
616.762	14831.08
617.118	14966.67
617.475	15011.19
617.831	15056.38
618.187	14996.5
618.543	14966.67
618.899	15005.76
619.255	15101.35
619.611	14984.07
619.967	15081.02
620.323	15090.73
620.678	14977.74
621.034	14979.1
621.39	15058.87
621.746	14985.43
622.101	15218.87
622.457	15015.71
622.812	15024.52
623.168	15131.64
623.523	15029.27
623.879	15092.09
624.234	14922.83
624.589	15116.95
624.945	15082.82
625.3	15043.28
625.655	15081.92
626.01	15141.81
626.365	14994.24
626.72	15151.75
627.075	14996.72
627.43	15020.45
627.785	14989.72
628.14	14967.57
628.495	15021.13
628.85	14991.53
629.205	14944.97
629.559	15024.29
629.914	14917.4
630.269	14926.44
630.623	14841.02
630.978	14952.88
631.332	14925.31
631.687	15070.62
632.041	14902.26
632.396	14995.82
632.75	14902.04
633.104	14886.67
633.459	14817.97
633.813	14796.28
634.167	14843.73
634.521	14828.82
634.875	14848.03
635.229	14763.51
635.583	14705.88
635.937	14708.14
636.291	14695.04
636.645	14711.53
636.999	14583.63
637.352	14653.68
637.706	14550.63
638.06	14565.1
638.413	14624.53
638.767	14634.02
639.121	14590.18
639.474	14476.51
639.828	14519.9
640.181	14554.7
640.534	14503.18
640.888	14399.45
641.241	14385.44
641.594	14407.81
641.947	14417.76
642.301	14387.47
642.654	14439.22
643.007	14400.36
643.36	14283.97
643.713	14314.48
644.066	14308.61
644.419	14271.55
644.771	14179.34
645.124	14082.62
645.477	14053.47
645.83	13980.71
646.182	13862.06
646.535	13774.38
646.888	13877.43
647.24	13844.44
647.593	13828.62
647.945	13762.63
648.298	13709.53
648.65	13714.27
649.002	13665.46
649.355	13770.99
649.707	13635.18
650.059	13709.3
650.411	13934.83
650.763	13943.87
651.115	14049.86
651.467	14059.35
651.819	14012.34
652.171	14051.44
652.523	13995.17
652.875	13945.45
653.227	13910.88
653.578	14014.38
653.93	13952.68
654.282	13925.79
654.633	13874.72
654.985	13852.8
655.337	13860.93
655.688	13867.26
656.039	13902.29
656.391	13755.18
656.742	13763.76
657.094	13805.8
657.445	13914.72
657.796	13834.72
658.147	13876.08
658.498	13807.6
658.849	13862.06
659.2	13861.61
659.551	13778
659.902	13812.8
660.253	13770.09
660.604	13824.78
660.955	13662.07
661.306	13802.41
661.656	13623.65
662.007	13645.8
662.358	13688.74
662.708	13660.26
663.059	13590.89
663.409	13541.62
663.76	13643.31
664.11	13719.92
664.461	13642.64
664.811	13698
665.161	13667.49
665.511	13563.99
665.862	13654.16
666.212	13683.31
666.562	13693.48
666.912	13679.24
667.262	13571
667.612	13644.9
667.962	13599.47
668.312	13574.16
668.662	13693.93
669.011	13590.43
669.361	13531.9
669.711	13549.08
670.06	13591.34
670.41	13574.84
670.76	13508.18
671.109	13577.33
671.459	13550.66
671.808	13530.32
672.157	13552.02
672.507	13502.53
672.856	13395.86
673.205	13499.81
673.554	13504.79
673.904	13461.4
674.253	13545.24
674.602	13464.79
674.951	13199.03
675.3	13207.17
675.649	13415.97
675.998	13426.6
676.346	13481.96
676.695	13463.66
677.044	13361.74
677.393	13355.41
677.741	13391.34
678.09	13293.27
678.438	13283.1
678.787	13309.99
679.135	13280.39
679.484	13263.89
679.832	13328.52
680.181	13221.18
680.529	13345.47
680.877	13129.88
681.225	13200.16
681.573	13318.12
681.922	13243.32
682.27	13221.18
682.618	13081.52
682.966	13065.93
683.314	13119.26
683.661	13075.64
684.009	13038.36
684.357	12978.02
684.705	13011.47
685.053	12966.04
685.4	12902.32
685.748	12867.29
686.095	12849.89
686.443	12771.25
686.79	12796.78
687.138	12785.03
687.485	12775.77
687.832	12724.69
688.18	12747.97
688.527	12705.94
688.874	12597.01
689.221	12647.63
689.568	12528.54
689.915	12558.6
690.262	12493.06
690.609	12471.82
690.956	12380.07
691.303	12348.66
691.65	12318.83
691.997	12345.72
692.344	12180.08
692.69	12257.36
693.037	12217.81
693.383	12166.52
693.73	12210.36
694.077	12134.43
694.423	12247.87
694.769	12094.88
695.116	12061.66
695.462	12110.7
695.808	12089.68
696.155	12048.33
696.501	11903.25
696.847	11979.4
697.193	11856.24
697.539	11881.33
697.885	11773.31
698.231	11765.4
698.577	11742.12
698.923	11719.75
699.269	11737.37
699.614	11732.18
699.96	11622.8
700.306	11611.5
700.651	11519.75
700.997	11563.59
701.342	11507.1
701.688	11504.16
702.033	11520.66
702.379	11415.58
702.724	11420.77
703.069	11457.61
703.415	11313.88
703.76	11272.3
704.105	11284.73
704.45	11235.92
704.795	11185.75
705.14	11215.81
705.485	11123.38
705.83	11122.48
706.175	11140.1
706.52	11122.25
706.865	11054.68
707.209	11046.09
707.554	11068.01
707.899	10957.28
708.243	10971.97
708.588	10985.98
708.932	10922.71
709.277	10906.21
709.621	10949.83
709.966	10832.54
710.31	10891.3
710.654	10704.18
710.998	10858.08
711.342	10765.65
711.687	10742.15
712.031	10758.42
712.375	10634.13
712.719	10734.92
713.063	10665.99
713.407	10698.53
713.75	10679.32
714.094	10655.82
714.438	10533.56
714.782	10590.51
715.125	10500.57
715.469	10591.64
715.812	10485.2
716.156	10407.69
716.499	10523.4
716.843	10453.34
717.186	10449.5
717.53	10484.07
717.873	10449.5
718.216	10460.57
718.559	10346.68
718.902	10314.36
719.246	10416.51
719.589	10381.93
719.932	10387.58
720.275	10316.62
720.617	10268.04
720.96	10226
721.303	10246.11
721.646	10246.79
721.989	10172.9
722.331	10179.45
722.674	10211.54
723.016	10199.34
723.359	10180.13
723.701	10139.22
724.044	10111.43
724.386	10068.27
724.729	10084.09
725.071	10093.8
725.413	10043.41
725.755	9990.08
726.097	9891.32
726.439	9984.88
726.782	9930.42
727.124	9979
727.465	9913.02
727.807	9949.17
728.149	9882.73
728.491	9902.39
728.833	9886.35
729.175	9836.63
729.516	9801.15
729.858	9819.23
730.199	9829.85
730.541	9768.16
730.882	9780.82
731.224	9791.44
731.565	9709.86
731.906	9735.17
732.248	9646.81
732.589	9673.47
732.93	9660.82
733.271	9647.26
733.612	9711.44
733.953	9644.32
734.294	9575.85
734.635	9621.5
734.976	9603.42
735.317	9587.83
735.658	9511.67
735.999	9552.57
736.339	9565.91
736.68	9534.72
737.021	9486.81
737.361	9472.12
737.702	9512.57
738.042	9465.12
738.383	9428.96
738.723	9433.48
739.063	9395.97
739.404	9380.15
739.744	9310.55
740.084	9295.86
740.424	9386.25
740.764	9325.01
741.104	9380.6
741.444	9316.2
741.784	9182.64
742.124	9350.32
742.464	9166.14
742.804	9183.32
743.143	9202.98
743.483	9117.33
743.823	9236.65
744.162	9184.9
744.502	9195.97
744.841	9147.16
745.181	9175.41
745.52	9214.73
745.86	9156.65
746.199	9140.61
746.538	9134.28
746.877	9100.38
747.216	9024.9
747.556	9018.35
747.895	9033.72
748.234	9041.63
748.573	9011.12
748.911	8951.69
749.25	9050.67
749.589	8913.27
749.928	8986.94
750.267	8870.11
750.605	8962.08
750.944	8894.74
751.283	8859.94
751.621	8884.34
751.96	8833.27
752.298	8803.44
752.636	8795.31
752.975	8723.22
753.313	8745.14
753.651	8834.17
753.989	8730.22
754.327	8715.99
754.666	8694.97
755.004	8675.76
755.342	8684.35
755.679	8666.5
756.017	8516.89
756.355	8532.94
756.693	8471.7
757.031	8501.3
757.368	8529.55
757.706	8477.8
758.044	8469.44
758.381	8472.6
758.719	8431.7
759.056	8388.99
759.394	8447.29
759.731	8338.37
760.068	8317.13
760.405	8347.18
760.743	8271.48
761.08	8282.32
761.417	8286.62
761.754	8249.11
762.091	8249.78
762.428	8202.55
762.765	8164.81
763.102	8225.38
763.438	8124.36
763.775	8046.4
764.112	8056.34
764.449	8036.68
764.785	8019.96
765.122	7949.45
765.458	7961.66
765.795	8018.83
766.131	7936.57
766.467	7891.37
766.804	7839.85
767.14	7862.67
767.476	7860.19
767.812	7813.86
768.148	7805.95
768.485	7716.46
768.821	7725.05
769.157	7751.94
769.492	7687.54
769.828	7674.88
770.164	7669.69
770.5	7634.21
770.836	7604.83
771.171	7539.75
771.507	7506.75
771.842	7441.67
772.178	7509.24
772.513	7460.43
772.849	7476.92
773.184	7393.99
773.519	7328.45
773.855	7328.9
774.19	7280.32
774.525	7240.32
774.86	7301.56
775.195	7290.94
775.53	7185.63
775.865	7259.98
776.2	7175.24
776.535	7045.07
776.87	7141.11
777.205	7084.16
777.539	7058.85
777.874	7083.71
778.209	6943.6
778.543	6969.59
778.878	6890.72
779.212	6951.29
779.547	6859.76
779.881	6928.91
780.215	6841.46
780.55	6846.88
780.884	6819.31
781.218	6819.54
781.552	6812.31
781.886	6698.64
782.22	6743.16
782.554	6669.49
782.888	6609.15
783.222	6650.28
783.556	6577.06
783.889	6593.33
784.223	6534.57
784.557	6635.14
784.89	6605.76
785.224	6537.74
785.557	6535.93
785.891	6442.6
786.224	6449.15
786.558	6443.28
786.891	6403.96
787.224	6387.01
787.557	6387.23
787.891	6418.64
788.224	6403.73
788.557	6395.14
788.89	6377.06
789.223	6283.28
789.556	6250.74
789.888	6315.37
790.221	6288.7
790.554	6224.3
790.887	6169.61
791.219	6176.17
791.552	6121.03
791.884	6105.43
792.217	6095.04
792.549	6091.65
792.882	6042.61
793.214	6043.74
793.546	6017.07
793.879	5966.91
794.211	5962.16
794.543	5948.15
794.875	5917.64
795.207	5982.05
795.539	5901.37
795.871	5874.03
796.203	5823.63
796.535	5818.43
796.867	5797.64
797.198	5772.79
797.53	5832.22
797.862	5780.92
798.193	5799
798.525	5775.72
798.856	5709.06
799.188	5714.71
799.519	5719
799.85	5652.34
800.182	5651.43
800.513	5670.64
800.844	5588.16
801.175	5619.12
801.506	5615.95
801.837	5552.68
802.168	5584.99
802.499	5589.51
802.83	5563.53
803.161	5539.57
803.491	5499.35
803.822	5540.93
804.153	5460.25
804.483	5441.95
804.814	5385
805.145	5441.27
805.475	5396.52
805.805	5420.93
806.136	5393.81
806.466	5359.69
806.796	5373.7
807.126	5374.15
807.457	5341.84
807.787	5340.03
808.117	5312.91
808.447	5274.72
808.777	5308.84
809.107	5331.22
809.436	5322.63
809.766	5279.24
810.096	5234.72
810.426	5189.3
810.755	5242.18
811.085	5200.37
811.414	5213.25
811.744	5139.36
812.073	5199.02
812.403	5139.81
812.732	5139.13
813.061	5120.6
813.39	5076.08
813.719	5045.12
814.049	5112.46
814.378	5091.67
814.707	5060.49
815.036	5055.97
815.365	5049.19
815.693	4989.98
816.022	4952.24
816.351	4976.42
816.68	4967.16
817.008	4942.53
817.337	4928.97
817.665	4916.09
817.994	4924.22
818.322	4914.73
818.651	4888.97
818.979	4881.51
819.307	4912.92
819.636	4858.46
819.964	4866.14
820.292	4848.97
820.62	4888.06
820.948	4845.58
821.276	4880.38
821.604	4857.1
821.932	4865.01
822.259	4843.77
822.587	4871.34
822.915	4846.03
823.243	4891
823.57	4828.4
823.898	4846.26
824.225	4851.23
824.553	4841.51
824.88	4866.37
825.207	4886.48
825.535	4831.79
825.862	4842.87
826.189	4790.66
826.516	4853.71
826.843	4877.44
827.17	4834.73
827.497	4849.42
827.824	4831.79
828.151	4878.35
828.478	4809.2
828.805	4850.32
829.131	4837.44
829.458	4793.6
829.785	4797.44
830.111	4841.96
830.438	4822.3
830.764	4773.26
831.09	4785.69
831.417	4785.92
831.743	4818.01
832.069	4771.23
832.395	4770.55
832.722	4782.98
833.048	4766.03
833.374	4745.24
833.7	4773.49
834.026	4723.77
834.351	4797.9
834.677	4679.93
835.003	4705.92
835.329	4698.92
835.654	4710.44
835.98	4722.64
836.306	4767.16
836.631	4665.02
836.956	4735.3
837.282	4700.95
837.607	4693.94
837.932	4668.63
838.258	4665.92
838.583	4651.46
838.908	4658.01
839.233	4611.91
839.558	4644.91
839.883	4580.95
840.208	4600.84
840.533	4595.64
840.858	4570.33
841.182	4635.19
841.507	4597.68
841.832	4579.82
842.156	4544.8
842.481	4555.42
842.805	4514.06
843.13	4498.02
843.454	4516.55
843.778	4500.5
844.103	4504.8
844.427	4467.06
844.751	4498.02
845.075	4496.44
845.399	4441.75
845.723	4432.48
846.047	4433.61
846.371	4415.08
846.695	4423.22
847.019	4365.82
847.343	4370.79
847.666	4364.24
847.99	4364.01
848.313	4315.42
848.637	4298.47
848.96	4319.94
849.284	4302.32
849.607	4234.75
849.931	4235.2
850.254	4208.08
850.577	4220.06
850.9	4179.38
851.223	4160.4
851.546	4132.15
851.869	4102.77
852.192	4164.24
852.515	4068.2
852.838	4091.25
853.161	4046.5
853.483	4088.99
853.806	4076.56
854.129	4010.8
854.451	4004.92
854.774	4018.26
855.096	4010.35
855.419	4033.62
855.741	3966.28
856.063	3936.9
856.385	3991.82
856.708	3962.89
857.03	3959.5
857.352	3922.89
857.674	3949.11
857.996	3906.62
858.318	3883.12
858.64	3878.15
858.961	3914.76
859.283	3884.02
859.605	3835.21
859.926	3870.92
860.248	3811.71
860.57	3811.48
860.891	3801.76
861.212	3811.48
861.534	3797.02
861.855	3830.01
862.176	3844.93
862.498	3820.3
862.819	3801.54
863.14	3789.11
863.461	3760.18
863.782	3761.54
864.103	3734.65
864.424	3718.15
864.745	3766.96
865.065	3768.54
865.386	3741.88
865.707	3711.15
866.027	3749.56
866.348	3700.75
866.668	3708.89
866.989	3687.64
867.309	3683.58
867.63	3683.35
867.95	3690.81
868.27	3614.65
868.59	3668.21
868.91	3678.38
869.23	3670.92
869.55	3654.42
869.87	3679.51
870.19	3669.34
870.51	3631.15
870.83	3637.25
871.15	3634.09
871.469	3623.01
871.789	3622.11
872.109	3631.15
872.428	3627.31
872.748	3630.02
873.067	3605.39
873.386	3632.5
873.706	3598.61
874.025	3609.45
874.344	3561.54
874.663	3597.93
874.982	3575.56
875.301	3547.31
875.62	3566.29
875.939	3543.69
876.258	3536.46
876.577	3578.04
876.896	3529.68
877.214	3525.16
877.533	3528.33
877.852	3555.44
878.17	3525.84
878.489	3510.47
878.807	3560.41
879.125	3514.77
879.444	3453.3
879.762	3468.67
880.08	3498.27
880.398	3458.72
880.716	3476.35
881.034	3472.96
881.352	3465.73
881.67	3437.93
881.988	3487.42
882.306	3442
882.624	3448.1
882.941	3443.81
883.259	3398.39
883.577	3405.16
883.894	3419.63
884.212	3403.36
884.529	3467.54
884.846	3434.09
885.164	3428.89
885.481	3389.12
885.798	3374.88
886.115	3350.7
886.432	3351.15
886.75	3332.4
887.067	3329.91
887.383	3338.73
887.7	3301.21
888.017	3352.28
888.334	3322.68
888.651	3294.89
888.967	3278.16
889.284	3291.5
889.6	3304.6
889.917	3268.45
890.233	3293.3
890.55	3252.4
890.866	3250.37
891.182	3257.37
891.498	3231.16
891.815	3202.68
892.131	3222.8
892.447	3282
892.763	3240.2
893.079	3232.51
893.395	3175.57
893.71	3204.94
894.026	3201.78
894.342	3194.32
894.657	3141.22
894.973	3164.95
895.289	3166.75
895.604	3136.25
895.92	3115.91
896.235	3065.74
896.55	3112.52
896.865	3078.17
897.181	3082.01
897.496	3082.69
897.811	3090.6
898.126	3052.41
898.441	3018.28
898.756	2997.27
899.071	3028.45
899.386	3000.43
899.7	2996.14
900.015	3011.28
900.33	2983.71
900.644	2970.37
900.959	3022.35
901.273	2992.75
901.588	2961.33
901.902	2970.15
902.216	2946.42
902.531	2969.47
902.845	2913.2
903.159	2902.35
903.473	2923.14
903.787	2881.56
904.101	2907.55
904.415	2854.22
904.729	2861.68
905.042	2839.53
905.356	2835.91
905.67	2856.7
905.984	2835.69
906.297	2811.51
906.611	2792.53
906.924	2828
907.237	2776.93
907.551	2788.68
907.864	2773.99
908.177	2752.07
908.491	2765.18
908.804	2737.84
909.117	2732.41
909.43	2713.21
909.743	2674.79
910.056	2671.85
910.368	2701.68
910.681	2640.89
910.994	2661.46
911.307	2659.65
911.619	2670.27
911.932	2650.16
912.244	2656.94
912.557	2632.76
912.869	2623.49
913.181	2626.43
913.494	2579.88
913.806	2599.31
914.118	2568.8
914.43	2585.53
914.742	2562.47
915.054	2584.85
915.366	2512.53
915.678	2503.49
915.99	2495.58
916.302	2507.56
916.613	2482.93
916.925	2493.1
917.236	2465.75
917.548	2469.6
917.859	2427.56
918.171	2468.24
918.482	2457.84
918.794	2451.07
919.105	2440.22
919.416	2393.21
919.727	2390.05
920.038	2407.45
920.349	2415.36
920.66	2373.1
920.971	2411.52
921.282	2361.35
921.593	2341.92
921.903	2293.56
922.214	2369.49
922.525	2337.4
922.835	2323.84
923.146	2324.52
923.456	2329.26
923.767	2289.04
924.077	2295.36
924.387	2303.95
924.697	2269.38
925.008	2232.54
925.318	2257.17
925.628	2258.98
925.938	2225.53
926.248	2237.74
926.558	2244.07
926.867	2219.89
927.177	2225.08
927.487	2210.39
927.796	2173.11
928.106	2134.92
928.416	2155.48
928.725	2189.38
929.034	2149.6
929.344	2107.57
929.653	2108.48
929.962	2077.52
930.271	2101.24
930.581	2098.08
930.89	2099.21
931.199	2084.52
931.508	2106.44
931.817	2089.95
932.125	2052.21
932.434	2051.08
932.743	2062.6
933.051	2044.3
933.36	2017.63
933.669	2044.07
933.977	2018.99
934.286	2016.05
934.594	2030.06
934.902	1997.52
935.21	2012.43
935.519	2002.26
935.827	1959.1
936.135	1987.8
936.443	1940.8
936.751	1934.69
937.059	1967.46
937.367	1920.46
937.674	1960.23
937.982	1920.91
938.29	1918.42
938.597	1900.35
938.905	1898.54
939.213	1881.81
939.52	1878.2
939.827	1910.74
940.135	1864.41
940.442	1857.63
940.749	1892.44
941.056	1880.46
941.363	1818.77
941.67	1841.59
941.977	1841.82
942.284	1822.61
942.591	1791.2
942.898	1816.73
943.205	1816.96
943.511	1799.78
943.818	1811.08
944.125	1801.59
944.431	1750.74
944.738	1795.26
945.044	1747.58
945.35	1743.97
945.657	1735.38
945.963	1744.19
946.269	1736.51
946.575	1714.36
946.881	1710.52
947.187	1738.09
947.493	1729.5
947.799	1666.23
948.105	1702.16
948.41	1701.03
948.716	1708.71
949.022	1665.78
949.327	1644.98
949.633	1657.64
949.938	1654.48
950.244	1684.08
950.549	1671.65
950.854	1648.83
951.16	1663.97
951.465	1658.32
951.77	1600.69
952.075	1642.5
952.38	1611.09
952.685	1621.03
952.99	1600.24
953.294	1601.6
953.599	1602.05
953.904	1622.84
954.209	1593.46
954.513	1587.36
954.818	1560.92
955.122	1562.5
955.426	1556.17
955.731	1554.59
956.035	1540.81
956.339	1570.64
956.643	1545.33
956.948	1530.64
957.252	1556.17
957.556	1518.43
957.86	1506.23
958.163	1499
958.467	1509.85
958.771	1505.33
959.075	1472.33
959.378	1477.53
959.682	1487.25
959.985	1463.52
960.289	1466.23
960.592	1458.1
960.896	1455.84
961.199	1444.76
961.502	1452.67
961.805	1433.47
962.108	1411.54
962.411	1466.68
962.714	1417.87
963.017	1408.83
963.32	1428.04
963.623	1416.74
963.926	1412
964.228	1432.11
964.531	1419.68
964.833	1381.04
965.136	1397.53
965.438	1390.3
965.741	1393.01
966.043	1365.22
966.345	1372.68
966.648	1347.14
966.95	1350.08
967.252	1323.19
967.554	1347.82
967.856	1351.21
968.158	1320.25
968.46	1351.66
968.761	1324.54
969.063	1313.92
969.365	1340.81
969.666	1333.35
969.968	1312.34
970.269	1306.91
970.571	1284.99
970.872	1301.27
971.174	1306.01
971.475	1298.78
971.776	1275.28
972.077	1262.85
972.378	1280.25
972.679	1245.45
972.98	1261.49
973.281	1274.83
973.582	1256.29
973.883	1261.27
974.183	1237.76
974.484	1249.97
974.785	1226.92
975.085	1207.03
975.386	1257.42
975.686	1234.37
975.986	1203.19
976.287	1196.18
976.587	1223.75
976.887	1202.74
977.187	1217.65
977.487	1191.66
977.787	1212.68
978.087	1200.7
978.387	1166.81
978.687	1217.88
978.987	1191.44
979.286	1190.99
979.586	1194.15
979.885	1183.3
980.185	1160.7
980.484	1147.37
980.784	1155.28
981.083	1153.92
981.382	1164.77
981.682	1151.21
981.981	1131.1
982.28	1155.05
982.579	1139.24
982.878	1118.9
983.177	1121.16
983.475	1101.5
983.774	1125.68
984.073	1102.85
984.372	1126.35
984.67	1093.14
984.969	1084.77
985.267	1072.8
985.566	1077.77
985.864	1067.83
986.162	1089.97
986.461	1055.85
986.759	1045.45
987.057	1077.32
987.355	1056.3
987.653	1048.16
987.951	1051.1
988.249	1034.61
988.547	1058.79
988.844	1057.43
989.142	1038.45
989.44	1034.61
989.737	1038.67
990.035	1033.02
990.332	1030.09
990.63	1021.27
990.927	1019.24
991.224	1016.98
991.521	1012.01
991.819	1034.38
992.116	1007.94
992.413	1002.29
992.71	1003.87
993.006	1006.36
993.303	1009.97
993.6	971.33
993.897	987.15
994.193	982.18
994.49	976.75
994.787	982.63
995.083	980.14
995.379	968.62
995.676	966.13
995.972	986.47
996.268	956.64
996.565	962.29
996.861	966.36
997.157	929.07
997.453	954.83
997.749	940.6
998.044	952.57
998.34	925.91
998.636	936.53
998.932	944.89
999.227	904.21
999.523	929.52
999.818	908.96
1000.114	941.5
1000.409	902.86
1000.704	914.16
1001	903.99
1001.295	899.47
1001.59	915.51
1001.885	873.25
1002.18	895.63
1002.475	881.39
1002.77	885.68
1003.065	867.6
1003.359	871.22
1003.654	858.79
1003.949	875.74
1004.243	875.51
1004.538	847.94
1004.832	845.68
1005.127	853.37
1005.421	871.45
1005.715	824.44
1006.009	844.55
1006.304	832.35
1006.598	825.57
1006.892	842.52
1007.186	826.93
1007.48	808.17
1007.773	806.59
1008.067	837.55
1008.361	816.31
1008.655	826.02
1008.948	799.81
1009.242	807.49
1009.535	795.97
1009.829	823.31
1010.122	785.8
1010.415	775.63
1010.708	821.05
1011.001	786.93
1011.295	796.19
1011.588	784.22
1011.881	805.91
1012.173	790.54
1012.466	780.83
1012.759	785.35
1013.052	776.31
1013.344	773.6
1013.637	762.52
1013.93	757.78
1014.222	726.14
1014.514	728.85
1014.807	715.07
1015.099	728.62
1015.391	747.38
1015.683	725.24
1015.976	724.78
1016.268	734.05
1016.56	716.87
1016.851	733.6
1017.143	737.21
1017.435	730.21
1017.727	712.58
1018.018	685.01
1018.31	707.38
1018.602	670.55
1018.893	703.54
1019.185	685.01
1019.476	711.22
1019.767	721.39
1020.058	686.37
1020.35	684.33
1020.641	651.34
1020.932	667.84
1021.223	672.36
1021.514	667.84
1021.804	671.23
1022.095	689.08
1022.386	660.6
1022.677	648.85
1022.967	686.37
1023.258	660.6
1023.548	684.33
1023.839	642.07
1024.129	641.17
1024.419	650.66
1024.709	655.63
1025	616.99
1025.29	632.81
1025.58	657.89
1025.87	627.38
1026.16	619.48
1026.449	659.47
1026.739	618.12
1027.029	617.44
1027.319	598.46
1027.608	617.22
1027.898	621.74
1028.187	617.22
1028.477	601.62
1028.766	595.75
1029.055	606.82
1029.344	600.27
1029.634	603.43
1029.923	590.1
1030.212	606.14
1030.501	598.46
1030.79	593.26
1031.078	593.04
1031.367	575.18
1031.656	603.66
1031.945	588.97
1032.233	606.14
1032.522	562.53
1032.81	572.92
1033.099	596.88
1033.387	577.44
1033.675	558.23
1033.963	563.66
1034.251	561.62
1034.54	560.72
1034.828	549.42
1035.116	537.67
1035.403	554.62
1035.691	579.02
1035.979	551.91
1036.267	540.61
1036.554	546.48
1036.842	544.22
1037.129	527.95
1037.417	528.4
1037.704	557.1
1037.992	519.82
1038.279	494.96
1038.566	539.93
1038.853	539.93
1039.14	539.93
