Data from black_plastic_tray_FLMS001491_080.txt Node
Date: Tue Feb 07 10:40:36 GMT 2017
User: dcchb
Spectrometer: FLMS00149
Trigger mode: 0
Integration Time (sec): 2.000000E-2
Scans to average: 10
Electric dark correction enabled: true
Nonlinearity correction enabled: false
Boxcar width: 0
XAxis mode: Wavelengths
Number of Pixels in Spectrum: 2048
>>>>>Begin Spectral Data<<<<<
341.393	-40.78
341.776	-40.78
342.16	-40.78
342.543	-75.35
342.927	-60.66
343.31	-78.97
343.693	-69.93
344.077	-72.64
344.46	-36.71
344.843	-36.93
345.226	-44.39
345.61	-12.98
345.993	-18.18
346.376	-26.09
346.759	7.58
347.142	10.52
347.525	47.13
347.908	51.88
348.291	77.64
348.674	86.9
349.057	115.15
349.44	123.51
349.823	135.49
350.206	149.95
350.588	191.76
350.971	190.86
351.354	207.58
351.737	235.83
352.119	222.27
352.502	251.42
352.884	258.2
353.267	267.92
353.65	256.39
354.032	290.29
354.414	263.17
354.797	294.81
355.179	319.21
355.562	308.82
355.944	304.07
356.326	323.51
356.709	303.85
357.091	306.79
357.473	317.18
357.855	332.77
358.238	328.25
358.62	333
359.002	328.93
359.384	319.21
359.766	326.9
360.148	351.76
360.53	329.16
360.912	330.29
361.294	340.46
361.676	307.69
362.057	330.74
362.439	334.81
362.821	304.75
363.203	306.79
363.584	327.58
363.966	291.87
364.348	323.28
364.729	332.77
365.111	328.93
365.493	324.86
365.874	308.59
366.256	325.77
366.637	313.34
367.019	298.65
367.4	307.01
367.781	304.98
368.163	328.71
368.544	306.56
368.925	331.64
369.306	307.01
369.688	317.63
370.069	303.85
370.45	301.36
370.831	321.47
371.212	321.93
371.593	313.11
371.974	306.33
372.355	325.99
372.736	322.83
373.117	330.97
373.498	302.27
373.879	331.87
374.26	304.75
374.641	344.75
375.021	315.6
375.402	317.63
375.783	312.89
376.163	326.45
376.544	330.06
376.925	336.62
377.305	337.97
377.686	347.01
378.066	347.69
378.447	328.71
378.827	330.97
379.208	331.42
379.588	341.14
379.968	344.3
380.349	339.55
380.729	342.04
381.109	364.86
381.489	354.92
381.87	327.35
382.25	349.72
382.63	333.9
383.01	345.65
383.39	365.54
383.77	346.78
384.15	355.37
384.53	334.81
384.91	358.54
385.29	371.19
385.67	367.12
386.049	370.29
386.429	356.28
386.809	387.91
387.189	367.58
387.568	394.92
387.948	369.38
388.328	370.74
388.707	384.98
389.087	378.2
389.466	389.72
389.846	375.94
390.225	373.45
390.605	383.39
390.984	390.63
391.363	404.18
391.743	413.45
392.122	391.98
392.501	405.99
392.881	408.48
393.26	391.3
393.639	395.37
394.018	387.91
394.397	414.81
394.776	408.03
395.155	436.05
395.534	418.42
395.913	405.99
396.292	406.22
396.671	439.66
397.05	439.21
397.429	437.18
397.808	403.05
398.186	451.87
398.565	446.22
398.944	425.2
399.323	436.27
399.701	443.28
400.08	445.77
400.458	465.88
400.837	469.95
401.215	445.09
401.594	450.74
401.972	448.93
402.351	470.17
402.729	461.36
403.107	470.4
403.486	460.68
403.864	485.31
404.242	476.5
404.62	480.34
404.999	492.09
405.377	483.28
405.755	480.11
406.133	508.81
406.511	496.16
406.889	498.87
407.267	504.29
407.645	509.94
408.023	514.92
408.401	519.89
408.779	533.45
409.156	519.66
409.534	522.15
409.912	528.93
410.29	528.47
410.667	528.02
411.045	539.77
411.422	569.6
411.8	560.34
412.178	558.08
412.555	563.73
412.933	569.6
413.31	577.06
413.687	572.09
414.065	567.34
414.442	592.88
414.819	597.17
415.197	580.45
415.574	613.22
415.951	596.27
416.328	636.04
416.705	625.65
417.082	631.3
417.46	617.06
417.837	660.22
418.214	643.95
418.591	628.81
418.967	650.73
419.344	639.88
419.721	645.31
420.098	650.05
420.475	648.7
420.852	665.65
421.228	674.01
421.605	671.07
421.982	679.88
422.358	705.87
422.735	686.89
423.111	683.95
423.488	699.09
423.864	701.8
424.241	702.26
424.617	739.32
424.994	729.6
425.37	721.01
425.746	711.29
426.123	730.96
426.499	734.8
426.875	737.06
427.251	779.54
427.627	770.05
428.003	747.68
428.379	782.93
428.756	786.1
429.132	788.13
429.507	794.91
429.883	804.63
430.259	807.79
430.635	806.89
431.011	822.48
431.387	837.85
431.763	860.9
432.138	856.83
432.514	889.6
432.89	869.03
433.265	909.48
433.641	891.4
434.016	892.53
434.392	929.59
434.767	898.18
435.143	915.58
435.518	942.48
435.894	943.61
436.269	956.94
436.644	960.55
437.02	964.62
437.395	956.49
437.77	988.12
438.145	993.32
438.52	1003.94
438.895	1012.98
439.271	1046.43
439.646	1042.36
440.021	1047.78
440.395	1042.59
440.77	1052.75
441.145	1034.45
441.52	1060.89
441.895	1070.16
442.27	1084.62
442.645	1072.19
443.019	1090.04
443.394	1108.57
443.769	1099.76
444.143	1116.48
444.518	1102.02
444.892	1106.76
445.267	1139.98
445.641	1148.8
446.016	1161
446.39	1120.55
446.764	1156.03
447.139	1123.49
447.513	1165.29
447.887	1170.49
448.262	1178.18
448.636	1187.89
449.01	1178.18
449.384	1190.6
449.758	1212.75
450.132	1213.2
450.506	1206.65
450.88	1215.24
451.254	1216.14
451.628	1267.21
452.002	1262.24
452.376	1279.19
452.75	1276.03
453.123	1327.1
453.497	1314.67
453.871	1308.12
454.244	1366.64
454.618	1348.11
454.992	1375.68
455.365	1387.44
455.739	1411.84
456.112	1424.95
456.486	1429.02
456.859	1458.39
457.232	1447.55
457.606	1482.57
457.979	1477.38
458.352	1498.39
458.725	1529.13
459.099	1523.25
459.472	1558.5
459.845	1576.81
460.218	1573.19
460.591	1582.01
460.964	1633.08
461.337	1633.98
461.71	1647.09
462.083	1673.53
462.456	1681.44
462.829	1688.9
463.201	1722.57
463.574	1716.47
463.947	1716.01
464.32	1763.02
464.692	1780.19
465.065	1823.13
465.438	1808.22
465.81	1836.91
466.183	1850.25
466.555	1902.45
466.928	1905.39
467.3	1876.24
467.672	1944.71
468.045	1973.41
468.417	2011.83
468.789	2032.39
469.161	2049.79
469.534	2060.19
469.906	2105.16
470.278	2099.05
470.65	2104.25
471.022	2186.74
471.394	2217.02
471.766	2235.1
472.138	2237.13
472.51	2319.61
472.882	2308.09
473.253	2337.01
473.625	2415.2
473.997	2421.31
474.369	2468.99
474.74	2454.75
475.112	2522.09
475.484	2559.16
475.855	2556.9
476.227	2599.83
476.598	2677.8
476.97	2708.53
477.341	2745.14
477.713	2789.88
478.084	2806.16
478.455	2875.76
478.827	2889.09
479.198	2970.9
479.569	3013.61
479.94	3032.82
480.311	3101.06
480.682	3128.86
481.053	3224.45
481.424	3273.94
481.795	3276.43
482.166	3332.47
482.537	3388.29
482.908	3419.25
483.279	3497.21
483.65	3561.62
484.021	3604.33
484.391	3560.94
484.762	3679.13
485.133	3718.45
485.503	3748.73
485.874	3817.65
486.244	3842.06
486.615	3928.39
486.985	3963.41
487.356	4028.5
487.726	4053.58
488.097	4087.48
488.467	4146.68
488.837	4233.46
489.207	4289.96
489.578	4348.04
489.948	4399.11
490.318	4426.45
490.688	4488.37
491.058	4496.51
491.428	4580.8
491.798	4600.23
492.168	4699.21
492.538	4696.73
492.908	4744.64
493.278	4809.49
493.648	4842.49
494.017	4875.93
494.387	4950.05
494.757	4955.48
495.126	5049.49
495.496	5030.05
495.866	5082.71
496.235	5129.94
496.605	5213.55
496.974	5185.3
497.344	5270.72
497.713	5287.67
498.082	5370.83
498.452	5436.59
498.821	5405.63
499.19	5428.23
499.559	5539.42
499.928	5523.15
500.298	5532.64
500.667	5670.49
501.036	5623.48
501.405	5720.88
501.774	5674.1
502.143	5729.69
502.512	5776.47
502.88	5833.87
503.249	5830.26
503.618	5880.88
503.987	5898.28
504.356	5912.06
504.724	5978.5
505.093	6032.28
505.462	6068.67
505.83	6146.18
506.199	6179.4
506.567	6234.31
506.936	6219.85
507.304	6314.31
507.672	6339.85
508.041	6344.59
508.409	6393.86
508.777	6425.49
509.145	6492.84
509.514	6554.53
509.882	6568.77
510.25	6593.17
510.618	6652.38
510.986	6636.79
511.354	6733.06
511.722	6802.89
512.09	6850.12
512.458	6872.49
512.826	6875.2
513.193	6959.94
513.561	6992.94
513.929	7024.8
514.297	7091.92
514.664	7187.73
515.032	7159.94
515.4	7290.33
515.767	7274.96
516.135	7334.85
516.502	7308.64
516.869	7455.3
517.237	7454.17
517.604	7434.51
517.972	7531.45
518.339	7623.2
518.706	7568.29
519.073	7669.53
519.44	7721.51
519.808	7882.63
520.175	7908.85
520.542	7980.93
520.909	7987.94
521.276	7992.91
521.643	8069.97
522.009	8164.66
522.376	8241.49
522.743	8319.23
523.11	8332.79
523.477	8450.3
523.843	8518.1
524.21	8561.48
524.577	8563.52
524.943	8658.66
525.31	8722.38
525.676	8744.3
526.043	8822.95
526.409	8872.44
526.776	8980
527.142	9021.81
527.508	9041.25
527.874	9117.18
528.241	9188.59
528.607	9203.73
528.973	9278.75
529.339	9337.51
529.705	9412.08
530.071	9544.96
530.437	9525.53
530.803	9637.84
531.169	9607.33
531.535	9691.4
531.901	9721.68
532.267	9781.79
532.632	9839.42
532.998	9853.65
533.364	9913.76
533.73	9913.76
534.095	10039.64
534.461	9995.57
534.826	10092.07
535.192	10117.6
535.557	10163.02
535.923	10213.64
536.288	10217.94
536.653	10302.68
537.019	10262.46
537.384	10346.07
537.749	10441.21
538.114	10484.6
538.479	10510.36
538.845	10511.04
539.21	10494.99
539.575	10627.42
539.94	10574.31
540.305	10695.21
540.67	10683.69
541.034	10678.49
541.399	10820.86
541.764	10902.44
542.129	10812.5
542.494	10835.32
542.858	10904.7
543.223	10920.07
543.587	10994.19
543.952	10967.3
544.316	11040.06
544.681	11053.62
545.045	11072.15
545.41	11213.39
545.774	11178.14
546.138	11350.79
546.503	11288.87
546.867	11303.33
547.231	11459.94
547.595	11450.45
547.959	11461.29
548.324	11454.97
548.688	11442.99
549.052	11513.5
549.416	11582.42
549.779	11553.95
550.143	11656.32
550.507	11675.98
550.871	11797.11
551.235	11757.78
551.599	11836.2
551.962	11875.52
552.326	11926.59
552.689	11924.33
553.053	11929.98
553.417	12042.3
553.78	12232.57
554.143	12122.29
554.507	12201.16
554.87	12183.99
555.234	12362.29
555.597	12330.65
555.96	12299.46
556.323	12378.78
556.686	12406.58
557.05	12543.53
557.413	12525.22
557.776	12555.28
558.139	12688.83
558.502	12632.34
558.865	12703.3
559.228	12776.29
559.59	12882.95
559.953	12971.99
560.316	13051.08
560.679	13031.87
561.041	13103.96
561.404	13195.49
561.767	13107.81
562.129	13096.73
562.492	13249.95
562.854	13328.59
563.217	13360.45
563.579	13523.39
563.941	13519.77
564.304	13586.21
564.666	13705.76
565.028	13628.02
565.39	13711.18
565.753	13792.53
566.115	13799.99
566.477	13901
566.839	13959.08
567.201	14075.69
567.563	13985.75
567.925	14085.18
568.287	14158.62
568.648	14193.2
569.01	14246.31
569.372	14332.41
569.734	14343.48
570.095	14450.14
570.457	14504.15
570.819	14557.94
571.18	14498.73
571.542	14605.17
571.903	14703.7
572.265	14688.55
572.626	14766.29
572.987	14710.7
573.349	14741.43
573.71	14803.13
574.071	14899.62
574.432	14946.85
574.794	14988.21
575.155	15016.46
575.516	14989.56
575.877	15028.66
576.238	14983.24
576.599	15055.32
576.96	15112.95
577.32	15105.72
577.681	15244.47
578.042	15275.88
578.403	15336.9
578.763	15334.41
579.124	15380.51
579.485	15352.49
579.845	15441.98
580.206	15393.39
580.566	15396.33
580.927	15379.61
581.287	15468.87
581.648	15271.14
582.008	15461.19
582.368	15434.3
582.728	15515.65
583.089	15475.88
583.449	15488.08
583.809	15464.58
584.169	15521.07
584.529	15461.87
584.889	15617.8
585.249	15513.62
585.609	15466.84
585.969	15505.26
586.329	15522.43
586.688	15526.27
587.048	15565.82
587.408	15461.87
587.768	15462.09
588.127	15521.07
588.487	15519.95
588.846	15601.75
589.206	15418.7
589.565	15478.82
589.925	15512.04
590.284	15594.29
590.643	15620.73
591.003	15531.92
591.362	15562.43
591.721	15577.34
592.08	15628.42
592.44	15612.6
592.799	15689.43
593.158	15633.61
593.517	15712.93
593.876	15665.48
594.235	15746.15
594.593	15708.19
594.952	15726.49
595.311	15689.88
595.67	15664.57
596.029	15807.4
596.387	15748.87
596.746	15731.46
597.104	15741.18
597.463	15752.71
597.822	15633.61
598.18	15705.02
598.538	15657.79
598.897	15688.53
599.255	15606.04
599.613	15856.21
599.972	15792.25
600.33	15779.83
600.688	15759.94
601.046	15836.09
601.404	15852.14
601.762	15918.58
602.12	15984.11
602.478	16000.16
602.836	15939.37
603.194	15907.96
603.552	15934.17
603.91	15820.95
604.268	16072.02
604.625	15881.97
604.983	15911.12
605.341	15816.66
605.698	15966.26
606.056	15933.04
606.413	15948.86
606.771	15961.74
607.128	16059.14
607.485	15894.17
607.843	15982.98
608.2	16100.04
608.557	16134.62
608.914	16044.68
609.272	16173.49
609.629	16127.39
609.986	16191.34
610.343	16100.95
610.7	16192.02
611.057	16151.11
611.414	16127.39
611.771	16165.35
612.127	16283.31
612.484	16246.93
612.841	16297.1
613.198	16302.3
613.554	16275.41
613.911	16343.2
614.267	16210.77
614.624	16353.37
614.98	16304.56
615.337	16414.84
615.693	16365.12
616.05	16305.24
616.406	16524.21
616.762	16455.74
617.118	16394.27
617.475	16444.21
617.831	16463.88
618.187	16385.23
618.543	16520.6
618.899	16648.05
619.255	16624.32
619.611	16628.62
619.967	16645.57
620.323	16653.7
620.678	16535.29
621.034	16606.47
621.39	16559.01
621.746	16493.03
622.101	16761.27
622.457	16568.28
622.812	16640.14
623.168	16594.04
623.523	16629.97
623.879	16697.54
624.234	16498.45
624.589	16604.44
624.945	16587.04
625.3	16660.25
625.655	16542.29
626.01	16586.13
626.365	16629.07
626.72	16717.43
627.075	16607.37
627.43	16630.88
627.785	16655.51
628.14	16630.42
628.495	16690.76
628.85	16672.68
629.205	16630.2
629.559	16691.21
629.914	16564.21
630.269	16527.15
630.623	16440.82
630.978	16535.96
631.332	16541.16
631.687	16658.9
632.041	16521.73
632.396	16556.53
632.75	16506.81
633.104	16517.88
633.459	16417.32
633.813	16357.44
634.167	16411.22
634.521	16341.84
634.875	16374.61
635.229	16344.78
635.583	16295.97
635.937	16232.69
636.291	16184.56
636.645	16206.48
636.999	16114.96
637.352	16169.87
637.706	16018.01
638.06	16148.63
638.413	16122.87
638.767	16032.7
639.121	16049.65
639.474	16020.04
639.828	16079.7
640.181	16018.91
640.534	16143.88
640.888	15973.49
641.241	15840.84
641.594	15992.02
641.947	15881.07
642.301	15905.92
642.654	15889.65
643.007	15874.74
643.36	15848.75
643.713	15819.6
644.066	15850.56
644.419	15702.09
644.771	15733.05
645.124	15552.26
645.477	15456.67
645.83	15371.02
646.182	15358.14
646.535	15284.25
646.888	15344.58
647.24	15187.52
647.593	15288.54
647.945	15352.72
648.298	15170.12
648.65	15094.19
649.002	15050.35
649.355	15061.2
649.707	15015.33
650.059	15187.3
650.411	15396.78
650.763	15397.91
651.115	15560.4
651.467	15495.09
651.819	15498.48
652.171	15396.78
652.523	15314.53
652.875	15372.6
653.227	15403.79
653.578	15517.23
653.93	15366.05
654.282	15310.01
654.633	15205.6
654.985	15314.53
655.337	15311.36
655.688	15259.61
656.039	15268.88
656.391	15129.45
656.742	15139.39
657.094	15167.86
657.445	15315.43
657.796	15232.49
658.147	15198.82
658.498	15226.39
658.849	15227.75
659.2	15145.49
659.551	15196.11
659.902	15241.08
660.253	15221.87
660.604	15177.58
660.955	15035.21
661.306	15131.93
661.656	15027.08
662.007	15096.68
662.358	14971.94
662.708	15058.49
663.059	15044.93
663.409	14963.8
663.76	15080.18
664.11	15071.37
664.461	15070.24
664.811	15013.52
665.161	15093.52
665.511	14911.6
665.862	14924.93
666.212	15037.7
666.562	15018.94
666.912	14959.51
667.262	14946.4
667.612	14932.62
667.962	14941.88
668.312	14992.05
668.662	14990.92
669.011	14898.94
669.361	14879.96
669.711	14842
670.06	14845.16
670.41	14801.55
670.76	14807.42
671.109	14860.98
671.459	14861.88
671.808	14814.65
672.157	14766.29
672.507	14761.32
672.856	14776.01
673.205	14777.82
673.554	14827.53
673.904	14734.65
674.253	14863.01
674.602	14731.94
674.951	14550.48
675.3	14407.66
675.649	14653.08
675.998	14644.04
676.346	14700.98
676.695	14782.79
677.044	14611.49
677.393	14701.66
677.741	14578.05
678.09	14602.23
678.438	14522.68
678.787	14632.28
679.135	14612.62
679.484	14453.76
679.832	14476.13
680.181	14424.15
680.529	14455.34
680.877	14503.7
681.225	14448.56
681.573	14572.4
681.922	14352.29
682.27	14303.93
682.618	14301.22
682.966	14319.75
683.314	14396.13
683.661	14300.54
684.009	14291.95
684.357	14212.41
684.705	14216.93
685.053	14309.36
685.4	14333.08
685.748	14223.03
686.095	14134.22
686.443	14018.52
686.79	13965.18
687.138	14050.83
687.485	14063.94
687.832	13919.08
688.18	14062.58
688.527	13875.24
688.874	13866.66
689.221	13915.02
689.568	13899.65
689.915	13839.99
690.262	13807.45
690.609	13788.01
690.956	13599.09
691.303	13650.39
691.65	13539.66
691.997	13592.99
692.344	13520.45
692.69	13531.97
693.037	13595.93
693.383	13465.99
693.73	13485.87
694.077	13476.16
694.423	13456.5
694.769	13385.99
695.116	13354.8
695.462	13421.47
695.808	13346.44
696.155	13339.89
696.501	13236.16
696.847	13161.36
697.193	13053.12
697.539	13138.09
697.885	13086.11
698.231	12960.01
698.577	13007.92
698.923	13004.53
699.269	12929.05
699.614	12771.77
699.96	12724.31
700.306	12763.41
700.651	12846.79
700.997	12656.07
701.342	12593.92
701.688	12710.53
702.033	12593.92
702.379	12515.28
702.724	12642.96
703.069	12604.99
703.415	12483.41
703.76	12561.38
704.105	12482.74
704.45	12477.99
704.795	12449.97
705.14	12442.96
705.485	12359.58
705.83	12378.33
706.175	12242.74
706.52	12247.49
706.865	12231.22
707.209	12217.66
707.554	12166.81
707.899	12152.58
708.243	12131.11
708.588	12122.97
708.932	12130.2
709.277	12129.98
709.621	12059.92
709.966	11980.6
710.31	12044.56
710.654	11843.88
710.998	11874.17
711.342	11894.96
711.687	11832.58
712.031	11853.15
712.375	11634.17
712.719	11755.98
713.063	11714.85
713.407	11831.68
713.75	11639.37
714.094	11704.9
714.438	11628.3
714.782	11570.44
715.125	11575.42
715.469	11590.1
715.812	11449.77
716.156	11481.18
716.499	11457.45
716.843	11475.08
717.186	11327.74
717.53	11465.36
717.873	11518.69
718.216	11396.21
718.559	11368.87
718.902	11392.14
719.246	11352.37
719.589	11260.85
719.932	11175.2
720.275	11282.09
720.617	11308.08
720.96	11233.96
721.303	11204.58
721.646	11233.5
721.989	11142.66
722.331	11186.27
722.674	11056.11
723.016	11121.64
723.359	11105.6
723.701	11023.11
724.044	11043
724.386	11008.43
724.729	11098.59
725.071	10970.69
725.413	10921.42
725.755	10940.4
726.097	10843.68
726.439	10904.02
726.782	10901.76
727.124	10913.51
727.465	10794.65
727.807	10906.96
728.149	10807.98
728.491	10761.65
728.833	10891.14
729.175	10831.25
729.516	10726.4
729.858	10718.94
730.199	10711.71
730.541	10664.25
730.882	10664.25
731.224	10675.33
731.565	10666.74
731.906	10643.69
732.248	10645.5
732.589	10547.87
732.93	10536.8
733.271	10513.52
733.612	10519.4
733.953	10556.69
734.294	10541.77
734.635	10543.13
734.976	10505.84
735.317	10454.09
735.658	10445.05
735.999	10426.29
736.339	10452.06
736.68	10410.7
737.021	10405.96
737.361	10273.08
737.702	10316.24
738.042	10364.6
738.383	10347.65
738.723	10316.69
739.063	10281.44
739.404	10352.85
739.744	10335
740.084	10259.97
740.424	10268.78
740.764	10235.11
741.104	10265.85
741.444	10167.77
741.784	10100.65
742.124	10120.99
742.464	10147.66
742.804	10145.17
743.143	10108.56
743.483	10056.13
743.823	10097.94
744.162	10008.23
744.502	10049.35
744.841	10043.93
745.181	10032.18
745.52	10064.5
745.86	9972.52
746.199	9975.23
746.538	9977.94
746.877	9949.24
747.216	9917.15
747.556	9851.17
747.895	9941.79
748.234	9886.65
748.573	9886.65
748.911	9769.81
749.25	9865.18
749.589	9768.46
749.928	9850.26
750.267	9884.16
750.605	9826.76
750.944	9749.48
751.283	9677.16
751.621	9753.32
751.96	9676.48
752.298	9723.26
752.636	9658.86
752.975	9582.7
753.313	9643.94
753.651	9657.05
753.989	9542.02
754.327	9513.1
754.666	9556.49
755.004	9448.47
755.342	9448.01
755.679	9484.17
756.017	9336.83
756.355	9448.47
756.693	9317.4
757.031	9321.01
757.368	9343.84
757.706	9398.52
758.044	9249.38
758.381	9278.3
758.719	9217.74
759.056	9222.48
759.394	9238.3
759.731	9156.72
760.068	9078.08
760.405	9095.93
760.743	9050.28
761.08	9038.76
761.417	8990.4
761.754	9000.57
762.091	8987.01
762.428	8961.93
762.765	8886.45
763.102	8927.12
763.438	8821.36
763.775	8884.64
764.112	8862.94
764.449	8777.07
764.785	8834.7
765.122	8735.72
765.458	8677.41
765.795	8709.73
766.131	8667.7
766.467	8623.63
766.804	8635.38
767.14	8582.27
767.476	8540.47
767.812	8467.02
768.148	8531.88
768.485	8495.95
768.821	8462.28
769.157	8392.9
769.492	8413.01
769.828	8334.15
770.164	8287.82
770.5	8326.69
770.836	8294.82
771.171	8332.34
771.507	8296.63
771.842	8219.8
772.178	8232.68
772.513	8191.55
772.849	8125.11
773.184	8114.72
773.519	8028.39
773.855	8013.25
774.19	7970.99
774.525	8006.47
774.86	7987.49
775.195	7949.3
775.53	7967.83
775.865	7938
776.2	7868.85
776.535	7778.45
776.87	7841.28
777.205	7787.04
777.539	7748.62
777.874	7788.17
778.209	7702.75
778.543	7660.49
778.878	7621.62
779.212	7595.18
779.547	7591.34
779.881	7541.17
780.215	7491
780.55	7421.17
780.884	7329.43
781.218	7406.49
781.552	7380.95
781.886	7334.62
782.22	7294.17
782.554	7307.28
782.888	7214.85
783.222	7202.65
783.556	7183.89
783.889	7227.28
784.223	7151.8
784.557	7179.37
784.89	7136.44
785.224	7091.47
785.557	7035.87
785.891	7048.76
786.224	6994.29
786.558	7046.95
786.891	6916.33
787.224	6938.02
787.557	6931.02
787.891	6919.27
788.224	6886.27
788.557	6889.21
788.89	6886.5
789.223	6876.78
789.556	6801.76
789.888	6833.62
790.221	6801.98
790.554	6766.05
790.887	6754.07
791.219	6676.56
791.552	6624.13
791.884	6622.1
792.217	6574.64
792.549	6537.36
792.882	6566.28
793.214	6562.44
793.546	6591.82
793.879	6492.61
794.211	6426.85
794.543	6510.69
794.875	6439.73
795.207	6456.91
795.539	6356.12
795.871	6377.36
796.203	6336.23
796.535	6265.95
796.867	6253.07
797.198	6267.76
797.53	6217.36
797.862	6252.39
798.193	6239.29
798.525	6247.65
798.856	6094.2
799.188	6129.46
799.519	6075
799.85	6110.47
800.182	6083.13
800.513	6142.56
800.844	6059.63
801.175	6101.44
801.506	6079.74
801.837	6032.51
802.168	6044.49
802.499	5972.85
802.83	5945.06
803.161	5969.01
803.491	5871.39
803.822	5926.3
804.153	5865.51
804.483	5883.36
804.814	5834.55
805.145	5882.01
805.475	5812.63
805.805	5811.73
806.136	5789.13
806.466	5864.61
806.796	5749.81
807.126	5786.42
807.457	5732.41
807.787	5716.59
808.117	5707.1
808.447	5713.42
808.777	5682.92
809.107	5680.66
809.436	5678.4
809.766	5687.21
810.096	5640.66
810.426	5612.41
810.755	5554.78
811.085	5561.56
811.414	5610.6
811.744	5514.56
812.073	5485.86
812.403	5523.15
812.732	5526.76
813.061	5483.82
813.39	5439.08
813.719	5405.41
814.049	5496.25
814.378	5466.88
814.707	5446.76
815.036	5437.27
815.365	5402.92
815.693	5349.36
816.022	5339.2
816.351	5312.53
816.68	5314.79
817.008	5275.92
817.337	5287.22
817.665	5200.67
817.994	5297.39
818.322	5282.47
818.651	5195.24
818.979	5171.74
819.307	5210.84
819.636	5158.86
819.964	5170.39
820.292	5172.87
820.62	5187.56
820.948	5220.78
821.276	5197.28
821.604	5172.87
821.932	5182.82
822.259	5192.31
822.587	5178.3
822.915	5156.6
823.243	5158.18
823.57	5166.77
823.898	5151.63
824.225	5140.56
824.553	5219.2
824.88	5204.06
825.207	5179.65
825.535	5189.14
825.862	5168.58
826.189	5146.88
826.516	5190.05
826.843	5183.27
827.17	5150.5
827.497	5165.87
827.824	5183.27
828.151	5163.38
828.478	5158.64
828.805	5186.43
829.131	5197.5
829.458	5130.16
829.785	5165.87
830.111	5116.15
830.438	5178.75
830.764	5166.09
831.09	5128.35
831.417	5152.31
831.743	5160.44
832.069	5173.55
832.395	5129.03
832.722	5121.35
833.048	5057.62
833.374	5119.09
833.7	5105.76
834.026	5090.16
834.351	5092.2
834.677	5082.48
835.003	5085.42
835.329	5073.44
835.654	5074.12
835.98	5074.12
836.306	5034.57
836.631	5008.58
836.956	5051.75
837.282	5051.07
837.607	5002.03
837.932	5048.58
838.258	4999.09
838.583	4977.62
838.908	4923.39
839.233	4989.15
839.558	5013.33
839.883	4947.79
840.208	4953.67
840.533	4972.43
840.858	4926.1
841.182	5000.45
841.507	4978.98
841.832	4920.68
842.156	4878.64
842.481	4927.46
842.805	4888.13
843.13	4913.22
843.454	4888.81
843.778	4863.05
844.103	4853.78
844.427	4824.86
844.751	4815.37
845.075	4848.14
845.399	4787.12
845.723	4756.84
846.047	4781.24
846.371	4707.57
846.695	4787.57
847.019	4760.45
847.343	4718.65
847.666	4706.44
847.99	4687.69
848.313	4682.49
848.637	4606.56
848.96	4642.04
849.284	4632.32
849.607	4569.27
849.931	4547.58
850.254	4550.06
850.577	4522.95
850.9	4519.78
851.223	4478.2
851.546	4461.93
851.869	4433.46
852.192	4455.6
852.515	4415.83
852.838	4422.16
853.161	4443.17
853.483	4361.37
853.806	4371.76
854.129	4380.35
854.451	4364.76
854.774	4346.23
855.096	4313.91
855.419	4281.37
855.741	4253.8
856.063	4285.89
856.385	4295.83
856.708	4270.75
857.03	4296.29
857.352	4252.44
857.674	4234.59
857.996	4215.16
858.318	4224.87
858.64	4177.42
858.961	4156.63
859.283	4156.63
859.605	4206.8
859.926	4151.2
860.248	4109.4
860.57	4094.93
860.891	4122.05
861.212	4133.13
861.534	4099.45
861.855	4091.32
862.176	4075.27
862.498	4120.7
862.819	4063.3
863.14	4028.72
863.461	4044.54
863.782	4038.44
864.103	4000.25
864.424	4048.16
864.745	3993.47
865.065	4054.26
865.386	4002.06
865.707	4001.38
866.027	4040.25
866.348	4024.65
866.668	3969.51
866.989	3968.61
867.309	3932.68
867.63	3989.17
867.95	3935.39
868.27	3948.95
868.59	3973.58
868.91	3954.15
869.23	3971.77
869.55	3923.87
869.87	3952.79
870.19	3899.01
870.51	3859.01
870.83	3887.26
871.15	3878.22
871.469	3884.54
871.789	3871.66
872.109	3854.49
872.428	3803.64
872.748	3838.67
873.067	3835.73
873.386	3851.1
873.706	3831.44
874.025	3850.42
874.344	3801.16
874.663	3799.8
874.982	3836.41
875.301	3800.93
875.62	3800.25
875.939	3768.62
876.258	3789.41
876.577	3763.87
876.896	3776.98
877.214	3774.27
877.533	3739.24
877.852	3726.36
878.17	3782.85
878.489	3741.95
878.807	3756.41
879.125	3753.7
879.444	3728.16
879.762	3734.49
880.08	3728.39
880.398	3710.99
880.716	3693.36
881.034	3689.07
881.352	3697.66
881.67	3722.74
881.988	3692.46
882.306	3655.17
882.624	3655.85
882.941	3648.17
883.259	3641.16
883.577	3651.56
883.894	3663.31
884.212	3693.59
884.529	3652.46
884.846	3615.17
885.164	3626.92
885.481	3631.9
885.798	3595.96
886.115	3582.41
886.432	3581.5
886.75	3542.63
887.067	3556.87
887.383	3510.32
887.7	3581.28
888.017	3541.5
888.334	3490.66
888.651	3515.29
888.967	3543.54
889.284	3535.63
889.6	3448.4
889.917	3446.59
890.233	3445.23
890.55	3452.69
890.866	3458.57
891.182	3445.69
891.498	3410.88
891.815	3426.48
892.131	3458.57
892.447	3438.23
892.763	3428.29
893.079	3431.45
893.395	3404.33
893.71	3343.99
894.026	3372.24
894.342	3364.56
894.657	3363.65
894.973	3365.69
895.289	3326.59
895.604	3343.99
895.92	3320.27
896.235	3291.34
896.55	3292.47
896.865	3285.46
897.181	3273.94
897.496	3271
897.811	3223.09
898.126	3214.73
898.441	3228.52
898.756	3218.35
899.071	3213.15
899.386	3233.49
899.7	3192.59
900.015	3152.36
900.33	3192.13
900.644	3163.43
900.959	3139.25
901.273	3175.41
901.588	3147.61
901.902	3138.58
902.216	3134.28
902.531	3112.81
902.845	3100.16
903.159	3082.31
903.473	3057.9
903.787	3064.68
904.101	3061.74
904.415	3034.17
904.729	3039.37
905.042	3036.66
905.356	2963.89
905.67	3011.12
905.984	3000.27
906.297	2983.33
906.611	2945.36
906.924	2977.22
907.237	2941.97
907.551	2965.47
907.864	2969.77
908.177	2930.9
908.491	2956.21
908.804	2908.07
909.117	2876.21
909.43	2879.83
909.743	2869.43
910.056	2851.8
910.368	2871.46
910.681	2846.61
910.994	2833.5
911.307	2835.76
911.619	2770
911.932	2838.47
912.244	2781.07
912.557	2777
912.869	2802.77
913.181	2760.96
913.494	2771.13
913.806	2741.52
914.118	2743.11
914.43	2715.54
914.742	2711.92
915.054	2695.2
915.366	2705.14
915.678	2663.56
915.99	2679.6
916.302	2630.34
916.613	2601.19
916.925	2623.11
917.236	2644.58
917.548	2599.83
917.859	2594.86
918.171	2601.41
918.482	2584.01
918.794	2586.5
919.105	2580.17
919.416	2546.05
919.727	2528.2
920.038	2539.72
920.349	2521.42
920.66	2538.37
920.971	2511.7
921.282	2491.59
921.593	2466.95
921.903	2451.81
922.214	2440.97
922.525	2493.85
922.835	2456.11
923.146	2461.98
923.456	2411.14
923.767	2426.96
924.077	2405.94
924.387	2414.75
924.697	2412.72
925.008	2387.41
925.318	2379.95
925.628	2359.39
925.938	2405.26
926.248	2365.49
926.558	2358.71
926.867	2338.6
927.177	2357.13
927.487	2318.26
927.796	2302.21
928.106	2263.34
928.416	2293.63
928.725	2292.95
929.034	2276.9
929.344	2293.85
929.653	2273.06
929.962	2245.94
930.271	2193.29
930.581	2206.62
930.89	2202.78
931.199	2186.51
931.508	2182.67
931.817	2216.79
932.125	2184.7
932.434	2171.6
932.743	2133.4
933.051	2186.06
933.36	2179.96
933.669	2118.04
933.977	2165.04
934.286	2127.08
934.594	2122.56
934.902	2106.74
935.21	2107.64
935.519	2131.6
935.827	2115.1
936.135	2134.76
936.443	2071.71
936.751	2074.2
937.059	2079.17
937.367	2062.67
937.674	2089.56
937.982	2053.63
938.29	2036.91
938.597	2045.5
938.905	2010.7
939.213	2040.75
939.52	2016.8
939.827	1998.94
940.135	1993.75
940.442	2007.98
940.749	1968.44
941.056	1976.8
941.363	1943.35
941.67	1966.4
941.977	1922.56
942.284	1945.61
942.591	1878.5
942.898	1900.87
943.205	1915.11
943.511	1888.89
943.818	1894.09
944.125	1862.9
944.431	1873.75
944.738	1863.58
945.044	1880.08
945.35	1870.36
945.657	1859.74
945.963	1836.46
946.269	1844.6
946.575	1831.27
946.881	1839.85
947.187	1827.88
947.493	1803.47
947.799	1791.27
948.105	1772.96
948.41	1778.16
948.716	1765.28
949.022	1767.09
949.327	1735.22
949.633	1749.46
949.938	1760.08
950.244	1772.06
950.549	1733.19
950.854	1730.25
951.16	1766.86
951.465	1761.89
951.77	1716.47
952.075	1731.16
952.38	1698.16
952.685	1722.12
952.99	1678.95
953.294	1693.42
953.599	1660.2
953.904	1686.64
954.209	1653.42
954.513	1656.13
954.818	1648.45
955.122	1625.17
955.426	1633.08
955.731	1626.98
956.035	1616.13
956.339	1631.5
956.643	1629.01
956.948	1628.56
957.252	1599.41
957.556	1622.01
957.86	1624.49
958.163	1587.43
958.467	1581.55
958.771	1604.38
959.075	1579.97
959.378	1563.02
959.682	1547.66
959.985	1549.01
960.289	1550.59
960.592	1531.16
960.896	1542.23
961.199	1532.97
961.502	1517.38
961.805	1502.46
962.108	1498.17
962.411	1489.81
962.714	1515.79
963.017	1478.96
963.32	1493.42
963.623	1488
963.926	1495
964.228	1451.39
964.531	1465.63
964.833	1459.52
965.136	1470.82
965.438	1437.38
965.741	1452.74
966.043	1451.16
966.345	1434.67
966.648	1407.55
966.95	1414.78
967.252	1432.86
967.554	1389.24
967.856	1414.1
968.158	1396.25
968.46	1373.42
968.761	1396.93
969.063	1365.74
969.365	1375.01
969.666	1401.67
969.968	1389.24
970.269	1384.95
970.571	1375.46
970.872	1363.93
971.174	1352.86
971.475	1379.98
971.776	1365.74
972.077	1361.45
972.378	1337.72
972.679	1336.14
972.98	1359.87
973.281	1300.21
973.582	1303.6
973.883	1326.42
974.183	1299.08
974.484	1320.77
974.785	1285.29
975.085	1284.84
975.386	1289.36
975.686	1287.78
975.986	1227.21
976.287	1282.81
976.587	1263.14
976.887	1264.95
977.187	1257.72
977.487	1266.76
977.787	1255.46
978.087	1270.38
978.387	1248.68
978.687	1231.96
978.987	1229.02
979.286	1235.35
979.586	1232.19
979.885	1192.19
980.185	1193.54
980.484	1232.41
980.784	1188.34
981.083	1222.02
981.382	1213.88
981.682	1173.43
981.981	1209.13
982.28	1192.86
982.579	1221.34
982.878	1184.28
983.177	1169.36
983.475	1160.77
983.774	1141.79
984.073	1165.52
984.372	1163.71
984.67	1139.31
984.969	1123.94
985.267	1127.56
985.566	1138.63
985.864	1139.08
986.162	1139.53
986.461	1143.6
986.759	1125.52
987.057	1094.79
987.355	1111.51
987.653	1117.61
987.951	1113.54
988.249	1097.73
988.547	1092.53
988.844	1090.72
989.142	1118.52
989.44	1071.96
989.737	1092.3
990.035	1056.6
990.332	1094.56
990.63	1074.9
990.927	1059.99
991.224	1048.24
991.521	1079.19
991.819	1064.28
992.116	1068.57
992.413	1048.69
992.71	1057.27
993.006	1040.78
993.303	1046.2
993.6	1015.47
993.897	1011.4
994.193	1051.85
994.49	1030.61
994.787	1028.35
995.083	1015.69
995.379	1026.09
995.676	1009.59
995.972	1007.56
996.268	1013.43
996.565	1006.43
996.861	991.06
997.157	986.77
997.453	979.99
997.749	977.73
998.044	979.08
998.34	974.56
998.636	977.95
998.932	951.06
999.227	948.35
999.523	957.84
999.818	976.37
1000.114	946.09
1000.409	965.75
1000.704	945.64
1001	928.01
1001.295	951.97
1001.59	922.36
1001.885	911.52
1002.18	928.46
1002.475	893.44
1002.77	901.12
1003.065	895.7
1003.359	900.89
1003.654	892.98
1003.949	906.32
1004.243	911.74
1004.538	893.44
1004.832	885.75
1005.127	893.21
1005.421	900.67
1005.715	851.86
1006.009	887.79
1006.304	909.71
1006.598	848.69
1006.892	867
1007.186	843.27
1007.48	864.96
1007.773	831.74
1008.067	844.85
1008.361	844.85
1008.655	829.26
1008.948	835.13
1009.242	839.65
1009.535	854.79
1009.829	800.11
1010.122	843.27
1010.415	817.28
1010.708	804.4
1011.001	808.02
1011.295	805.08
1011.588	820.67
1011.881	814.34
1012.173	792.2
1012.466	794
1012.759	808.02
1013.052	775.02
1013.344	783.16
1013.637	786.77
1013.93	781.8
1014.222	785.87
1014.514	773.44
1014.807	759.43
1015.099	756.27
1015.391	780.22
1015.683	754.01
1015.976	741.35
1016.268	757.62
1016.56	751.07
1016.851	748.81
1017.143	736.83
1017.435	735.25
1017.727	729.83
1018.018	736.15
1018.31	727.57
1018.602	746.77
1018.893	723.95
1019.185	708.58
1019.476	702.71
1019.767	716.72
1020.058	715.81
1020.35	696.83
1020.641	711.75
1020.932	698.41
1021.223	691.63
1021.514	686.66
1021.804	659.32
1022.095	692.31
1022.386	677.4
1022.677	677.85
1022.967	678.53
1023.258	684.85
1023.548	676.49
1023.839	668.36
1024.129	652.09
1024.419	673.56
1024.709	652.54
1025	677.62
1025.29	660.67
1025.58	650.73
1025.87	631.07
1026.16	622.26
1026.449	614.12
1026.739	644.4
1027.029	615.48
1027.319	615.7
1027.608	639.21
1027.898	628.36
1028.187	642.82
1028.477	641.01
1028.766	632.43
1029.055	624.07
1029.344	621.13
1029.634	599.89
1029.923	611.41
1030.212	588.13
1030.501	615.7
1030.79	572.77
1031.078	591.07
1031.367	590.85
1031.656	582.71
1031.945	583.84
1032.233	602.82
1032.522	587
1032.81	584.29
1033.099	577.29
1033.387	585.2
1033.675	576.38
1033.963	569.15
1034.251	571.86
1034.54	597.4
1034.828	530.96
1035.116	566.67
1035.403	594.01
1035.691	549.49
1035.979	571.19
1036.267	553.56
1036.554	541.81
1036.842	567.12
1037.129	550.17
1037.417	544.75
1037.704	537.74
1037.992	558.08
1038.279	535.93
1038.566	542.94
1038.853	542.94
1039.14	542.94
