Data from black_plastic_tray_FLMS001491_085.txt Node
Date: Tue Feb 07 10:40:52 GMT 2017
User: dcchb
Spectrometer: FLMS00149
Trigger mode: 0
Integration Time (sec): 2.000000E-2
Scans to average: 10
Electric dark correction enabled: true
Nonlinearity correction enabled: false
Boxcar width: 0
XAxis mode: Wavelengths
Number of Pixels in Spectrum: 2048
>>>>>Begin Spectral Data<<<<<
341.393	6.3
341.776	6.3
342.16	6.3
342.543	-44.32
342.927	-73.92
343.31	-65.34
343.693	-63.76
344.077	-57.2
344.46	-73.7
344.843	-58.78
345.226	-33.25
345.61	-29.41
345.993	-18.56
346.376	6.98
346.759	4.72
347.142	16.69
347.525	29.58
347.908	49.46
348.291	77.71
348.674	93.98
349.057	120.87
349.44	126.52
349.823	139.18
350.206	162
350.588	184.6
350.971	197.93
351.354	196.58
351.737	212.62
352.119	229.57
352.502	249.91
352.884	265.05
353.267	245.84
353.65	303.24
354.032	288.33
354.414	297.82
354.797	310.02
355.179	294.43
355.562	332.17
355.944	319.96
356.326	341.66
356.709	314.09
357.091	328.78
357.473	334.43
357.855	312.28
358.238	310.02
358.62	329.91
359.002	345.05
359.384	332.62
359.766	319.74
360.148	332.62
360.53	337.59
360.912	322.22
361.294	314.99
361.676	321.77
362.057	324.03
362.439	315.22
362.821	326.29
363.203	321.77
363.584	321.55
363.966	303.24
364.348	324.03
364.729	301.21
365.111	301.88
365.493	327.42
365.874	307.31
366.256	311.38
366.637	311.6
367.019	298.27
367.4	299.4
367.781	313.18
368.163	299.85
368.544	303.92
368.925	306.4
369.306	323.35
369.688	316.35
370.069	289.23
370.45	313.64
370.831	311.6
371.212	325.39
371.593	315.9
371.974	317.7
372.355	284.71
372.736	310.47
373.117	309.57
373.498	316.8
373.879	314.31
374.26	307.99
374.641	324.93
375.021	300.53
375.402	322.22
375.783	318.38
376.163	322.45
376.544	336.91
376.925	343.01
377.305	311.38
377.686	313.18
378.066	302.11
378.447	344.37
378.827	339.62
379.208	323.81
379.588	327.19
379.968	323.58
380.349	328.32
380.729	343.92
381.109	354.31
381.489	349.79
381.87	347.53
382.25	352.28
382.63	346.86
383.01	359.74
383.39	344.6
383.77	340.53
384.15	351.37
384.53	364.03
384.91	360.41
385.29	355.89
385.67	378.49
386.049	360.87
386.429	370.36
386.809	390.92
387.189	367.19
387.568	366.97
387.948	349.79
388.328	370.36
388.707	364.71
389.087	374.65
389.466	383.24
389.846	381.2
390.225	381.43
390.605	361.32
390.984	353.63
391.363	394.99
391.743	380.53
392.122	403.12
392.501	407.87
392.881	387.31
393.26	395.89
393.639	421.2
394.018	394.09
394.397	404.03
394.776	405.38
395.155	429.56
395.534	413.97
395.913	412.84
396.292	403.12
396.671	422.56
397.05	413.07
397.429	415.78
397.808	417.36
398.186	423.24
398.565	421.66
398.944	415.55
399.323	439.73
399.701	423.46
400.08	425.5
400.458	448.55
400.837	427.31
401.215	440.64
401.594	423.46
401.972	439.96
402.351	456
402.729	426.63
403.107	449.68
403.486	454.42
403.864	463.69
404.242	451.26
404.62	469.79
404.999	461.43
405.377	459.39
405.755	460.98
406.133	485.16
406.511	490.13
406.889	511.14
407.267	506.17
407.645	505.5
408.023	495.78
408.401	488.09
408.779	489.68
409.156	488.77
409.534	505.04
409.912	504.14
410.29	512.05
410.667	538.26
411.045	532.84
411.422	524.93
411.8	545.72
412.178	525.16
412.555	546.62
412.933	546.85
413.31	573.06
413.687	557.7
414.065	537.13
414.442	576.45
414.819	559.05
415.197	556.79
415.574	571.93
415.951	567.64
416.328	587.53
416.705	561.76
417.082	587.98
417.46	602.22
417.837	616.68
418.214	631.37
418.591	610.8
418.967	622.55
419.344	614.87
419.721	603.12
420.098	601.31
420.475	615.55
420.852	630.46
421.228	650.58
421.605	643.12
421.982	655.55
422.358	641.08
422.735	645.6
423.111	660.75
423.488	673.17
423.864	670.24
424.241	651.71
424.617	669.33
424.994	678.6
425.37	696.45
425.746	704.81
426.123	699.39
426.499	694.64
426.875	709.56
427.251	714.08
427.627	711.59
428.003	722.21
428.379	719.95
428.756	719.27
429.132	738.71
429.507	744.36
429.883	757.92
430.259	770.35
430.635	796.33
431.011	792.95
431.387	768.99
431.763	811.7
432.138	785.26
432.514	813.51
432.89	828.65
433.265	798.82
433.641	848.76
434.016	834.53
434.392	865.94
434.767	880.4
435.143	863.9
435.518	865.26
435.894	870.68
436.269	865.94
436.644	881.76
437.02	903
437.395	910.46
437.77	903.45
438.145	933.05
438.52	929.21
438.895	924.24
439.271	951.13
439.646	973.05
440.021	965.82
440.395	978.93
440.77	967.4
441.145	985.03
441.52	989.32
441.895	1003.79
442.27	1005.6
442.645	1009.89
443.019	1012.83
443.394	1014.63
443.769	1043.33
444.143	1011.7
444.518	1014.41
444.892	1036.1
445.267	1034.75
445.641	1039.27
446.016	1033.16
446.39	1084.91
446.764	1070.9
447.139	1091.02
447.513	1103.67
447.887	1087.85
448.262	1069.32
448.636	1090.79
449.01	1099.83
449.384	1117.46
449.758	1119.04
450.132	1103.45
450.506	1148.64
450.88	1140.51
451.254	1126.27
451.628	1152.03
452.002	1195.87
452.376	1184.35
452.75	1168.08
453.123	1169.66
453.497	1193.61
453.871	1224.8
454.244	1252.59
454.618	1241.52
454.992	1273.61
455.365	1251.01
455.739	1283.33
456.112	1297.79
456.486	1329.2
456.859	1311.35
457.232	1349.77
457.606	1350.22
457.979	1362.42
458.352	1410.1
458.725	1393.38
459.099	1388.18
459.472	1420.27
459.845	1441.06
460.218	1458.69
460.591	1447.84
460.964	1453.27
461.337	1483.32
461.71	1521.51
462.083	1516.54
462.456	1526.03
462.829	1520.84
463.201	1534.85
463.574	1578.01
463.947	1599.25
464.32	1647.16
464.692	1635.63
465.065	1639.7
465.438	1675.41
465.81	1695.97
466.183	1697.1
466.555	1752.47
466.928	1726.71
467.3	1737.33
467.672	1768.74
468.045	1814.39
468.417	1791.11
468.789	1811.45
469.161	1882.41
469.534	1870.43
469.906	1883.76
470.278	1909.07
470.65	1946.36
471.022	1977.55
471.394	1982.97
471.766	2038.79
472.138	2059.8
472.51	2091.89
472.882	2078.79
473.253	2114.04
473.625	2182.29
473.997	2162.4
474.369	2204.66
474.74	2227.48
475.112	2294.15
475.484	2316.3
475.855	2320.36
476.227	2373.24
476.598	2431.55
476.97	2428.61
477.341	2481.49
477.713	2542.96
478.084	2492.56
478.455	2591.99
478.827	2633.57
479.198	2698.43
479.569	2674.03
479.94	2712.89
480.311	2781.82
480.682	2872.66
481.053	2893.23
481.424	2916.51
481.795	2984.75
482.166	2975.71
482.537	3039.67
482.908	3076.95
483.279	3135.03
483.65	3174.13
484.021	3218.19
484.391	3275.37
484.762	3294.35
485.133	3304.52
485.503	3384.52
485.874	3463.61
486.244	3484.85
486.615	3528.69
486.985	3573.89
487.356	3637.62
487.726	3633.55
488.097	3723.94
488.467	3736.14
488.837	3801.68
489.207	3839.87
489.578	3941.56
489.948	3924.84
490.318	4033.54
490.688	4008.68
491.058	4044.16
491.428	4115.34
491.798	4119.41
492.168	4206.19
492.538	4269.01
492.908	4347.88
493.278	4359.18
493.648	4301.55
494.017	4392.4
494.387	4433.75
494.757	4461.32
495.126	4496.12
495.496	4535.45
495.866	4587.42
496.235	4600.53
496.605	4682.79
496.974	4689.57
497.344	4739.96
497.713	4729.11
498.082	4768.43
498.452	4839.84
498.821	4845.27
499.19	4894.76
499.559	4975.21
499.928	5008.2
500.298	5010.69
500.667	5067.41
501.036	5088.88
501.405	5104.24
501.774	5127.97
502.143	5183.79
502.512	5233.28
502.88	5231.25
503.249	5248.87
503.618	5293.84
503.987	5328.19
504.356	5329.1
504.724	5391.47
505.093	5365.25
505.462	5435.54
505.83	5460.39
506.199	5496.55
506.567	5549.2
506.936	5599.82
507.304	5647.05
507.672	5636.21
508.041	5701.74
508.409	5749.2
508.777	5733.15
509.145	5785.36
509.514	5824.45
509.882	5901.29
510.25	5884.56
510.618	5997.78
510.986	5993.26
511.354	6002.07
511.722	6075.74
512.09	6220.15
512.458	6198
512.826	6228.96
513.193	6218.57
513.561	6263.08
513.929	6329.97
514.297	6389.63
514.664	6381.95
515.032	6405
515.4	6495.17
515.767	6552.34
516.135	6579.01
516.502	6614.49
516.869	6695.61
517.237	6685.9
517.604	6690.19
517.972	6802.05
518.339	6814.93
518.706	6920.69
519.073	6892.67
519.44	6958.88
519.808	7013.35
520.175	7068.26
520.542	7155.72
520.909	7184.87
521.276	7246.56
521.643	7334.47
522.009	7338.76
522.376	7345.54
522.743	7432.09
523.11	7482.71
523.477	7585.08
523.843	7639.09
524.21	7740.33
524.577	7736.27
524.943	7794.57
525.31	7770.84
525.676	7932.19
526.043	7958.41
526.409	7989.59
526.776	8086.09
527.142	8080.44
527.508	8160.44
527.874	8238.85
528.241	8257.61
528.607	8331.73
528.973	8416.25
529.339	8376.93
529.705	8428.45
530.071	8569.92
530.437	8608.56
530.803	8629.8
531.169	8680.65
531.535	8654.21
531.901	8763.58
532.267	8773.53
532.632	8838.84
532.998	8892.39
533.364	8977.14
533.73	8923.35
534.095	8994.31
534.461	9062.78
534.826	9123.57
535.192	9161.31
535.557	9257.58
535.923	9214.19
536.288	9253.06
536.653	9286.51
537.019	9290.35
537.384	9343.45
537.749	9371.02
538.114	9442.44
538.479	9475.65
538.845	9488.31
539.21	9516.11
539.575	9545.94
539.94	9578.02
540.305	9687.63
540.67	9601.75
541.034	9614.18
541.399	9762.65
541.764	9710.45
542.129	9793.84
542.494	9755.42
542.858	9904.8
543.223	9849.88
543.587	9906.15
543.952	9885.14
544.316	9910.67
544.681	9941.41
545.045	9984.57
545.41	10038.58
545.774	10051.23
546.138	10041.97
546.503	10160.83
546.867	10147.73
547.231	10237.89
547.595	10213.71
547.959	10310.44
548.324	10265.69
548.688	10403.09
549.052	10345.91
549.416	10398.34
549.779	10397.21
550.143	10409.87
550.507	10503.2
550.871	10529.41
551.235	10622.52
551.599	10664.78
551.962	10596.98
552.326	10685.11
552.689	10720.59
553.053	10754.49
553.417	10792
553.78	10976.41
554.143	10918.55
554.507	10931.89
554.87	11039.91
555.234	11177.3
555.597	11062.73
555.96	11140.02
556.323	11211.2
556.686	11294.14
557.05	11310.63
557.413	11315.15
557.776	11340.69
558.139	11394.7
558.502	11451.87
558.865	11432.21
559.228	11620.68
559.59	11553.34
559.953	11674.92
560.316	11787.01
560.679	11740.91
561.041	11889.6
561.404	11840.34
561.767	11973.44
562.129	11881.24
562.492	12118.3
562.854	12153.55
563.217	12108.35
563.579	12219.09
563.941	12224.96
564.304	12228.35
564.666	12318.29
565.028	12377.73
565.39	12369.82
565.753	12452.53
566.115	12480.1
566.477	12587.44
566.839	12583.82
567.201	12622.01
567.563	12644.84
567.925	12766.64
568.287	12763.93
568.648	12772.97
569.01	12865.17
569.372	12978.16
569.734	12943.13
570.095	13109.46
570.457	13124.15
570.819	13050.7
571.18	13103.13
571.542	13118.72
571.903	13214.54
572.265	13306.51
572.626	13335.44
572.987	13342.9
573.349	13406.62
573.71	13488.43
574.071	13452.95
574.432	13470.13
574.794	13643.68
575.155	13571.59
575.516	13461.31
575.877	13587.19
576.238	13623.57
576.599	13676.67
576.96	13691.82
577.32	13610.46
577.681	13770.68
578.042	13761.64
578.403	13819.72
578.763	13798.48
579.124	13840.96
579.485	13925.03
579.845	13921.19
580.206	13870.34
580.566	13868.76
580.927	13886.16
581.287	13881.41
581.648	13959.15
582.008	13946.05
582.368	13992.15
582.728	14014.74
583.089	13934.29
583.449	13954.18
583.809	13938.14
584.169	13989.21
584.529	14055.42
584.889	14106.95
585.249	14019.49
585.609	13953.96
585.969	13993.95
586.329	14056.1
586.688	14120.05
587.048	14017
587.408	13907.4
587.768	13973.16
588.127	14001.86
588.487	13985.37
588.846	14101.97
589.206	13928.42
589.565	13953.5
589.925	14071.69
590.284	13996.89
590.643	14044.8
591.003	14127.96
591.362	14147.85
591.721	14026.04
592.08	14072.14
592.44	14100.39
592.799	14079.83
593.158	14082.31
593.517	14093.39
593.876	14094.06
594.235	14055.2
594.593	14146.27
594.952	14220.16
595.311	14193.5
595.67	14235.53
596.029	14289.09
596.387	14205.93
596.746	14320.05
597.104	14111.01
597.463	14215.42
597.822	14198.92
598.18	14097
598.538	14113.95
598.897	14229.43
599.255	14165.02
599.613	14406.15
599.972	14240.28
600.33	14208.86
600.688	14192.59
601.046	14239.37
601.404	14340.16
601.762	14372.7
602.12	14434.85
602.478	14398.69
602.836	14454.73
603.194	14358.46
603.552	14380.84
603.91	14374.51
604.268	14384.9
604.625	14363.89
604.983	14449.76
605.341	14402.3
605.698	14521.17
606.056	14372.02
606.413	14450.44
606.771	14531.79
607.128	14505.58
607.485	14449.08
607.843	14507.16
608.2	14574.96
608.557	14647.95
608.914	14604.79
609.272	14601.4
609.629	14623.99
609.986	14559.81
610.343	14637.55
610.7	14747.38
611.057	14703.31
611.414	14685.01
611.771	14768.62
612.127	14796.19
612.484	14789.87
612.841	14822.41
613.198	14846.81
613.554	14750.32
613.911	14916.64
614.267	14905.57
614.624	14853.14
614.98	14764.56
615.337	14892.69
615.693	14846.36
616.05	14771.79
616.406	14986.24
616.762	14868.28
617.118	14869.41
617.475	14917.55
617.831	14958
618.187	14946.47
618.543	15007.03
618.899	15014.49
619.255	15000.71
619.611	15003.42
619.967	15152.79
620.323	15162.96
620.678	15078.45
621.034	14944.21
621.39	14968.39
621.746	14972.46
622.101	15103.76
622.457	14979.69
622.812	15076.41
623.168	15005.45
623.523	15087.03
623.879	15092.46
624.234	15063.53
624.589	15071.44
624.945	15133.59
625.3	15089.74
625.655	15099.91
626.01	15074.6
626.365	15000.71
626.72	15035.06
627.075	14975.85
627.43	14987.15
627.785	14908.51
628.14	15012.46
628.495	15015.62
628.85	14969.75
629.205	14926.36
629.559	14995.96
629.914	14992.12
630.269	14959.58
630.623	14936.53
630.978	14896.98
631.332	14978.33
631.687	15000.48
632.041	14915.06
632.396	14957.54
632.75	14942.4
633.104	14869.19
633.459	14732.69
633.813	14809.75
634.167	14786.02
634.521	14852.69
634.875	14830.99
635.229	14823.54
635.583	14728.62
635.937	14656.31
636.291	14659.93
636.645	14685.01
636.999	14608.18
637.352	14738.79
637.706	14638.46
638.06	14627.16
638.413	14557.1
638.767	14605.01
639.121	14571.11
639.474	14441.4
639.828	14477.33
640.181	14516.65
640.534	14505.13
640.888	14394.4
641.241	14426.03
641.594	14392.14
641.947	14491.34
642.301	14321.18
642.654	14388.29
643.007	14418.12
643.36	14422.42
643.713	14402.53
644.066	14365.7
644.419	14281.86
644.771	14146.72
645.124	14097
645.477	14056.1
645.83	13923.22
646.182	13908.76
646.535	13868.99
646.888	13858.14
647.24	13731.14
647.593	13821.3
647.945	13771.59
648.298	13711.7
648.65	13650.46
649.002	13701.08
649.355	13705.83
649.707	13705.15
650.059	13754.64
650.411	13941.53
650.763	13962.09
651.115	14099.04
651.467	13975.42
651.819	14032.6
652.171	14044.35
652.523	13963.9
652.875	14014.29
653.227	13902.21
653.578	14008.87
653.93	13951.92
654.282	13931.36
654.633	13856.78
654.985	13800.29
655.337	13964.58
655.688	13900.85
656.039	13939.04
656.391	13804.81
656.742	13863.56
657.094	13878.93
657.445	13872.6
657.796	13814.52
658.147	13880.96
658.498	13848.42
658.849	13848.65
659.2	13731.14
659.551	13802.09
659.902	13811.13
660.253	13799.61
660.604	13823.11
660.955	13729.1
661.306	13788.76
661.656	13721.19
662.007	13684.81
662.358	13658.14
662.708	13687.07
663.059	13694.3
663.409	13621.53
663.76	13717.13
664.11	13653.17
664.461	13631.48
664.811	13733.85
665.161	13695.88
665.511	13630.57
665.862	13659.05
666.212	13718.26
666.562	13703.79
666.912	13646.84
667.262	13665.38
667.612	13615.43
667.962	13740.85
668.312	13572.27
668.662	13688.88
669.011	13560.29
669.361	13545.15
669.711	13579.28
670.06	13555.32
670.41	13541.08
670.76	13567.52
671.109	13614.08
671.459	13574.98
671.808	13527.75
672.157	13539.05
672.507	13455.89
672.856	13410.01
673.205	13498.37
673.554	13504.48
673.904	13408.66
674.253	13508.32
674.602	13489.79
674.951	13252.05
675.3	13240.98
675.649	13365.5
675.998	13450.92
676.346	13438.04
676.695	13427.64
677.044	13364.14
677.393	13410.01
677.741	13425.61
678.09	13284.59
678.438	13270.13
678.787	13273.3
679.135	13251.15
679.484	13209.57
679.832	13255.22
680.181	13258.61
680.529	13263.58
680.877	13200.98
681.225	13202.11
681.573	13298.61
681.922	13129.57
682.27	13116.24
682.618	13113.98
682.966	13037.6
683.314	13171.6
683.661	13110.14
684.009	13027.88
684.357	12975.68
684.705	12864.72
685.053	12964.6
685.4	12961.66
685.748	12918.95
686.095	12845.51
686.443	12774.33
686.79	12750.82
687.138	12769.81
687.485	12802.35
687.832	12699.98
688.18	12684.61
688.527	12556.93
688.874	12602.58
689.221	12626.76
689.568	12593.54
689.915	12570.49
690.262	12482.13
690.609	12358.74
690.956	12451.85
691.303	12450.49
691.65	12223.15
691.997	12279.65
692.344	12229.71
692.69	12295.69
693.037	12246.43
693.383	12187.67
693.73	12236.71
694.077	12201.91
694.423	12176.37
694.769	12098.86
695.116	12114
695.462	12103.38
695.808	11992.2
696.155	12037.17
696.501	11925.76
696.847	11942.71
697.193	11900.68
697.539	11836.04
697.885	11803.5
698.231	11772.09
698.577	11759.44
698.923	11759.21
699.269	11678.76
699.614	11642.6
699.96	11633.34
700.306	11650.06
700.651	11487.35
700.997	11525.09
701.342	11531.19
701.688	11515.38
702.033	11456.39
702.379	11507.92
702.724	11377.98
703.069	11541.59
703.415	11262.05
703.76	11340.24
704.105	11393.57
704.45	11273.12
704.795	11191.54
705.14	11142.05
705.485	11154.03
705.83	11137.98
706.175	11143.86
706.52	11101.6
706.865	11048.04
707.209	11023.18
707.554	11039
707.899	11037.2
708.243	10927.82
708.588	10976.18
708.932	10877.88
709.277	10902.74
709.621	10933.47
709.966	10902.96
710.31	10959.68
710.654	10769.63
710.998	10820.03
711.342	10772.34
711.687	10764.21
712.031	10773.7
712.375	10665
712.719	10623.2
713.063	10667.94
713.407	10800.37
713.75	10613.48
714.094	10619.81
714.438	10617.55
714.782	10589.98
715.125	10535.97
715.469	10556.98
715.812	10557.43
716.156	10453.48
716.499	10474.05
716.843	10475.4
717.186	10481.28
717.53	10518.34
717.873	10393.82
718.216	10368.74
718.559	10422.07
718.902	10342.98
719.246	10367.61
719.589	10345.69
719.932	10302.75
720.275	10345.01
720.617	10298.01
720.96	10220.49
721.303	10250.78
721.646	10234.5
721.989	10196.09
722.331	10193.6
722.674	10170.78
723.016	10180.04
723.359	10103.66
723.701	10141.4
724.044	10157.22
724.386	9981.86
724.729	10094.85
725.071	10006.94
725.413	10022.08
725.755	9977.11
726.097	9909.77
726.439	9953.83
726.782	9967.39
727.124	9997
727.465	9937.34
727.807	9934.63
728.149	9925.81
728.491	9851.01
728.833	9917.68
729.175	9766.72
729.516	9870.9
729.858	9763.1
730.199	9869.09
730.541	9806.04
730.882	9785.03
731.224	9741.18
731.565	9772.6
731.906	9746.83
732.248	9738.02
732.589	9697.12
732.93	9650.34
733.271	9641.98
733.612	9612.83
733.953	9695.08
734.294	9588.19
734.635	9630.9
734.976	9599.95
735.317	9599.95
735.658	9523.11
735.999	9557.23
736.339	9556.56
736.68	9485.82
737.021	9524.69
737.361	9399.95
737.702	9491.47
738.042	9404.7
738.383	9436.33
738.723	9396.79
739.063	9426.16
739.404	9391.14
739.744	9373.74
740.084	9282.89
740.424	9378.48
740.764	9289.9
741.104	9318.82
741.444	9272.04
741.784	9269.33
742.124	9327.18
742.464	9193.63
742.804	9201.99
743.143	9272.27
743.483	9264.13
743.823	9193.4
744.162	9183.23
744.502	9164.02
744.841	9140.3
745.181	9254.19
745.52	9172.84
745.86	9232.05
746.199	9110.92
746.538	9078.38
746.877	9091.71
747.216	9064.14
747.556	8999.51
747.895	9029.79
748.234	8936.01
748.573	9048.55
748.911	9025.95
749.25	8970.36
749.589	8876.35
749.928	8931.49
750.267	8985.5
750.605	8926.06
750.944	8860.3
751.283	8840.87
751.621	8923.58
751.96	8751.15
752.298	8850.13
752.636	8811.49
752.975	8813.07
753.313	8766.75
753.651	8761.32
753.989	8778.95
754.327	8724.04
754.666	8636.81
755.004	8676.13
755.342	8646.52
755.679	8616.92
756.017	8573.98
756.355	8524.72
756.693	8466.64
757.031	8550.71
757.368	8532.63
757.706	8510.71
758.044	8514.1
758.381	8453.31
758.719	8458.05
759.056	8459.18
759.394	8389.13
759.731	8338.51
760.068	8335.57
760.405	8270.49
760.743	8297.38
761.08	8335.57
761.417	8279.3
761.754	8280.66
762.091	8227.78
762.428	8209.25
762.765	8170.38
763.102	8209.47
763.438	8151.17
763.775	8076.37
764.112	8073.66
764.449	8133.77
764.785	8079.53
765.122	7926.77
765.458	7996.6
765.795	7953.89
766.131	7888.8
766.467	7958.41
766.804	7914.79
767.14	7881.57
767.476	7818.3
767.812	7751.41
768.148	7851.06
768.485	7767
768.821	7733.33
769.157	7719.54
769.492	7726.1
769.828	7696.94
770.164	7644.52
770.5	7618.98
770.836	7593.67
771.171	7593.9
771.507	7521.36
771.842	7430.96
772.178	7510.28
772.513	7459.66
772.849	7402.94
773.184	7450.62
773.519	7428.93
773.855	7310.74
774.19	7331.53
774.525	7296.05
774.86	7242.27
775.195	7230.29
775.53	7267.35
775.865	7177.86
776.2	7182.16
776.535	7121.59
776.87	7096.51
777.205	7096.06
777.539	7083.18
777.874	7012.22
778.209	6957.3
778.543	7015.38
778.878	6880.69
779.212	6935.38
779.547	6944.42
779.881	6909.39
780.215	6894.71
780.55	6869.4
780.884	6885.67
781.218	6790.75
781.552	6808.61
781.886	6706.69
782.22	6712.34
782.554	6759.12
782.888	6678.44
783.222	6634.6
783.556	6574.49
783.889	6612.45
784.223	6573.36
784.557	6599.8
784.89	6553.47
785.224	6517.54
785.557	6511.89
785.891	6508.73
786.224	6447.26
786.558	6502.63
786.891	6388.96
787.224	6421.72
787.557	6420.59
787.891	6352.35
788.224	6404.55
788.557	6388.96
788.89	6386.02
789.223	6309.41
789.556	6317.32
789.888	6288.85
790.221	6268.96
790.554	6148.51
790.887	6209.3
791.219	6178.79
791.552	6125.23
791.884	6092.01
792.217	6077.78
792.549	6080.04
792.882	6015.86
793.214	6056.31
793.546	5998.68
793.879	5972.47
794.211	5918.01
794.543	5962.98
794.875	6014.95
795.207	5954.17
795.539	5857.44
795.871	5909.87
796.203	5865.35
796.535	5835.98
796.867	5802.98
797.198	5761.63
797.53	5796.66
797.862	5765.47
798.193	5796.88
798.525	5763.66
798.856	5741.52
799.188	5733.83
799.519	5707.17
799.85	5667.62
800.182	5615.42
800.513	5638.47
800.844	5607.06
801.175	5639.6
801.506	5609.32
801.837	5673.04
802.168	5567.73
802.499	5564.57
802.83	5574.74
803.161	5525.02
803.491	5587.85
803.822	5547.17
804.153	5517.79
804.483	5442.31
804.814	5453.84
805.145	5409.55
805.475	5428.08
805.805	5395.08
806.136	5406.38
806.466	5422.88
806.796	5419.94
807.126	5365.48
807.457	5349.44
807.787	5358.47
808.117	5335.42
808.447	5323.9
808.777	5374.07
809.107	5324.58
809.436	5320.51
809.766	5280.74
810.096	5230.79
810.426	5196.45
810.755	5191.47
811.085	5232.83
811.414	5196.67
811.744	5160.51
812.073	5168.88
812.403	5172.94
812.732	5135.88
813.061	5120.74
813.39	5097.69
813.719	5068.09
814.049	5095.43
814.378	5101.53
814.707	5076.22
815.036	5033.96
815.365	5029.67
815.693	4994.42
816.022	5000.74
816.351	4992.83
816.68	4958.26
817.008	4948.32
817.337	4929.79
817.665	4932.05
817.994	4911.26
818.322	4914.87
818.651	4910.35
818.979	4832.16
819.307	4917.13
819.636	4920.75
819.964	4812.27
820.292	4848.88
820.62	4862.89
820.948	4852.27
821.276	4873.97
821.604	4871.93
821.932	4856.34
822.259	4838.26
822.587	4880.75
822.915	4808.88
823.243	4856.57
823.57	4857.47
823.898	4806.17
824.225	4849.11
824.553	4790.13
824.88	4826.96
825.207	4850.47
825.535	4856.34
825.862	4836.91
826.189	4835.55
826.516	4855.89
826.843	4846.4
827.17	4833.74
827.497	4841.88
827.824	4844.59
828.151	4855.66
828.478	4844.36
828.805	4843.23
829.131	4847.75
829.458	4803.46
829.785	4813.63
830.111	4807.98
830.438	4846.17
830.764	4823.57
831.09	4802.11
831.417	4815.89
831.743	4783.57
832.069	4833.74
832.395	4717.59
832.722	4777.02
833.048	4779.96
833.374	4758.72
833.7	4723.46
834.026	4789.9
834.351	4765.5
834.677	4715.78
835.003	4717.59
835.329	4715.1
835.654	4697.02
835.98	4694.09
836.306	4727.31
836.631	4694.31
836.956	4665.84
837.282	4689.57
837.607	4689.79
837.932	4683.69
838.258	4644.82
838.583	4639.85
838.908	4644.14
839.233	4678.27
839.558	4612.96
839.883	4627.42
840.208	4571.6
840.533	4623.58
840.858	4601.66
841.182	4606.86
841.507	4595.11
841.832	4539.06
842.156	4525.05
842.481	4593.52
842.805	4541.55
843.13	4512.85
843.454	4505.62
843.778	4563.02
844.103	4515.33
844.427	4484.6
844.751	4534.09
845.075	4504.94
845.399	4505.16
845.723	4419.97
846.047	4447.99
846.371	4374.55
846.695	4404.6
847.019	4379.52
847.343	4423.81
847.666	4407.31
847.99	4355.56
848.313	4370.03
848.637	4289.58
848.96	4261.33
849.284	4269.24
849.607	4250.93
849.931	4241.44
850.254	4195.57
850.577	4177.72
850.9	4133.87
851.223	4154.21
851.546	4180.43
851.869	4135.91
852.192	4167.09
852.515	4171.39
852.838	4070.6
853.161	4062.24
853.483	4075.34
853.806	4052.29
854.129	4002.35
854.451	4052.75
854.774	3997.61
855.096	4027.89
855.419	4029.24
855.741	4005.97
856.063	4000.09
856.385	3971.39
856.708	3944.5
857.03	3904.5
857.352	3970.94
857.674	3960.09
857.996	3879.19
858.318	3887.55
858.64	3886.42
858.961	3902.02
859.283	3851.85
859.605	3870.15
859.926	3849.59
860.248	3894.11
860.57	3824.28
860.891	3851.85
861.212	3805.3
861.534	3826.31
861.855	3772.98
862.176	3813.43
862.498	3821.79
862.819	3817.05
863.14	3789.02
863.461	3780.66
863.782	3767.56
864.103	3742.02
864.424	3741.34
864.745	3750.61
865.065	3727.78
865.386	3726.65
865.707	3735.92
866.027	3718.97
866.348	3761.23
866.668	3731.4
866.989	3696.6
867.309	3675.13
867.63	3683.72
867.95	3654.11
868.27	3649.82
868.59	3708.57
868.91	3647.56
869.23	3689.37
869.55	3645.07
869.87	3706.77
870.19	3675.81
870.51	3635.58
870.83	3676.03
871.15	3629.25
871.469	3619.76
871.789	3657.05
872.109	3623.61
872.428	3610.95
872.748	3662.02
873.067	3576.6
873.386	3596.94
873.706	3605.3
874.025	3640.78
874.344	3582.02
874.663	3578.41
874.982	3547.45
875.301	3574.12
875.62	3577.73
875.939	3513.78
876.258	3575.7
876.577	3556.71
876.896	3556.04
877.214	3554.23
877.533	3504.96
877.852	3534.79
878.17	3543.38
878.489	3550.16
878.807	3556.94
879.125	3514.68
879.444	3525.08
879.762	3497.73
880.08	3482.37
880.398	3514
880.716	3487.11
881.034	3480.11
881.352	3465.19
881.67	3464.06
881.988	3481.24
882.306	3449.6
882.624	3417.51
882.941	3384.97
883.259	3421.12
883.577	3426.1
883.894	3415.7
884.212	3446.89
884.529	3430.16
884.846	3421.35
885.164	3381.13
885.481	3362.14
885.798	3404.63
886.115	3389.04
886.432	3379.54
886.75	3325.99
887.067	3328.47
887.383	3323.5
887.7	3322.14
888.017	3330.96
888.334	3310.62
888.651	3335.03
888.967	3303.16
889.284	3318.08
889.6	3306.1
889.917	3262.71
890.233	3233.79
890.55	3271.75
890.866	3273.56
891.182	3255.93
891.498	3246.44
891.815	3238.98
892.131	3206.89
892.447	3220.9
892.763	3218.87
893.079	3201.47
893.395	3225.42
893.71	3192.66
894.026	3208.02
894.342	3161.92
894.657	3154.92
894.973	3139.1
895.289	3144.07
895.604	3129.61
895.92	3092.55
896.235	3097.52
896.55	3071.98
896.865	3110.62
897.181	3079.44
897.496	3058.87
897.811	3068.82
898.126	3040.8
898.441	2987.92
898.756	3010.29
899.071	2984.98
899.386	3017.97
899.7	3000.34
900.015	2963.51
900.33	2982.94
900.644	2975.71
900.959	3008.03
901.273	2999.44
901.588	2938.43
901.902	2943.85
902.216	2948.82
902.531	2934.58
902.845	2907.92
903.159	2906.11
903.473	2898.65
903.787	2892.55
904.101	2915.6
904.415	2859.56
904.729	2880.57
905.042	2856.62
905.356	2849.61
905.67	2851.2
905.984	2837.64
906.297	2815.04
906.611	2815.26
906.924	2778.43
907.237	2801.48
907.551	2789.73
907.864	2749.05
908.177	2735.95
908.491	2778.43
908.804	2741.59
909.117	2741.59
909.43	2726
909.743	2699.34
910.056	2683.07
910.368	2683.07
910.681	2690.97
910.994	2697.75
911.307	2648.72
911.619	2645.55
911.932	2644.2
912.244	2629.06
912.557	2654.37
912.869	2623.18
913.181	2622.95
913.494	2587.25
913.806	2617.3
914.118	2563.07
914.43	2577.31
914.742	2573.46
915.054	2572.11
915.366	2527.36
915.678	2527.59
915.99	2485.56
916.302	2483.07
916.613	2499.12
916.925	2474.71
917.236	2480.36
917.548	2473.35
917.859	2490.53
918.171	2446.46
918.482	2460.7
918.794	2451.21
919.105	2410.98
919.416	2415.05
919.727	2395.16
920.038	2412.34
920.349	2421.38
920.66	2369.17
920.971	2396.07
921.282	2359.23
921.593	2347.48
921.903	2351.1
922.214	2309.74
922.525	2341.83
922.835	2324.2
923.146	2324.43
923.456	2316.3
923.767	2336.63
924.077	2308.61
924.387	2286.01
924.697	2268.84
925.008	2256.64
925.318	2252.57
925.628	2240.36
925.938	2235.17
926.248	2233.59
926.558	2226.35
926.867	2206.92
927.177	2222.74
927.487	2229.74
927.796	2196.07
928.106	2178.67
928.416	2162.63
928.725	2194.04
929.034	2156.07
929.344	2137.09
929.653	2142.97
929.962	2096.41
930.271	2114.04
930.581	2095.96
930.89	2098.45
931.199	2110.65
931.508	2084.44
931.817	2084.44
932.125	2104.32
932.434	2057.32
932.743	2044.44
933.051	2048.73
933.36	2030.2
933.669	2034.95
933.977	2013.93
934.286	2015.96
934.594	1999.02
934.902	1996.08
935.21	1996.98
935.519	1983.42
935.827	1967.38
936.135	2010.54
936.443	1954.27
936.751	1954.27
937.059	1951.11
937.367	1920.37
937.674	1947.27
937.982	1909.75
938.29	1951.78
938.597	1927.6
938.905	1924.44
939.213	1898.23
939.52	1892.13
939.827	1909.53
940.135	1852.58
940.442	1886.02
940.749	1877.44
941.056	1885.35
941.363	1881.73
941.67	1848.74
941.977	1830.43
942.284	1816.65
942.591	1833.82
942.898	1806.48
943.205	1841.51
943.511	1840.38
943.818	1803.09
944.125	1763.99
944.431	1786.37
944.738	1738.91
945.044	1768.29
945.35	1779.59
945.657	1736.2
945.963	1748.85
946.269	1744.78
946.575	1730.1
946.881	1723.77
947.187	1732.58
947.493	1688.51
947.799	1716.76
948.105	1705.46
948.41	1712.7
948.716	1703.66
949.022	1697.1
949.327	1667.27
949.633	1682.64
949.938	1660.49
950.244	1662.98
950.549	1653.49
950.854	1655.75
951.16	1649.42
951.465	1636.99
951.77	1639.93
952.075	1637.44
952.38	1636.54
952.685	1599.48
952.99	1637.89
953.294	1605.13
953.599	1616.88
953.904	1577.78
954.209	1608.07
954.513	1598.35
954.818	1580.95
955.122	1577.56
955.426	1543.89
955.731	1582.08
956.035	1540.04
956.339	1568.52
956.643	1537.56
956.948	1559.03
957.252	1510.67
957.556	1542.76
957.86	1524
958.163	1475.87
958.467	1503.21
958.771	1495.3
959.075	1480.16
959.378	1512.02
959.682	1477
959.985	1486.26
960.289	1455.07
960.592	1492.36
960.896	1455.07
961.199	1430.44
961.502	1427.73
961.805	1442.42
962.108	1393.16
962.411	1447.39
962.714	1447.62
963.017	1410.33
963.32	1427.5
963.623	1401.52
963.926	1418.69
964.228	1426.15
964.531	1413.95
964.833	1394.29
965.136	1394.51
965.438	1370.11
965.741	1393.16
966.043	1372.37
966.345	1357
966.648	1396.77
966.95	1361.29
967.252	1361.74
967.554	1349.99
967.856	1322.2
968.158	1327.39
968.46	1327.39
968.761	1337.11
969.063	1308.64
969.365	1339.37
969.666	1322.42
969.968	1326.04
970.269	1328.3
970.571	1300.95
970.872	1300.28
971.174	1311.8
971.475	1288.07
971.776	1271.8
972.077	1273.61
972.378	1253.05
972.679	1289.43
972.98	1276.77
973.281	1261.41
973.582	1262.54
973.883	1272.03
974.183	1244.46
974.484	1259.83
974.785	1244.68
975.085	1236.1
975.386	1217.11
975.686	1209.66
975.986	1229.09
976.287	1218.7
976.587	1221.41
976.887	1218.7
977.187	1221.86
977.487	1210.34
977.787	1201.97
978.087	1220.05
978.387	1176.44
978.687	1187.96
978.987	1184.8
979.286	1167.85
979.586	1174.63
979.885	1146.38
980.185	1178.92
980.484	1163.56
980.784	1152.26
981.083	1148.42
981.382	1143.22
981.682	1140.05
981.981	1128.3
982.28	1138.7
982.579	1134.63
982.878	1108.42
983.177	1119.49
983.475	1133.5
983.774	1109.55
984.073	1123.78
984.372	1130.79
984.67	1128.98
984.969	1095.99
985.267	1089.21
985.566	1091.02
985.864	1079.27
986.162	1101.64
986.461	1069.32
986.759	1073.16
987.057	1066.38
987.355	1049.44
987.653	1074.07
987.951	1065.25
988.249	1056.67
988.547	1062.77
988.844	1044.46
989.142	1035.88
989.44	1035.88
989.737	1028.87
990.035	1035.2
990.332	1042.43
990.63	1018.93
990.927	1018.7
991.224	1029.1
991.521	1026.16
991.819	1031.36
992.116	1000.17
992.413	996.56
992.71	1001.3
993.006	1002.43
993.303	994.52
993.6	1015.09
993.897	996.1
994.193	977.12
994.49	988.65
994.787	970.79
995.083	981.64
995.379	970.34
995.676	956.78
995.972	950.68
996.268	941.64
996.565	942.09
996.861	961.98
997.157	946.39
997.453	946.61
997.749	931.7
998.044	955.88
998.34	941.42
998.636	946.84
998.932	923.11
999.227	918.14
999.523	920.63
999.818	893.28
1000.114	931.7
1000.409	921.98
1000.704	914.52
1001	902.32
1001.295	883.56
1001.59	888.08
1001.885	880.63
1002.18	898.93
1002.475	889.21
1002.77	886.5
1003.065	877.46
1003.359	907.97
1003.654	878.37
1003.949	852.38
1004.243	864.13
1004.538	864.13
1004.832	850.8
1005.127	862.55
1005.421	826.84
1005.715	840.85
1006.009	834.75
1006.304	849.21
1006.598	837.01
1006.892	836.56
1007.186	811.7
1007.48	819.39
1007.773	830.68
1008.067	809.22
1008.361	812.15
1008.655	829.78
1008.948	836.79
1009.242	808.99
1009.535	836.33
1009.829	795.21
1010.122	806.73
1010.415	773.96
1010.708	772.38
1011.001	792.49
1011.295	796.11
1011.588	789.78
1011.881	778.48
1012.173	789.1
1012.466	780.29
1012.759	753.62
1013.052	763.57
1013.344	756.11
1013.637	758.82
1013.93	766.05
1014.222	762.89
1014.514	780.74
1014.807	735.77
1015.099	753.85
1015.391	732.61
1015.683	730.35
1015.976	751.82
1016.268	742.1
1016.56	720.86
1016.851	711.82
1017.143	728.77
1017.435	741.42
1017.727	718.14
1018.018	734.19
1018.31	707.75
1018.602	711.14
1018.893	714.98
1019.185	706.85
1019.476	710.24
1019.767	712.04
1020.058	684.47
1020.35	683.12
1020.641	657.13
1020.932	694.42
1021.223	698.71
1021.514	680.63
1021.804	680.41
1022.095	672.5
1022.386	671.37
1022.677	661.65
1022.967	697.81
1023.258	667.3
1023.548	652.84
1023.839	649.67
1024.129	648.09
1024.419	649.45
1024.709	656
1025	639.73
1025.29	640.63
1025.58	632.27
1025.87	630.01
1026.16	608.54
1026.449	644.7
1026.739	625.49
1027.029	600.86
1027.319	616
1027.608	626.62
1027.898	612.84
1028.187	603.8
1028.477	606.96
1028.766	616.68
1029.055	616.23
1029.344	612.39
1029.634	613.29
1029.923	595.44
1030.212	572.84
1030.501	589.56
1030.79	596.79
1031.078	594.76
1031.367	587.3
1031.656	582.78
1031.945	585.95
1032.233	588.66
1032.522	565.38
1032.81	565.15
1033.099	569
1033.387	570.8
1033.675	593.63
1033.963	576
1034.251	546.17
1034.54	573.06
1034.828	545.27
1035.116	543.01
1035.403	552.05
1035.691	552.27
1035.979	559.28
1036.267	536
1036.554	561.54
1036.842	549.34
1037.129	564.48
1037.417	526.74
1037.704	522.44
1037.992	525.61
1038.279	531.26
1038.566	536
1038.853	536
1039.14	536
