Data from black_metal_pc_casing_FLMS001491_00022.txt Node
Date: Wed Feb 08 14:32:14 GMT 2017
User: dcchb
Spectrometer: FLMS00149
Trigger mode: 0
Integration Time (sec): 2.000000E-2
Scans to average: 10
Electric dark correction enabled: true
Nonlinearity correction enabled: false
Boxcar width: 0
XAxis mode: Wavelengths
Number of Pixels in Spectrum: 2048
>>>>>Begin Spectral Data<<<<<
341.393	-29.34
341.776	-29.34
342.16	-29.34
342.543	-61.42
342.927	-48.77
343.31	-58.49
343.693	-76.34
344.077	-68.43
344.46	-41.99
344.843	-53.97
345.226	-38.37
345.61	-52.16
345.993	-30.47
346.376	-3.12
346.759	15.64
347.142	23.09
347.525	45.24
347.908	37.78
348.291	83.88
348.674	94.96
349.057	122.75
349.44	131.11
349.823	131.34
350.206	174.5
350.588	202.52
350.971	182.18
351.354	221.05
351.737	216.31
352.119	233.71
352.502	262.41
352.884	268.74
353.267	265.12
353.65	275.52
354.032	290.43
354.414	293.82
354.797	304.22
355.179	303.31
355.562	325.68
355.944	306.93
356.326	308.73
356.709	317.55
357.091	316.42
357.473	343.99
357.855	334.27
358.238	344.21
358.62	337.89
359.002	349.41
359.384	332.91
359.766	313.71
360.148	331.56
360.53	351.22
360.912	333.82
361.294	316.42
361.676	309.41
362.057	316.87
362.439	334.04
362.821	315.29
363.203	318
363.584	307.6
363.966	303.54
364.348	307.38
364.729	318.23
365.111	302.41
365.493	329.07
365.874	346.25
366.256	306.47
366.637	310.77
367.019	314.84
367.4	289.98
367.781	308.28
368.163	327.94
368.544	313.03
368.925	308.06
369.306	315.74
369.688	308.51
370.069	301.28
370.45	313.03
370.831	296.08
371.212	297.89
371.593	319.81
371.974	327.04
372.355	334.95
372.736	340.15
373.117	310.32
373.498	308.06
373.879	327.72
374.26	302.41
374.641	315.51
375.021	322.97
375.402	330.2
375.783	336.98
376.163	324.78
376.544	311.9
376.925	329.53
377.305	341.5
377.686	337.66
378.066	324.1
378.447	323.2
378.827	359.35
379.208	318.9
379.588	339.24
379.968	309.64
380.349	327.49
380.729	350.77
381.109	317.77
381.489	341.28
381.87	324.33
382.25	351.9
382.63	317.55
383.01	333.82
383.39	352.8
383.77	350.09
384.15	364.1
384.53	349.86
384.91	355.51
385.29	362.74
385.67	376.08
386.049	349.86
386.429	356.19
386.809	360.48
387.189	354.84
387.568	368.17
387.948	381.73
388.328	362.07
388.707	362.97
389.087	359.13
389.466	381.05
389.846	383.99
390.225	369.07
390.605	366.36
390.984	368.17
391.363	380.6
391.743	386.47
392.122	355.29
392.501	390.99
392.881	375.85
393.26	386.02
393.639	388.28
394.018	407.26
394.397	395.29
394.776	417.43
395.155	379.02
395.534	403.2
395.913	397.09
396.292	390.09
396.671	402.74
397.05	377.66
397.429	403.2
397.808	400.03
398.186	397.55
398.565	402.74
398.944	406.59
399.323	422.18
399.701	412.46
400.08	417.43
400.458	424.21
400.837	422.63
401.215	421.95
401.594	446.13
401.972	452.01
402.351	430.99
402.729	444.55
403.107	442.74
403.486	452.23
403.864	462.63
404.242	466.02
404.62	447.71
404.999	454.72
405.377	478.67
405.755	457.43
406.133	464.66
406.511	491.33
406.889	467.83
407.267	463.98
407.645	480.71
408.023	463.53
408.401	467.37
408.779	477.54
409.156	503.31
409.534	495.4
409.912	482.97
410.29	505.79
410.667	492.23
411.045	509.63
411.422	501.05
411.8	527.49
412.178	507.6
412.555	519.12
412.933	539.69
413.31	535.85
413.687	527.03
414.065	538.11
414.442	524.77
414.819	523.87
415.197	532.01
415.574	553.47
415.951	557.54
416.328	576.52
416.705	576.52
417.082	565
417.46	569.52
417.837	579.46
418.214	560.03
418.591	568.39
418.967	574.49
419.344	584.43
419.721	590.08
420.098	583.08
420.475	581.95
420.852	590.31
421.228	598.9
421.605	631.21
421.982	596.86
422.358	601.83
422.735	608.16
423.111	624.66
423.488	625.79
423.864	638.44
424.241	631.21
424.617	631.21
424.994	620.59
425.37	659.69
425.746	661.04
426.123	655.17
426.499	659.91
426.875	672.79
427.251	651.78
427.627	691.1
428.003	693.81
428.379	692.45
428.756	702.17
429.132	696.75
429.507	713.24
429.883	728.16
430.259	710.31
430.635	719.8
431.011	728.61
431.387	730.19
431.763	753.92
432.138	730.42
432.514	734.71
432.89	781.04
433.265	760.47
433.641	787.82
434.016	773.36
434.392	793.02
434.767	787.59
435.143	810.42
435.518	829.63
435.894	850.19
436.269	838.66
436.644	823.98
437.02	860.81
437.395	840.02
437.77	858.78
438.145	877.08
438.52	884.54
438.895	873.92
439.271	901.26
439.646	884.99
440.021	908.72
440.395	861.49
440.77	872.79
441.145	906.23
441.52	899.23
441.895	935.39
442.27	946.01
442.645	924.31
443.019	934.03
443.394	956.85
443.769	973.12
444.143	957.98
444.518	979.68
444.892	963.41
445.267	961.6
445.641	967.7
446.016	980.36
446.39	1002.5
446.764	1001.82
447.139	988.26
447.513	1007.7
447.887	1011.54
448.262	1002.05
448.636	1044.08
449.01	1025.1
449.384	1041.6
449.758	1043.86
450.132	1043.86
450.506	1047.7
450.88	1065.1
451.254	1058.55
451.628	1057.64
452.002	1062.16
452.376	1077.98
452.75	1089.96
453.123	1084.99
453.497	1097.41
453.871	1130.18
454.244	1141.48
454.618	1150.07
454.992	1169.05
455.365	1147.81
455.739	1212.44
456.112	1202.04
456.486	1193.46
456.859	1200.24
457.232	1237.98
457.606	1282.49
457.979	1251.76
458.352	1276.17
458.725	1264.42
459.099	1294.02
459.472	1307.8
459.845	1309.84
460.218	1322.72
460.591	1349.16
460.964	1335.83
461.337	1386.9
461.71	1392.1
462.083	1401.59
462.456	1434.58
462.829	1417.18
463.201	1451.76
463.574	1462.15
463.947	1480.68
464.32	1470.29
464.692	1509.16
465.065	1516.84
465.438	1561.36
465.81	1556.16
466.183	1588.25
466.555	1606.55
466.928	1593.67
467.3	1601.13
467.672	1626.67
468.045	1667.57
468.417	1679.77
468.789	1690.62
469.161	1672.54
469.534	1729.26
469.906	1741.01
470.278	1759.77
470.65	1798.19
471.022	1810.84
471.394	1828.69
471.766	1829.15
472.138	1855.13
472.51	1910.05
472.882	1906.43
473.253	1959.31
473.625	1978.07
473.997	2032.53
474.369	2020.78
474.74	2037.05
475.112	2092.64
475.484	2125.41
475.855	2134.45
476.227	2132.19
476.598	2198.4
476.97	2261
477.341	2283.82
477.713	2332.86
478.084	2298.06
478.455	2362.92
478.827	2361.34
479.198	2450.83
479.569	2444.95
479.94	2513.65
480.311	2490.37
480.682	2559.52
481.053	2656.24
481.424	2644.27
481.795	2708.45
482.166	2730.37
482.537	2772.4
482.908	2805.62
483.279	2847.88
483.65	2909.12
484.021	2986.4
484.391	2985.5
484.762	2983.69
485.133	3011.49
485.503	3042
485.874	3121.54
486.244	3141.65
486.615	3214.87
486.985	3226.17
487.356	3292.61
487.726	3314.08
488.097	3390.24
488.467	3403.57
488.837	3445.15
489.207	3511.59
489.578	3571.7
489.948	3602.89
490.318	3640.17
490.688	3637.69
491.058	3674.97
491.428	3696.22
491.798	3750.23
492.168	3842.2
492.538	3848.3
492.908	3907.28
493.278	3964.01
493.648	3985.02
494.017	4010.33
494.387	4056.88
494.757	4066.15
495.126	4129.88
495.496	4122.42
495.866	4175.98
496.235	4206.94
496.605	4292.58
496.974	4247.16
497.344	4378.91
497.713	4280.61
498.082	4333.49
498.452	4438.57
498.821	4428.4
499.19	4474.73
499.559	4489.87
499.928	4538.68
500.298	4522.41
500.667	4611.22
501.036	4613.48
501.405	4657.32
501.774	4722.86
502.143	4678.34
502.512	4730.54
502.88	4719.69
503.249	4768.05
503.618	4809.41
503.987	4861.84
504.356	4872.91
504.724	4843.98
505.093	4884.21
505.462	4967.37
505.83	4970.08
506.199	4982.51
506.567	5084.65
506.936	5066.12
507.304	5117.42
507.672	5166.69
508.041	5159.68
508.409	5203.75
508.777	5248.94
509.145	5295.5
509.514	5278.77
509.882	5365.33
510.25	5367.36
510.618	5393.8
510.986	5409.62
511.354	5438.32
511.722	5498.88
512.09	5554.02
512.458	5573.23
512.826	5602.83
513.193	5648.48
513.561	5645.09
513.929	5719.21
514.297	5759.66
514.664	5832.43
515.032	5843.28
515.4	5879.44
515.767	5885.31
516.135	6000.34
516.502	5936.16
516.869	6064.52
517.237	6014.12
517.604	6078.53
517.972	6111.29
518.339	6174.8
518.706	6206.66
519.073	6257.96
519.44	6290.95
519.808	6354.45
520.175	6400.55
520.542	6453.43
520.909	6479.42
521.276	6455.92
521.643	6533.66
522.009	6570.94
522.376	6621.34
522.743	6668.57
523.11	6731.84
523.477	6755.57
523.843	6830.6
524.21	6856.59
524.577	6949.24
524.943	6965.51
525.31	7042.8
525.676	7094.09
526.043	7181.55
526.409	7164.37
526.776	7195.56
527.142	7285.05
527.508	7371.6
527.874	7308.32
528.241	7394.88
528.607	7462.67
528.973	7521.43
529.339	7494.76
529.705	7570.24
530.071	7667.41
530.437	7705.15
530.803	7673.29
531.169	7836.22
531.535	7753.51
531.901	7882.1
532.267	7813.62
532.632	7938.59
532.998	7975.2
533.364	8021.98
533.73	8037.57
534.095	8139.94
534.461	8130
534.826	8138.36
535.192	8213.61
535.557	8263.1
535.923	8255.42
536.288	8291.8
536.653	8293.84
537.019	8277.56
537.384	8304
537.749	8444.57
538.114	8420.16
538.479	8457.9
538.845	8457.67
539.21	8524.34
539.575	8573.38
539.94	8581.06
540.305	8623.54
540.67	8578.12
541.034	8645.69
541.399	8671
541.764	8722.98
542.129	8742.64
542.494	8799.36
542.858	8801.17
543.223	8848.17
543.587	8952.35
543.952	8870.77
544.316	8915.51
544.681	8912.35
545.045	9033.03
545.41	8995.96
545.774	8957.32
546.138	9107.83
546.503	9000.26
546.867	9139.24
547.231	9244.32
547.595	9185.11
547.959	9225.11
548.324	9205.9
548.688	9195.51
549.052	9270.76
549.416	9316.41
549.779	9352.79
550.143	9376.29
550.507	9425.33
550.871	9463.3
551.235	9508.27
551.599	9547.14
551.962	9634.59
552.326	9587.13
552.689	9673.69
553.053	9627.81
553.417	9627.36
553.78	9817.86
554.143	9746.45
554.507	9763.18
554.87	9802.04
555.234	9931.53
555.597	9878.2
555.96	9908.93
556.323	9978.99
556.686	10034.58
557.05	9997.52
557.413	10085.43
557.776	10165.65
558.139	10152.32
558.502	10139.44
558.865	10156.39
559.228	10308.02
559.59	10251.75
559.953	10378.07
560.316	10421.69
560.679	10473.44
561.041	10514.57
561.404	10555.7
561.767	10640.67
562.129	10583.04
562.492	10714.11
562.854	10777.61
563.217	10711.4
563.579	10719.99
563.941	10809.93
564.304	10874.33
564.666	11004.95
565.028	10964.73
565.39	11072.07
565.753	11133.76
566.115	11166.98
566.477	11187.32
566.839	11223.48
567.201	11267.77
567.563	11216.24
567.925	11424.6
568.287	11376.69
568.648	11411.49
569.01	11474.09
569.372	11553.86
569.734	11503.92
570.095	11525.84
570.457	11627.08
570.819	11673.86
571.18	11670.7
571.542	11787.3
571.903	11810.13
572.265	11774.87
572.626	11867.07
572.987	11873.85
573.349	11942.1
573.71	11910.24
574.071	11999.5
574.432	11991.59
574.794	12111.59
575.155	12109.1
575.516	12056.22
575.877	12093.74
576.238	12075.21
576.599	12185.03
576.96	12168.99
577.32	12254.64
577.681	12239.95
578.042	12311.81
578.403	12275.43
578.763	12323.33
579.124	12401.3
579.485	12402.65
579.845	12375.54
580.206	12365.14
580.566	12374.18
580.927	12402.88
581.287	12494.63
581.648	12411.69
582.008	12431.35
582.368	12441.98
582.728	12527.85
583.089	12421.18
583.449	12505.93
583.809	12542.31
584.169	12560.16
584.529	12444.91
584.889	12554.97
585.249	12495.98
585.609	12488.53
585.969	12584.12
586.329	12430.9
586.688	12559.03
587.048	12555.64
587.408	12504.8
587.768	12543.67
588.127	12528.53
588.487	12504.12
588.846	12612.82
589.206	12451.47
589.565	12498.24
589.925	12671.8
590.284	12567.62
590.643	12504.57
591.003	12583.89
591.362	12562.65
591.721	12593.61
592.08	12559.49
592.44	12649.65
592.799	12630.67
593.158	12550.22
593.517	12633.16
593.876	12647.62
594.235	12645.13
594.593	12592.71
594.952	12681.74
595.311	12608.75
595.67	12641.07
596.029	12654.17
596.387	12714.51
596.746	12726.04
597.104	12634.96
597.463	12674.51
597.822	12746.15
598.18	12691.69
598.538	12615.76
598.897	12710.44
599.255	12613.5
599.613	12740.05
599.972	12675.87
600.33	12761.97
600.688	12782.53
601.046	12746.6
601.404	12860.95
601.762	12881.29
602.12	12936.2
602.478	12859.14
602.836	12852.36
603.194	12805.36
603.552	12798.8
603.91	12884.22
604.268	12914.96
604.625	12895.07
604.983	12932.36
605.341	12894.39
605.698	12913.38
606.056	12907.05
606.413	12953.37
606.771	12985.92
607.128	13067.27
607.485	12916.31
607.843	12934.62
608.2	13092.35
608.557	13088.06
608.914	12992.47
609.272	13118.34
609.629	13131.22
609.986	13100.04
610.343	13066.82
610.7	13186.59
611.057	13180.03
611.414	13145.23
611.771	13181.39
612.127	13240.15
612.484	13252.58
612.841	13246.02
613.198	13161.05
613.554	13180.94
613.911	13288.73
614.267	13280.37
614.624	13273.14
614.98	13324.21
615.337	13300.94
615.693	13396.07
616.05	13325.57
616.406	13401.72
616.762	13334.38
617.118	13330.09
617.475	13367.6
617.831	13492.57
618.187	13388.16
618.543	13394.72
618.899	13495.73
619.255	13452.57
619.611	13489.63
619.967	13445.11
620.323	13467.94
620.678	13407.6
621.034	13444.66
621.39	13422.74
621.746	13397.88
622.101	13546.8
622.457	13511.1
622.812	13471.1
623.168	13519.91
623.523	13506.13
623.879	13569.86
624.234	13515.17
624.589	13517.65
624.945	13574.83
625.3	13562.4
625.655	13571.21
626.01	13555.62
626.365	13578.89
626.72	13463.64
627.075	13484.21
627.43	13477.65
627.785	13389.52
628.14	13498.44
628.495	13537.99
628.85	13515.17
629.205	13451.89
629.559	13568.27
629.914	13414.83
630.269	13421.84
630.623	13425.23
630.978	13427.26
631.332	13514.72
631.687	13448.05
632.041	13380.71
632.396	13433.14
632.75	13361.95
633.104	13483.76
633.459	13309.75
633.813	13243.31
634.167	13274.04
634.521	13303.65
634.875	13377.32
635.229	13352.91
635.583	13169.87
635.937	13285.79
636.291	13183.2
636.645	13248.96
636.999	13156.76
637.352	13267.04
637.706	13103.43
638.06	13219.81
638.413	13123.54
638.767	13163.76
639.121	13169.64
639.474	13063.43
639.828	13111.56
640.181	13019.59
640.534	13047.61
640.888	12994.95
641.241	13032.02
641.594	13021.39
641.947	13017.55
642.301	13057.55
642.654	12938.69
643.007	12989.76
643.36	13034.73
643.713	12862.3
644.066	12899.36
644.419	12935.3
644.771	12756.09
645.124	12650.78
645.477	12650.56
645.83	12598.36
646.182	12553.16
646.535	12494.4
646.888	12463.9
647.24	12460.28
647.593	12499.37
647.945	12453.95
648.298	12388.42
648.65	12335.54
649.002	12318.59
649.355	12418.7
649.707	12359.49
650.059	12415.76
650.411	12620.28
650.763	12550.9
651.115	12624.12
651.467	12656.43
651.819	12731.46
652.171	12578.24
652.523	12640.61
652.875	12680.39
653.227	12506.83
653.578	12665.02
653.93	12615.3
654.282	12444.69
654.633	12493.5
654.985	12552.71
655.337	12523.1
655.688	12549.32
656.039	12568.3
656.391	12398.59
656.742	12436.1
657.094	12472.93
657.445	12483.33
657.796	12514.52
658.147	12517.68
658.498	12420.28
658.849	12424.12
659.2	12444.91
659.551	12404.46
659.902	12463.22
660.253	12408.3
660.604	12470.22
660.955	12328.31
661.306	12365.37
661.656	12368.08
662.007	12406.72
662.358	12292.83
662.708	12348.42
663.059	12353.39
663.409	12267.97
663.76	12363.33
664.11	12312.26
664.461	12377.34
664.811	12329.66
665.161	12355.65
665.511	12292.83
665.862	12273.62
666.212	12387.29
666.562	12382.09
666.912	12296.22
667.262	12269.1
667.612	12272.04
667.962	12331.47
668.312	12227.74
668.662	12234.07
669.011	12303
669.361	12236.56
669.711	12267.52
670.06	12172.15
670.41	12191.13
670.76	12190.46
671.109	12184.13
671.459	12200.85
671.808	12167.41
672.157	12162.43
672.507	12059.61
672.856	12200.4
673.205	12149.78
673.554	12171.02
673.904	12049.44
674.253	12221.87
674.602	12126.28
674.951	11993.63
675.3	11890.13
675.649	12105.49
675.998	12122.89
676.346	12122.66
676.695	12144.36
677.044	12076.34
677.393	12138.93
677.741	12059.16
678.09	12075.43
678.438	11953.85
678.787	12043.79
679.135	12067.75
679.484	12008.77
679.832	11972.61
680.181	11854.42
680.529	11928.77
680.877	11843.35
681.225	11876.11
681.573	12038.6
681.922	11889.67
682.27	11825.72
682.618	11854.87
682.966	11769.22
683.314	11814.87
683.661	11784.14
684.009	11762.22
684.357	11766.96
684.705	11685.61
685.053	11724.48
685.4	11606.29
685.748	11627.76
686.095	11614.88
686.443	11589.34
686.79	11518.38
687.138	11599.96
687.485	11575.56
687.832	11532.85
688.18	11468.67
688.527	11447.42
688.874	11469.12
689.221	11442.45
689.568	11448.55
689.915	11366.3
690.262	11350.03
690.609	11390.25
690.956	11323.13
691.303	11288.56
691.65	11213.08
691.997	11215.11
692.344	11102.58
692.69	11163.82
693.037	11129.02
693.383	11104.84
693.73	11236.13
694.077	11092.86
694.423	11037.94
694.769	10992.75
695.116	11052.63
695.462	10901.9
695.808	10958.62
696.155	10981.22
696.501	10910.94
696.847	10859.87
697.193	10814.9
697.539	10847.44
697.885	10794.56
698.231	10719.76
698.577	10706.88
698.923	10726.99
699.269	10603.61
699.614	10609.03
699.96	10610.16
700.306	10577.39
700.651	10492.2
700.997	10507.79
701.342	10458.07
701.688	10473.89
702.033	10380.79
702.379	10328.58
702.724	10363.61
703.069	10404.29
703.415	10295.14
703.76	10314.35
704.105	10244.74
704.45	10293.78
704.795	10222.6
705.14	10136.95
705.485	10176.27
705.83	10059.66
706.175	10166.55
706.52	10004.07
706.865	10098.31
707.209	10057.86
707.554	10056.5
707.899	9970.4
708.243	9944.87
708.588	9978.76
708.932	9952.78
709.277	9875.71
709.621	9908.48
709.966	9812.44
710.31	9820.35
710.654	9801.82
710.998	9807.69
711.342	9776.06
711.687	9747.58
712.031	9706.91
712.375	9665.32
712.719	9661.94
713.063	9680.69
713.407	9708.94
713.75	9634.82
714.094	9666.23
714.438	9613.12
714.782	9621.26
715.125	9584.42
715.469	9582.16
715.812	9545.55
716.156	9543.75
716.499	9483.63
716.843	9489.96
717.186	9501.94
717.53	9430.53
717.873	9410.64
718.216	9419.91
718.559	9447.7
718.902	9329.06
719.246	9407.7
719.589	9333.58
719.932	9266.69
720.275	9336.52
720.617	9302.85
720.96	9289.06
721.303	9271.21
721.646	9224.66
721.989	9179.46
722.331	9275.73
722.674	9237.31
723.016	9114.15
723.359	9134.94
723.701	9218.33
724.044	9103.08
724.386	9046.58
724.729	9050.88
725.071	9135.85
725.413	9095.17
725.755	9037.77
726.097	9024.44
726.439	8913.48
726.782	8920.94
727.124	9087.94
727.465	8965.68
727.807	8976.3
728.149	8954.38
728.491	8935.63
728.833	8945.12
729.175	8932.69
729.516	8899.02
729.858	8849.53
730.199	8901.05
730.541	8879.58
730.882	8840.26
731.224	8842.75
731.565	8812.24
731.906	8855.63
732.248	8823.99
732.589	8781.51
732.93	8776.53
733.271	8704.45
733.612	8762.52
733.953	8826.02
734.294	8688.85
734.635	8744.9
734.976	8760.72
735.317	8661.74
735.658	8706.48
735.999	8657.22
736.339	8668.29
736.68	8700.83
737.021	8627.16
737.361	8550.55
737.702	8600.04
738.042	8604.11
738.383	8574.05
738.723	8527.28
739.063	8568.86
739.404	8525.02
739.744	8488.18
740.084	8475.75
740.424	8467.16
740.764	8480.05
741.104	8530.89
741.444	8485.02
741.784	8447.96
742.124	8440.05
742.464	8420.84
742.804	8381.74
743.143	8379.94
743.483	8341.52
743.823	8325.93
744.162	8352.14
744.502	8349.43
744.841	8370.67
745.181	8315.76
745.52	8257
745.86	8269.66
746.199	8304
746.538	8285.93
746.877	8300.16
747.216	8189.43
747.556	8285.93
747.895	8239.37
748.234	8222.2
748.573	8164.35
748.911	8205.7
749.25	8197.79
749.589	8196.44
749.928	8191.47
750.267	8212.48
750.605	8120.96
750.944	8119.38
751.283	8061.98
751.621	8074.18
751.96	7958.93
752.298	8032.83
752.636	8012.71
752.975	7954.86
753.313	7952.6
753.651	7977.23
753.989	7899.5
754.327	7900.63
754.666	7905.15
755.004	7850.23
755.342	7853.17
755.679	7843.23
756.017	7841.64
756.355	7784.47
756.693	7827.18
757.031	7860.63
757.368	7752.38
757.706	7741.99
758.044	7688.88
758.381	7711.25
758.719	7694.3
759.056	7689.56
759.394	7682.55
759.731	7660.18
760.068	7610.69
760.405	7538.38
760.743	7579.73
761.08	7530.47
761.417	7523.23
761.754	7532.95
762.091	7516.45
762.428	7424.48
762.765	7400.53
763.102	7384.25
763.438	7420.86
763.775	7332.73
764.112	7303.13
764.449	7366.63
764.785	7307.87
765.122	7310.81
765.458	7278.95
765.795	7246.41
766.131	7225.84
766.467	7207.76
766.804	7176.58
767.14	7142.23
767.476	7117.37
767.812	7098.16
768.148	7098.16
768.485	7045.96
768.821	7003.47
769.157	6994.43
769.492	6969.35
769.828	6942.46
770.164	6902.01
770.5	6880.09
770.836	6922.35
771.171	6841.9
771.507	6828.56
771.842	6784.04
772.178	6787.66
772.513	6770.03
772.849	6733.42
773.184	6713.09
773.519	6677.83
773.855	6660.88
774.19	6696.14
774.525	6594.67
774.86	6641.22
775.195	6603.94
775.53	6549.25
775.865	6519.64
776.2	6528.46
776.535	6485.52
776.87	6490.95
777.205	6444.62
777.539	6398.29
777.874	6441.68
778.209	6440.33
778.543	6343.83
778.878	6305.41
779.212	6370.95
779.547	6338.86
779.881	6288.92
780.215	6249.82
780.55	6308.13
780.884	6245.75
781.218	6228.35
781.552	6201.24
781.886	6193.33
782.22	6175.02
782.554	6116.04
782.888	6085.53
783.222	6091.18
783.556	6033.33
783.889	6074.46
784.223	6001.92
784.557	5993.33
784.89	5979.55
785.224	5976.38
785.557	5874.92
785.891	5930.96
786.224	5927.34
786.558	5851.87
786.891	5813.22
787.224	5829.27
787.557	5846.67
787.891	5786.56
788.224	5801.7
788.557	5770.96
788.89	5739.78
789.223	5774.81
789.556	5739.1
789.888	5704.98
790.221	5681.47
790.554	5655.71
790.887	5657.75
791.219	5634.02
791.552	5613.68
791.884	5588.37
792.217	5488.26
792.549	5513.34
792.882	5464.76
793.214	5510.63
793.546	5508.82
793.879	5466.57
794.211	5427.92
794.543	5415.04
794.875	5404.42
795.207	5433.57
795.539	5411.88
795.871	5367.36
796.203	5314.48
796.535	5314.48
796.867	5316.74
797.198	5330.07
797.53	5280.13
797.862	5265.67
798.193	5266.57
798.525	5227.93
798.856	5270.86
799.188	5173.47
799.519	5180.25
799.85	5150.19
800.182	5153.58
800.513	5120.59
800.844	5109.06
801.175	5089.63
801.506	5119.46
801.837	5120.13
802.168	5082.62
802.499	5043.3
802.83	5052.56
803.161	5020.93
803.491	5021.15
803.822	5017.54
804.153	5007.82
804.483	4937.99
804.814	4929.63
805.145	4935.05
805.475	4921.27
805.805	4942.96
806.136	4906.35
806.466	4932.79
806.796	4909.97
807.126	4883.98
807.457	4862.74
807.787	4850.08
808.117	4772.35
808.447	4847.6
808.777	4801.05
809.107	4796.07
809.436	4758.56
809.766	4743.19
810.096	4814.15
810.426	4719.69
810.755	4816.19
811.085	4754.04
811.414	4726.7
811.744	4705.46
812.073	4661.84
812.403	4666.13
812.732	4671.56
813.061	4629.75
813.39	4641.5
813.719	4632.01
814.049	4617.32
814.378	4628.4
814.707	4598.79
815.036	4605.35
815.365	4578.91
815.693	4534.84
816.022	4538.45
816.351	4550.21
816.68	4528.74
817.008	4493.94
817.337	4502.52
817.665	4465.91
817.994	4496.87
818.322	4458.23
818.651	4447.16
818.979	4460.49
819.307	4465.91
819.636	4432.92
819.964	4432.92
820.292	4433.37
820.62	4400.6
820.948	4390.21
821.276	4436.76
821.604	4413.03
821.932	4392.92
822.259	4456.65
822.587	4403.77
822.915	4433.6
823.243	4400.83
823.57	4403.77
823.898	4360.38
824.225	4388.85
824.553	4394.73
824.88	4366.48
825.207	4395.18
825.535	4376.42
825.862	4382.53
826.189	4365.8
826.516	4393.15
826.843	4391.11
827.17	4378.68
827.497	4391.79
827.824	4377.1
828.151	4434.05
828.478	4395.18
828.805	4419.59
829.131	4380.49
829.458	4333.49
829.785	4365.8
830.111	4343.88
830.438	4393.37
830.764	4379.14
831.09	4370.1
831.417	4380.72
831.743	4382.75
832.069	4326.03
832.395	4315.41
832.722	4327.84
833.048	4370.77
833.374	4371
833.7	4350.66
834.026	4299.14
834.351	4338.23
834.677	4303.66
835.003	4295.07
835.329	4316.09
835.654	4320.15
835.98	4288.29
836.306	4318.8
836.631	4300.27
836.956	4303.66
837.282	4302.75
837.607	4281.29
837.932	4259.14
838.258	4278.35
838.583	4268.4
838.908	4225.92
839.233	4251.46
839.558	4217.56
839.883	4209.88
840.208	4219.14
840.533	4210.1
840.858	4183.21
841.182	4173.27
841.507	4177.79
841.832	4174.85
842.156	4136.43
842.481	4162.19
842.805	4193.15
843.13	4156.77
843.454	4166.71
843.778	4121.06
844.103	4113.38
844.427	4089.65
844.751	4120.61
845.075	4093.27
845.399	4065.47
845.723	4009.65
846.047	4060.73
846.371	4021.41
846.695	3986.15
847.019	4009.65
847.343	3990.67
847.666	3977.11
847.99	3940.28
848.313	3929.2
848.637	3930.11
848.96	3931.46
849.284	3951.35
849.607	3902.09
849.931	3874.97
850.254	3862.99
850.577	3848.08
850.9	3832.48
851.223	3822.31
851.546	3796.33
851.869	3801.07
852.192	3823.44
852.515	3770.11
852.838	3730.34
853.161	3718.36
853.483	3719.94
853.806	3742.32
854.129	3704.8
854.451	3693.5
854.774	3710.68
855.096	3669.32
855.419	3681.75
855.741	3681.3
856.063	3659.38
856.385	3649.21
856.708	3610.34
857.03	3630.68
857.352	3596.11
857.674	3627.29
857.996	3615.77
858.318	3599.04
858.64	3557.69
858.961	3591.13
859.283	3527.86
859.605	3558.82
859.926	3587.07
860.248	3529.22
860.57	3517.24
860.891	3545.49
861.212	3501.42
861.534	3486.73
861.855	3498.71
862.176	3513.4
862.498	3505.03
862.819	3479.27
863.14	3445.38
863.461	3449.44
863.782	3449.44
864.103	3479.05
864.424	3470.46
864.745	3450.57
865.065	3442.66
865.386	3426.17
865.707	3416.45
866.027	3423.91
866.348	3419.84
866.668	3426.62
866.989	3397.92
867.309	3326.51
867.63	3333.74
867.95	3349.56
868.27	3338.94
868.59	3345.72
868.91	3349.78
869.23	3363.8
869.55	3349.78
869.87	3359.05
870.19	3355.21
870.51	3350.46
870.83	3373.51
871.15	3303.23
871.469	3320.41
871.789	3339.39
872.109	3299.16
872.428	3275.44
872.748	3331.71
873.067	3326.73
873.386	3327.86
873.706	3323.12
874.025	3293.29
874.344	3293.29
874.663	3298.71
874.982	3265.49
875.301	3281.54
875.62	3238.6
875.939	3230.01
876.258	3263.23
876.577	3281.76
876.896	3228.21
877.214	3223.46
877.533	3230.92
877.852	3223.01
878.17	3224.36
878.489	3194.31
878.807	3190.24
879.125	3211.26
879.444	3186.17
879.762	3207.19
880.08	3185.04
880.398	3162.9
880.716	3145.72
881.034	3150.69
881.352	3170.81
881.67	3129.45
881.988	3131.03
882.306	3164.7
882.624	3153.86
882.941	3134.2
883.259	3140.98
883.577	3151.37
883.894	3113.18
884.212	3113.18
884.529	3134.65
884.846	3130.13
885.164	3083.8
885.481	3102.33
885.798	3114.76
886.115	3062.11
886.432	3060.3
886.75	3060.07
887.067	3063.46
887.383	3071.37
887.7	3068.44
888.017	3058.49
888.334	3005.84
888.651	3004.26
888.967	3044.26
889.284	2977.37
889.6	2977.14
889.917	2959.06
890.233	3001.77
890.55	2946.63
890.866	2942.11
891.182	2970.13
891.498	2968.1
891.815	2971.04
892.131	2940.98
892.447	2929.46
892.763	2922.9
893.079	2902.11
893.395	2922.9
893.71	2869.12
894.026	2868.67
894.342	2870.25
894.657	2900.08
894.973	2853.75
895.289	2848.33
895.604	2898.05
895.92	2856.24
896.235	2832.51
896.55	2812.62
896.865	2801.55
897.181	2818.5
897.496	2792.06
897.811	2820.53
898.126	2767.43
898.441	2764.94
898.756	2776.01
899.071	2741.89
899.386	2751.38
899.7	2714.32
900.015	2728.56
900.33	2722.46
900.644	2656.24
900.959	2705.96
901.273	2707.09
901.588	2693.08
901.902	2698.73
902.216	2650.59
902.531	2630.71
902.845	2679.97
903.159	2644.04
903.473	2655.79
903.787	2629.13
904.101	2588.9
904.415	2646.53
904.729	2595.23
905.042	2589.35
905.356	2555.91
905.67	2613.08
905.984	2562.91
906.297	2585.74
906.611	2557.04
906.924	2551.16
907.237	2534.21
907.551	2546.19
907.864	2493.08
908.177	2521.56
908.491	2543.48
908.804	2542.8
909.117	2471.39
909.43	2495.8
909.743	2443.59
910.056	2469.81
910.368	2490.15
910.681	2441.33
910.994	2433.42
911.307	2426.87
911.619	2415.8
911.932	2405.4
912.244	2372.18
912.557	2391.62
912.869	2382.58
913.181	2376.93
913.494	2366.08
913.806	2386.42
914.118	2378.74
914.43	2322.69
914.742	2346.87
915.054	2319.08
915.366	2288.34
915.678	2308.23
915.99	2287.44
916.302	2268.23
916.613	2246.09
916.925	2272.75
917.236	2236.59
917.548	2272.52
917.859	2231.62
918.171	2219.65
918.482	2199.98
918.794	2206.54
919.105	2206.99
919.416	2209.02
919.727	2197.72
920.038	2177.84
920.349	2147.56
920.66	2162.02
920.971	2178.52
921.282	2116.6
921.593	2150.72
921.903	2155.01
922.214	2131.96
922.525	2137.61
922.835	2143.26
923.146	2064.85
923.456	2082.93
923.767	2093.32
924.077	2108.46
924.387	2084.73
924.697	2093.55
925.008	2079.31
925.318	2078.41
925.628	2073.89
925.938	2026.66
926.248	2001.35
926.558	2021.01
926.867	2005.64
927.177	1978.3
927.487	1992.76
927.796	2007
928.106	2019.65
928.416	1950.27
928.725	1990.5
929.034	1954.34
929.344	1942.14
929.653	1926.77
929.962	1937.39
930.271	1942.59
930.581	1916.6
930.89	1940.1
931.199	1897.85
931.508	1923.83
931.817	1917.05
932.125	1932.19
932.434	1903.95
932.743	1890.84
933.051	1854.68
933.36	1871.18
933.669	1857.85
933.977	1833.21
934.286	1861.01
934.594	1814.68
934.902	1848.36
935.21	1835.47
935.519	1848.81
935.827	1808.58
936.135	1813.33
936.443	1791.18
936.751	1773.33
937.059	1810.16
937.367	1770.62
937.674	1784.85
937.982	1803.84
938.29	1789.83
938.597	1783.95
938.905	1766.32
939.213	1745.08
939.52	1735.59
939.827	1735.82
940.135	1750.73
940.442	1732.43
940.749	1738.53
941.056	1720
941.363	1691.07
941.67	1734.01
941.977	1691.07
942.284	1686.1
942.591	1685.87
942.898	1677.74
943.205	1675.7
943.511	1669.6
943.818	1661.92
944.125	1635.48
944.431	1649.49
944.738	1641.58
945.044	1617.85
945.35	1643.39
945.657	1627.57
945.963	1623.05
946.269	1635.25
946.575	1624.63
946.881	1627.34
947.187	1572.43
947.493	1576.05
947.799	1586.44
948.105	1587.57
948.41	1557.97
948.716	1568.36
949.022	1531.3
949.327	1563.17
949.633	1551.41
949.938	1534.92
950.244	1531.3
950.549	1514.58
950.854	1519.1
951.16	1505.31
951.465	1526.33
951.77	1493.34
952.075	1504.86
952.38	1476.61
952.685	1494.92
952.99	1485.2
953.294	1491.75
953.599	1509.83
953.904	1476.16
954.209	1502.6
954.513	1445.65
954.818	1423.96
955.122	1454.47
955.426	1452.21
955.731	1447.01
956.035	1418.54
956.339	1432.1
956.643	1411.98
956.948	1407.24
957.252	1404.98
957.556	1422.83
957.86	1402.27
958.163	1404.75
958.467	1373.11
958.771	1396.62
959.075	1411.98
959.378	1375.6
959.682	1381.47
959.985	1345.32
960.289	1357.75
960.592	1354.58
960.896	1364.07
961.199	1338.31
961.502	1333.57
961.805	1321.82
962.108	1327.69
962.411	1310.29
962.714	1306.45
963.017	1326.34
963.32	1290.63
963.623	1308.48
963.926	1323.85
964.228	1314.36
964.531	1273.23
964.833	1311.87
965.136	1284.53
965.438	1251.76
965.741	1277.75
966.043	1295.6
966.345	1252.21
966.648	1262.16
966.95	1277.52
967.252	1235.94
967.554	1252.21
967.856	1244.76
968.158	1230.52
968.46	1237.3
968.761	1249.5
969.063	1246.79
969.365	1219.45
969.666	1228.94
969.968	1223.74
970.269	1189.39
970.571	1237.75
970.872	1205.66
971.174	1192.78
971.475	1194.36
971.776	1226.22
972.077	1189.84
972.378	1183.97
972.679	1199.78
972.98	1182.84
973.281	1175.83
973.582	1167.92
973.883	1171.09
974.183	1154.36
974.484	1162.72
974.785	1148.94
975.085	1143.52
975.386	1135.15
975.686	1137.19
975.986	1150.07
976.287	1122.05
976.587	1110.97
976.887	1139.67
977.187	1149.62
977.487	1133.57
977.787	1130.18
978.087	1136.74
978.387	1117.08
978.687	1116.17
978.987	1118.21
979.286	1086.34
979.586	1100.35
979.885	1086.12
980.185	1100.35
980.484	1071.2
980.784	1079.11
981.083	1088.15
981.382	1044.53
981.682	1066.23
981.981	1068.94
982.28	1062.61
982.579	1074.59
982.878	1065.33
983.177	1050.41
983.475	1053.12
983.774	1027.36
984.073	1030.07
984.372	1027.81
984.67	1043.4
984.969	1025.78
985.267	1008.38
985.566	1037.76
985.864	1020.13
986.162	1022.84
986.461	1003.41
986.759	973.58
987.057	1003.63
987.355	1006.34
987.653	993.01
987.951	984.42
988.249	978.77
988.547	971.99
988.844	975.84
989.142	991.43
989.44	992.11
989.737	966.34
990.035	968.83
990.332	976.74
990.63	952.79
990.927	935.16
991.224	979.23
991.521	963.41
991.819	973.58
992.116	995.5
992.413	944.88
992.71	938.77
993.006	947.81
993.303	927.48
993.6	933.13
993.897	910.98
994.193	908.95
994.49	901.94
994.787	904.43
995.083	926.8
995.379	902.62
995.676	932.45
995.972	914.59
996.268	916.63
996.565	899
996.861	903.52
997.157	881.83
997.453	897.87
997.749	869.4
998.044	876.63
998.34	874.6
998.636	881.83
998.932	884.54
999.227	881.38
999.523	859.45
999.818	844.09
1000.114	840.02
1000.409	864.43
1000.704	835.73
1001	859.68
1001.295	863.07
1001.59	833.69
1001.885	839.57
1002.18	825.33
1002.475	845.22
1002.77	845.22
1003.065	831.66
1003.359	813.81
1003.654	833.47
1003.949	807.48
1004.243	826.01
1004.538	834.6
1004.832	805.67
1005.127	815.16
1005.421	812.45
1005.715	818.55
1006.009	824.2
1006.304	821.04
1006.598	791.66
1006.892	772
1007.186	805.67
1007.48	784.88
1007.773	778.33
1008.067	770.87
1008.361	757.76
1008.655	782.62
1008.948	788.04
1009.242	772.23
1009.535	750.31
1009.829	734.26
1010.122	751.66
1010.415	749.63
1010.708	761.15
1011.001	746.46
1011.295	743.98
1011.588	753.47
1011.881	736.29
1012.173	732
1012.466	731.77
1012.759	743.07
1013.052	733.36
1013.344	710.31
1013.637	698.78
1013.93	700.59
1014.222	713.7
1014.514	699.23
1014.807	703.75
1015.099	690.42
1015.391	721.38
1015.683	708.72
1015.976	682.28
1016.268	697.88
1016.56	713.92
1016.851	684.54
1017.143	686.35
1017.435	694.94
1017.727	720.25
1018.018	671.66
1018.31	672.34
1018.602	673.7
1018.893	681.61
1019.185	663.98
1019.476	647.26
1019.767	681.83
1020.058	656.75
1020.35	677.76
1020.641	631.66
1020.932	630.99
1021.223	636.86
1021.514	655.62
1021.804	640.48
1022.095	616.98
1022.386	633.7
1022.677	633.25
1022.967	619.01
1023.258	610.65
1023.548	628.05
1023.839	624.21
1024.129	624.21
1024.419	622.62
1024.709	612.46
1025	607.03
1025.29	599.35
1025.58	630.31
1025.87	606.81
1026.16	593.7
1026.449	597.99
1026.739	584.21
1027.029	596.18
1027.319	587.15
1027.608	598.67
1027.898	580.37
1028.187	600.7
1028.477	579.46
1028.766	588.28
1029.055	574.04
1029.344	570.65
1029.634	582.63
1029.923	571.55
1030.212	570.65
1030.501	568.61
1030.79	561.38
1031.078	579.46
1031.367	559.12
1031.656	570.65
1031.945	556.64
1032.233	558.45
1032.522	555.73
1032.81	556.64
1033.099	550.08
1033.387	580.59
1033.675	559.58
1033.963	505.34
1034.251	530.2
1034.54	538.79
1034.828	527.71
1035.116	545.34
1035.403	523.87
1035.691	529.07
1035.979	551.67
1036.267	495.17
1036.554	520.71
1036.842	545.11
1037.129	540.37
1037.417	521.84
1037.704	516.64
1037.992	506.47
1038.279	489.75
1038.566	509.63
1038.853	509.63
1039.14	509.63
