Data from black_plastic_tray_FLMS001491_038.txt Node
Date: Tue Feb 07 10:39:43 GMT 2017
User: dcchb
Spectrometer: FLMS00149
Trigger mode: 0
Integration Time (sec): 2.000000E-2
Scans to average: 10
Electric dark correction enabled: true
Nonlinearity correction enabled: false
Boxcar width: 0
XAxis mode: Wavelengths
Number of Pixels in Spectrum: 2048
>>>>>Begin Spectral Data<<<<<
341.393	-17.27
341.776	-17.27
342.16	-17.27
342.543	-65.63
342.927	-70.15
343.31	-59.31
343.693	-76.48
344.077	-44.39
344.46	-74.67
344.843	-55.46
345.226	-47.78
345.61	-40.32
345.993	-3.49
346.376	-10.27
346.759	-1.68
347.142	20.92
347.525	60.24
347.908	64.76
348.291	57.98
348.674	98.66
349.057	111.31
349.44	100.92
349.823	122.38
350.206	163.96
350.588	196.73
350.971	198.54
351.354	223.85
351.737	224.3
352.119	257.3
352.502	236.51
352.884	244.64
353.267	276.05
353.65	267.92
354.032	313.79
354.414	295.71
354.797	298.42
355.179	308.59
355.562	316.95
355.944	336.84
356.326	319.21
356.709	321.47
357.091	321.02
357.473	344.98
357.855	317.41
358.238	327.58
358.62	321.7
359.002	324.64
359.384	341.59
359.766	333.9
360.148	328.25
360.53	335.03
360.912	325.99
361.294	334.13
361.676	314.02
362.057	317.18
362.439	319.21
362.821	317.18
363.203	314.47
363.584	335.71
363.966	318.31
364.348	343.62
364.729	333
365.111	318.76
365.493	338.65
365.874	302.94
366.256	307.46
366.637	329.38
367.019	320.34
367.4	320.12
367.781	301.59
368.163	307.01
368.544	316.5
368.925	297.75
369.306	325.32
369.688	323.28
370.069	305.88
370.45	316.73
370.831	326.9
371.212	307.92
371.593	288.03
371.974	321.7
372.355	311.76
372.736	311.31
373.117	307.92
373.498	306.11
373.879	317.41
374.26	322.6
374.641	310.63
375.021	326.22
375.402	319.89
375.783	312.44
376.163	346.56
376.544	333.45
376.925	353.56
377.305	338.88
377.686	347.01
378.066	345.88
378.447	338.2
378.827	344.07
379.208	340.01
379.588	324.41
379.968	342.94
380.349	337.07
380.729	345.65
381.109	345.2
381.489	347.46
381.87	347.01
382.25	370.51
382.63	354.24
383.01	354.02
383.39	368.25
383.77	379.78
384.15	359.89
384.53	377.97
384.91	378.87
385.29	365.77
385.67	385.65
386.049	401.92
386.429	382.04
386.809	383.62
387.189	395.37
387.568	362.15
387.948	388.59
388.328	385.88
388.707	398.53
389.087	407.35
389.466	398.31
389.846	400.57
390.225	407.8
390.605	406.9
390.984	415.03
391.363	405.31
391.743	412.77
392.122	406.67
392.501	420
392.881	422.04
393.26	425.88
393.639	415.94
394.018	439.44
394.397	424.07
394.776	462.94
395.155	440.57
395.534	435.6
395.913	443.96
396.292	448.02
396.671	437.18
397.05	461.36
397.429	460.45
397.808	445.54
398.186	465.88
398.565	444.86
398.944	462.04
399.323	486.44
399.701	473.56
400.08	460.68
400.458	484.86
400.837	486.22
401.215	468.14
401.594	501.13
401.972	486.44
402.351	482.6
402.729	504.97
403.107	498.19
403.486	494.35
403.864	521.47
404.242	510.85
404.62	512.43
404.999	525.99
405.377	513.33
405.755	520.57
406.133	528.25
406.511	518.53
406.889	535.93
407.267	536.84
407.645	556.27
408.023	532.77
408.401	570.51
408.779	579.77
409.156	571.86
409.534	551.3
409.912	571.41
410.29	586.55
410.667	588.59
411.045	599.21
411.422	577.74
411.8	616.16
412.178	642.6
412.555	621.58
412.933	635.14
413.31	633.78
413.687	613.22
414.065	641.47
414.442	641.01
414.819	623.61
415.197	640.56
415.574	670.84
415.951	643.05
416.328	672.2
416.705	645.76
417.082	678.98
417.46	674.23
417.837	699.09
418.214	690.05
418.591	712.65
418.967	704.97
419.344	724.4
419.721	722.59
420.098	733.67
420.475	724.63
420.852	723.27
421.228	738.19
421.605	744.74
421.982	767.34
422.358	759.43
422.735	789.71
423.111	788.35
423.488	772.54
423.864	776.15
424.241	766.21
424.617	788.35
424.994	811.18
425.37	818.41
425.746	825.64
426.123	824.06
426.499	825.64
426.875	843.95
427.251	848.92
427.627	849.82
428.003	875.13
428.379	867.22
428.756	877.62
429.132	878.07
429.507	899.09
429.883	928.24
430.259	917.39
430.635	907.22
431.011	932.31
431.387	945.41
431.763	951.06
432.138	965.53
432.514	1000.78
432.89	1012.08
433.265	995.58
433.641	991.97
434.016	1022.7
434.392	1022.7
434.767	1049.14
435.143	1027.67
435.518	1053.66
435.894	1071.06
436.269	1091.62
436.644	1096.37
437.02	1110.38
437.395	1114.9
437.77	1101.79
438.145	1144.5
438.52	1152.64
438.895	1158.51
439.271	1150.38
439.646	1182.47
440.021	1189.25
440.395	1202.13
440.77	1206.65
441.145	1198.74
441.52	1222.02
441.895	1236.48
442.27	1230.6
442.645	1215.46
443.019	1265.86
443.394	1245.29
443.769	1235.57
444.143	1270.38
444.518	1290.71
444.892	1270.38
445.267	1278.29
445.641	1299.75
446.016	1311.73
446.39	1326.42
446.764	1337.27
447.139	1306.08
447.513	1333.43
447.887	1346.08
448.262	1337.04
448.636	1368.45
449.01	1369.81
449.384	1366.87
449.758	1395.8
450.132	1422.46
450.506	1374.78
450.88	1414.1
451.254	1398.96
451.628	1420.43
452.002	1459.3
452.376	1471.27
452.75	1487.77
453.123	1479.86
453.497	1519.41
453.871	1499.75
454.244	1551.95
454.618	1528.9
454.992	1548.11
455.365	1575.9
455.739	1630.59
456.112	1601.67
456.486	1664.04
456.859	1659.07
457.232	1681.66
457.606	1706.3
457.979	1722.79
458.352	1724.15
458.725	1769.8
459.099	1778.39
459.472	1795.79
459.845	1817.93
460.218	1806.63
460.591	1835.11
460.964	1858.16
461.337	1888.67
461.71	1933.41
462.083	1956.01
462.456	1959.62
462.829	1944.48
463.201	1983.8
463.574	2012.28
463.947	2054.31
464.32	2066.74
464.692	2105.38
465.065	2089.11
465.438	2137.47
465.81	2150.35
466.183	2168.66
466.555	2223.8
466.928	2242.1
467.3	2259.95
467.672	2249.79
468.045	2305.38
468.417	2357.81
468.789	2313.74
469.161	2389.67
469.534	2415.2
469.906	2426.5
470.278	2434.19
470.65	2473.28
471.022	2525.03
471.394	2581.53
471.766	2582.88
472.138	2613.39
472.51	2640.28
472.882	2688.42
473.253	2717.8
473.625	2814.74
473.997	2833.27
474.369	2843.89
474.74	2922.08
475.112	2937
475.484	2952.37
475.855	3034.4
476.227	3012.93
476.598	3096.77
476.97	3170.44
477.341	3211.57
477.713	3288.63
478.084	3259.48
478.455	3373.37
478.827	3404.11
479.198	3488.4
479.569	3526.36
479.94	3585.8
480.311	3588.96
480.682	3674.61
481.053	3757.09
481.424	3819.24
481.795	3843.64
482.166	3895.84
482.537	3979.23
482.908	4004.77
483.279	4110.53
483.65	4106.69
484.021	4217.64
484.391	4266.68
484.762	4320.24
485.133	4347.13
485.503	4435.04
485.874	4529.05
486.244	4516.62
486.615	4622.83
486.985	4713.45
487.356	4705.77
487.726	4771.75
488.097	4882.26
488.467	4865.76
488.837	4974.01
489.207	5016.94
489.578	5103.5
489.948	5166.09
490.318	5212.19
490.688	5279.54
491.058	5296.03
491.428	5400.21
491.798	5442.24
492.168	5571.51
492.538	5522.02
492.908	5641.79
493.278	5700.99
493.648	5734.89
494.017	5805.62
494.387	5811.5
494.757	5862.8
495.126	5923.59
495.496	5977.15
495.866	6039.97
496.235	6128.1
496.605	6153.19
496.974	6158.38
497.344	6201.09
497.713	6297.81
498.082	6290.13
498.452	6337.59
498.821	6401.54
499.19	6444.03
499.559	6467.75
499.928	6562.67
500.298	6599.5
500.667	6656.45
501.036	6626.17
501.405	6759.05
501.774	6657.58
502.143	6762.66
502.512	6871.13
502.88	6878.59
503.249	6930.11
503.618	6991.36
503.987	6990.68
504.356	7010.34
504.724	7108.41
505.093	7133.5
505.462	7199.26
505.83	7227.96
506.199	7272.03
506.567	7373.04
506.936	7382.31
507.304	7484.45
507.672	7473.83
508.041	7503.43
508.409	7581.4
508.777	7595.63
509.145	7713.6
509.514	7759.92
509.882	7725.8
510.25	7838.11
510.618	7897.77
510.986	7843.54
511.354	8001.05
511.722	8053.25
512.09	8121.95
512.458	8147.94
512.826	8208.27
513.193	8225
513.561	8292.34
513.929	8389.29
514.297	8438.1
514.664	8466.12
515.032	8455.27
515.4	8590.18
515.767	8589.73
516.135	8718.54
516.502	8591.77
516.869	8808.71
517.237	8758.77
517.604	8769.16
517.972	8961.7
518.339	8989.5
518.706	9055.26
519.073	9031.08
519.44	9142.26
519.808	9331.86
520.175	9339.54
520.542	9425.87
520.909	9516.71
521.276	9507.22
521.643	9607.33
522.009	9596.94
522.376	9695.01
522.743	9783.15
523.11	9850.26
523.477	9936.81
523.843	10000.54
524.21	10104.49
524.577	10163.7
524.943	10176.36
525.31	10310.36
525.676	10468.33
526.043	10487.31
526.409	10583.13
526.776	10638.04
527.142	10650.47
527.508	10707.19
527.874	10751.93
528.241	10878.26
528.607	10901.31
528.973	11014.07
529.339	11104.92
529.705	11155.77
530.071	11210
530.437	11274.63
530.803	11363.44
531.169	11440.96
531.535	11419.49
531.901	11439.83
532.267	11572.48
532.632	11659.93
532.998	11669.88
533.364	11704
533.73	11758.46
534.095	11869.19
534.461	11908.74
534.826	12004.56
535.192	11979.47
535.557	12057.44
535.923	12076.65
536.288	12075.74
536.653	12215.17
537.019	12187.38
537.384	12271.67
537.749	12325.23
538.114	12370.2
538.479	12347.6
538.845	12501.27
539.21	12487.93
539.575	12571.77
539.94	12582.4
540.305	12686.8
540.67	12666.01
541.034	12712.56
541.399	12699.45
541.764	12807.02
542.129	12815.61
542.494	12912.33
542.858	12887.25
543.223	12933.57
543.587	12976.06
543.952	12985.32
544.316	13037.07
544.681	13015.38
545.045	13132.44
545.41	13176.96
545.774	13275.48
546.138	13253.79
546.503	13340.34
546.867	13309.38
547.231	13468.47
547.595	13436.16
547.959	13547.12
548.324	13500.79
548.688	13490.62
549.052	13583.5
549.416	13646.32
549.779	13621.92
550.143	13727.68
550.507	13798.18
550.871	13833.66
551.235	13831.18
551.599	13963.15
551.962	13928.35
552.326	13987.1
552.689	14081.11
553.053	14141
553.417	14168.57
553.78	14263.48
554.143	14289.69
554.507	14420.76
554.87	14378.05
555.234	14655.56
555.597	14536.24
555.96	14637.93
556.323	14648.56
556.686	14641.78
557.05	14706.86
557.413	14746.41
557.776	14826.18
558.139	14913.18
558.502	14952.5
558.865	15043.12
559.228	15229.11
559.59	15254.42
559.953	15256
560.316	15432.94
560.679	15393.17
561.041	15444.92
561.404	15470.23
561.767	15623.45
562.129	15566.72
562.492	15706.83
562.854	15794.29
563.217	15772.59
563.579	15829.99
563.941	16009.2
564.304	16029.76
564.666	16126.48
565.028	16066.37
565.39	16217.33
565.753	16237.89
566.115	16373.26
566.477	16408.28
566.839	16405.57
567.201	16474.27
567.563	16621.16
567.925	16700.25
568.287	16671.78
568.648	16663.64
569.01	16852.11
569.372	16946.8
569.734	16906.58
570.095	17044.88
570.457	17061.6
570.819	17113.8
571.18	17156.51
571.542	17302.5
571.903	17313.34
572.265	17455.04
572.626	17487.58
572.987	17481.93
573.349	17383.17
573.71	17566.9
574.071	17645.31
574.432	17638.31
574.794	17733.45
575.155	17742.71
575.516	17693.67
575.877	17720.34
576.238	17879.88
576.599	17869.04
576.96	17896.15
577.32	17816.83
577.681	18028.81
578.042	18102.02
578.403	18165.98
578.763	18143.6
579.124	18221.12
579.485	18210.27
579.845	18242.13
580.206	18144.96
580.566	18186.54
580.927	18153.32
581.287	18186.32
581.648	18133.21
582.008	18266.09
582.368	18239.42
582.728	18224.05
583.089	18393.09
583.449	18249.36
583.809	18305.18
584.169	18271.96
584.529	18200.33
584.889	18420.89
585.249	18263.83
585.609	18262.47
585.969	18300.44
586.329	18254.79
586.688	18367.55
587.048	18307.67
587.408	18307.44
587.768	18255.92
588.127	18372.75
588.487	18298.63
588.846	18304.05
589.206	18254.79
589.565	18236.94
589.925	18282.36
590.284	18250.72
590.643	18326.42
591.003	18360.77
591.362	18396.48
591.721	18363.71
592.08	18358.51
592.44	18359.64
592.799	18384.28
593.158	18385.63
593.517	18337.5
593.876	18433.31
594.235	18422.69
594.593	18443.71
594.952	18429.93
595.311	18438.74
595.67	18489.58
596.029	18486.87
596.387	18599.64
596.746	18469.47
597.104	18470.15
597.463	18457.72
597.822	18517.61
598.18	18395.12
598.538	18445.74
598.897	18561.67
599.255	18401.68
599.613	18605.97
599.972	18617.04
600.33	18563.03
600.688	18569.36
601.046	18549.7
601.404	18697.49
601.762	18695.45
602.12	18772.51
602.478	18706.53
602.836	18809.35
603.194	18549.47
603.552	18779.97
603.91	18659.52
604.268	18769.35
604.625	18567.55
604.983	18736.81
605.341	18654.1
605.698	18725.28
606.056	18802.8
606.413	18687.32
606.771	18775.45
607.128	18757.37
607.485	18720.31
607.843	18762.8
608.2	18821.33
608.557	18910.82
608.914	18849.8
609.272	18991.94
609.629	18949.23
609.986	18978.16
610.343	18979.97
610.7	19125.5
611.057	19068.33
611.414	19085.5
611.771	19106.29
612.127	19203.92
612.484	19221.32
612.841	19231.26
613.198	19140.41
613.554	19197.81
613.911	19412.05
614.267	19200.3
614.624	19182.45
614.98	19276.23
615.337	19338.38
615.693	19269.22
616.05	19275.78
616.406	19364.36
616.762	19361.2
617.118	19300.64
617.475	19300.41
617.831	19387.19
618.187	19427.64
618.543	19445.49
618.899	19553.74
619.255	19589.89
619.611	19463.8
619.967	19611.36
620.323	19630.57
620.678	19560.52
621.034	19493.17
621.39	19521.87
621.746	19343.35
622.101	19680.74
622.457	19525.49
622.812	19696.11
623.168	19527.98
623.523	19532.27
623.879	19711.7
624.234	19513.06
624.589	19662.66
624.945	19576.11
625.3	19664.02
625.655	19619.27
626.01	19564.36
626.365	19621.76
626.72	19610.68
627.075	19603.68
627.43	19532.49
627.785	19461.08
628.14	19563
628.495	19633.51
628.85	19561.87
629.205	19531.14
629.559	19560.06
629.914	19457.69
630.269	19558.03
630.623	19418.6
630.978	19445.04
631.332	19531.82
631.687	19520.29
632.041	19508.77
632.396	19463.8
632.75	19360.52
633.104	19429.67
633.459	19337.92
633.813	19239.4
634.167	19281.2
634.521	19272.39
634.875	19287.3
635.229	19237.81
635.583	19189.23
635.937	19124.14
636.291	19064.26
636.645	19037.82
636.999	18967.54
637.352	18990.59
637.706	18878.5
638.06	19102.22
638.413	18994.88
638.767	18987.2
639.121	18931.61
639.474	18880.08
639.828	18920.31
640.181	18987.88
640.534	18872.17
640.888	18740.43
641.241	18667.43
641.594	18716.92
641.947	18834.21
642.301	18659.98
642.654	18726.41
643.007	18610.26
643.36	18665.85
643.713	18571.39
644.066	18604.84
644.419	18506.76
644.771	18563.48
645.124	18268.57
645.477	18213.66
645.83	18085.08
646.182	18016.15
646.535	17929.37
646.888	17991.74
647.24	17817.96
647.593	17959.43
647.945	17861.13
648.298	17853.89
648.65	17801.24
649.002	17714.01
649.355	17796.04
649.707	17842.14
650.059	17937.96
650.411	18042.59
650.763	18136.83
651.115	18198.97
651.467	18229.25
651.819	18169.14
652.171	18143.83
652.523	17994.91
652.875	18079.65
653.227	18033.78
653.578	18125.53
653.93	18103.83
654.282	17988.35
654.633	17936.15
654.985	17941.12
655.337	17971.41
655.688	17997.39
656.039	17996.72
656.391	17874.91
656.742	17854.35
657.094	17845.08
657.445	17980.45
657.796	17914.01
658.147	17904.97
658.498	17825.2
658.849	17996.26
659.2	17852.31
659.551	17817.29
659.902	17932.76
660.253	17881.46
660.604	17862.26
660.955	17741.81
661.306	17752.88
661.656	17671.3
662.007	17661.81
662.358	17670.17
662.708	17641.25
663.059	17626.1
663.409	17528.93
663.76	17699.1
664.11	17694.8
664.461	17712.43
664.811	17686.22
665.161	17687.57
665.511	17633.56
665.862	17568.25
666.212	17547.91
666.562	17549.04
666.912	17677.18
667.262	17481.93
667.612	17415.94
667.962	17493.68
668.312	17365.77
668.662	17549.27
669.011	17462.94
669.361	17432.21
669.711	17448.71
670.06	17355.6
670.41	17308.37
670.76	17215.95
671.109	17312.44
671.459	17354.7
671.808	17250.75
672.157	17347.02
672.507	17230.18
672.856	17247.58
673.205	17260.01
673.554	17254.36
673.904	17261.59
674.253	17394.92
674.602	17226.34
674.951	17006.69
675.3	16793.58
675.649	17223.63
675.998	17154.93
676.346	17292.78
676.695	17288.71
677.044	17119.68
677.393	17148.38
677.741	17077.87
678.09	16984.54
678.438	16968.72
678.787	17058.44
679.135	16987.93
679.484	16956.07
679.832	17080.13
680.181	17024.09
680.529	17027.48
680.877	16922.85
681.225	16849.18
681.573	17070.41
681.922	16795.84
682.27	16683.98
682.618	16864.32
682.966	16788.16
683.314	16892.79
683.661	16737.77
684.009	16617.77
684.357	16516.3
684.705	16627.03
685.053	16610.09
685.4	16617.32
685.748	16590.88
686.095	16406.25
686.443	16338.23
686.79	16351.11
687.138	16313.82
687.485	16334.61
687.832	16213.94
688.18	16262.3
688.527	16120.83
688.874	16163.32
689.221	16183.66
689.568	16209.42
689.915	16010.78
690.262	16166.03
690.609	15995.64
690.956	15983.89
691.303	15938.69
691.65	15853.27
691.997	15760.62
692.344	15761.52
692.69	15836.55
693.037	15720.17
693.383	15631.35
693.73	15749.77
694.077	15668.64
694.423	15646.04
694.769	15560.17
695.116	15562.66
695.462	15483.34
695.808	15427.07
696.155	15488.99
696.501	15356.56
696.847	15367.86
697.193	15256.22
697.539	15271.36
697.885	15115.66
698.231	15017.13
698.577	15007.42
698.923	15043.35
699.269	14956.57
699.614	14908.66
699.96	14908.66
700.306	14844.03
700.651	14903.46
700.997	14765.39
701.342	14779.85
701.688	14691.72
702.033	14712.28
702.379	14713.64
702.724	14569.01
703.069	14690.81
703.415	14578.5
703.76	14559.29
704.105	14524.72
704.45	14535.79
704.795	14414.21
705.14	14382.8
705.485	14325.63
705.83	14220.77
706.175	14317.49
706.52	14228
706.865	14185.06
707.209	14235.01
707.554	14098.74
707.899	14215.35
708.243	14033.43
708.588	14109.59
708.932	14017.84
709.277	13979.19
709.621	13959.76
709.966	13956.6
710.31	13917.28
710.654	13796.6
710.998	13812.19
711.342	13752.31
711.687	13764.96
712.031	13736.49
712.375	13663.04
712.719	13658.07
713.063	13604.74
713.407	13616.49
713.75	13595.02
714.094	13547.34
714.438	13482.71
714.782	13540.79
715.125	13385.54
715.469	13358.42
715.812	13300.12
716.156	13261.25
716.499	13278.87
716.843	13223.28
717.186	13155.26
717.53	13222.6
717.873	13240
718.216	13162.72
718.559	13224.86
718.902	13070.07
719.246	13154.58
719.589	13150.74
719.932	13150.74
720.275	13069.39
720.617	13011.99
720.96	12977.86
721.303	12960.01
721.646	12977.41
721.989	12879.34
722.331	13031.2
722.674	12839.56
723.016	12813.8
723.359	12881.37
723.701	12891.99
724.044	12809.28
724.386	12731.54
724.729	12779.23
725.071	12665.33
725.413	12670.08
725.755	12676.18
726.097	12535.84
726.439	12602.28
726.782	12535.39
727.124	12603.19
727.465	12590.3
727.807	12604.32
728.149	12642.05
728.491	12475.96
728.833	12473.02
729.175	12382.85
729.516	12399.8
729.858	12446.58
730.199	12430.99
730.541	12416.07
730.882	12348.5
731.224	12409.29
731.565	12311.67
731.906	12348.5
732.248	12292.46
732.589	12250.88
732.93	12188.28
733.271	12318
733.612	12221.95
733.953	12205
734.294	12139.24
734.635	12107.38
734.976	12149.19
735.317	12118.9
735.658	12054.05
735.999	12115.06
736.339	12054.73
736.68	12094.95
737.021	12040.71
737.361	12028.96
737.702	12022.64
738.042	11969.08
738.383	11991.68
738.723	11937.44
739.063	11920.72
739.404	11867.39
739.744	11887.5
740.084	11757.33
740.424	11811.12
740.764	11723.89
741.104	11852.92
741.444	11709.65
741.784	11741.97
742.124	11807.05
742.464	11785.81
742.804	11577.22
743.143	11645.02
743.483	11641.18
743.823	11625.13
744.162	11672.36
744.502	11656.09
744.841	11564.57
745.181	11638.69
745.52	11605.92
745.86	11627.62
746.199	11492.03
746.538	11551.01
746.877	11466.49
747.216	11448.19
747.556	11307.63
747.895	11365.03
748.234	11377.91
748.573	11302.2
748.911	11344.24
749.25	11312.37
749.589	11350.11
749.928	11272.83
750.267	11264.24
750.605	11293.16
750.944	11221.08
751.283	11123
751.621	11175.2
751.96	11140.17
752.298	11146.5
752.636	11146.27
752.975	11065.6
753.313	11045.94
753.651	10997.13
753.989	11080.74
754.327	10949.22
754.666	10895.66
755.004	10969.56
755.342	10876
755.679	10833.97
756.017	10733.86
756.355	10803.91
756.693	10704.03
757.031	10761.88
757.368	10793.97
757.706	10714.2
758.044	10666.06
758.381	10689.34
758.719	10683.01
759.056	10616.35
759.394	10540.41
759.731	10448.67
760.068	10539.06
760.405	10456.8
760.743	10434.88
761.08	10341.1
761.417	10420.42
761.754	10417.48
762.091	10397.82
762.428	10240.31
762.765	10227.2
763.102	10326.41
763.438	10170.03
763.775	10151.95
764.112	10077.83
764.449	10194.21
764.785	10124.61
765.122	10029.92
765.458	10009.81
765.795	10045.29
766.131	9975.01
766.467	9958.28
766.804	9925.06
767.14	9886.19
767.476	9800.1
767.812	9756.71
768.148	9784.05
768.485	9715.13
768.821	9691.4
769.157	9728.46
769.492	9681
769.828	9615.02
770.164	9552.87
770.5	9515.36
770.836	9564.85
771.171	9524.62
771.507	9441.23
771.842	9407.11
772.178	9413.89
772.513	9424.96
772.849	9349.94
773.184	9303.61
773.519	9267
773.855	9230.17
774.19	9135.25
774.525	9071.3
774.86	9189.04
775.195	9134.58
775.53	9100.9
775.865	9094.13
776.2	9005.31
776.535	8925.54
776.87	8922.6
777.205	8941.36
777.539	8817.75
777.874	8890.06
778.209	8784.98
778.543	8749.95
778.878	8718.09
779.212	8654.36
779.547	8652.55
779.881	8611.88
780.215	8542.5
780.55	8608.26
780.884	8519.45
781.218	8443.75
781.552	8506.34
781.886	8495.27
782.22	8413.01
782.554	8389.74
782.888	8293.47
783.222	8248.95
783.556	8196.97
783.889	8242.62
784.223	8177.31
784.557	8191.32
784.89	8169.63
785.224	8095.73
785.557	8073.14
785.891	8082.63
786.224	8085.56
786.558	8074.94
786.891	8034.49
787.224	7978.22
787.557	7949.52
787.891	7923.53
788.224	7922.86
788.557	7879.92
788.89	7903.42
789.223	7885.34
789.556	7818.68
789.888	7833.14
790.221	7754.27
790.554	7732.81
790.887	7719.92
791.219	7683.77
791.552	7653.49
791.884	7562.64
792.217	7531.91
792.549	7503.88
792.882	7470.89
793.214	7447.84
793.546	7441.51
793.879	7443.55
794.211	7359.71
794.543	7449.2
794.875	7327.62
795.207	7372.36
795.539	7342.08
795.871	7358.58
796.203	7220.5
796.535	7211.69
796.867	7225.02
797.198	7133.72
797.53	7179.6
797.862	7137.11
798.193	7094.86
798.525	7092.82
798.856	7125.59
799.188	7029.09
799.519	7052.15
799.85	6974.41
800.182	7009.66
800.513	6932.83
800.844	6880.85
801.175	6979.6
801.506	6960.4
801.837	6962.2
802.168	6899.61
802.499	6890.79
802.83	6841.98
803.161	6803.34
803.491	6774.19
803.822	6801.08
804.153	6710.69
804.483	6707.3
804.814	6628.65
805.145	6627.52
805.475	6615.55
805.805	6636.34
806.136	6718.82
806.466	6637.92
806.796	6647.18
807.126	6618.48
807.457	6566.28
807.787	6568.54
808.117	6532.38
808.447	6580.52
808.777	6542.33
809.107	6491.71
809.436	6489.9
809.766	6418.49
810.096	6421.2
810.426	6459.62
810.755	6387.3
811.085	6373.52
811.414	6354.76
811.744	6318.61
812.073	6332.39
812.403	6305.5
812.732	6281.09
813.061	6249.91
813.39	6194.77
813.719	6179.17
814.049	6269.79
814.378	6297.36
814.707	6228.44
815.036	6202
815.365	6179.63
815.693	6056.24
816.022	6126.52
816.351	6157.25
816.68	6077.48
817.008	6135.11
817.337	6051.95
817.665	6060.53
817.994	6028.44
818.322	6052.17
818.651	6046.97
818.979	6014.88
819.307	6016.69
819.636	5980.99
819.964	5949.8
820.292	5905.73
820.62	5896.47
820.948	5941.44
821.276	5990.93
821.604	5944.83
821.932	5957.03
822.259	5942.12
822.587	5953.64
822.915	5904.15
823.243	5941.67
823.57	5931.5
823.898	5927.65
824.225	5892.85
824.553	5916.81
824.88	5890.37
825.207	5930.82
825.535	5895.79
825.862	5918.16
826.189	5943.47
826.516	5903.02
826.843	5955.68
827.17	5949.35
827.497	5965.85
827.824	5921.78
828.151	5972.17
828.478	5918.39
828.805	5922.23
829.131	5910.25
829.458	5914.1
829.785	5875.9
830.111	5875.68
830.438	5916.81
830.764	5882.91
831.09	5957.48
831.417	5887.43
831.743	5854.66
832.069	5842.46
832.395	5872.52
832.722	5872.29
833.048	5845.62
833.374	5903.7
833.7	5807.43
834.026	5848.56
834.351	5840.88
834.677	5799.75
835.003	5808.79
835.329	5842.01
835.654	5871.16
835.98	5802.01
836.306	5834.1
836.631	5785.96
836.956	5775.12
837.282	5780.09
837.607	5763.59
837.932	5707.77
838.258	5706.64
838.583	5771.73
838.908	5687.89
839.233	5696.93
839.558	5719.3
839.883	5679.53
840.208	5666.87
840.533	5679.53
840.858	5633.2
841.182	5732.18
841.507	5670.03
841.832	5580.09
842.156	5677.72
842.481	5635.01
842.805	5571.96
843.13	5591.84
843.454	5625.52
843.778	5574.44
844.103	5586.65
844.427	5491.73
844.751	5568.57
845.075	5528.57
845.399	5529.7
845.723	5496.93
846.047	5495.12
846.371	5451.96
846.695	5441.79
847.019	5447.44
847.343	5393.21
847.666	5400.66
847.99	5325.41
848.313	5390.95
848.637	5288.12
848.96	5296.94
849.284	5272.53
849.607	5249.48
849.931	5242.02
850.254	5196.37
850.577	5201.8
850.9	5120.67
851.223	5164.51
851.546	5140.78
851.869	5077.51
852.192	5088.13
852.515	5034.57
852.838	5025.76
853.161	5022.37
853.483	5021.92
853.806	4990.28
854.129	4959.77
854.451	5000.67
854.774	4925.65
855.096	4907.12
855.419	4898.53
855.741	4900.79
856.063	4955.93
856.385	4927
856.708	4860.79
857.03	4872.54
857.352	4859.89
857.674	4815.14
857.996	4831.41
858.318	4734.69
858.64	4778.76
858.961	4819.21
859.283	4746.67
859.605	4765.2
859.926	4721.13
860.248	4702.15
860.57	4697.4
860.891	4712.55
861.212	4656.5
861.534	4703.73
861.855	4717.29
862.176	4724.75
862.498	4670.29
862.819	4637.29
863.14	4625.09
863.461	4623.28
863.782	4629.38
864.103	4651.98
864.424	4576.5
864.745	4575.37
865.065	4596.62
865.386	4583.51
865.707	4595.94
866.027	4581.25
866.348	4548.48
866.668	4540.12
866.989	4586.22
867.309	4522.27
867.63	4540.12
867.95	4515.71
868.27	4528.37
868.59	4507.13
868.91	4485.21
869.23	4521.59
869.55	4445.66
869.87	4473.23
870.19	4529.05
870.51	4510.29
870.83	4456.73
871.15	4470.74
871.469	4456.28
871.789	4429.16
872.109	4458.09
872.428	4415.6
872.748	4422.38
873.067	4385.1
873.386	4408.82
873.706	4394.81
874.025	4414.02
874.344	4323.18
874.663	4362.95
874.982	4372.89
875.301	4382.61
875.62	4351.2
875.939	4381.71
876.258	4339
876.577	4348.49
876.896	4313.46
877.214	4294.93
877.533	4301.48
877.852	4357.3
878.17	4284.31
878.489	4312.56
878.807	4320.92
879.125	4320.47
879.444	4278.88
879.762	4282.05
880.08	4268.26
880.398	4276.62
880.716	4262.16
881.034	4202.5
881.352	4259.22
881.67	4227.13
881.988	4239.56
882.306	4219.9
882.624	4193.92
882.941	4180.13
883.259	4146.68
883.577	4207.93
883.894	4178.55
884.212	4214.03
884.529	4154.59
884.846	4151.88
885.164	4152.11
885.481	4100.13
885.798	4121.83
886.115	4062.85
886.432	4068.04
886.75	4024.88
887.067	4027.82
887.383	4041.15
887.7	4027.14
888.017	4027.82
888.334	3968.16
888.651	3979.46
888.967	3991.43
889.284	3997.76
889.6	3985.79
889.917	3942.85
890.233	3972.45
890.55	3919.12
890.866	3938.33
891.182	3948.95
891.498	3966.12
891.815	3950.76
892.131	3883.41
892.447	3926.13
892.763	3877.31
893.079	3875.51
893.395	3875.28
893.71	3833.92
894.026	3872.34
894.342	3844.32
894.657	3806.13
894.973	3807.48
895.289	3779.69
895.604	3790.54
895.92	3767.94
896.235	3766.58
896.55	3816.07
896.865	3728.62
897.181	3769.97
897.496	3730.88
897.811	3736.53
898.126	3684.1
898.441	3655.62
898.756	3643.2
899.071	3634.38
899.386	3672.12
899.7	3648.62
900.015	3618.79
900.33	3640.48
900.644	3601.39
900.959	3581.5
901.273	3612.91
901.588	3597.09
901.902	3550.99
902.216	3558.9
902.531	3526.14
902.845	3565.46
903.159	3503.31
903.473	3496.76
903.787	3491.56
904.101	3452.01
904.415	3442.52
904.729	3425.35
905.042	3448.62
905.356	3431.22
905.67	3380.15
905.984	3416.99
906.297	3408.63
906.611	3394.84
906.924	3369.3
907.237	3384.9
907.551	3321.85
907.864	3339.93
908.177	3352.36
908.491	3320.94
908.804	3317.33
909.117	3315.07
909.43	3321.17
909.743	3281.85
910.056	3248.86
910.368	3235.3
910.681	3189.87
910.994	3223.32
911.307	3182.87
911.619	3164.56
911.932	3180.83
912.244	3168.41
912.557	3189.2
912.869	3174.28
913.181	3170.21
913.494	3127.05
913.806	3112.14
914.118	3113.49
914.43	3074.17
914.742	3092.93
915.054	3085.24
915.366	3083.44
915.678	3007.05
915.99	2990.1
916.302	3007.73
916.613	2948.07
916.925	2988.75
917.236	2980.84
917.548	2938.58
917.859	2948.52
918.171	2948.3
918.482	2918.02
918.794	2937.45
919.105	2920.28
919.416	2914.63
919.727	2871.24
920.038	2886.38
920.349	2859.49
920.66	2840.96
920.971	2837.79
921.282	2865.59
921.593	2820.17
921.903	2803.44
922.214	2794.4
922.525	2804.12
922.835	2781.3
923.146	2760.51
923.456	2757.79
923.767	2740.39
924.077	2721.19
924.387	2741.3
924.697	2698.81
925.008	2701.07
925.318	2695.42
925.628	2699.04
925.938	2662.66
926.248	2650.23
926.558	2626.72
926.867	2650.9
927.177	2650.9
927.487	2628.31
927.796	2597.8
928.106	2608.65
928.416	2578.14
928.725	2609.78
929.034	2551.25
929.344	2584.24
929.653	2555.99
929.962	2520.74
930.271	2526.84
930.581	2563
930.89	2513.06
931.199	2511.47
931.508	2482.77
931.817	2503.79
932.125	2529.55
932.434	2497.91
932.743	2452.04
933.051	2437.13
933.36	2443.45
933.669	2407.3
933.977	2407.07
934.286	2408.43
934.594	2365.94
934.902	2371.36
935.21	2375.66
935.519	2356.45
935.827	2381.99
936.135	2373.62
936.443	2323.23
936.751	2373.17
937.059	2302.89
937.367	2311.25
937.674	2302.44
937.982	2298.37
938.29	2306.28
938.597	2303.12
938.905	2250.46
939.213	2276.9
939.52	2226.28
939.827	2270.58
940.135	2262.89
940.442	2242.33
940.749	2219.5
941.056	2248.88
941.363	2208.66
941.67	2173.18
941.977	2188.32
942.284	2175.44
942.591	2178.83
942.898	2154.87
943.205	2144.03
943.511	2137.7
943.818	2137.7
944.125	2129.11
944.431	2135.89
944.738	2083.69
945.044	2108.55
945.35	2090.24
945.657	2071.03
945.963	2079.62
946.269	2030.36
946.575	2058.6
946.881	2050.69
947.187	2034.65
947.493	2028.1
947.799	2001.88
948.105	2021.99
948.41	1993.52
948.716	1971.15
949.022	2001.2
949.327	1983.58
949.633	1972.96
949.938	2002.56
950.244	1986.52
950.549	1950.81
950.854	1923.24
951.16	1937.7
951.465	1968.66
951.77	1923.47
952.075	1917.36
952.38	1919.62
952.685	1919.62
952.99	1911.72
953.294	1905.39
953.599	1902.45
953.904	1904.03
954.209	1904.03
954.513	1864.48
954.818	1848.67
955.122	1858.84
955.426	1856.35
955.731	1846.41
956.035	1829.23
956.339	1824.71
956.643	1825.16
956.948	1829.91
957.252	1811.6
957.556	1794.2
957.86	1788.1
958.163	1775.22
958.467	1780.19
958.771	1757.37
959.075	1752.62
959.378	1772.51
959.682	1752.62
959.985	1752.17
960.289	1745.17
960.592	1729.35
960.896	1718.05
961.199	1705.84
961.502	1714.66
961.805	1708.1
962.108	1710.82
962.411	1704.49
962.714	1663.13
963.017	1680.53
963.32	1671.95
963.623	1667.65
963.926	1662.46
964.228	1691.16
964.531	1628.33
964.833	1673.53
965.136	1625.85
965.438	1627.65
965.741	1636.24
966.043	1612.74
966.345	1597.15
966.648	1622.68
966.95	1599.41
967.252	1598.05
967.554	1575.9
967.856	1584.72
968.158	1595.79
968.46	1573.87
968.761	1561.22
969.063	1533.42
969.365	1572.29
969.666	1546.3
969.968	1504.72
970.269	1544.49
970.571	1546.3
970.872	1518.51
971.174	1518.73
971.475	1509.47
971.776	1500.43
972.077	1513.08
972.378	1500.43
972.679	1497.04
972.98	1452.52
973.281	1493.87
973.582	1477.83
973.883	1467.21
974.183	1463.37
974.484	1469.24
974.785	1440.09
975.085	1434.44
975.386	1439.19
975.686	1437.38
975.986	1401.9
976.287	1418.85
976.587	1398.73
976.887	1396.93
977.187	1399.86
977.487	1413.65
977.787	1389.92
978.087	1395.12
978.387	1365.97
978.687	1421.78
978.987	1369.58
979.286	1356.25
979.586	1373.2
979.885	1363.48
980.185	1384.27
980.484	1356.7
980.784	1306.53
981.083	1343.37
981.382	1331.17
981.682	1347.44
981.981	1306.08
982.28	1303.6
982.579	1275.57
982.878	1326.65
983.177	1335.91
983.475	1300.43
983.774	1278.29
984.073	1319.87
984.372	1266.31
984.67	1295.69
984.969	1288.45
985.267	1270.83
985.566	1258.17
985.864	1276.7
986.162	1262.24
986.461	1241.9
986.759	1279.64
987.057	1258.63
987.355	1223.6
987.653	1228.34
987.951	1244.61
988.249	1224.73
988.547	1242.81
988.844	1226.31
989.142	1214.11
989.44	1189.93
989.737	1186.31
990.035	1197.38
990.332	1212.75
990.63	1179.53
990.927	1188.12
991.224	1188.57
991.521	1188.57
991.819	1164.84
992.116	1177.5
992.413	1158.06
992.71	1144.05
993.006	1163.03
993.303	1165.07
993.6	1163.49
993.897	1148.8
994.193	1138.85
994.49	1149.02
994.787	1117.16
995.083	1131.85
995.379	1126.65
995.676	1123.49
995.972	1120.55
996.268	1102.25
996.565	1118.29
996.861	1085.07
997.157	1088.91
997.453	1084.17
997.749	1055.24
998.044	1071.74
998.34	1050.27
998.636	1071.51
998.932	1065.64
999.227	1062.25
999.523	1059.53
999.818	1036.26
1000.114	1029.7
1000.409	1037.16
1000.704	1015.24
1001	1035.58
1001.295	1017.05
1001.59	1046.2
1001.885	1018.18
1002.18	1045.98
1002.475	1010.27
1002.77	985.86
1003.065	999.2
1003.359	982.47
1003.654	987.9
1003.949	987.45
1004.243	989.03
1004.538	987.67
1004.832	998.52
1005.127	954.23
1005.421	970.72
1005.715	986.09
1006.009	960.78
1006.304	944.74
1006.598	951.06
1006.892	936.83
1007.186	930.95
1007.48	942.48
1007.773	944.06
1008.067	915.58
1008.361	967.11
1008.655	919.42
1008.948	920.1
1009.242	907.45
1009.535	899.31
1009.829	909.71
1010.122	888.01
1010.415	915.36
1010.708	861.8
1011.001	861.35
1011.295	851.4
1011.588	867.9
1011.881	886.21
1012.173	887.11
1012.466	846.88
1012.759	878.52
1013.052	875.81
1013.344	857.51
1013.637	822.93
1013.93	841.23
1014.222	859.31
1014.514	839.88
1014.807	829.71
1015.099	851.86
1015.391	848.01
1015.683	810.95
1015.976	804.4
1016.268	804.17
1016.56	812.76
1016.851	810.73
1017.143	818.18
1017.435	802.82
1017.727	808.02
1018.018	790.84
1018.31	785.19
1018.602	758.98
1018.893	804.4
1019.185	776.15
1019.476	777.06
1019.767	775.93
1020.058	759.43
1020.35	765.08
1020.641	735.93
1020.932	760.11
1021.223	756.04
1021.514	751.07
1021.804	737.28
1022.095	744.29
1022.386	722.82
1022.677	723.27
1022.967	723.27
1023.258	728.24
1023.548	711.97
1023.839	708.36
1024.129	730.96
1024.419	726.21
1024.709	706.1
1025	708.58
1025.29	707.45
1025.58	710.16
1025.87	705.65
1026.16	712.42
1026.449	697.06
1026.739	681.01
1027.029	671.97
1027.319	693.67
1027.608	697.51
1027.898	653.44
1028.187	681.47
1028.477	675.82
1028.766	642.6
1029.055	678.98
1029.344	649.38
1029.634	660.45
1029.923	666.78
1030.212	644.18
1030.501	657.28
1030.79	647.57
1031.078	636.49
1031.367	631.75
1031.656	638.98
1031.945	634.69
1032.233	648.02
1032.522	629.72
1032.81	633.78
1033.099	624.52
1033.387	616.38
1033.675	613.22
1033.963	609.6
1034.251	631.97
1034.54	612.09
1034.828	586.33
1035.116	587.68
1035.403	591.98
1035.691	585.65
1035.979	589.72
1036.267	589.04
1036.554	589.72
1036.842	576.38
1037.129	594.24
1037.417	584.52
1037.704	576.61
1037.992	563.28
1038.279	584.97
1038.566	583.61
1038.853	583.61
1039.14	583.61
