Data from black_metal_pc_casing_FLMS001491_00062.txt Node
Date: Wed Feb 08 14:33:18 GMT 2017
User: dcchb
Spectrometer: FLMS00149
Trigger mode: 0
Integration Time (sec): 2.000000E-2
Scans to average: 10
Electric dark correction enabled: true
Nonlinearity correction enabled: false
Boxcar width: 0
XAxis mode: Wavelengths
Number of Pixels in Spectrum: 2048
>>>>>Begin Spectral Data<<<<<
341.393	-5.86
341.776	-5.86
342.16	-5.86
342.543	-52.87
342.927	-58.29
343.31	-65.75
343.693	-77.5
344.077	-75.01
344.46	-47.44
344.843	-58.29
345.226	-45.63
345.61	-24.39
345.993	-24.84
346.376	-1.12
346.759	21.93
347.142	8.83
347.525	50.63
347.908	59.9
348.291	77.98
348.674	98.99
349.057	101.71
349.44	110.75
349.823	134.7
350.206	148.94
350.588	187.13
350.971	196.39
351.354	217.41
351.737	231.19
352.119	225.54
352.502	237.07
352.884	267.58
353.267	275.71
353.65	283.17
354.032	280.91
354.414	293.57
354.797	297.86
355.179	273
355.562	291.53
355.944	322.72
356.326	316.62
356.709	313
357.091	334.69
357.473	324.53
357.855	330.4
358.238	336.05
358.62	346.22
359.002	320.68
359.384	323.62
359.766	326.79
360.148	301.93
360.53	346.67
360.912	328.14
361.294	325.43
361.676	323.4
362.057	330.17
362.439	319.55
362.821	333.11
363.203	331.76
363.584	329.95
363.966	309.61
364.348	324.3
364.729	311.87
365.111	297.86
365.493	321.81
365.874	290.63
366.256	313.68
366.637	325.2
367.019	319.33
367.4	322.27
367.781	291.53
368.163	298.99
368.544	331.76
368.925	324.3
369.306	327.01
369.688	305.77
370.069	309.16
370.45	308.25
370.831	302.15
371.212	318.65
371.593	326.79
371.974	282.72
372.355	301.25
372.736	328.59
373.117	309.84
373.498	314.81
373.879	301.48
374.26	307.12
374.641	315.26
375.021	303.28
375.402	318.65
375.783	308.93
376.163	324.53
376.544	309.38
376.925	307.58
377.305	325.88
377.686	321.14
378.066	339.44
378.447	334.92
378.827	324.98
379.208	333.34
379.588	325.66
379.968	337.86
380.349	334.24
380.729	343.96
381.109	340.12
381.489	345.54
381.87	365.43
382.25	327.01
382.63	331.98
383.01	343.73
383.39	342.38
383.77	346.22
384.15	353.23
384.53	352.32
384.91	348.93
385.29	350.97
385.67	353.68
386.049	342.83
386.429	350.29
386.809	350.06
387.189	364.75
387.568	353.9
387.948	367.01
388.328	351.19
388.707	356.39
389.087	388.25
389.466	372.21
389.846	374.92
390.225	389.61
390.605	394.35
390.984	392.09
391.363	367.69
391.743	385.77
392.122	391.42
392.501	395.26
392.881	392.55
393.26	379.44
393.639	390.29
394.018	381.7
394.397	398.2
394.776	408.14
395.155	398.87
395.534	399.1
395.913	390.29
396.292	395.03
396.671	417.4
397.05	414.47
397.429	410.17
397.808	418.53
398.186	394.35
398.565	389.83
398.944	418.76
399.323	409.72
399.701	420.34
400.08	433.68
400.458	423.51
400.837	427.35
401.215	445.43
401.594	435.26
401.972	455.37
402.351	430.96
402.729	428.03
403.107	440.68
403.486	437.29
403.864	429.61
404.242	464.18
404.62	463.28
404.999	456.95
405.377	451.53
405.755	441.58
406.133	456.95
406.511	456.05
406.889	464.41
407.267	481.81
407.645	480.23
408.023	482.26
408.401	487.46
408.779	489.04
409.156	483.62
409.534	494.69
409.912	520
410.29	509.61
410.667	515.03
411.045	508.25
411.422	515.25
411.8	504.63
412.178	506.67
412.555	501.02
412.933	522.03
413.31	545.99
413.687	533.11
414.065	538.08
414.442	523.62
414.819	539.89
415.197	533.33
415.574	532.2
415.951	554.12
416.328	555.48
416.705	539.66
417.082	557.29
417.46	558.42
417.837	566.1
418.214	563.16
418.591	574.46
418.967	566.1
419.344	589.6
419.721	571.3
420.098	571.98
420.475	581.69
420.852	599.32
421.228	595.25
421.605	595.48
421.982	613.56
422.358	608.81
422.735	625.53
423.111	614.46
423.488	628.25
423.864	638.42
424.241	628.7
424.617	632.54
424.994	625.08
425.37	648.81
425.746	650.39
426.123	650.84
426.499	656.95
426.875	692.88
427.251	694.46
427.627	677.96
428.003	659.21
428.379	692.2
428.756	698.3
429.132	689.04
429.507	704.63
429.883	715.02
430.259	722.26
430.635	708.92
431.011	739.88
431.387	728.81
431.763	756.83
432.138	767
432.514	781.91
432.89	751.63
433.265	772.88
433.641	765.19
434.016	790.05
434.392	800.22
434.767	821.91
435.143	817.85
435.518	843.38
435.894	794.12
436.269	810.39
436.644	823.27
437.02	841.35
437.395	823.27
437.77	847.9
438.145	876.15
438.52	883.15
438.895	887.22
439.271	868.01
439.646	882.7
440.021	885.64
440.395	891.52
440.77	892.19
441.145	900.78
441.52	906.43
441.895	937.16
442.27	931.74
442.645	938.29
443.019	925.19
443.394	931.97
443.769	927.9
444.143	936.94
444.518	955.92
444.892	938.75
445.267	948.24
445.641	954.57
446.016	964.96
446.39	973.77
446.764	975.36
447.139	981.46
447.513	989.14
447.887	975.58
448.262	997.5
448.636	1008.58
449.01	998.18
449.384	1022.81
449.758	1014.9
450.132	1030.95
450.506	1034.11
450.88	1041.79
451.254	1040.89
451.628	1060.33
452.002	1083.15
452.376	1065.52
452.75	1071.4
453.123	1087.67
453.497	1103.04
453.871	1106.2
454.244	1111.62
454.618	1139.42
454.992	1165.41
455.365	1154.79
455.739	1175.35
456.112	1193.2
456.486	1171.51
456.859	1202.92
457.232	1218.74
457.606	1225.97
457.979	1232.3
458.352	1254.67
458.725	1266.2
459.099	1247.44
459.472	1291.96
459.845	1328.57
460.218	1309.36
460.591	1288.57
460.964	1322.47
461.337	1354.78
461.71	1359.75
462.083	1396.81
462.456	1413.99
462.829	1407.43
463.201	1429.36
463.574	1430.48
463.947	1437.72
464.32	1461.22
464.692	1477.72
465.065	1475.46
465.438	1494.66
465.81	1512.74
466.183	1550.93
466.555	1566.98
466.928	1592.51
467.3	1601.78
467.672	1579.63
468.045	1653.53
468.417	1651.27
468.789	1662.8
469.161	1672.29
469.534	1694.43
469.906	1679.97
470.278	1721.55
470.65	1742.12
471.022	1794.77
471.394	1813.53
471.766	1824.6
472.138	1817.14
472.51	1871.15
472.882	1835.9
473.253	1921.32
473.625	1922.45
473.997	1969.68
474.369	1978.95
474.74	1999.28
475.112	2030.7
475.484	2064.14
475.855	2058.94
476.227	2123.12
476.598	2156.79
476.97	2141.65
477.341	2195.66
477.713	2259.84
478.084	2212.16
478.455	2309.33
478.827	2330.8
479.198	2374.87
479.569	2384.58
479.94	2469.55
480.311	2488.99
480.682	2508.42
481.053	2566.95
481.424	2605.6
481.795	2629.55
482.166	2641.53
482.537	2712.26
482.908	2778.47
483.279	2770.79
483.65	2798.58
484.021	2879.71
484.391	2856.89
484.762	2921.75
485.133	2959.71
485.503	2986.6
485.874	3052.36
486.244	3080.39
486.615	3119.48
486.985	3130.55
487.356	3193.38
487.726	3269.08
488.097	3312.24
488.467	3290.78
488.837	3384.56
489.207	3433.14
489.578	3437.44
489.948	3446.93
490.318	3524.22
490.688	3557.21
491.058	3599.92
491.428	3619.13
491.798	3634.04
492.168	3740.71
492.538	3743.64
492.908	3801.5
493.278	3889.4
493.648	3869.97
494.017	3931.89
494.387	3931.89
494.757	3973.47
495.126	4031.32
495.496	4056.63
495.866	4050.3
496.235	4109.06
496.605	4110.64
496.974	4164.42
497.344	4154.48
497.713	4252.11
498.082	4250.07
498.452	4260.24
498.821	4303.4
499.19	4295.04
499.559	4324.65
499.928	4386.57
500.298	4399.45
500.667	4431.99
501.036	4455.04
501.405	4495.04
501.774	4520.12
502.143	4551.76
502.512	4547.47
502.88	4612.55
503.249	4643.73
503.618	4637.41
503.987	4696.61
504.356	4704.3
504.724	4746.56
505.093	4767.8
505.462	4752.88
505.83	4809.15
506.199	4853.67
506.567	4885.99
506.936	4922.82
507.304	4977.06
507.672	4993.78
508.041	5000.33
508.409	5032.42
508.777	5044.85
509.145	5128.47
509.514	5130.27
509.882	5150.39
510.25	5185.19
510.618	5286.88
510.986	5224.28
511.354	5298.86
511.722	5402.13
512.09	5381.79
512.458	5389.02
512.826	5475.58
513.193	5501.34
513.561	5487.33
513.929	5541.56
514.297	5546.76
514.664	5590.83
515.032	5619.3
515.4	5711.28
515.767	5731.84
516.135	5690.26
516.502	5710.15
516.869	5811.16
517.237	5847.54
517.604	5915.34
517.972	5967.77
518.339	5996.69
518.706	6006.18
519.073	6006.64
519.44	6043.25
519.808	6102.23
520.175	6158.04
520.542	6191.04
520.909	6259.28
521.276	6289.11
521.643	6358.72
522.009	6358.94
522.376	6465.83
522.743	6518.49
523.11	6556
523.477	6552.84
523.843	6625.6
524.21	6685.71
524.577	6709.89
524.943	6799.38
525.31	6814.98
525.676	6867.4
526.043	6893.84
526.409	6969.1
526.776	7038.25
527.142	7011.58
527.508	7084.8
527.874	7158.24
528.241	7216.77
528.607	7194.18
528.973	7300.61
529.339	7277.34
529.705	7299.94
530.071	7415.41
530.437	7419.71
530.803	7463.32
531.169	7474.39
531.535	7532.02
531.901	7586.93
532.267	7608.18
532.632	7698.34
532.998	7687.95
533.364	7705.8
533.73	7763.43
534.095	7876.19
534.461	7891.11
534.826	7901.95
535.192	7932.01
535.557	7976.08
535.923	8029.63
536.288	8094.94
536.653	8002.29
537.019	8095.39
537.384	8059.69
537.749	8165.45
538.114	8163.19
538.479	8164.09
538.845	8247.93
539.21	8265.11
539.575	8270.53
539.94	8286.35
540.305	8358.89
540.67	8362.51
541.034	8406.12
541.399	8399.57
541.764	8446.12
542.129	8439.57
542.494	8484.54
542.858	8520.47
543.223	8637.08
543.587	8655.83
543.952	8562.95
544.316	8700.35
544.681	8629.62
545.045	8704.42
545.41	8724.53
545.774	8765.21
546.138	8762.04
546.503	8823.06
546.867	8858.99
547.231	8927.24
547.595	8893.79
547.959	8911.19
548.324	8922.27
548.688	8973.79
549.052	9020.57
549.416	9016.95
549.779	9030.96
550.143	9120.45
550.507	9195.48
550.871	9122.03
551.235	9204.52
551.599	9224.4
551.962	9286.32
552.326	9299.88
552.689	9329.71
553.053	9327
553.417	9380.56
553.78	9599.54
554.143	9423.04
554.507	9520.44
554.87	9574.9
555.234	9685.18
555.597	9600.21
555.96	9660.78
556.323	9725.63
556.686	9706.2
557.05	9826.87
557.413	9785.52
557.776	9830.72
558.139	9898.74
558.502	9927.66
558.865	9928.79
559.228	9987.77
559.59	10068.22
559.953	10052.18
560.316	10187.54
560.679	10140.54
561.041	10232.74
561.404	10261.44
561.767	10396.35
562.129	10365.39
562.492	10406.07
562.854	10466.63
563.217	10441.55
563.579	10491.94
563.941	10504.82
564.304	10587.31
564.666	10627.53
565.028	10632.95
565.39	10734.65
565.753	10760.86
566.115	10785.04
566.477	10843.12
566.839	10889.45
567.201	11005.6
567.563	10987.97
567.925	11056.67
568.287	11014.19
568.648	11060.29
569.01	11122.43
569.372	11191.58
569.734	11168.31
570.095	11210.57
570.457	11340.51
570.819	11353.39
571.18	11310.45
571.542	11382.54
571.903	11385.03
572.265	11474.06
572.626	11444.01
572.987	11535.08
573.349	11581.86
573.71	11619.37
574.071	11588.86
574.432	11691.68
574.794	11692.81
575.155	11685.36
575.516	11660.72
575.877	11778.46
576.238	11843.54
576.599	11909.08
576.96	11839.7
577.32	11786.37
577.681	11882.41
578.042	11872.47
578.403	11859.14
578.763	11858.23
579.124	11984.11
579.485	12004.44
579.845	12009.87
580.206	12012.13
580.566	11972.81
580.927	12068.62
581.287	12079.24
581.648	12014.39
582.008	12086.25
582.368	12074.05
582.728	12131.67
583.089	12099.13
583.449	12148.85
583.809	12096.87
584.169	12145.46
584.529	12086.93
584.889	12177.77
585.249	12146.14
585.609	12126.93
585.969	12160.6
586.329	12108.4
586.688	12141.16
587.048	12155.4
587.408	12144.78
587.768	12156.53
588.127	12115.18
588.487	12127.38
588.846	12309.52
589.206	12220.71
589.565	12168.06
589.925	12217.77
590.284	12088.74
590.643	12159.24
591.003	12229.75
591.362	12248.28
591.721	12214.16
592.08	12161.5
592.44	12283.76
592.799	12289.63
593.158	12186.36
593.517	12236.98
593.876	12252.57
594.235	12186.36
594.593	12229.75
594.952	12241.95
595.311	12220.26
595.67	12256.64
596.029	12253.93
596.387	12298
596.746	12270.88
597.104	12302.52
597.463	12297.32
597.822	12328.05
598.18	12354.72
598.538	12302.06
598.897	12393.36
599.255	12329.86
599.613	12417.31
599.972	12406.69
600.33	12361.27
600.688	12437.43
601.046	12425.68
601.404	12416.86
601.762	12433.81
602.12	12480.36
602.478	12518.33
602.836	12464.32
603.194	12395.85
603.552	12445.34
603.91	12468.84
604.268	12505.67
604.625	12540.25
604.983	12546.12
605.341	12560.14
605.698	12564.2
606.056	12631.55
606.413	12489.63
606.771	12618.44
607.128	12594.71
607.485	12579.34
607.843	12647.37
608.2	12660.92
608.557	12739.11
608.914	12662.96
609.272	12741.6
609.629	12744.31
609.986	12766.01
610.343	12672.68
610.7	12795.61
611.057	12744.31
611.414	12703.86
611.771	12799.9
612.127	12817.08
612.484	12797.19
612.841	12825.21
613.198	12886
613.554	12806.23
613.911	12930.07
614.267	12954.02
614.624	12950.41
614.98	12943.4
615.337	13037.86
615.693	12998.77
616.05	12988.6
616.406	13025.21
616.762	13017.98
617.118	13033.34
617.475	13017.07
617.831	13057.07
618.187	12993.12
618.543	13044.19
618.899	13100.91
619.255	13048.03
619.611	13087.13
619.967	13071.53
620.323	13125.54
620.678	13169.61
621.034	13040.58
621.39	13070.18
621.746	13055.26
622.101	13122.83
622.457	13093.68
622.812	13077.18
623.168	13106.11
623.523	13106.79
623.879	13114.92
624.234	13102.27
624.589	13135.94
624.945	13114.47
625.3	13176.84
625.655	13191.98
626.01	13107.24
626.365	13072.89
626.72	13095.49
627.075	13170.29
627.43	13159.22
627.785	13125.77
628.14	13049.16
628.495	13194.24
628.85	13126
629.205	13072.66
629.559	13108.6
629.914	13070.63
630.269	13041.25
630.623	13001.25
630.978	13035.83
631.332	13014.59
631.687	13027.92
632.041	13055.49
632.396	13008.94
632.75	12952.67
633.104	13031.76
633.459	12960.8
633.813	12883.97
634.167	12955.83
634.521	12909.05
634.875	12949.28
635.229	12894.82
635.583	12814.82
635.937	12826.57
636.291	12857.98
636.645	12802.39
636.999	12860.01
637.352	12810.07
637.706	12697.08
638.06	12724.65
638.413	12735.95
638.767	12739.34
639.121	12676.07
639.474	12692.79
639.828	12726.01
640.181	12731.88
640.534	12680.81
640.888	12641.94
641.241	12623.86
641.594	12571.21
641.947	12728.94
642.301	12577.31
642.654	12598.1
643.007	12557.2
643.36	12626.57
643.713	12609.85
644.066	12603.52
644.419	12536.18
644.771	12384.1
645.124	12334.83
645.477	12279.24
645.83	12235.62
646.182	12103.88
646.535	12060.26
646.888	12084.67
647.24	12079.7
647.593	12086.93
647.945	12076.08
648.298	12023.2
648.65	12077.21
649.002	11924.45
649.355	11986.59
649.707	11985.69
650.059	12012.58
650.411	12183.2
650.763	12187.49
651.115	12278.34
651.467	12291.44
651.819	12269.07
652.171	12317.2
652.523	12247.38
652.875	12246.47
653.227	12172.8
653.578	12368.5
653.93	12247.6
654.282	12207.6
654.633	12105.23
654.985	12132.58
655.337	12129.19
655.688	12187.49
656.039	12186.59
656.391	12124.89
656.742	12128.06
657.094	12057.32
657.445	12100.94
657.796	12153.59
658.147	12100.71
658.498	12029.53
658.849	12135.51
659.2	12123.54
659.551	11999.25
659.902	12018.46
660.253	12043.99
660.604	12037.89
660.955	12033.6
661.306	11986.82
661.656	12052.58
662.007	12041.51
662.358	12019.59
662.708	11981.62
663.059	12043.54
663.409	11919.47
663.76	11950.43
664.11	11958.57
664.461	11948.17
664.811	12039.25
665.161	11874.28
665.511	11809.87
665.862	11895.97
666.212	11895.07
666.562	11924.45
666.912	11992.47
667.262	11920.83
667.612	11890.1
667.962	11936.2
668.312	11925.12
668.662	11882.64
669.011	11889.42
669.361	11874.96
669.711	11879.93
670.06	11845.13
670.41	11872.47
670.76	11790.89
671.109	11846.03
671.459	11923.09
671.808	11804.22
672.157	11833.38
672.507	11789.08
672.856	11665.7
673.205	11744.56
673.554	11824.11
673.904	11735.07
674.253	11813.04
674.602	11776.43
674.951	11662.31
675.3	11489.2
675.649	11724.9
675.998	11719.03
676.346	11694.17
676.695	11778.24
677.044	11646.49
677.393	11684
677.741	11695.3
678.09	11719.48
678.438	11589.54
678.787	11659.59
679.135	11695.75
679.484	11590.22
679.832	11646.04
680.181	11520.16
680.529	11510.67
680.877	11535.98
681.225	11507.51
681.573	11630.89
681.922	11541.41
682.27	11427.06
682.618	11537.11
682.966	11450.56
683.314	11463.44
683.661	11479.94
684.009	11342.09
684.357	11284.46
684.705	11315.42
685.053	11369.21
685.4	11379.15
685.748	11205.6
686.095	11253.73
686.443	11258.7
686.79	11208.31
687.138	11211.47
687.485	11250.11
687.832	11247.63
688.18	11137.57
688.527	11160.85
688.874	11079.72
689.221	11093.73
689.568	11010.57
689.915	11033.62
690.262	10991.82
690.609	11011.93
690.956	10988.2
691.303	10936.22
691.65	10910.69
691.997	10891.25
692.344	10875.43
692.69	10812.16
693.037	10801.99
693.383	10718.15
693.73	10693.52
694.077	10748.21
694.423	10732.16
694.769	10630.24
695.116	10663.91
695.462	10613.29
695.808	10500.53
696.155	10560.64
696.501	10506.4
696.847	10495.78
697.193	10463.92
697.539	10541.43
697.885	10413.3
698.231	10416.69
698.577	10467.08
698.923	10273.87
699.269	10353.41
699.614	10294.43
699.96	10310.25
700.306	10283.81
700.651	10282.68
700.997	10183.48
701.342	10187.77
701.688	10132.4
702.033	10108.45
702.379	10081.33
702.724	10046.76
703.069	10025.29
703.415	9945.29
703.76	10094.21
704.105	10007.43
704.45	10026.42
704.795	9929.92
705.14	9932.86
705.485	9885.86
705.83	9851.51
706.175	9826.2
706.52	9749.81
706.865	9775.35
707.209	9819.19
707.554	9726.31
707.899	9689.48
708.243	9723.83
708.588	9723.6
708.932	9577.62
709.277	9628.24
709.621	9545.75
709.966	9549.59
710.31	9526.54
710.654	9464.85
710.998	9591.85
711.342	9592.76
711.687	9518.86
712.031	9537.39
712.375	9440.67
712.719	9426.88
713.063	9405.64
713.407	9435.25
713.75	9374.91
714.094	9393.44
714.438	9390.95
714.782	9338.98
715.125	9256.95
715.469	9344.63
715.812	9291.3
716.156	9222.14
716.499	9218.3
716.843	9291.52
717.186	9239.09
717.53	9215.37
717.873	9247
718.216	9227.12
718.559	9209.26
718.902	9089.04
719.246	9122.94
719.589	9104.86
719.932	9001.81
720.275	9034.8
720.617	9088.14
720.96	9023.28
721.303	8967.69
721.646	8993.9
721.989	8976.28
722.331	9008.14
722.674	8955.48
723.016	8948.93
723.359	8976.05
723.701	8969.04
724.044	8915.94
724.386	8845.88
724.729	8892.89
725.071	8891.98
725.413	8856.73
725.755	8908.71
726.097	8802.95
726.439	8810.18
726.782	8783.06
727.124	8800.46
727.465	8748.94
727.807	8781.93
728.149	8753.46
728.491	8698.09
728.833	8707.13
729.175	8672.33
729.516	8633.23
729.858	8627.13
730.199	8655.83
730.541	8627.58
730.882	8605.66
731.224	8649.96
731.565	8560.02
731.906	8579.9
732.248	8567.92
732.589	8524.31
732.93	8505.33
733.271	8509.85
733.612	8536.51
733.953	8557.3
734.294	8468.27
734.635	8510.07
734.976	8481.15
735.317	8427.82
735.658	8395.5
735.999	8391.21
736.339	8434.59
736.68	8409.28
737.021	8446.8
737.361	8360.25
737.702	8359.57
738.042	8372.68
738.383	8306.24
738.723	8342.62
739.063	8324.32
739.404	8301.49
739.744	8293.58
740.084	8285.22
740.424	8262.62
740.764	8272.79
741.104	8296.07
741.444	8216.07
741.784	8170.87
742.124	8241.15
742.464	8187.82
742.804	8128.61
743.143	8158.44
743.483	8137.43
743.823	8110.31
744.162	8109.18
744.502	8120.7
744.841	8098.33
745.181	8084.55
745.52	7998.67
745.86	8138.11
746.199	8054.94
746.538	8073.7
746.877	8017.88
747.216	8076.19
747.556	7973.14
747.895	7948.51
748.234	7946.7
748.573	7972.01
748.911	7978.34
749.25	7989.86
749.589	7908.96
749.928	7872.8
750.267	7949.18
750.605	7890.2
750.944	7868.73
751.283	7918.9
751.621	7815.18
751.96	7802.07
752.298	7823.54
752.636	7852.46
752.975	7809.3
753.313	7751.9
753.651	7740.83
753.989	7718.46
754.327	7697.66
754.666	7619.93
755.004	7765.23
755.342	7691.11
755.679	7675.29
756.017	7583.54
756.355	7698.12
756.693	7579.93
757.031	7569.98
757.368	7527.95
757.706	7566.14
758.044	7510.33
758.381	7473.04
758.719	7489.76
759.056	7525.92
759.394	7412.7
759.731	7447.73
760.068	7415.41
760.405	7349.2
760.743	7400.5
761.08	7348.75
761.417	7320.73
761.754	7312.14
762.091	7296.55
762.428	7285.25
762.765	7204.8
763.102	7250.9
763.438	7196.44
763.775	7198.02
764.112	7208.64
764.449	7159.83
764.785	7131.13
765.122	7028.08
765.458	7073.05
765.795	7138.36
766.131	7040.96
766.467	7046.16
766.804	6964.8
767.14	6979.49
767.476	6906.95
767.812	6931.36
768.148	6969.77
768.485	6867.18
768.821	6814.07
769.157	6867.63
769.492	6820.17
769.828	6819.27
770.164	6779.5
770.5	6781.08
770.836	6776.33
771.171	6704.24
771.507	6697.24
771.842	6626.05
772.178	6673.51
772.513	6652.49
772.849	6594.42
773.184	6557.81
773.519	6533.63
773.855	6532.72
774.19	6499.05
774.525	6468.32
774.86	6458.38
775.195	6461.54
775.53	6465.83
775.865	6363.46
776.2	6373.18
776.535	6357.14
776.87	6317.36
777.205	6301.77
777.539	6307.42
777.874	6305.39
778.209	6206.18
778.543	6233.52
778.878	6181.09
779.212	6212.28
779.547	6144.71
779.881	6177.7
780.215	6139.29
780.55	6118.05
780.884	6105.39
781.218	6016.13
781.552	6040.76
781.886	6022.45
782.22	6001.21
782.554	5918.28
782.888	5869.69
783.222	5885.74
783.556	5877.83
783.889	5911.27
784.223	5897.49
784.557	5856.36
784.89	5872.18
785.224	5833.53
785.557	5771.61
785.891	5761.67
786.224	5740.65
786.558	5777.49
786.891	5637.83
787.224	5683.03
787.557	5688.9
787.891	5666.08
788.224	5652.07
788.557	5630.6
788.89	5624.95
789.223	5627.89
789.556	5556.7
789.888	5515.58
790.221	5530.94
790.554	5500.43
790.887	5484.16
791.219	5468.57
791.552	5485.75
791.884	5452.53
792.217	5431.28
792.549	5384.73
792.882	5378.4
793.214	5340.44
793.546	5360.33
793.879	5341.57
794.211	5296.82
794.543	5318.29
794.875	5298.63
795.207	5321.46
795.539	5250.05
795.871	5257.5
796.203	5196.04
796.535	5188.58
796.867	5193.1
797.198	5188.8
797.53	5165.53
797.862	5113.1
798.193	5163.72
798.525	5101.57
798.856	5134.79
799.188	5019.77
799.519	5099.99
799.85	4998.3
800.182	5046.89
800.513	5005.76
800.844	4946.55
801.175	5020.9
801.506	4994.69
801.837	4994.01
802.168	4976.83
802.499	4919.66
802.83	4937.51
803.161	4855.25
803.491	4935.48
803.822	4921.69
804.153	4883.05
804.483	4829.49
804.814	4810.51
805.145	4808.7
805.475	4836.5
805.805	4805.76
806.136	4826.78
806.466	4787.23
806.796	4767.35
807.126	4708.82
807.457	4775.26
807.787	4764.63
808.117	4732.09
808.447	4715.82
808.777	4675.15
809.107	4715.6
809.436	4670.63
809.766	4672.21
810.096	4652.77
810.426	4609.84
810.755	4641.02
811.085	4634.69
811.414	4607.8
811.744	4582.04
812.073	4530.74
812.403	4547.69
812.732	4573.91
813.061	4550.4
813.39	4482.38
813.719	4516.28
814.049	4527.13
814.378	4509.05
814.707	4493.46
815.036	4444.87
815.365	4483.96
815.693	4421.59
816.022	4414.14
816.351	4399.9
816.68	4438.99
817.008	4409.84
817.337	4409.62
817.665	4346.57
817.994	4413.68
818.322	4363.06
818.651	4347.47
818.979	4376.4
819.307	4340.46
819.636	4363.97
819.964	4362.16
820.292	4336.17
820.62	4369.16
820.948	4323.52
821.276	4297.75
821.604	4248.72
821.932	4314.02
822.259	4309.28
822.587	4269.73
822.915	4275.38
823.243	4283.97
823.57	4280.81
823.898	4299.11
824.225	4277.87
824.553	4306.34
824.88	4278.32
825.207	4304.99
825.535	4286.23
825.862	4281.71
826.189	4293.69
826.516	4291.65
826.843	4289.62
827.17	4286.46
827.497	4300.92
827.824	4286.91
828.151	4294.59
828.478	4305.66
828.805	4276.51
829.131	4312.9
829.458	4254.82
829.785	4266.12
830.111	4310.41
830.438	4256.85
830.764	4259.34
831.09	4324.42
831.417	4264.76
831.743	4272.44
832.069	4252.33
832.395	4246.91
832.722	4286.46
833.048	4220.47
833.374	4236.51
833.7	4240.58
834.026	4237.64
834.351	4234.71
834.677	4227.25
835.003	4207.59
835.329	4231.99
835.654	4215.04
835.98	4202.62
836.306	4187.93
836.631	4173.46
836.956	4235.16
837.282	4198.32
837.607	4189.28
837.932	4151.09
838.258	4180.02
838.583	4165.33
838.908	4142.05
839.233	4186.57
839.558	4133.69
839.883	4103.18
840.208	4130.53
840.533	4113.13
840.858	4117.42
841.182	4166.91
841.507	4128.49
841.832	4063.64
842.156	4111.09
842.481	4049.4
842.805	4082.84
843.13	4091.88
843.454	4077.65
843.778	4060.7
844.103	4040.36
844.427	4033.13
844.751	4028.16
845.075	4005.11
845.399	3997.2
845.723	3937.31
846.047	4006.46
846.371	3981.83
846.695	3970.76
847.019	3930.98
847.343	3920.59
847.666	3937.09
847.99	3879.69
848.313	3875.62
848.637	3884.43
848.96	3850.99
849.284	3833.13
849.607	3831.1
849.931	3797.43
850.254	3777.09
850.577	3757.66
850.9	3715.4
851.223	3727.15
851.546	3728.73
851.869	3748.84
852.192	3766.02
852.515	3676.75
852.838	3687.37
853.161	3690.09
853.483	3652.12
853.806	3605.57
854.129	3645.79
854.451	3620.26
854.774	3555.17
855.096	3616.64
855.419	3589.52
855.741	3603.08
856.063	3554.72
856.385	3574.38
856.708	3576.19
857.03	3553.82
857.352	3563.54
857.674	3511.33
857.996	3513.59
858.318	3500.04
858.64	3496.19
858.961	3490.77
859.283	3463.65
859.605	3477.21
859.926	3451.45
860.248	3469.53
860.57	3451.22
860.891	3490.32
861.212	3415.74
861.534	3430.88
861.855	3395.63
862.176	3421.39
862.498	3390.43
862.819	3432.47
863.14	3363.32
863.461	3399.25
863.782	3391.56
864.103	3409.87
864.424	3368.74
864.745	3367.16
865.065	3371
865.386	3331
865.707	3336.88
866.027	3380.72
866.348	3316.99
866.668	3328.51
866.989	3323.09
867.309	3292.81
867.63	3314.28
867.95	3317.67
868.27	3304.11
868.59	3295.97
868.91	3274.05
869.23	3301.62
869.55	3261.4
869.87	3265.46
870.19	3257.78
870.51	3284
870.83	3218.91
871.15	3254.39
871.469	3254.17
871.789	3245.35
872.109	3229.53
872.428	3249.65
872.748	3234.05
873.067	3266.82
873.386	3232.25
873.706	3218.01
874.025	3205.81
874.344	3181.85
874.663	3200.83
874.982	3206.48
875.301	3168.07
875.62	3201.74
875.939	3219.36
876.258	3150.67
876.577	3171.46
876.896	3154.51
877.214	3155.41
877.533	3167.61
877.852	3127.84
878.17	3151.12
878.489	3151.34
878.807	3137.11
879.125	3129.65
879.444	3105.7
879.762	3138.24
880.08	3168.74
880.398	3121.74
880.716	3120.38
881.034	3096.66
881.352	3097.33
881.67	3103.44
881.988	3096.88
882.306	3103.66
882.624	3107.96
882.941	3090.55
883.259	3047.17
883.577	3082.64
883.894	3082.87
884.212	3055.3
884.529	3045.36
884.846	3041.97
885.164	3025.92
885.481	2985.92
885.798	3006.49
886.115	2965.36
886.432	2984.57
886.75	3001.52
887.067	2995.64
887.383	2981.63
887.7	3006.04
888.017	2931.91
888.334	2964.68
888.651	2952.25
888.967	2949.54
889.284	2917.68
889.6	2937.11
889.917	2895.53
890.233	2929.43
890.55	2893.27
890.866	2913.16
891.182	2909.09
891.498	2906.15
891.815	2867.74
892.131	2900.05
892.447	2883.1
892.763	2861.41
893.079	2879.26
893.395	2818.25
893.71	2830.45
894.026	2829.09
894.342	2835.65
894.657	2809.66
894.973	2815.99
895.289	2799.04
895.604	2793.84
895.92	2762.2
896.235	2768.08
896.55	2751.58
896.865	2766.04
897.181	2735.99
897.496	2744.57
897.811	2751.81
898.126	2689.89
898.441	2710.45
898.756	2712.71
899.071	2692.15
899.386	2707.51
899.7	2712.49
900.015	2666.84
900.33	2625.48
900.644	2681.07
900.959	2662.32
901.273	2609.21
901.588	2633.84
901.902	2614.86
902.216	2627.52
902.531	2617.12
902.845	2608.53
903.159	2594.75
903.473	2613.28
903.787	2562.21
904.101	2565.14
904.415	2570.79
904.729	2557.24
905.042	2518.59
905.356	2529.21
905.67	2499.84
905.984	2546.61
906.297	2510.68
906.611	2499.84
906.924	2492.83
907.237	2499.38
907.551	2482.21
907.864	2490.12
908.177	2512.72
908.491	2460.06
908.804	2485.6
909.117	2437.46
909.43	2414.64
909.743	2446.73
910.056	2395.88
910.368	2404.02
910.681	2427.07
910.994	2400.85
911.307	2407.86
911.619	2373.51
911.932	2357.69
912.244	2371.7
912.557	2350.91
912.869	2347.75
913.181	2332.83
913.494	2326.05
913.806	2346.39
914.118	2334.19
914.43	2252.38
914.742	2280.86
915.054	2289.67
915.366	2246.06
915.678	2250.12
915.99	2231.82
916.302	2233.63
916.613	2225.72
916.925	2226.62
917.236	2213.74
917.548	2211.03
917.859	2205.38
918.171	2218.26
918.482	2236.79
918.794	2214.19
919.105	2189.56
919.416	2170.58
919.727	2172.84
920.038	2154.76
920.349	2152.95
920.66	2159.73
920.971	2122.67
921.282	2128.09
921.593	2124.03
921.903	2126.51
922.214	2114.08
922.525	2070.24
922.835	2097.81
923.146	2040.19
923.456	2061.65
923.767	2079.06
924.077	2091.03
924.387	2051.03
924.697	2076.12
925.008	2051.26
925.318	2028.66
925.628	2031.6
925.938	2009
926.248	1995.44
926.558	2008.1
926.867	2006.06
927.177	1993.41
927.487	1969
927.796	1945.5
928.106	1960.41
928.416	1972.62
928.725	1954.76
929.034	1950.47
929.344	1949.57
929.653	1910.02
929.962	1912.28
930.271	1922.45
930.581	1875.67
930.89	1870.7
931.199	1893.3
931.508	1887.87
931.817	1864.15
932.125	1872.51
932.434	1883.35
932.743	1841.32
933.051	1830.47
933.36	1854.65
933.669	1827.76
933.977	1817.82
934.286	1809.68
934.594	1810.81
934.902	1773.75
935.21	1809.46
935.519	1804.26
935.827	1780.08
936.135	1767.88
936.443	1781.44
936.751	1776.69
937.059	1766.07
937.367	1790.02
937.674	1743.47
937.982	1755.45
938.29	1732.17
938.597	1725.62
938.905	1723.13
939.213	1723.58
939.52	1675.9
939.827	1710.93
940.135	1714.77
940.442	1697.37
940.749	1686.98
941.056	1708.9
941.363	1680.87
941.67	1682.23
941.977	1672.29
942.284	1663.7
942.591	1620.99
942.898	1666.64
943.205	1607.66
943.511	1627.09
943.818	1645.39
944.125	1644.49
944.431	1620.31
944.738	1599.52
945.044	1624.15
945.35	1585.51
945.657	1573.76
945.963	1568.11
946.269	1590.25
946.575	1587.54
946.881	1541.22
947.187	1553.87
947.493	1555
947.799	1566.3
948.105	1551.16
948.41	1541.22
948.716	1544.15
949.022	1520.65
949.327	1549.8
949.633	1487.43
949.938	1513.87
950.244	1503.7
950.549	1495.79
950.854	1494.21
951.16	1478.62
951.465	1500.99
951.77	1472.74
952.075	1478.17
952.38	1459.18
952.685	1465.51
952.99	1434.55
953.294	1450.37
953.599	1447.66
953.904	1429.13
954.209	1457.83
954.513	1424.61
954.818	1407.21
955.122	1396.14
955.426	1406.76
955.731	1409.24
956.035	1392.75
956.339	1415.12
956.643	1390.94
956.948	1411.73
957.252	1376.7
957.556	1395.68
957.86	1359.53
958.163	1392.07
958.467	1389.81
958.771	1371.5
959.075	1371.28
959.378	1376.02
959.682	1360.88
959.985	1351.39
960.289	1314.33
960.592	1354.78
960.896	1341.9
961.199	1319.08
961.502	1317.95
961.805	1338.28
962.108	1291.28
962.411	1293.54
962.714	1310.26
963.017	1303.48
963.32	1301.22
963.623	1303.71
963.926	1277.95
964.228	1281.34
964.531	1282.24
964.833	1294.67
965.136	1250.38
965.438	1265.52
965.741	1270.26
966.043	1247.44
966.345	1272.75
966.648	1244.5
966.95	1217.16
967.252	1236.59
967.554	1216.93
967.856	1242.02
968.158	1202.24
968.46	1222.35
968.761	1227.55
969.063	1193.88
969.365	1190.27
969.666	1206.08
969.968	1196.59
970.269	1202.24
970.571	1207.21
970.872	1150.04
971.174	1179.19
971.475	1177.61
971.776	1171.06
972.077	1187.1
972.378	1158.63
972.679	1177.84
972.98	1141
973.281	1155.01
973.582	1168.57
973.883	1156.82
974.183	1150.04
974.484	1136.48
974.785	1133.32
975.085	1134.22
975.386	1167.67
975.686	1119.98
975.986	1090.83
976.287	1152.98
976.587	1122.92
976.887	1124.05
977.187	1112.3
977.487	1103.49
977.787	1075.01
978.087	1075.24
978.387	1071.62
978.687	1093.77
978.987	1049.25
979.286	1066.88
979.586	1107.1
979.885	1074.11
980.185	1080.66
980.484	1036.6
980.784	1095.35
981.083	1070.95
981.382	1070.49
981.682	1053.32
981.981	1025.75
982.28	1040.89
982.579	1051.51
982.878	1029.59
983.177	1033.66
983.475	1025.07
983.774	1049.7
984.073	1020.33
984.372	1035.02
984.67	1013.55
984.969	1005.64
985.267	1006.99
985.566	1002.93
985.864	1028.69
986.162	996.6
986.461	995.47
986.759	987.56
987.057	991.4
987.355	985.52
987.653	979.88
987.951	988.69
988.249	974.23
988.547	968.35
988.844	975.36
989.142	970.61
989.44	969.03
989.737	968.8
990.035	943.27
990.332	965.86
990.63	915.24
990.927	919.54
991.224	929.93
991.521	918.86
991.819	946.2
992.116	931.06
992.413	944.4
992.71	918.18
993.006	919.76
993.303	917.73
993.6	912.98
993.897	914.57
994.193	905.08
994.49	902.36
994.787	904.17
995.083	905.3
995.379	875.47
995.676	884.74
995.972	883.61
996.268	898.07
996.565	881.35
996.861	860.78
997.157	897.62
997.453	873.21
997.749	872.31
998.044	848.58
998.34	866.66
998.636	852.42
998.932	860.56
999.227	860.33
999.523	853.1
999.818	848.58
1000.114	845.19
1000.409	872.31
1000.704	833.66
1001	828.47
1001.295	843.16
1001.59	846.55
1001.885	850.61
1002.18	840.44
1002.475	835.47
1002.77	843.16
1003.065	820.78
1003.359	810.84
1003.654	827.79
1003.949	797.06
1004.243	802.7
1004.538	767
1004.832	798.19
1005.127	787.56
1005.421	790.95
1005.715	801.57
1006.009	806.77
1006.304	774.23
1006.598	793.21
1006.892	760.67
1007.186	774.91
1007.48	769.94
1007.773	765.64
1008.067	764.29
1008.361	740.56
1008.655	760.9
1008.948	776.94
1009.242	751.18
1009.535	742.59
1009.829	748.47
1010.122	760.9
1010.415	726.32
1010.708	741.46
1011.001	717.74
1011.295	728.13
1011.588	733.1
1011.881	712.09
1012.173	727.68
1012.466	724.06
1012.759	717.96
1013.052	718.19
1013.344	694.46
1013.637	707.34
1013.93	702.82
1014.222	680.9
1014.514	694.23
1014.807	721.58
1015.099	680.22
1015.391	693.1
1015.683	672.99
1015.976	692.43
1016.268	681.8
1016.56	689.26
1016.851	671.41
1017.143	672.99
1017.435	666.21
1017.727	678.19
1018.018	666.21
1018.31	658.98
1018.602	660.56
1018.893	661.47
1019.185	660.11
1019.476	654.23
1019.767	631.86
1020.058	646.32
1020.35	648.36
1020.641	656.04
1020.932	653.78
1021.223	637.74
1021.514	639.55
1021.804	636.83
1022.095	621.01
1022.386	631.64
1022.677	652.43
1022.967	618.53
1023.258	615.14
1023.548	629.15
1023.839	629.83
1024.129	621.69
1024.419	615.37
1024.709	598.64
1025	596.38
1025.29	614.69
1025.58	616.95
1025.87	614.91
1026.16	608.81
1026.449	602.03
1026.739	581.92
1027.029	578.98
1027.319	590.28
1027.608	578.98
1027.898	587.57
1028.187	575.37
1028.477	590.51
1028.766	588.93
1029.055	557.29
1029.344	587.57
1029.634	600.22
1029.923	564.97
1030.212	590.51
1030.501	579.89
1030.79	562.71
1031.078	555.71
1031.367	564.29
1031.656	569.04
1031.945	560.45
1032.233	581.47
1032.522	552.54
1032.81	576.04
1033.099	537.18
1033.387	547.12
1033.675	532.66
1033.963	532.43
1034.251	530.4
1034.54	517.29
1034.828	512.99
1035.116	543.05
1035.403	511.87
1035.691	523.84
1035.979	503.28
1036.267	528.59
1036.554	528.81
1036.842	519.55
1037.129	505.54
1037.417	505.99
1037.704	513.45
1037.992	515.48
1038.279	501.24
1038.566	497.4
1038.853	497.4
1039.14	497.4
