Data from black_metal_pc_casing_FLMS001491_00005.txt Node
Date: Wed Feb 08 14:31:50 GMT 2017
User: dcchb
Spectrometer: FLMS00149
Trigger mode: 0
Integration Time (sec): 2.000000E-2
Scans to average: 10
Electric dark correction enabled: true
Nonlinearity correction enabled: false
Boxcar width: 0
XAxis mode: Wavelengths
Number of Pixels in Spectrum: 2048
>>>>>Begin Spectral Data<<<<<
341.393	-2.91
341.776	-2.91
342.16	-2.91
342.543	-60.54
342.927	-67.54
343.31	-75
343.693	-77.48
344.077	-62.34
344.46	-70.93
344.843	-61.44
345.226	-68.44
345.61	-22.8
345.993	-27.54
346.376	12.68
346.759	26.24
347.142	43.64
347.525	37.77
347.908	61.5
348.291	63.53
348.674	101.95
349.057	118.67
349.44	126.58
349.823	149.18
350.206	157.76
350.588	197.99
350.971	184.66
351.354	213.81
351.737	215.84
352.119	236.63
352.502	254.71
352.884	264.43
353.267	266.01
353.65	278.66
354.032	279.57
354.414	292.9
354.797	297.65
355.179	317.53
355.562	307.59
355.944	307.59
356.326	320.47
356.709	317.76
357.091	338.1
357.473	337.42
357.855	330.64
358.238	331.54
358.62	319.79
359.002	320.02
359.384	338.32
359.766	359.34
360.148	322.96
360.53	323.18
360.912	313.01
361.294	305.78
361.676	346.69
362.057	320.92
362.439	312.56
362.821	318.44
363.203	315.5
363.584	315.05
363.966	320.25
364.348	326.8
364.729	311.66
365.111	309.4
365.493	316.63
365.874	302.17
366.256	304.88
366.637	322.96
367.019	322.28
367.4	315.27
367.781	310.98
368.163	291.77
368.544	309.4
368.925	315.27
369.306	330.64
369.688	308.27
370.069	304.2
370.45	293.58
370.831	321.38
371.212	319.79
371.593	306.46
371.974	315.73
372.355	310.53
372.736	306.91
373.117	305.78
373.498	299.68
373.879	306.23
374.26	289.29
374.641	315.05
375.021	279.34
375.402	295.39
375.783	336.74
376.163	318.44
376.544	328.83
376.925	317.31
377.305	324.77
377.686	301.49
378.066	316.18
378.447	348.72
378.827	335.39
379.208	299.23
379.588	314.82
379.968	323.41
380.349	320.7
380.729	337.87
381.109	315.5
381.489	346.69
381.87	311.43
382.25	333.35
382.63	334.71
383.01	329.96
383.39	338.32
383.77	322.96
384.15	342.62
384.53	332.9
384.91	362.96
385.29	335.84
385.67	344.43
386.049	363.18
386.429	356.86
386.809	351.66
387.189	334.93
387.568	360.47
387.948	348.04
388.328	364.09
388.707	366.35
389.087	363.86
389.466	355.95
389.846	349.62
390.225	353.24
390.605	349.62
390.984	358.21
391.363	349.4
391.743	359.34
392.122	381.04
392.501	366.57
392.881	379.68
393.26	377.19
393.639	385.55
394.018	365.44
394.397	374.03
394.776	386.23
395.155	401.83
395.534	381.26
395.913	385.1
396.292	383.3
396.671	403.41
397.05	411.32
397.429	395.95
397.808	390.07
398.186	395.95
398.565	413.35
398.944	414.03
399.323	409.96
399.701	404.31
400.08	409.73
400.458	416.06
400.837	403.18
401.215	417.64
401.594	422.84
401.972	407.7
402.351	430.07
402.729	412.67
403.107	417.42
403.486	440.92
403.864	427.14
404.242	426.01
404.62	437.98
404.999	461.94
405.377	427.59
405.755	437.08
406.133	441.37
406.511	434.37
406.889	450.41
407.267	456.51
407.645	479.56
408.023	469.17
408.401	449.96
408.779	459
409.156	471.2
409.534	472.56
409.912	497.19
410.29	475.95
410.667	460.81
411.045	466.23
411.422	502.84
411.8	481.37
412.178	491.31
412.555	486.8
412.933	496.51
413.31	510.75
413.687	531.31
414.065	513.46
414.442	519.11
414.819	535.16
415.197	528.15
415.574	537.19
415.951	537.42
416.328	523.63
416.705	529.96
417.082	537.64
417.46	520.47
417.837	563.63
418.214	527.7
418.591	512.78
418.967	556.4
419.344	560.69
419.721	543.52
420.098	550.3
420.475	575.15
420.852	567.92
421.228	572.89
421.605	556.85
421.982	605.44
422.358	587.36
422.735	580.13
423.111	580.58
423.488	602.27
423.864	611.09
424.241	612.89
424.617	611.09
424.994	612.44
425.37	630.75
425.746	619.22
426.123	637.98
426.499	619.22
426.875	622.84
427.251	632.78
427.627	654.47
428.003	657.64
428.379	648.37
428.756	668.49
429.132	661.71
429.507	663.51
429.883	694.02
430.259	672.55
430.635	710.97
431.011	703.06
431.387	698.31
431.763	700.57
432.138	684.98
432.514	717.52
432.89	751.87
433.265	745.32
433.641	754.13
434.016	743.51
434.392	747.81
434.767	750.97
435.143	754.81
435.518	788.48
435.894	779.67
436.269	773.79
436.644	767.24
437.02	808.14
437.395	800.46
437.77	800.69
438.145	821.48
438.52	820.35
438.895	823.06
439.271	814.02
439.646	823.06
440.021	865.09
440.395	835.71
440.77	850.4
441.145	853.57
441.52	887.46
441.895	850.18
442.27	882.94
442.645	877.97
443.019	868.25
443.394	872.32
443.769	880.91
444.143	904.64
444.518	903.06
444.892	894.47
445.267	904.86
445.641	917.07
446.016	917.07
446.39	920
446.764	920.23
447.139	930.85
447.513	926.33
447.887	936.5
448.262	945.99
448.636	988.02
449.01	960.23
449.384	971.53
449.758	983.28
450.132	980.57
450.506	1000.68
450.88	1006.56
451.254	993
451.628	1015.37
452.002	1031.64
452.376	1009.49
452.75	996.61
453.123	1025.54
453.497	1037.97
453.871	1053.56
454.244	1101.47
454.618	1068.25
454.992	1067.57
455.365	1077.74
455.739	1108.25
456.112	1105.08
456.486	1125.65
456.859	1131.52
457.232	1147.79
457.606	1150.05
457.979	1155.03
458.352	1169.26
458.725	1201.13
459.099	1215.14
459.472	1208.36
459.845	1214.69
460.218	1263.95
460.591	1235.02
460.964	1258.98
461.337	1271.18
461.71	1298.98
462.083	1309.82
462.456	1320.67
462.829	1309.37
463.201	1331.07
463.574	1352.08
463.947	1344.85
464.32	1395.7
464.692	1369.94
465.065	1402.25
465.438	1429.37
465.81	1438.18
466.183	1448.13
466.555	1467.33
466.928	1481.12
467.3	1462.14
467.672	1501.23
468.045	1516.82
468.417	1510.5
468.789	1556.6
469.161	1540.33
469.534	1602.25
469.906	1603.38
470.278	1639.99
470.65	1654
471.022	1632.53
471.394	1677.72
471.766	1689.25
472.138	1698.29
472.51	1761.34
472.882	1784.16
473.253	1788
473.625	1800.88
473.997	1852.18
474.369	1835.23
474.74	1903.71
475.112	1888.34
475.484	1937.15
475.855	1967.89
476.227	1991.39
476.598	2033.87
476.97	2025.51
477.341	2076.81
477.713	2112.97
478.084	2087.88
478.455	2139.86
478.827	2174.21
479.198	2221.66
479.569	2231.16
479.94	2268.9
480.311	2315.67
480.682	2322.68
481.053	2390.47
481.424	2409.23
481.795	2465.27
482.166	2486.97
482.537	2494.2
482.908	2555.67
483.279	2569.45
483.65	2634.76
484.021	2686.96
484.391	2701.88
484.762	2747.98
485.133	2768.09
485.503	2779.62
485.874	2842.89
486.244	2860.07
486.615	2942.55
486.985	2958.37
487.356	3022.32
487.726	3036.33
488.097	3115.2
488.467	3072.49
488.837	3154.52
489.207	3188.64
489.578	3225.25
489.948	3244.91
490.318	3297.79
490.688	3290.34
491.058	3344.57
491.428	3357
491.798	3401.97
492.168	3476.32
492.538	3491.91
492.908	3562.65
493.278	3553.61
493.648	3583.66
494.017	3646.03
494.387	3645.81
494.757	3696.43
495.126	3731.23
495.496	3738.69
495.866	3723.09
496.235	3785.69
496.605	3828.18
496.974	3852.36
497.344	3893.49
497.713	3919.02
498.082	3883.77
498.452	3940.04
498.821	4006.7
499.19	4002.86
499.559	4069.07
499.928	4071.33
500.298	4080.6
500.667	4122.63
501.036	4137.55
501.405	4153.59
501.774	4178
502.143	4185.45
502.512	4237.66
502.88	4256.41
503.249	4251.44
503.618	4322.85
503.987	4359.24
504.356	4420.93
504.724	4417.54
505.093	4456.86
505.462	4474.71
505.83	4515.62
506.199	4505.9
506.567	4561.72
506.936	4548.16
507.304	4628.38
507.672	4620.25
508.041	4686.01
508.409	4737.08
508.777	4740.92
509.145	4772.11
509.514	4822.27
509.882	4823.63
510.25	4838.32
510.618	4875.38
510.986	4920.35
511.354	4930.52
511.722	4955.6
512.09	5015.26
512.458	5012.33
512.826	5048.71
513.193	5097.3
513.561	5135.71
513.929	5132.1
514.297	5248.48
514.664	5283.73
515.032	5260.91
515.4	5323.73
515.767	5309.95
516.135	5345.42
516.502	5371.41
516.869	5433.11
517.237	5441.02
517.604	5441.02
517.972	5466.1
518.339	5572.09
518.706	5566.66
519.073	5647.79
519.44	5694.34
519.808	5742.02
520.175	5713.78
520.542	5808.24
520.909	5832.64
521.276	5830.61
521.643	5934.79
522.009	5985.18
522.376	5992.41
522.743	6033.09
523.11	6081.68
523.477	6147.44
523.843	6135.91
524.21	6194.67
524.577	6229.69
524.943	6292.52
525.31	6320.54
525.676	6391.27
526.043	6387.2
526.409	6480.31
526.776	6522.79
527.142	6536.35
527.508	6570.02
527.874	6586.52
528.241	6625.39
528.607	6656.12
528.973	6752.62
529.339	6805.05
529.705	6797.59
530.071	6912.61
530.437	6935.89
530.803	6961.88
531.169	6989.45
531.535	6956.23
531.901	7026.51
532.267	7056.57
532.632	7129.33
532.998	7180.18
533.364	7207.3
533.73	7249.78
534.095	7248.43
534.461	7342.43
534.826	7344.92
535.192	7372.04
535.557	7478.02
535.923	7402.32
536.288	7445.26
536.653	7478.48
537.019	7535.42
537.384	7502.43
537.749	7533.39
538.114	7582.65
538.479	7637.12
538.845	7624.46
539.21	7599.38
539.575	7741.75
539.94	7743.1
540.305	7754.17
540.67	7747.17
541.034	7801.41
541.399	7850.44
541.764	7825.13
542.129	7906.71
542.494	7878.69
542.858	7960.27
543.223	7927.28
543.587	7969.99
543.952	7949.65
544.316	8026.94
544.681	8031
545.045	8120.27
545.41	8164.56
545.774	8154.16
546.138	8107.16
546.503	8188.29
546.867	8196.65
547.231	8261.96
547.595	8238.68
547.959	8368.85
548.324	8313.26
548.688	8306.25
549.052	8388.51
549.416	8410.2
549.779	8388.73
550.143	8410.2
550.507	8448.39
550.871	8481.61
551.235	8499.47
551.599	8566.58
551.962	8587.6
552.326	8608.39
552.689	8681.38
553.053	8675.73
553.417	8710.08
553.78	8810.42
554.143	8761.38
554.507	8818.1
554.87	8802.51
555.234	8917.53
555.597	8837.54
555.96	8967.93
556.323	9000.7
556.686	8997.98
557.05	9069.85
557.413	9102.39
557.776	9130.41
558.139	9120.69
558.502	9168.83
558.865	9258.77
559.228	9304.87
559.59	9302.16
559.953	9305.32
560.316	9434.81
560.679	9402.72
561.041	9493.11
561.404	9476.39
561.767	9516.39
562.129	9591.87
562.492	9630.06
562.854	9628.48
563.217	9688.59
563.579	9712.77
563.941	9731.75
564.304	9830.28
564.666	9841.13
565.028	9924.51
565.39	9980.78
565.753	9952.76
566.115	10023.95
566.477	10044.96
566.839	10058.07
567.201	10174
567.563	10195.92
567.925	10252.87
568.287	10254.45
568.648	10324.5
569.01	10301.45
569.372	10375.8
569.734	10330.83
570.095	10459.64
570.457	10506.87
570.819	10543.48
571.18	10465.29
571.542	10562.01
571.903	10571.28
572.265	10612.4
572.626	10665.51
572.987	10685.62
573.349	10724.27
573.71	10783.93
574.071	10816.02
574.432	10841.33
574.794	10918.16
575.155	10846.3
575.516	10852.62
575.877	10944.37
576.238	10923.58
576.599	10984.82
576.96	10949.12
577.32	11019.17
577.681	11043.35
578.042	11088.1
578.403	11029.79
578.763	11059.4
579.124	11067.53
579.485	11207.42
579.845	11184.14
580.206	11193.18
580.566	11051.04
580.927	11154.54
581.287	11168.32
581.648	11102.56
582.008	11240.18
582.368	11152.73
582.728	11187.08
583.089	11253.07
583.449	11197.02
583.809	11242.22
584.169	11302.78
584.529	11255.1
584.889	11330.58
585.249	11260.52
585.609	11225.27
585.969	11237.92
586.329	11274.99
586.688	11282.67
587.048	11290.35
587.408	11231.82
587.768	11316.79
588.127	11292.84
588.487	11263.91
588.846	11410.12
589.206	11257.13
589.565	11243.12
589.925	11354.53
590.284	11281.31
590.643	11302.33
591.003	11255.1
591.362	11333.97
591.721	11334.42
592.08	11299.17
592.44	11396.56
592.799	11360.41
593.158	11388.88
593.517	11340.3
593.876	11331.26
594.235	11386.85
594.593	11444.7
594.952	11392.72
595.311	11385.27
595.67	11361.31
596.029	11440.86
596.387	11476.34
596.746	11467.52
597.104	11366.06
597.463	11371.03
597.822	11460.07
598.18	11434.08
598.538	11439.73
598.897	11488.09
599.255	11391.14
599.613	11555.43
599.972	11508.2
600.33	11485.6
600.688	11436.34
601.046	11515.43
601.404	11555.2
601.762	11497.35
602.12	11491.93
602.478	11645.82
602.836	11597.92
603.194	11484.7
603.552	11510.91
603.91	11553.4
604.268	11637.01
604.625	11587.97
604.983	11640.63
605.341	11604.24
605.698	11636.11
606.056	11626.62
606.413	11680.17
606.771	11748.87
607.128	11728.08
607.485	11652.6
607.843	11663.22
608.2	11755.65
608.557	11817.34
608.914	11775.54
609.272	11761.07
609.629	11841.52
609.986	11839.26
610.343	11788.42
610.7	11862.09
611.057	11907.06
611.414	11835.88
611.771	11816.89
612.127	11906.16
612.484	11906.83
612.841	11978.47
613.198	11846.72
613.554	11895.99
613.911	11919.71
614.267	11960.39
614.624	11985.93
614.98	11996.32
615.337	12058.47
615.693	11999.49
616.05	12014.63
616.406	12083.1
616.762	12008.53
617.118	11997
617.475	12070.9
617.831	12064.34
618.187	12014.85
618.543	12134.17
618.899	12133.04
619.255	12147.96
619.611	12027.28
619.967	12103.66
620.323	12130.33
620.678	12166.26
621.034	12047.4
621.39	12083.78
621.746	12053.95
622.101	12270.67
622.457	12143.44
622.812	12181.63
623.168	12178.24
623.523	12159.71
623.879	12186.6
624.234	12160.84
624.589	12172.36
624.945	12166.94
625.3	12190.89
625.655	12172.14
626.01	12188.86
626.365	12192.25
626.72	12096.43
627.075	12214.62
627.43	12185.24
627.785	12152.48
628.14	12126.26
628.495	12160.84
628.85	12175.3
629.205	12134.85
629.559	12238.58
629.914	12114.51
630.269	12073.84
630.623	12114.29
630.978	12081.74
631.332	12077.9
631.687	12145.7
632.041	12050.56
632.396	12095.08
632.75	12033.38
633.104	12057.34
633.459	12018.02
633.813	11988.64
634.167	11964.46
634.521	12014.85
634.875	12047.62
635.229	12042.42
635.583	11935.08
635.937	11891.47
636.291	11935.53
636.645	11879.72
636.999	11926.95
637.352	11965.36
637.706	11840.39
638.06	11901.64
638.413	11773.28
638.767	11877.46
639.121	11760.62
639.474	11749.55
639.828	11769.21
640.181	11741.19
640.534	11734.18
640.888	11689.66
641.241	11640.63
641.594	11780.96
641.947	11729.66
642.301	11639.95
642.654	11703.9
643.007	11689.89
643.36	11676.78
643.713	11631.59
644.066	11672.26
644.419	11531.25
644.771	11495.55
645.124	11409.9
645.477	11343.91
645.83	11286.06
646.182	11286.06
646.535	11214.65
646.888	11227.76
647.24	11140.75
647.593	11278.15
647.945	11259.85
648.298	11184.82
648.65	11137.81
649.002	11114.09
649.355	11213.07
649.707	11136.23
650.059	11172.39
650.411	11273.63
650.763	11313.63
651.115	11396.56
651.467	11332.61
651.819	11366.06
652.171	11347.98
652.523	11286.96
652.875	11283.12
653.227	11276.34
653.578	11303.01
653.93	11315.44
654.282	11297.81
654.633	11173.07
654.985	11290.8
655.337	11274.53
655.688	11217.36
656.039	11284.93
656.391	11101.43
656.742	11230.24
657.094	11212.61
657.445	11247.42
657.796	11216.46
658.147	11223.69
658.498	11143.01
658.849	11174.88
659.2	11176.46
659.551	11134.2
659.902	11198.15
660.253	11139.62
660.604	11178.27
660.955	11103.69
661.306	11166.51
661.656	11156.12
662.007	11155.22
662.358	11121.32
662.708	11128.55
663.059	11170.58
663.409	11051.94
663.76	11129.68
664.11	11093.97
664.461	11082.9
664.811	11116.57
665.161	11118.83
665.511	11004.26
665.862	11109.57
666.212	11133.29
666.562	11056.91
666.912	11039.51
667.262	11004.71
667.612	11072.96
667.962	11038.61
668.312	11135.33
668.662	11153.18
669.011	11041.77
669.361	10989.57
669.711	10994.09
670.06	10987.76
670.41	11097.59
670.76	11095.78
671.109	10983.02
671.459	10992.51
671.808	11015.56
672.157	10962.23
672.507	10863.02
672.856	10924.94
673.205	10918.16
673.554	10970.81
673.904	10946.63
674.253	10992.51
674.602	11025.28
674.951	10713.19
675.3	10692.85
675.649	10943.02
675.998	10870.7
676.346	10835.22
676.695	10884.26
677.044	10788.67
677.393	10877.03
677.741	10874.09
678.09	10892.4
678.438	10868.44
678.787	10827.09
679.135	10817.6
679.484	10735.34
679.832	10819.18
680.181	10752.51
680.529	10720.42
680.877	10778.73
681.225	10716.81
681.573	10815.11
681.922	10697.37
682.27	10634.55
682.618	10688.79
682.966	10652.4
683.314	10616.25
683.661	10629.58
684.009	10575.57
684.357	10616.25
684.705	10533.76
685.053	10522.01
685.4	10507.1
685.748	10492.63
686.095	10429.58
686.443	10494.67
686.79	10425.29
687.138	10402.24
687.485	10426.65
687.832	10403.82
688.18	10432.3
688.527	10298.29
688.874	10341.45
689.221	10319.08
689.568	10277.72
689.915	10232.53
690.262	10200.21
690.609	10241.79
690.956	10188.91
691.303	10154.79
691.65	10135.35
691.997	10113.21
692.344	10010.16
692.69	10038.86
693.037	10051.97
693.383	10035.47
693.73	9989.14
694.077	9943.95
694.423	9927.9
694.769	9940.33
695.116	9896.94
695.462	9861.69
695.808	9857.17
696.155	9921.58
696.501	9724.52
696.847	9769.04
697.193	9659.66
697.539	9828.47
697.885	9634.13
698.231	9606.78
698.577	9692.2
698.923	9651.98
699.269	9625.31
699.614	9583.73
699.96	9578.53
700.306	9568.36
700.651	9438.65
700.997	9440.23
701.342	9441.59
701.688	9533.34
702.033	9350.29
702.379	9395.94
702.724	9355.26
703.069	9447.24
703.415	9337.64
703.76	9344.19
704.105	9261.93
704.45	9291.54
704.795	9214.48
705.14	9173.57
705.485	9215.83
705.83	9204.31
706.175	9159.79
706.52	9113.23
706.865	9115.72
707.209	9093.57
707.554	9091.99
707.899	9072.78
708.243	9024.42
708.588	9006.35
708.932	8929.28
709.277	8974.93
709.621	8987.81
709.966	8886.57
710.31	8914.6
710.654	8857.42
710.998	8886.57
711.342	8896.29
711.687	8847.25
712.031	8736.97
712.375	8765
712.719	8762.51
713.063	8729.52
713.407	8772.9
713.75	8699.23
714.094	8657.43
714.438	8683.64
714.782	8677.99
715.125	8664.66
715.469	8683.19
715.812	8632.12
716.156	8592.12
716.499	8625.56
716.843	8617.88
717.186	8548.96
717.53	8522.06
717.873	8525.23
718.216	8538.79
718.559	8523.65
718.902	8438.45
719.246	8397.77
719.589	8423.31
719.932	8352.58
720.275	8395.06
720.617	8425.34
720.96	8386.93
721.303	8395.29
721.646	8399.58
721.989	8363.42
722.331	8355.51
722.674	8386.7
723.016	8312.13
723.359	8342.63
723.701	8303.76
724.044	8208.85
724.386	8198.91
724.729	8218.34
725.071	8285.01
725.413	8190.55
725.755	8187.16
726.097	8115.3
726.439	8148.06
726.782	8140.38
727.124	8182.86
727.465	8158.91
727.807	8139.48
728.149	8124.79
728.491	8078.01
728.833	8081.85
729.175	8066.71
729.516	8091.11
729.858	8036.43
730.199	8032.13
730.541	8017.67
730.882	8012.25
731.224	8008.63
731.565	7966.15
731.906	7939.25
732.248	7985.81
732.589	7960.27
732.93	7903.32
733.271	7969.08
733.612	7944.45
733.953	7936.54
734.294	7922.31
734.635	7863.55
734.976	7861.97
735.317	7851.57
735.658	7832.82
735.999	7843.44
736.339	7850.44
736.68	7884.34
737.021	7894.06
737.361	7768.64
737.702	7822.42
738.042	7784.46
738.383	7727.96
738.723	7740.39
739.063	7788.3
739.404	7816.09
739.744	7708.98
740.084	7727.28
740.424	7691.8
740.764	7701.07
741.104	7710.11
741.444	7705.81
741.784	7588.3
742.124	7657.23
742.464	7595.76
742.804	7639.83
743.143	7546.5
743.483	7626.04
743.823	7525.03
744.162	7606.61
744.502	7519.83
744.841	7505.37
745.181	7540.62
745.52	7509.21
745.86	7536.1
746.199	7475.76
746.538	7485.26
746.877	7501.3
747.216	7458.59
747.556	7565.93
747.895	7452.94
748.234	7410.23
748.573	7432.6
748.911	7425.37
749.25	7367.29
749.589	7364.81
749.928	7355.54
750.267	7349.89
750.605	7264.92
750.944	7325.49
751.283	7260.4
751.621	7292.49
751.96	7253.17
752.298	7262.89
752.636	7191.25
752.975	7254.75
753.313	7234.19
753.651	7287.75
753.989	7136.56
754.327	7171.37
754.666	7125.26
755.004	7080.29
755.342	7103.12
755.679	7120.74
756.017	7080.52
756.355	7113.06
756.693	7081.88
757.031	7068.77
757.368	6988.09
757.706	7001.65
758.044	7020.41
758.381	7034.19
758.719	6945.83
759.056	6953.52
759.394	6916.46
759.731	6874.65
760.068	6901.54
760.405	6866.06
760.743	6766.63
761.08	6791.04
761.417	6805.95
761.754	6774.54
762.091	6790.58
762.428	6688.89
762.765	6700.42
763.102	6683.24
763.438	6686.63
763.775	6662
764.112	6676.01
764.449	6678.72
764.785	6582.68
765.122	6636.46
765.458	6605.5
765.795	6583.36
766.131	6538.84
766.467	6458.62
766.804	6547.43
767.14	6485.51
767.476	6472.17
767.812	6444.83
768.148	6452.74
768.485	6401.44
768.821	6350.14
769.157	6374.78
769.492	6316.25
769.828	6309.47
770.164	6302.24
770.5	6269.47
770.836	6251.62
771.171	6212.29
771.507	6224.5
771.842	6155.12
772.178	6211.62
772.513	6162.8
772.849	6089.36
773.184	6071.96
773.519	6042.36
773.855	6093.88
774.19	6112.64
774.525	6038.74
774.86	6000.32
775.195	6043.71
775.53	5991.06
775.865	5955.35
776.2	5857.28
776.535	5876.26
776.87	5875.35
777.205	5867.44
777.539	5864.51
777.874	5855.92
778.209	5731.4
778.543	5780.67
778.878	5757.39
779.212	5761.46
779.547	5730.27
779.881	5739.31
780.215	5656.15
780.55	5690.73
780.884	5654.79
781.218	5633.33
781.552	5587.23
781.886	5629.71
782.22	5565.53
782.554	5568.02
782.888	5514.23
783.222	5508.36
783.556	5482.6
783.889	5424.97
784.223	5440.34
784.557	5464.07
784.89	5410.51
785.224	5410.06
785.557	5401.92
785.891	5387.68
786.224	5335.48
786.558	5337.97
786.891	5291.87
787.224	5246.44
787.557	5299.32
787.891	5230.85
788.224	5244.64
788.557	5231.76
788.89	5193.56
789.223	5160.34
789.556	5146.11
789.888	5205.99
790.221	5120.57
790.554	5093
790.887	5079.67
791.219	5095.71
791.552	5120.12
791.884	5048.48
792.217	5036.73
792.549	5045.32
792.882	5048.71
793.214	4979.56
793.546	4990.63
793.879	4938.88
794.211	4916.06
794.543	4890.75
794.875	4923.51
795.207	4874.93
795.539	4884.87
795.871	4901.82
796.203	4854.82
796.535	4847.13
796.867	4816.85
797.198	4768.04
797.53	4789.51
797.862	4750.86
798.193	4808.72
798.525	4744.31
798.856	4752.9
799.188	4700.92
799.519	4657.76
799.85	4668.61
800.182	4693.46
800.513	4655.5
800.844	4642.62
801.175	4648.95
801.506	4673.13
801.837	4633.13
802.168	4615.5
802.499	4605.1
802.83	4574.82
803.161	4538.67
803.491	4537.08
803.822	4557.87
804.153	4546.35
804.483	4447.37
804.814	4463.87
805.145	4479.91
805.475	4451.44
805.805	4472.23
806.136	4499.57
806.466	4444.43
806.796	4467.48
807.126	4408.73
807.457	4387.48
807.787	4441.49
808.117	4415.51
808.447	4394.26
808.777	4380.93
809.107	4396.3
809.436	4356.07
809.766	4384.77
810.096	4327.6
810.426	4316.75
810.755	4322.4
811.085	4333.25
811.414	4286.47
811.744	4308.84
812.073	4212.35
812.403	4269.75
812.732	4221.39
813.061	4213.48
813.39	4211.67
813.719	4211.67
814.049	4194.95
814.378	4206.47
814.707	4211.44
815.036	4182.74
815.365	4163.08
815.693	4159.92
816.022	4179.81
816.351	4108.17
816.68	4107.72
817.008	4094.61
817.337	4043.76
817.665	4052.8
817.994	4066.81
818.322	4096.87
818.651	4078.11
818.979	4064.1
819.307	4059.81
819.636	4041.5
819.964	4015.06
820.292	4032.24
820.62	4022.3
820.948	4040.37
821.276	4080.82
821.604	4009.19
821.932	4013.71
822.259	3989.98
822.587	3995.4
822.915	3979.58
823.243	4027.72
823.57	4001.05
823.898	4014.61
824.225	3967.61
824.553	3991.11
824.88	3992.47
825.207	3985.69
825.535	4039.02
825.862	4034.72
826.189	4013.93
826.516	3998.57
826.843	3976.42
827.17	4018.23
827.497	4023.43
827.824	4012.35
828.151	4001.73
828.478	4007.83
828.805	3994.95
829.131	3971
829.458	3985.91
829.785	3949.08
830.111	3964.44
830.438	3953.6
830.764	3967.61
831.09	3981.17
831.417	3935.74
831.743	3973.26
832.069	4005.35
832.395	3945.24
832.722	4005.8
833.048	3963.09
833.374	3953.14
833.7	3960.38
834.026	3943.88
834.351	3940.94
834.677	3960.6
835.003	3942.3
835.329	3912.47
835.654	3910.21
835.98	3920.6
836.306	3916.76
836.631	3914.28
836.956	3903.88
837.282	3928.74
837.607	3875.86
837.932	3890.55
838.258	3867.5
838.583	3869.53
838.908	3855.52
839.233	3888.97
839.558	3895.07
839.883	3865.69
840.208	3820.72
840.533	3829.76
840.858	3819.36
841.182	3828.85
841.507	3827.72
841.832	3805.8
842.156	3811.68
842.481	3828.18
842.805	3756.99
843.13	3780.72
843.454	3789.99
843.778	3741.85
844.103	3755.86
844.427	3780.95
844.751	3709.31
845.075	3744.79
845.399	3739.36
845.723	3679.48
846.047	3704.11
846.371	3701.85
846.695	3690.1
847.019	3624.57
847.343	3629.31
847.666	3626.37
847.99	3626.37
848.313	3582.31
848.637	3607.39
848.96	3571.46
849.284	3597.67
849.607	3585.92
849.931	3561.97
850.254	3501.63
850.577	3493.95
850.9	3469.99
851.223	3465.25
851.546	3456.21
851.869	3445.36
852.192	3445.14
852.515	3415.08
852.838	3444.01
853.161	3399.71
853.483	3397.91
853.806	3400.84
854.129	3408.75
854.451	3419.83
854.774	3373.95
855.096	3348.19
855.419	3313.39
855.741	3314.74
856.063	3337.57
856.385	3315.2
856.708	3312.26
857.03	3289.89
857.352	3329.43
857.674	3259.83
857.996	3276.55
858.318	3241.3
858.64	3241.3
858.961	3246.27
859.283	3249.43
859.605	3236.55
859.926	3262.32
860.248	3224.12
860.57	3171.02
860.891	3242.65
861.212	3182.32
861.534	3192.49
861.855	3155.43
862.176	3182.32
862.498	3208.31
862.819	3178.7
863.14	3111.58
863.461	3182.32
863.782	3160.4
864.103	3114.75
864.424	3157.23
864.745	3138.02
865.065	3155.43
865.386	3122.21
865.707	3143.45
866.027	3134.86
866.348	3123.11
866.668	3126.5
866.989	3130.57
867.309	3097.8
867.63	3058.48
867.95	3125.14
868.27	3061.87
868.59	3081.76
868.91	3090.57
869.23	3079.72
869.55	3088.31
869.87	3072.26
870.19	3064.58
870.51	3073.17
870.83	3046.95
871.15	3060.74
871.469	3030.68
871.789	3034.3
872.109	3031.81
872.428	3029.78
872.748	3043.11
873.067	3018.03
873.386	2984.36
873.706	3013.96
874.025	3007.18
874.344	2969.89
874.663	2996.79
874.982	2986.16
875.301	2974.19
875.62	2947.52
875.939	2982.32
876.258	2976.9
876.577	2974.64
876.896	2971.48
877.214	2980.97
877.533	2978.71
877.852	2974.41
878.17	2944.36
878.489	2913.85
878.807	2936
879.125	2923.34
879.444	2922.89
879.762	2942.1
880.08	2947.07
880.398	2912.27
880.716	2902.32
881.034	2898.48
881.352	2893.06
881.67	2893.51
881.988	2889.22
882.306	2888.77
882.624	2888.09
882.941	2866.17
883.259	2865.94
883.577	2857.81
883.894	2855.09
884.212	2818.49
884.529	2831.14
884.846	2830.01
885.164	2812.16
885.481	2789.33
885.798	2824.81
886.115	2811.48
886.432	2814.87
886.75	2787.98
887.067	2780.29
887.383	2807.41
887.7	2777.81
888.017	2773.97
888.334	2749.56
888.651	2793.4
888.967	2741.88
889.284	2741.88
889.6	2737.58
889.917	2769.22
890.233	2723.35
890.55	2707.75
890.866	2737.36
891.182	2724.02
891.498	2679.73
891.815	2719.73
892.131	2700.97
892.447	2685.83
892.763	2696.23
893.079	2637.47
893.395	2655.1
893.71	2711.6
894.026	2681.54
894.342	2682.22
894.657	2637.02
894.973	2650.81
895.289	2677.47
895.604	2609.9
895.92	2581.2
896.235	2596.12
896.55	2591.37
896.865	2563.35
897.181	2552.73
897.496	2566.29
897.811	2562.9
898.126	2546.63
898.441	2516.57
898.756	2548.66
899.071	2522.9
899.386	2539.85
899.7	2509.79
900.015	2515.89
900.33	2489.91
900.644	2510.24
900.959	2484.71
901.273	2488.1
901.588	2492.17
901.902	2481.32
902.216	2469.79
902.531	2448.78
902.845	2440.64
903.159	2424.37
903.473	2440.64
903.787	2404.71
904.101	2411.26
904.415	2409.68
904.729	2375.11
905.042	2356.35
905.356	2354.32
905.67	2378.04
905.984	2361.77
906.297	2354.99
906.611	2360.64
906.924	2365.84
907.237	2360.42
907.551	2340.76
907.864	2328.55
908.177	2307.31
908.491	2283.81
908.804	2269.12
909.117	2249.69
909.43	2270.7
909.743	2264.38
910.056	2250.14
910.368	2254.88
910.681	2227.54
910.994	2203.81
911.307	2209.91
911.619	2190.93
911.932	2228.9
912.244	2197.71
912.557	2215.79
912.869	2216.92
913.181	2176.92
913.494	2198.16
913.806	2151.38
914.118	2185.73
914.43	2128.33
914.742	2115.45
915.054	2107.77
915.366	2119.75
915.678	2120.42
915.99	2107.77
916.302	2093.98
916.613	2118.16
916.925	2107.54
917.236	2075.91
917.548	2074.32
917.859	2101.89
918.171	2049.01
918.482	2032.97
918.794	2034.1
919.105	2034.33
919.416	2021.22
919.727	2032.74
920.038	1991.84
920.349	2027.55
920.66	2017.15
920.971	2024.16
921.282	1986.64
921.593	1993.42
921.903	1982.12
922.214	1995
922.525	1946.64
922.835	1924.5
923.146	1958.85
923.456	1918.62
923.767	1917.49
924.077	1914.1
924.387	1913.2
924.697	1925.18
925.008	1917.49
925.318	1909.36
925.628	1905.06
925.938	1860.54
926.248	1890.15
926.558	1839.53
926.867	1879.3
927.177	1875.69
927.487	1871.84
927.796	1847.89
928.106	1848.34
928.416	1850.15
928.725	1824.61
929.034	1805.86
929.344	1830.71
929.653	1809.47
929.962	1801.11
930.271	1788.91
930.581	1754.33
930.89	1796.14
931.199	1788
931.508	1769.93
931.817	1751.17
932.125	1768.8
932.434	1761.11
932.743	1748.68
933.051	1713.2
933.36	1739.19
933.669	1719.08
933.977	1728.34
934.286	1717.27
934.594	1723.6
934.902	1691.96
935.21	1677.72
935.519	1659.87
935.827	1668.23
936.135	1660.55
936.443	1682.47
936.751	1684.28
937.059	1658.52
937.367	1637.05
937.674	1693.09
937.982	1650.15
938.29	1654
938.597	1612.42
938.905	1628.23
939.213	1617.39
939.52	1602.92
939.827	1602.25
940.135	1615.13
940.442	1568.57
940.749	1608.8
941.056	1613.32
941.363	1591.85
941.67	1584.39
941.977	1558.63
942.284	1562.47
942.591	1562.7
942.898	1546.2
943.205	1562.93
943.511	1545.07
943.818	1524.73
944.125	1528.35
944.431	1532.87
944.738	1527.45
945.044	1482.25
945.35	1497.16
945.657	1493.55
945.963	1491.51
946.269	1503.72
946.575	1474.11
946.881	1507.79
947.187	1455.81
947.493	1460.55
947.799	1485.64
948.105	1440.67
948.41	1441.8
948.716	1436.83
949.022	1435.02
949.327	1436.83
949.633	1426.21
949.938	1401.57
950.244	1432.76
950.549	1412.65
950.854	1429.82
951.16	1393.44
951.465	1417.39
951.77	1391.18
952.075	1384.4
952.38	1409.71
952.685	1390.5
952.99	1394.12
953.294	1369.94
953.599	1399.31
953.904	1362.25
954.209	1339.2
954.513	1361.8
954.818	1354.79
955.122	1327.68
955.426	1351.86
955.731	1339.43
956.035	1335.13
956.339	1308.69
956.643	1340.56
956.948	1295.81
957.252	1291.75
957.556	1316.83
957.86	1311.18
958.163	1314.57
958.467	1298.75
958.771	1302.59
959.075	1281.8
959.378	1245.42
959.682	1291.52
959.985	1271.41
960.289	1263.95
960.592	1261.69
960.896	1257.85
961.199	1251.07
961.502	1233.22
961.805	1256.27
962.108	1232.99
962.411	1220.79
962.714	1256.27
963.017	1245.87
963.32	1216.04
963.623	1229.37
963.926	1218.75
964.228	1211.97
964.531	1192.77
964.833	1205.65
965.136	1215.82
965.438	1214.01
965.741	1207
966.043	1200.9
966.345	1185.31
966.648	1180.11
966.95	1195.48
967.252	1148.92
967.554	1138.98
967.856	1171.3
968.158	1142.15
968.46	1174.91
968.761	1167.91
969.063	1140.56
969.365	1125.42
969.666	1130.17
969.968	1134.69
970.269	1123.39
970.571	1134.01
970.872	1139.89
971.174	1108.25
971.475	1133.56
971.776	1102.15
972.077	1128.13
972.378	1097.4
972.679	1120.45
972.98	1101.69
973.281	1078.19
973.582	1110.96
973.883	1114.8
974.183	1087.01
974.484	1089.49
974.785	1087.46
975.085	1098.53
975.386	1067.34
975.686	1090.85
975.986	1079.1
976.287	1069.6
976.587	1061.24
976.887	1046.55
977.187	1033
977.487	1044.75
977.787	1026.67
978.087	1049.49
978.387	1038.42
978.687	1014.69
978.987	1026.44
979.286	1031.64
979.586	1012.66
979.885	988.7
980.185	1026.89
980.484	1015.14
980.784	1021.24
981.083	996.39
981.382	1013.11
981.682	1014.92
981.981	999.78
982.28	977.86
982.579	995.26
982.878	984.86
983.177	966.56
983.475	974.01
983.774	984.86
984.073	949.38
984.372	968.59
984.67	972.43
984.969	961.36
985.267	934.01
985.566	941.92
985.864	945.54
986.162	976.05
986.461	948.03
986.759	968.82
987.057	937.18
987.355	920.68
987.653	944.41
987.951	915.03
988.249	899.44
988.547	931.3
988.844	936.95
989.142	896.05
989.44	943.73
989.737	906.22
990.035	924.3
990.332	910.74
990.63	879.55
990.927	900.8
991.224	904.19
991.521	908.25
991.819	904.19
992.116	896.95
992.413	884.98
992.71	889.95
993.006	910.51
993.303	877.07
993.6	861.47
993.897	868.03
994.193	882.72
994.49	865.54
994.787	857.41
995.083	837.07
995.379	865.77
995.676	835.94
995.972	868.93
996.268	852.89
996.565	828.71
996.861	834.81
997.157	820.8
997.453	842.94
997.749	831.87
998.044	824.19
998.34	820.12
998.636	833.45
998.932	808.82
999.227	822.38
999.523	806.79
999.818	816.05
1000.114	812.21
1000.409	799.1
1000.704	811.08
1001	814.47
1001.295	787.13
1001.59	838.42
1001.885	793.91
1002.18	793.45
1002.475	778.99
1002.77	771.31
1003.065	770.63
1003.359	768.14
1003.654	769.27
1003.949	773.12
1004.243	769.05
1004.538	769.95
1004.832	774.02
1005.127	755.04
1005.421	749.39
1005.715	738.99
1006.009	759.78
1006.304	754.36
1006.598	725.66
1006.892	733.12
1007.186	762.95
1007.48	714.59
1007.773	741.03
1008.067	731.99
1008.361	715.72
1008.655	716.39
1008.948	722.5
1009.242	743.96
1009.535	714.36
1009.829	716.85
1010.122	725.66
1010.415	707.13
1010.708	703.29
1011.001	675.49
1011.295	707.81
1011.588	697.86
1011.881	694.47
1012.173	692.21
1012.466	695.38
1012.759	681.59
1013.052	693.12
1013.344	658.09
1013.637	688.37
1013.93	668.71
1014.222	661.03
1014.514	661.93
1014.807	686.34
1015.099	680.91
1015.391	660.35
1015.683	641.14
1015.976	662.84
1016.268	688.15
1016.56	648.82
1016.851	640.92
1017.143	632.33
1017.435	654.93
1017.727	645.21
1018.018	637.75
1018.31	653.12
1018.602	633.91
1018.893	641.59
1019.185	656.96
1019.476	626.9
1019.767	627.13
1020.058	628.26
1020.35	621.03
1020.641	611.76
1020.932	597.3
1021.223	618.77
1021.514	610.63
1021.804	616.74
1022.095	606.57
1022.386	595.72
1022.677	580.13
1022.967	593.01
1023.258	568.83
1023.548	598.2
1023.839	586
1024.129	613.12
1024.419	562.73
1024.709	584.87
1025	574.02
1025.29	598.2
1025.58	589.62
1025.87	581.03
1026.16	569.5
1026.449	586
1026.739	568.6
1027.029	550.97
1027.319	554.82
1027.608	575.38
1027.898	575.15
1028.187	564.08
1028.477	567.24
1028.766	541.03
1029.055	550.97
1029.344	547.81
1029.634	548.94
1029.923	558.21
1030.212	532.22
1030.501	548.71
1030.79	539.9
1031.078	546.23
1031.367	550.3
1031.656	539
1031.945	546.23
1032.233	534.03
1032.522	519.56
1032.81	530.18
1033.099	521.37
1033.387	513.91
1033.675	510.3
1033.963	513.46
1034.251	516.85
1034.54	520.01
1034.828	513.46
1035.116	525.89
1035.403	507.59
1035.691	508.04
1035.979	503.29
1036.267	507.59
1036.554	523.18
1036.842	504.65
1037.129	512.33
1037.417	509.39
1037.704	497.87
1037.992	500.35
1038.279	482.28
1038.566	489.51
1038.853	489.51
1039.14	489.51
