Data from black_metal_pc_casing_FLMS001491_00040.txt Node
Date: Wed Feb 08 14:32:36 GMT 2017
User: dcchb
Spectrometer: FLMS00149
Trigger mode: 0
Integration Time (sec): 2.000000E-2
Scans to average: 10
Electric dark correction enabled: true
Nonlinearity correction enabled: false
Boxcar width: 0
XAxis mode: Wavelengths
Number of Pixels in Spectrum: 2048
>>>>>Begin Spectral Data<<<<<
341.393	2.97
341.776	2.97
342.16	2.97
342.543	-67.09
342.927	-72.06
343.31	-77.03
343.693	-63.25
344.077	-67.09
344.46	-52.17
344.843	-51.95
345.226	-29.8
345.61	-35.9
345.993	-14.21
346.376	12.23
346.759	-1.1
347.142	14.04
347.525	35.73
347.908	55.62
348.291	71.21
348.674	76.41
349.057	127.26
349.44	103.53
349.823	126.58
350.206	153.02
350.588	182.4
350.971	193.92
351.354	204.54
351.737	231.43
352.119	241.15
352.502	244.54
352.884	253.13
353.267	267.14
353.65	284.99
354.032	310.08
354.414	292.22
354.797	267.59
355.179	325.44
355.562	317.99
355.944	309.17
356.326	307.14
356.709	319.79
357.091	332.67
357.473	341.04
357.855	310.75
358.238	316.86
358.62	318.66
359.002	335.16
359.384	320.92
359.766	334.03
360.148	306.23
360.53	313.92
360.912	341.49
361.294	343.97
361.676	294.94
362.057	300.36
362.439	308.72
362.821	332
363.203	313.92
363.584	329.51
363.966	310.08
364.348	316.86
364.729	324.77
365.111	305.56
365.493	319.57
365.874	303.75
366.256	289.29
366.637	298.78
367.019	310.3
367.4	301.49
367.781	311.43
368.163	292.45
368.544	303.3
368.925	310.3
369.306	315.27
369.688	307.59
370.069	290.64
370.45	296.97
370.831	301.49
371.212	295.16
371.593	294.71
371.974	293.81
372.355	297.2
372.736	317.53
373.117	308.95
373.498	321.38
373.879	308.72
374.26	324.77
374.641	319.57
375.021	322.28
375.402	317.99
375.783	316.86
376.163	313.69
376.544	318.89
376.925	317.76
377.305	330.19
377.686	312.11
378.066	329.74
378.447	308.04
378.827	309.4
379.208	320.25
379.588	322.73
379.968	329.06
380.349	324.99
380.729	321.15
381.109	344.65
381.489	337.42
381.87	343.75
382.25	335.16
382.63	328.61
383.01	350.75
383.39	335.84
383.77	332.22
384.15	326.8
384.53	330.42
384.91	338.1
385.29	344.43
385.67	352.34
386.049	352.11
386.429	343.3
386.809	362.5
387.189	350.75
387.568	359.34
387.948	370.87
388.328	375.84
388.707	359.11
389.087	372.67
389.466	354.6
389.846	374.03
390.225	370.19
390.605	365.22
390.984	361.37
391.363	371.32
391.743	362.73
392.122	367.02
392.501	383.75
392.881	376.97
393.26	362.5
393.639	357.08
394.018	383.97
394.397	390.07
394.776	395.27
395.155	374.03
395.534	392.79
395.913	376.29
396.292	400.24
396.671	404.76
397.05	407.93
397.429	382.84
397.808	397.76
398.186	399.57
398.565	408.38
398.944	396.18
399.323	396.85
399.701	411.99
400.08	388.04
400.458	415.61
400.837	407.93
401.215	410.19
401.594	434.37
401.972	429.4
402.351	417.42
402.729	427.14
403.107	406.12
403.486	422.62
403.864	424.42
404.242	423.07
404.62	433.46
404.999	440.47
405.377	456.97
405.755	426.46
406.133	440.47
406.511	449.51
406.889	463.07
407.267	468.04
407.645	465.55
408.023	452.45
408.401	455.61
408.779	472.56
409.156	488.15
409.534	478.21
409.912	478.89
410.29	493.35
410.667	497.19
411.045	494.03
411.422	491.54
411.8	482.5
412.178	502.16
412.555	500.58
412.933	508.49
413.31	494.25
413.687	521.6
414.065	528.15
414.442	528.83
414.819	531.31
415.197	526.12
415.574	528.83
415.951	538.55
416.328	540.35
416.705	553.91
417.082	548.94
417.46	541.03
417.837	546.45
418.214	548.26
418.591	539.9
418.967	553.69
419.344	531.77
419.721	588.04
420.098	562.5
420.475	583.06
420.852	552.78
421.228	577.41
421.605	578.32
421.982	598.66
422.358	590.07
422.735	608.6
423.111	584.65
423.488	606.79
423.864	615.61
424.241	605.21
424.617	607.24
424.994	636.62
425.37	604.76
425.746	621.71
426.123	625.32
426.499	614.02
426.875	623.06
427.251	643.63
427.627	674.59
428.003	661.48
428.379	653.34
428.756	656.96
429.132	643.63
429.507	660.8
429.883	668.71
430.259	676.85
430.635	676.17
431.011	697.41
431.387	709.16
431.763	720.01
432.138	727.92
432.514	737.86
432.89	724.53
433.265	736.51
433.641	752.1
434.016	753.45
434.392	777.41
434.767	762.27
435.143	751.19
435.518	775.83
435.894	780.12
436.269	790.97
436.644	792.55
437.02	812.66
437.395	800.69
437.77	813.79
438.145	849.27
438.52	804.75
438.895	847.92
439.271	857.18
439.646	852.21
440.021	874.13
440.395	845.43
440.77	854.92
441.145	860.57
441.52	883.62
441.895	887.91
442.27	894.47
442.645	883.85
443.019	882.04
443.394	888.14
443.769	898.31
444.143	887.01
444.518	915.71
444.892	913.9
445.267	903.96
445.641	917.74
446.016	944.18
446.39	939.66
446.764	957.29
447.139	951.64
447.513	955.71
447.887	952.77
448.262	955.03
448.636	965.43
449.01	965.88
449.384	971.75
449.758	989.15
450.132	1007.46
450.506	991.64
450.88	1024.86
451.254	993.9
451.628	1007.01
452.002	1031.41
452.376	1053.56
452.75	1032.32
453.123	1055.14
453.497	1036.61
453.871	1060.11
454.244	1086.1
454.618	1089.27
454.992	1082.26
455.365	1080
455.739	1123.39
456.112	1126.78
456.486	1122.94
456.859	1154.12
457.232	1161.58
457.606	1162.03
457.979	1150.05
458.352	1162.48
458.725	1224.85
459.099	1228.02
459.472	1220.79
459.845	1207.68
460.218	1223.27
460.591	1243.84
460.964	1238.41
461.337	1279.77
461.71	1316.38
462.083	1334
462.456	1303.27
462.829	1324.97
463.201	1350.5
463.574	1345.76
463.947	1340.33
464.32	1371.52
464.692	1405.19
465.065	1420.56
465.438	1438.18
465.81	1409.03
466.183	1442.25
466.555	1479.31
466.928	1504.17
467.3	1501.23
467.672	1524.51
468.045	1552.08
468.417	1541.46
468.789	1537.16
469.161	1583.72
469.534	1609.48
469.906	1613.32
470.278	1632.75
470.65	1632.08
471.022	1683.15
471.394	1675.24
471.766	1698.51
472.138	1716.14
472.51	1726.31
472.882	1768.34
473.253	1799.08
473.625	1813.99
473.997	1851.5
474.369	1865.29
474.74	1882.92
475.112	1914.33
475.484	1954.1
475.855	1986.87
476.227	1979.64
476.598	2046.53
476.97	2036.13
477.341	2071.39
477.713	2129.92
478.084	2124.49
478.455	2176.92
478.827	2165.4
479.198	2230.25
479.569	2248.1
479.94	2283.36
480.311	2341.21
480.682	2340.31
481.053	2399.74
481.424	2458.95
481.795	2453.3
482.166	2500.75
482.537	2527.65
482.908	2604.93
483.279	2573.97
483.65	2638.83
484.021	2671.14
484.391	2710.24
484.762	2719.73
485.133	2743.46
485.503	2788.2
485.874	2838.6
486.244	2893.29
486.615	2913.17
486.985	2946.17
487.356	3006.5
487.726	3033.85
488.097	3092.83
488.467	3108.42
488.837	3127.63
489.207	3186.61
489.578	3219.15
489.948	3284.46
490.318	3295.53
490.688	3315.65
491.058	3357.91
491.428	3385.7
491.798	3413.72
492.168	3507.05
492.538	3502.54
492.908	3541.18
493.278	3557.9
493.648	3559.48
494.017	3633.83
494.387	3662.08
494.757	3693.26
495.126	3711.12
495.496	3699.14
495.866	3773.49
496.235	3805.35
496.605	3828.85
496.974	3820.27
497.344	3930.09
497.713	3875.18
498.082	3930.77
498.452	3947.04
498.821	3989.3
499.19	4032.69
499.559	4056.64
499.928	4088.06
500.298	4068.17
500.667	4121.28
501.036	4167.15
501.405	4176.42
501.774	4203.31
502.143	4179.81
502.512	4224.78
502.88	4312.23
503.249	4254.83
503.618	4351.1
503.987	4293.02
504.356	4383.87
504.724	4378.67
505.093	4421.83
505.462	4433.81
505.83	4465.67
506.199	4502.28
506.567	4521.72
506.936	4568.72
507.304	4621.15
507.672	4622.05
508.041	4652.34
508.409	4689.85
508.777	4735.27
509.145	4757.42
509.514	4744.99
509.882	4802.84
510.25	4817.98
510.618	4836.06
510.986	4860.47
511.354	4935.94
511.722	4966.45
512.09	5013.46
512.458	5018.88
512.826	5082.38
513.193	5058.43
513.561	5126.9
513.929	5123.28
514.297	5215.26
514.664	5256.61
515.032	5241.47
515.4	5298.42
515.767	5293
516.135	5394.24
516.502	5349.94
516.869	5412.54
517.237	5475.36
517.604	5471.07
517.972	5537.74
518.339	5560.56
518.706	5535.02
519.073	5622.71
519.44	5653.21
519.808	5699.09
520.175	5695.92
520.542	5864.05
520.909	5795.36
521.276	5857.28
521.643	5943.83
522.009	5916.03
522.376	5974.56
522.743	5970.94
523.11	6018.18
523.477	6122.35
523.843	6145.63
524.21	6156.7
524.577	6264.27
524.943	6271.73
525.31	6296.13
525.676	6375.45
526.043	6416.13
526.409	6485.96
526.776	6527.99
527.142	6592.85
527.508	6586.07
527.874	6648.89
528.241	6693.19
528.607	6730.92
528.973	6733.86
529.339	6740.19
529.705	6852.05
530.071	6840.07
530.437	6877.36
530.803	6970.24
531.169	6980.64
531.535	7004.14
531.901	7101.54
532.267	7106.06
532.632	7078.26
532.998	7172.27
533.364	7173.85
533.73	7149.67
534.095	7271.48
534.461	7334.52
534.826	7309.44
535.192	7363.45
535.557	7407.97
535.923	7384.92
536.288	7416.78
536.653	7454.07
537.019	7492.71
537.384	7507.18
537.749	7628.75
538.114	7647.28
538.479	7661.52
538.845	7654.29
539.21	7688.87
539.575	7732.48
539.94	7734.74
540.305	7767.73
540.67	7827.62
541.034	7798.92
541.399	7848.41
541.764	7887.28
542.129	7913.72
542.494	7987.39
542.858	7970.67
543.223	8000.5
543.587	8047.5
543.952	8100.15
544.316	8059.03
544.681	8071.23
545.045	8148.74
545.41	8194.16
545.774	8252.24
546.138	8179.25
546.503	8202.07
546.867	8245.46
547.231	8327.49
547.595	8326.59
547.959	8385.8
548.324	8418.11
548.688	8409.98
549.052	8435.96
549.416	8460.6
549.779	8518.22
550.143	8520.93
550.507	8527.94
550.871	8596.19
551.235	8633.02
551.599	8688.16
551.962	8658.56
552.326	8756.63
552.689	8801.38
553.053	8773.81
553.417	8809.29
553.78	8913.01
554.143	8839.8
554.507	8986.68
554.87	8879.34
555.234	8994.59
555.597	8947.82
555.96	9042.28
556.323	9106.46
556.686	9097.87
557.05	9215.15
557.413	9194.36
557.776	9185.55
558.139	9259.45
558.502	9241.82
558.865	9355.04
559.228	9373.34
559.59	9421.48
559.953	9496.28
560.316	9482.94
560.679	9491.53
561.041	9508.93
561.404	9551.64
561.767	9712.77
562.129	9679.32
562.492	9767.23
562.854	9760
563.217	9802.48
563.579	9817.17
563.941	9836.83
564.304	9963.83
564.666	10010.16
565.028	10065.98
565.39	10055.58
565.753	10137.16
566.115	10151.17
566.477	10196.82
566.839	10256.48
567.201	10296.71
567.563	10244.05
567.925	10383.26
568.287	10390.94
568.648	10451.28
569.01	10476.14
569.372	10549.36
569.734	10532.41
570.095	10662.8
570.457	10642.46
570.819	10619.64
571.18	10659.41
571.542	10795
571.903	10719.75
572.265	10853.98
572.626	10881.1
572.987	10884.71
573.349	10900.98
573.71	10939.4
574.071	11001.09
574.432	10999.29
574.794	11063.24
575.155	11082.67
575.516	11056.69
575.877	11075.67
576.238	11098.72
576.599	11180.98
576.96	11192.73
577.32	11134.88
577.681	11211.26
578.042	11241.31
578.403	11293.74
578.763	11244.03
579.124	11323.35
579.485	11336
579.845	11396.56
580.206	11360.41
580.566	11330.13
580.927	11374.19
581.287	11384.59
581.648	11399.5
582.008	11364.48
582.368	11397.92
582.728	11447.86
583.089	11357.24
583.449	11418.49
583.809	11442.21
584.169	11463.46
584.529	11417.13
584.889	11398.6
585.249	11417.58
585.609	11423.46
585.969	11518.6
586.329	11490.57
586.688	11482.44
587.048	11471.59
587.408	11441.76
587.768	11472.95
588.127	11472.27
588.487	11452.38
588.846	11493.74
589.206	11453.96
589.565	11456.68
589.925	11483.34
590.284	11535.77
590.643	11517.01
591.003	11528.76
591.362	11538.48
591.721	11563.79
592.08	11476.79
592.44	11490.8
592.799	11560.63
593.158	11547.07
593.517	11578.93
593.876	11585.03
594.235	11552.04
594.593	11551.59
594.952	11611.47
595.311	11609.67
595.67	11585.71
596.029	11578.25
596.387	11641.53
596.746	11710.91
597.104	11581.42
597.463	11615.32
597.822	11607.86
598.18	11654.86
598.538	11600.85
598.897	11733.73
599.255	11581.19
599.613	11719.72
599.972	11653.06
600.33	11735.54
600.688	11709.55
601.046	11653.28
601.404	11748.87
601.762	11742.54
602.12	11760.17
602.478	11848.08
602.836	11761.75
603.194	11720.17
603.552	11784.35
603.91	11768.08
604.268	11775.31
604.625	11788.19
604.983	11823.9
605.341	11873.16
605.698	11837.01
606.056	11966.04
606.413	11862.32
606.771	11913.16
607.128	11946.38
607.485	11883.56
607.843	11911.35
608.2	11931.24
608.557	12076.77
608.914	11999.03
609.272	12023.89
609.629	12032.71
609.986	12145.92
610.343	11997.23
610.7	12125.59
611.057	12062.31
611.414	12166.49
611.771	12043.55
612.127	12104.57
612.484	12135.08
612.841	12202.42
613.198	12141.86
613.554	12095.08
613.911	12198.35
614.267	12171.01
614.624	12174.4
614.98	12262.98
615.337	12172.82
615.693	12215.3
616.05	12235.86
616.406	12319.03
616.762	12368.52
617.118	12295.3
617.475	12276.99
617.831	12299.37
618.187	12310.21
618.543	12365.58
618.899	12426.82
619.255	12372.36
619.611	12308.63
619.967	12448.29
620.323	12443.32
620.678	12371
621.034	12334.85
621.39	12460.94
621.746	12440.83
622.101	12455.52
622.457	12424.79
622.812	12410.1
623.168	12434.05
623.523	12433.37
623.879	12487.84
624.234	12448.74
624.589	12369.87
624.945	12437.44
625.3	12436.31
625.655	12442.19
626.01	12449.42
626.365	12410.55
626.72	12423.66
627.075	12395.41
627.43	12418.68
627.785	12388.18
628.14	12359.48
628.495	12406.48
628.85	12395.63
629.205	12331
629.559	12452.36
629.914	12272.7
630.269	12332.81
630.623	12286.71
630.978	12322.19
631.332	12344.11
631.687	12393.37
632.041	12368.29
632.396	12441.96
632.75	12326.71
633.104	12329.87
633.459	12276.77
633.813	12217.79
634.167	12265.02
634.521	12226.6
634.875	12201.52
635.229	12225.24
635.583	12177.11
635.937	12154.06
636.291	12234.28
636.645	12148.18
636.999	12116.32
637.352	12201.52
637.706	12048.07
638.06	12209.88
638.413	12112.48
638.767	12025.7
639.121	12075.19
639.474	12065.7
639.828	12132.14
640.181	12069.99
640.534	12087.62
640.888	11994.29
641.241	11918.58
641.594	11974.85
641.947	12089.43
642.301	11866.38
642.654	11928.75
643.007	11995.65
643.36	11967.4
643.713	11873.61
644.066	11910.22
644.419	11896.66
644.771	11772.6
645.124	11647.41
645.477	11724.69
645.83	11561.76
646.182	11540.06
646.535	11515.88
646.888	11507.07
647.24	11454.87
647.593	11473.85
647.945	11458.03
648.298	11449.44
648.65	11383.68
649.002	11352.05
649.355	11411.93
649.707	11362.22
650.059	11435.43
650.411	11554.98
650.763	11539.84
651.115	11671.36
651.467	11650.34
651.819	11678.37
652.171	11664.58
652.523	11579.16
652.875	11563.34
653.227	11489.67
653.578	11621.64
653.93	11584.13
654.282	11629.1
654.633	11525.6
654.985	11487.41
655.337	11474.98
655.688	11506.39
656.039	11480.4
656.391	11500.97
656.742	11457.13
657.094	11465.49
657.445	11507.3
657.796	11405.15
658.147	11440.86
658.498	11421.2
658.849	11403.12
659.2	11376
659.551	11448.99
659.902	11468.2
660.253	11480.63
660.604	11392.05
660.955	11402.67
661.306	11411.71
661.656	11419.84
662.007	11379.84
662.358	11406.06
662.708	11470.91
663.059	11413.97
663.409	11331.03
663.76	11369.9
664.11	11345.49
664.461	11440.63
664.811	11389.56
665.161	11357.02
665.511	11319.96
665.862	11329.22
666.212	11322.89
666.562	11407.86
666.912	11265.95
667.262	11362.22
667.612	11346.62
667.962	11339.17
668.312	11351.14
668.662	11410.8
669.011	11466.17
669.361	11234.76
669.711	11316.57
670.06	11307.53
670.41	11219.62
670.76	11218.94
671.109	11244.48
671.459	11233.41
671.808	11311.14
672.157	11199.96
672.507	11142.11
672.856	11129.45
673.205	11185.72
673.554	11238.83
673.904	11160.19
674.253	11224.82
674.602	11196.57
674.951	10971.94
675.3	10952.28
675.649	11161.77
675.998	11075.67
676.346	11176.23
676.695	11134.2
677.044	11076.57
677.393	11128.1
677.741	11027.53
678.09	11035.9
678.438	11022.11
678.787	10986.63
679.135	11045.39
679.484	11001.77
679.832	11042.68
680.181	10958.38
680.529	11067.31
680.877	10958.61
681.225	10914.09
681.573	10982.79
681.922	10870.02
682.27	10931.94
682.618	10857.37
682.966	10877.93
683.314	10916.35
683.661	10924.71
684.009	10828.44
684.357	10839.07
684.705	10767.65
685.053	10826.64
685.4	10751.38
685.748	10744.6
686.095	10678.39
686.443	10678.39
686.79	10658.28
687.138	10703.02
687.485	10640.2
687.832	10623.25
688.18	10663.7
688.527	10543.93
688.874	10551.16
689.221	10576.93
689.568	10474.78
689.915	10514.33
690.262	10493.54
690.609	10425.74
690.956	10393.2
691.303	10445.4
691.65	10282.02
691.997	10372.18
692.344	10306.42
692.69	10310.72
693.037	10330.6
693.383	10215.8
693.73	10262.36
694.077	10171.74
694.423	10123.6
694.769	10178.52
695.116	10129.71
695.462	10125.19
695.808	10059.42
696.155	10100.1
696.501	10019.43
696.847	10004.28
697.193	9915.7
697.539	10007.67
697.885	9928.58
698.231	9883.38
698.577	9892.2
698.923	9868.92
699.269	9823.5
699.614	9764.07
699.96	9781.69
700.306	9744.18
700.651	9720.9
700.997	9655.59
701.342	9679.32
701.688	9625.76
702.033	9564.52
702.379	9569.72
702.724	9525.65
703.069	9667.34
703.415	9560.68
703.76	9514.13
704.105	9559.55
704.45	9501.25
704.795	9417.18
705.14	9505.77
705.485	9384.41
705.83	9361.82
706.175	9375.37
706.52	9320.46
706.865	9344.19
707.209	9296.73
707.554	9282.04
707.899	9271.42
708.243	9255.6
708.588	9267.13
708.932	9164.31
709.277	9172.44
709.621	9167.47
709.966	9048.15
710.31	9117.75
710.654	9092.9
710.998	9098.55
711.342	9069.39
711.687	9076.17
712.031	8965.44
712.375	9009.28
712.719	8967.02
713.063	9002.05
713.407	8945.1
713.75	8853.35
714.094	8934.71
714.438	8900.59
714.782	8898.78
715.125	8863.98
715.469	8840.93
715.812	8886.12
716.156	8779.01
716.499	8822.85
716.843	8810.19
717.186	8752.57
717.53	8788.95
717.873	8775.84
718.216	8718.44
718.559	8765.22
718.902	8706.69
719.246	8694.94
719.589	8682.51
719.932	8617.2
720.275	8615.62
720.617	8579.69
720.96	8608.62
721.303	8539.69
721.646	8583.31
721.989	8580.37
722.331	8602.51
722.674	8548.28
723.016	8561.16
723.359	8539.92
723.701	8468.05
724.044	8398
724.386	8442.74
724.729	8520.26
725.071	8458.56
725.413	8471.67
725.755	8457.43
726.097	8338.11
726.439	8388.06
726.782	8379.02
727.124	8386.7
727.465	8313.48
727.807	8280.71
728.149	8271.68
728.491	8311.67
728.833	8295.86
729.175	8271.45
729.516	8228.74
729.858	8264.22
730.199	8231.9
730.541	8212.47
730.882	8195.29
731.224	8190.77
731.565	8190.1
731.906	8176.99
732.248	8245.46
732.589	8129.08
732.93	8103.77
733.271	8164.79
733.612	8179.47
733.953	8157.1
734.294	8142.86
734.635	8096.31
734.976	8121.4
735.317	8056.09
735.658	8082.75
735.999	8007.95
736.339	7965.69
736.68	8005.02
737.021	8013.6
737.361	8000.27
737.702	8018.57
738.042	7983.55
738.383	7971.57
738.723	7913.04
739.063	7911.91
739.404	8005.92
739.744	7879.14
740.084	7905.36
740.424	7810.9
740.764	7875.75
741.104	7888.86
741.444	7877.34
741.784	7872.59
742.124	7815.87
742.464	7784.68
742.804	7847.51
743.143	7827.62
743.483	7804.12
743.823	7722.76
744.162	7756.21
744.502	7817
744.841	7715.31
745.181	7672.59
745.52	7728.41
745.86	7672.82
746.199	7693.16
746.538	7709.43
746.877	7690.22
747.216	7676.66
747.556	7618.58
747.895	7679.15
748.234	7594.18
748.573	7638.02
748.911	7584.46
749.25	7575.87
749.589	7537.68
749.928	7556.44
750.267	7535.42
750.605	7538.81
750.944	7541.98
751.283	7527.97
751.621	7568.64
751.96	7438.25
752.298	7505.14
752.636	7432.6
752.975	7420.85
753.313	7396.9
753.651	7427.86
753.989	7386.05
754.327	7334.75
754.666	7355.99
755.004	7270.8
755.342	7291.81
755.679	7303.11
756.017	7266.28
756.355	7246.62
756.693	7285.49
757.031	7255.88
757.368	7259.05
757.706	7200.97
758.044	7216.34
758.381	7165.04
758.719	7167.52
759.056	7089.11
759.394	7118.26
759.731	7094.3
760.068	7083.68
760.405	7057.24
760.743	7022.44
761.08	6999.84
761.417	6963.91
761.754	6968.66
762.091	6907.87
762.428	6903.8
762.765	6894.76
763.102	6892.5
763.438	6844.59
763.775	6875.78
764.112	6842.33
764.449	6837.36
764.785	6793.3
765.122	6789.91
765.458	6730.47
765.795	6760.08
766.131	6737.93
766.467	6706.52
766.804	6684.82
767.14	6644.37
767.476	6671.04
767.812	6649.34
768.148	6673.3
768.485	6560.99
768.821	6548.78
769.157	6568.9
769.492	6503.59
769.828	6506.07
770.164	6481.89
770.5	6442.8
770.836	6425.62
771.171	6411.16
771.507	6413.87
771.842	6377.71
772.178	6356.25
772.513	6287.32
772.849	6291.16
773.184	6245.97
773.519	6250.26
773.855	6221.79
774.19	6235.57
774.525	6208.68
774.86	6219.3
775.195	6238.28
775.53	6192.41
775.865	6138.85
776.2	6123.03
776.535	6047.33
776.87	6039.19
777.205	6087.78
777.539	6059.3
777.874	5994.67
778.209	5939.76
778.543	5981.57
778.878	5931.62
779.212	5899.53
779.547	5906.54
779.881	5902.25
780.215	5856.37
780.55	5919.42
780.884	5825.41
781.218	5762.36
781.552	5783.83
781.886	5773.44
782.22	5788.58
782.554	5732.76
782.888	5744.51
783.222	5667.22
783.556	5677.62
783.889	5662.7
784.223	5590.62
784.557	5591.29
784.89	5627.22
785.224	5548.13
785.557	5545.42
785.891	5479.66
786.224	5511.07
786.558	5433.11
786.891	5421.35
787.224	5458.87
787.557	5398.08
787.891	5438.3
788.224	5415.93
788.557	5403.28
788.89	5348.14
789.223	5357.18
789.556	5347.68
789.888	5351.3
790.221	5294.35
790.554	5240.34
790.887	5223.39
791.219	5283.51
791.552	5242.15
791.884	5214.35
792.217	5216.39
792.549	5135.71
792.882	5135.49
793.214	5089.39
793.546	5131.64
793.879	5104.3
794.211	5066.56
794.543	5115.15
794.875	5054.58
795.207	5053.68
795.539	5023.17
795.871	5020.69
796.203	5013.46
796.535	4970.29
796.867	4960.8
797.198	4972.55
797.53	4949.5
797.862	4956.51
798.193	4932.33
798.525	4866.34
798.856	4920.12
799.188	4870.41
799.519	4837.19
799.85	4891.43
800.182	4847.58
800.513	4861.82
800.844	4817.98
801.175	4781.82
801.506	4820.47
801.837	4797.42
802.168	4769.62
802.499	4781.15
802.83	4750.86
803.161	4700.02
803.491	4717.19
803.822	4677.42
804.153	4710.64
804.483	4680.81
804.814	4592
805.145	4610.3
805.475	4636.74
805.805	4551.32
806.136	4629.29
806.466	4615.5
806.796	4603.52
807.126	4570.53
807.457	4546.12
807.787	4551.1
808.117	4532.56
808.447	4485.11
808.777	4570.53
809.107	4520.36
809.436	4487.14
809.766	4499.8
810.096	4435.62
810.426	4456.41
810.755	4482.4
811.085	4452.11
811.414	4435.39
811.744	4381.61
812.073	4411.66
812.403	4422.06
812.732	4410.53
813.061	4365.11
813.39	4326.69
813.719	4305
814.049	4322.4
814.378	4379.12
814.707	4338.67
815.036	4292.8
815.365	4251.67
815.693	4219.58
816.022	4276.98
816.351	4211.44
816.68	4211.22
817.008	4199.47
817.337	4217.09
817.665	4172.12
817.994	4183.65
818.322	4195.85
818.651	4212.12
818.979	4180.26
819.307	4173.7
819.636	4186.81
819.964	4186.58
820.292	4187.94
820.62	4189.75
820.948	4142.97
821.276	4114.5
821.604	4131.9
821.932	4143.42
822.259	4157.43
822.587	4130.54
822.915	4105.46
823.243	4143.2
823.57	4139.13
823.898	4104.55
824.225	4106.36
824.553	4110.43
824.88	4125.8
825.207	4142.29
825.535	4111.11
825.862	4127.6
826.189	4108.62
826.516	4121.05
826.843	4149.52
827.17	4148.17
827.497	4155.63
827.824	4108.17
828.151	4131.22
828.478	4104.55
828.805	4171.22
829.131	4128.28
829.458	4081.73
829.785	4073.59
830.111	4096.19
830.438	4146.13
830.764	4119.69
831.09	4170.77
831.417	4088.73
831.743	4068.4
832.069	4106.59
832.395	4068.4
832.722	4127.15
833.048	4078.57
833.374	4084.21
833.7	4031.11
834.026	4067.49
834.351	4123.08
834.677	4071.56
835.003	4063.88
835.329	4090.54
835.654	4023.88
835.98	4059.36
836.306	4034.05
836.631	4053.03
836.956	4015.74
837.282	4073.14
837.607	4014.16
837.932	4069.98
838.258	3995.4
838.583	4041.96
838.908	4001.96
839.233	3980.94
839.558	4002.63
839.883	4003.09
840.208	3987.72
840.533	3949.75
840.858	3940.94
841.182	3931.45
841.507	3962.41
841.832	3897.55
842.156	3921.28
842.481	3946.59
842.805	3917.89
843.13	3906.82
843.454	3913.6
843.778	3865.01
844.103	3916.99
844.427	3895.75
844.751	3858.91
845.075	3896.42
845.399	3838.57
845.723	3813.04
846.047	3847.38
846.371	3796.09
846.695	3847.16
847.019	3766.03
847.343	3803.32
847.666	3751.34
847.99	3741.17
848.313	3747.95
848.637	3686.71
848.96	3712.92
849.284	3704.11
849.607	3696.65
849.931	3636.99
850.254	3617.56
850.577	3643.77
850.9	3617.11
851.223	3641.29
851.546	3566.26
851.869	3552.25
852.192	3568.52
852.515	3589.76
852.838	3564
853.161	3536.43
853.483	3542.53
853.806	3504.79
854.129	3519.94
854.451	3496.43
854.774	3485.13
855.096	3474.29
855.419	3486.26
855.741	3444.01
856.063	3396.32
856.385	3427.73
856.708	3411.92
857.03	3396.1
857.352	3396.78
857.674	3418.7
857.996	3430.9
858.318	3355.65
858.64	3390.9
858.961	3347.96
859.283	3331.01
859.605	3324.23
859.926	3335.08
860.248	3376.21
860.57	3360.62
860.891	3298.92
861.212	3288.76
861.534	3321.97
861.855	3312.26
862.176	3286.72
862.498	3301.41
862.819	3248.3
863.14	3261.19
863.461	3247.63
863.782	3263.22
864.103	3256.21
864.424	3251.69
864.745	3318.81
865.065	3237.91
865.386	3226.16
865.707	3253.05
866.027	3266.61
866.348	3230.9
866.668	3214.18
866.989	3235.42
867.309	3199.94
867.63	3206.05
867.95	3208.53
868.27	3206.5
868.59	3165.82
868.91	3203.33
869.23	3156.78
869.55	3173.05
869.87	3155.43
870.19	3174.41
870.51	3153.39
870.83	3219.38
871.15	3135.31
871.469	3172.83
871.789	3190.9
872.109	3150
872.428	3157.69
872.748	3125.6
873.067	3147.74
873.386	3113.84
873.706	3108.2
874.025	3124.47
874.344	3087.18
874.663	3086.5
874.982	3113.84
875.301	3081.3
875.62	3088.31
875.939	3082.21
876.258	3078.37
876.577	3060.74
876.896	3055.32
877.214	3054.41
877.533	3074.52
877.852	3032.94
878.17	3048.31
878.489	3025.49
878.807	3044.92
879.125	3040.17
879.444	3047.41
879.762	2980.51
880.08	3000.18
880.398	3056.22
880.716	3028.42
881.034	3018.48
881.352	3011.93
881.67	2999.27
881.988	2971.93
882.306	2981.64
882.624	3022.32
882.941	2976.22
883.259	2956.56
883.577	2944.58
883.894	2943.91
884.212	2947.3
884.529	2923.57
884.846	2923.12
885.164	2923.12
885.481	2947.97
885.798	2886.96
886.115	2894.87
886.432	2898.71
886.75	2879.27
887.067	2881.99
887.383	2882.89
887.7	2880.4
888.017	2863.46
888.334	2863.68
888.651	2847.64
888.967	2865.04
889.284	2837.92
889.6	2786.85
889.917	2831.37
890.233	2835.43
890.55	2838.82
890.866	2809.67
891.182	2796.11
891.498	2792.05
891.815	2771.93
892.131	2781.65
892.447	2783.23
892.763	2750.69
893.079	2739.62
893.395	2758.83
893.71	2736.68
894.026	2727.87
894.342	2709.11
894.657	2706.17
894.973	2688.32
895.289	2702.1
895.604	2705.72
895.92	2681.77
896.235	2685.16
896.55	2702.56
896.865	2659.62
897.181	2657.81
897.496	2665.27
897.811	2670.24
898.126	2649.9
898.441	2672.27
898.756	2632.05
899.071	2607.42
899.386	2601.77
899.7	2580.3
900.015	2622.33
900.33	2541.88
900.644	2578.49
900.959	2579.4
901.273	2580.75
901.588	2561.54
901.902	2565.61
902.216	2530.81
902.531	2567.19
902.845	2496.01
903.159	2502.34
903.473	2486.29
903.787	2506.63
904.101	2463.47
904.415	2483.35
904.729	2474.77
905.042	2448.55
905.356	2438.16
905.67	2449.91
905.984	2452.39
906.297	2440.64
906.611	2418.72
906.924	2441.09
907.237	2385.28
907.551	2371.04
907.864	2392.28
908.177	2400.42
908.491	2385.28
908.804	2369.91
909.117	2366.29
909.43	2372.17
909.743	2354.32
910.056	2331.27
910.368	2341.21
910.681	2318.39
910.994	2350.25
911.307	2307.99
911.619	2289.91
911.932	2249.01
912.244	2272.51
912.557	2251.27
912.869	2273.19
913.181	2243.81
913.494	2252.17
913.806	2235
914.118	2242.46
914.43	2204.49
914.742	2187.54
915.054	2203.13
915.366	2181.89
915.678	2199.52
915.99	2167.88
916.302	2168.56
916.613	2136.7
916.925	2159.29
917.236	2129.92
917.548	2209.91
917.859	2145.06
918.171	2095.11
918.482	2128.79
918.794	2105.28
919.105	2105.06
919.416	2103.25
919.727	2057.15
920.038	2106.87
920.349	2087.21
920.66	2073.42
920.971	2084.04
921.282	2048.11
921.593	2068.67
921.903	2056.47
922.214	2039.3
922.525	2018.73
922.835	2022.57
923.146	2032.29
923.456	2005.85
923.767	1992.74
924.077	1977.15
924.387	1981.45
924.697	1969.92
925.008	1976.93
925.318	1966.76
925.628	1950.26
925.938	1982.35
926.248	1946.42
926.558	1912.07
926.867	1941.67
927.177	1917.94
927.487	1924.5
927.796	1912.97
928.106	1910.71
928.416	1891.28
928.725	1851.28
929.034	1861.45
929.344	1884.5
929.653	1863.93
929.962	1837.04
930.271	1844.73
930.581	1843.6
930.89	1824.16
931.199	1837.27
931.508	1792.3
931.817	1829.36
932.125	1815.8
932.434	1829.81
932.743	1792.98
933.051	1773.99
933.36	1786.87
933.669	1762.24
933.977	1773.99
934.286	1772.86
934.594	1769.7
934.902	1721.56
935.21	1779.19
935.519	1763.37
935.827	1733.77
936.135	1717.5
936.443	1726.99
936.751	1722.47
937.059	1690.38
937.367	1721.56
937.674	1686.54
937.982	1684.73
938.29	1666.2
938.597	1658.06
938.905	1667.56
939.213	1632.98
939.52	1641.79
939.827	1673.43
940.135	1631.17
940.442	1606.31
940.749	1636.6
941.056	1638.4
941.363	1646.76
941.67	1643.37
941.977	1590.49
942.284	1590.95
942.591	1593.21
942.898	1587.11
943.205	1594.34
943.511	1583.72
943.818	1577.39
944.125	1575.58
944.431	1553.66
944.738	1537.39
945.044	1579.42
945.35	1545.3
945.657	1550.72
945.963	1544.17
946.269	1526.32
946.575	1521.8
946.881	1510.95
947.187	1540.1
947.493	1502.59
947.799	1501.01
948.105	1465.98
948.41	1505.53
948.716	1484.28
949.022	1470.5
949.327	1486.99
949.633	1444.28
949.938	1472.76
950.244	1450.39
950.549	1466.43
950.854	1432.98
951.16	1445.64
951.465	1432.08
951.77	1435.24
952.075	1411.29
952.38	1422.59
952.685	1426.43
952.99	1410.61
953.294	1398.86
953.599	1411.74
953.904	1400.9
954.209	1417.62
954.513	1388.47
954.818	1397.96
955.122	1381.91
955.426	1386.66
955.731	1372.2
956.035	1381.69
956.339	1352.99
956.643	1346.89
956.948	1364.06
957.252	1339.65
957.556	1331.07
957.86	1342.59
958.163	1336.49
958.467	1331.07
958.771	1342.37
959.075	1310.73
959.378	1283.38
959.682	1303.27
959.985	1315.93
960.289	1283.38
960.592	1324.97
960.896	1290.16
961.199	1303.27
961.502	1293.78
961.805	1283.61
962.108	1286.32
962.411	1278.19
962.714	1257.17
963.017	1281.58
963.32	1234.35
963.623	1242.93
963.926	1266.66
964.228	1246.1
964.531	1242.71
964.833	1263.27
965.136	1238.41
965.438	1224.63
965.741	1214.46
966.043	1218.75
966.345	1211.97
966.648	1206.55
966.95	1187.79
967.252	1199.09
967.554	1182.82
967.856	1176.49
968.158	1172.88
968.46	1180.79
968.761	1162.71
969.063	1183.95
969.365	1183.95
969.666	1173.1
969.968	1160.68
970.269	1128.81
970.571	1162.48
970.872	1162.94
971.174	1160
971.475	1160.9
971.776	1141.69
972.077	1157.51
972.378	1103.28
972.679	1122.03
972.98	1132.65
973.281	1128.36
973.582	1116.61
973.883	1119.77
974.183	1114.8
974.484	1119.09
974.785	1109.6
975.085	1100.34
975.386	1097.17
975.686	1089.49
975.986	1101.47
976.287	1100.56
976.587	1060.57
976.887	1080.68
977.187	1078.19
977.487	1055.82
977.787	1059.44
978.087	1064.63
978.387	1055.37
978.687	1036.16
978.987	1046.1
979.286	1071.86
979.586	1038.19
979.885	1059.66
980.185	1015.59
980.484	1020.34
980.784	1021.02
981.083	1053.33
981.382	1020.34
981.682	1026.89
981.981	1016.72
982.28	1025.31
982.579	1008.14
982.878	1011.3
983.177	1008.82
983.475	982.6
983.774	983.28
984.073	1008.59
984.372	991.19
984.67	990.74
984.969	980.34
985.267	973.34
985.566	976.73
985.864	969.72
986.162	967.46
986.461	943.73
986.759	963.39
987.057	989.15
987.355	957.52
987.653	945.31
987.951	964.52
988.249	965.88
988.547	964.52
988.844	938.76
989.142	937.63
989.44	922.04
989.737	953.45
990.035	921.36
990.332	922.49
990.63	920
990.927	915.71
991.224	916.39
991.521	913.22
991.819	901.02
992.116	909.83
992.413	923.17
992.71	915.71
993.006	902.6
993.303	899.89
993.6	866.9
993.897	892.43
994.193	875.94
994.49	886.56
994.787	880.68
995.083	887.91
995.379	879.55
995.676	856.73
995.972	873.68
996.268	853.57
996.565	861.47
996.861	839.33
997.157	844.3
997.453	850.85
997.749	840.01
998.044	857.86
998.34	829.16
998.636	830.97
998.932	824.41
999.227	838.2
999.523	818.09
999.818	858.08
1000.114	837.97
1000.409	814.7
1000.704	812.21
1001	816.96
1001.295	821.25
1001.59	817.41
1001.885	815.6
1002.18	805.43
1002.475	814.7
1002.77	807.01
1003.065	802.94
1003.359	797.3
1003.654	779.89
1003.949	793.91
1004.243	779.44
1004.538	781.93
1004.832	786.9
1005.127	769.27
1005.421	775.15
1005.715	775.15
1006.009	780.35
1006.304	783.06
1006.598	757.75
1006.892	736.96
1007.186	746
1007.48	743.74
1007.773	746.9
1008.067	748.26
1008.361	744.87
1008.655	714.13
1008.948	707.81
1009.242	726.79
1009.535	722.95
1009.829	698.99
1010.122	714.59
1010.415	703.74
1010.708	736.96
1011.001	692.21
1011.295	706.68
1011.588	717.98
1011.881	689.28
1012.173	703.74
1012.466	699.44
1012.759	689.5
1013.052	679.56
1013.344	716.39
1013.637	695.6
1013.93	669.39
1014.222	682.04
1014.514	699.22
1014.807	680.46
1015.099	667.36
1015.391	675.49
1015.683	664.42
1015.976	672.78
1016.268	641.59
1016.56	663.97
1016.851	672.33
1017.143	644.98
1017.435	646.56
1017.727	649.28
1018.018	665.77
1018.31	641.59
1018.602	642.95
1018.893	641.82
1019.185	654.25
1019.476	636.62
1019.767	623.51
1020.058	635.72
1020.35	618.09
1020.641	616.06
1020.932	622.38
1021.223	610.86
1021.514	619.45
1021.804	610.86
1022.095	632.1
1022.386	597.07
1022.677	621.48
1022.967	617.87
1023.258	592.56
1023.548	588.26
1023.839	610.86
1024.129	596.62
1024.419	569.5
1024.709	601.59
1025	569.5
1025.29	604.76
1025.58	582.61
1025.87	589.39
1026.16	562.5
1026.449	564.53
1026.739	589.84
1027.029	568.83
1027.319	572.89
1027.608	569.96
1027.898	572.44
1028.187	594.59
1028.477	562.27
1028.766	543.52
1029.055	555.72
1029.344	547.13
1029.634	563.63
1029.923	546.68
1030.212	535.38
1030.501	559.11
1030.79	551.2
1031.078	549.84
1031.367	548.26
1031.656	527.02
1031.945	520.69
1032.233	538.32
1032.522	512.78
1032.81	515.72
1033.099	518.43
1033.387	521.6
1033.675	508.72
1033.963	523.4
1034.251	513.46
1034.54	520.24
1034.828	517.08
1035.116	515.27
1035.403	520.69
1035.691	499.22
1035.979	510.52
1036.267	505.33
1036.554	510.75
1036.842	491.77
1037.129	516.62
1037.417	475.5
1037.704	505.33
1037.992	498.77
1038.279	496.06
1038.566	491.31
1038.853	491.31
1039.14	491.31
