Data from black_plastic_tray_FLMS001491_044.txt Node
Date: Tue Feb 07 10:39:56 GMT 2017
User: dcchb
Spectrometer: FLMS00149
Trigger mode: 0
Integration Time (sec): 2.000000E-2
Scans to average: 10
Electric dark correction enabled: true
Nonlinearity correction enabled: false
Boxcar width: 0
XAxis mode: Wavelengths
Number of Pixels in Spectrum: 2048
>>>>>Begin Spectral Data<<<<<
341.393	-10.16
341.776	-10.16
342.16	-10.16
342.543	-61.45
342.927	-55.58
343.31	-77.05
343.693	-68.23
344.077	-71.4
344.46	-49.93
344.843	-43.37
345.226	-41.79
345.61	-36.14
345.993	-12.64
346.376	-8.8
346.759	13.35
347.142	14.93
347.525	42.72
347.908	66
348.291	69.62
348.674	100.35
349.057	102.38
349.44	139.22
349.823	146.9
350.206	167.69
350.588	177.41
350.971	214.92
351.354	240.23
351.737	237.97
352.119	242.72
352.502	280.23
352.884	267.13
353.267	266.22
353.65	297.63
354.032	303.51
354.414	299.67
354.797	293.34
355.179	328.82
355.562	298.31
355.944	335.82
356.326	325.66
356.709	355.26
357.091	325.2
357.473	343.28
357.855	348.93
358.238	345.32
358.62	345.99
359.002	336.95
359.384	355.03
359.766	331.53
360.148	345.32
360.53	336.95
360.912	320.23
361.294	343.73
361.676	341.7
362.057	340.57
362.439	352.77
362.821	320.91
363.203	341.02
363.584	334.02
363.966	325.43
364.348	332.21
364.729	340.8
365.111	333.11
365.493	321.14
365.874	337.18
366.256	327.69
366.637	336.5
367.019	348.48
367.4	327.92
367.781	323.4
368.163	305.99
368.544	316.16
368.925	312.77
369.306	343.06
369.688	315.71
370.069	339.21
370.45	309.16
370.831	341.7
371.212	334.92
371.593	335.82
371.974	337.41
372.355	343.06
372.736	340.12
373.117	328.59
373.498	334.92
373.879	326.11
374.26	333.11
374.641	328.59
375.021	334.02
375.402	348.03
375.783	350.06
376.163	360.68
376.544	353.9
376.925	360.68
377.305	380.8
377.686	343.96
378.066	361.13
378.447	338.31
378.827	367.46
379.208	360.46
379.588	365.88
379.968	359.78
380.349	360
380.729	379.67
381.109	381.7
381.489	346.9
381.87	356.61
382.25	349.38
382.63	392.32
383.01	381.47
383.39	395.26
383.77	406.33
384.15	376.28
384.53	387.8
384.91	387.35
385.29	394.81
385.67	373.56
386.049	384.18
386.429	401.81
386.809	410.85
387.189	404.98
387.568	408.36
387.948	411.3
388.328	401.36
388.707	418.53
389.087	423.73
389.466	413.34
389.846	416.73
390.225	433.45
390.605	414.69
390.984	440.91
391.363	454.69
391.743	435.03
392.122	440.68
392.501	430.51
392.881	455.82
393.26	453.34
393.639	433.9
394.018	469.83
394.397	461.47
394.776	458.08
395.155	461.24
395.534	436.16
395.913	492.88
396.292	477.74
396.671	471.87
397.05	498.31
397.429	463.5
397.808	500.11
398.186	486.78
398.565	502.83
398.944	465.54
399.323	506.44
399.701	492.66
400.08	509.38
400.458	527.23
400.837	531.75
401.215	500.34
401.594	514.8
401.972	510.96
402.351	542.82
402.729	512.99
403.107	541.69
403.486	552.77
403.864	565.42
404.242	559.55
404.62	549.38
404.999	542.82
405.377	550.06
405.755	567.91
406.133	562.49
406.511	559.32
406.889	578.08
407.267	584.18
407.645	590.06
408.023	627.57
408.401	607
408.779	611.98
409.156	623.05
409.534	615.14
409.912	654.23
410.29	643.61
410.667	641.81
411.045	638.64
411.422	648.58
411.8	646.78
412.178	646.32
412.555	677.74
412.933	675.48
413.31	676.15
413.687	687.45
414.065	707.34
414.442	722.48
414.819	724.74
415.197	697.62
415.574	729.94
415.951	724.51
416.328	753.21
416.705	733.78
417.082	729.26
417.46	743.95
417.837	743.5
418.214	745.98
418.591	767.68
418.967	767.9
419.344	790.73
419.721	791.86
420.098	799.54
420.475	820.33
420.852	821.91
421.228	818.3
421.605	841.12
421.982	823.27
422.358	849.48
422.735	835.92
423.111	846.32
423.488	863.04
423.864	876.6
424.241	886.09
424.617	915.24
424.994	895.13
425.37	876.6
425.746	908.69
426.123	918.63
426.499	941.91
426.875	946.66
427.251	938.75
427.627	961.8
428.003	972.42
428.379	978.07
428.756	995.47
429.132	972.87
429.507	1012.64
429.883	1003.83
430.259	1055.35
430.635	1027.33
431.011	1037.95
431.387	1070.72
431.763	1091.96
432.138	1090.15
432.514	1101.45
432.89	1095.8
433.265	1136.26
433.641	1159.31
434.016	1155.46
434.392	1169.25
434.767	1148.68
435.143	1177.84
435.518	1214.22
435.894	1218.97
436.269	1214.45
436.644	1239.3
437.02	1261.22
437.395	1245.63
437.77	1266.65
438.145	1268
438.52	1298.29
438.895	1321.79
439.271	1281.11
439.646	1340.09
440.021	1347.78
440.395	1324.5
440.77	1340.54
441.145	1341.22
441.52	1403.37
441.895	1372.18
442.27	1418.73
442.645	1397.49
443.019	1408.11
443.394	1423.03
443.769	1432.97
444.143	1443.82
444.518	1439.52
444.892	1421.22
445.267	1449.69
445.641	1447.21
446.016	1472.74
446.39	1510.48
446.764	1544.15
447.139	1485.17
447.513	1534.89
447.887	1522.46
448.262	1545.06
448.636	1543.93
449.01	1564.27
449.384	1571.27
449.758	1562.68
450.132	1629.8
450.506	1633.64
450.88	1594.1
451.254	1619.18
451.628	1658.95
452.002	1666.64
452.376	1674.09
452.75	1677.48
453.123	1697.14
453.497	1725.62
453.871	1738.73
454.244	1768.56
454.618	1785.5
454.992	1829.8
455.365	1808.55
455.739	1833.19
456.112	1873.86
456.486	1884.48
456.859	1892.39
457.232	1943.24
457.606	1922.22
457.979	1966.74
458.352	1977.36
458.725	2040.19
459.099	2041.77
459.472	2094.2
459.845	2104.37
460.218	2088.32
460.591	2092.84
460.964	2154.08
461.337	2209
461.71	2216.45
462.083	2223.46
462.456	2247.64
462.829	2263.68
463.201	2305.26
463.574	2273.17
463.947	2334.64
464.32	2374.41
464.692	2372.83
465.065	2390.01
465.438	2464.36
465.81	2476.56
466.183	2462.1
466.555	2547.97
466.928	2588.87
467.3	2580.29
467.672	2605.82
468.045	2666.61
468.417	2698.25
468.789	2707.74
469.161	2728.98
469.534	2793.61
469.906	2839.94
470.278	2869.32
470.65	2885.59
471.022	2924.01
471.394	3000.16
471.766	3030.22
472.138	3023.66
472.51	3078.8
472.882	3148.63
473.253	3151.34
473.625	3221.62
473.997	3282.41
474.369	3298.68
474.74	3369.42
475.112	3403.54
475.484	3427.95
475.855	3459.36
476.227	3541.16
476.598	3599.92
476.97	3674.27
477.341	3707.49
477.713	3775.28
478.084	3837.88
478.455	3963.07
478.827	3939.12
479.198	4047.37
479.569	4040.81
479.94	4143.63
480.311	4181.83
480.682	4245.33
481.053	4330.75
481.424	4410.07
481.795	4415.72
482.166	4526
482.537	4572.1
482.908	4690.06
483.279	4760.11
483.65	4819.32
484.021	4869.49
484.391	4904.07
484.762	4991.3
485.133	5032.42
485.503	5128.92
485.874	5202.59
486.244	5231.06
486.615	5322.59
486.985	5403.94
487.356	5495.24
487.726	5569.13
488.097	5629.47
488.467	5632.18
488.837	5714.89
489.207	5838.96
489.578	5927.54
489.948	5987.2
490.318	6066.75
490.688	6078.27
491.058	6199.17
491.428	6266.06
491.798	6350.13
492.168	6391.26
492.538	6480.97
492.908	6494.98
493.278	6606.62
493.648	6613.4
494.017	6641.87
494.387	6733.17
494.757	6793.28
495.126	6904.92
495.496	6922.54
495.866	6956.89
496.235	7098.58
496.605	7071.47
496.974	7180.62
497.344	7227.17
497.713	7230.78
498.082	7318.92
498.452	7384.23
498.821	7487.95
499.19	7453.38
499.559	7513.04
499.928	7611.34
500.298	7683.88
500.667	7702.64
501.036	7744.22
501.405	7787.15
501.774	7816.76
502.143	7877.32
502.512	7902.63
502.88	8034.61
503.249	8044.1
503.618	8090.2
503.987	8111.89
504.356	8242.74
504.724	8268.05
505.093	8240.7
505.462	8341.72
505.83	8388.27
506.199	8420.13
506.567	8571.31
506.936	8610.86
507.304	8662.16
507.672	8693.12
508.041	8769.05
508.409	8854.47
508.777	8964.07
509.145	8950.74
509.514	8961.81
509.882	9017.86
510.25	9114.12
510.618	9134.92
510.986	9111.64
511.354	9264.86
511.722	9360.67
512.09	9499.43
512.458	9482.48
512.826	9533.1
513.193	9641.34
513.561	9610.16
513.929	9691.51
514.297	9766.09
514.664	9881.34
515.032	9891.51
515.4	10031.16
515.767	10078.17
516.135	10084.27
516.502	10046.98
516.869	10256.69
517.237	10282.23
517.604	10309.12
517.972	10424.6
518.339	10426.63
518.706	10526.74
519.073	10607.87
519.44	10661.2
519.808	10764.7
520.175	10855.77
520.542	10996.11
520.909	11073.85
521.276	11091.7
521.643	11184.58
522.009	11218.93
522.376	11270.23
522.743	11428.41
523.11	11469.32
523.477	11617.11
523.843	11711.57
524.21	11744.56
524.577	11879.02
524.943	11859.14
525.31	11978
525.676	12083.76
526.043	12204.21
526.409	12260.71
526.776	12319.46
527.142	12377.77
527.508	12490.99
527.874	12523.75
528.241	12643.52
528.607	12635.61
528.973	12843.07
529.339	12852.56
529.705	13006.23
530.071	13072.66
530.437	13038.32
530.803	13245.09
531.169	13268.37
531.535	13348.14
531.901	13482.37
532.267	13444.63
532.632	13554.69
532.998	13595.36
533.364	13643.27
533.73	13737.96
534.095	13770.27
534.461	13916.71
534.826	13937.5
535.192	13965.75
535.557	14118.74
535.923	14079.64
536.288	14183.14
536.653	14204.84
537.019	14266.53
537.384	14387.21
537.749	14355.34
538.114	14414.1
538.479	14485.96
538.845	14570.25
539.21	14619.74
539.575	14657.03
539.94	14651.83
540.305	14816.35
540.67	14742.68
541.034	14754.43
541.399	14872.17
541.764	15020.41
542.129	15031.48
542.494	15068.54
542.858	15016.79
543.223	15127.98
543.587	15159.84
543.952	15131.59
544.316	15204.13
544.681	15198.03
545.045	15291.59
545.41	15349.44
545.774	15464.92
546.138	15444.35
546.503	15537.01
546.867	15522.54
547.231	15694.52
547.595	15682.99
547.959	15876.88
548.324	15671.01
548.688	15684.35
549.052	15805.7
549.416	15920.27
549.779	15945.13
550.143	15990.55
550.507	16113.26
550.871	16198.91
551.235	16165.24
551.599	16320.94
551.962	16315.97
552.326	16448.17
552.689	16506.02
553.053	16379.24
553.417	16487.94
553.78	16695.85
554.143	16726.35
554.507	16796.86
554.87	16818.33
555.234	17112.56
555.597	16906.69
555.96	17016.06
556.323	17070.75
556.686	17064.42
557.05	17133.8
557.413	17215.15
557.776	17277.3
558.139	17394.81
558.502	17447.24
558.865	17584.41
559.228	17661.7
559.59	17689.72
559.953	17868.92
560.316	17821.01
560.679	17906.21
561.041	18029.82
561.404	18068.69
561.767	18161.34
562.129	18117.96
562.492	18282.7
562.854	18352.98
563.217	18377.16
563.579	18480.88
563.941	18613.54
564.304	18711.16
564.666	18769.24
565.028	18812.85
565.39	18888.33
565.753	18852.85
566.115	18973.75
566.477	19032.96
566.839	19205.16
567.201	19238.15
567.563	19243.58
567.925	19376
568.287	19484.47
568.648	19475.21
569.01	19559.73
569.372	19744.58
569.734	19721.3
570.095	19817.35
570.457	19951.81
570.819	20005.82
571.18	20034.52
571.542	20040.84
571.903	20128.52
572.265	20166.72
572.626	20243.55
572.987	20214.62
573.349	20361.06
573.71	20351.12
574.071	20413.94
574.432	20529.64
574.794	20572.35
575.155	20584.78
575.516	20531.9
575.877	20661.62
576.238	20527.84
576.599	20694.39
576.96	20798.79
577.32	20671.34
577.681	20891.44
578.042	20909.75
578.403	21006.69
578.763	20968.28
579.124	21070.42
579.485	21121.27
579.845	21102.51
580.206	20981.84
580.566	21094.37
580.927	21083.08
581.287	21154.71
581.648	21031.33
582.008	21242.39
582.368	21120.36
582.728	21228.16
583.089	21212.56
583.449	21164.2
583.809	21177.99
584.169	21199
584.529	21123.75
584.889	21284.2
585.249	21153.58
585.609	21153.36
585.969	21239.46
586.329	21100.02
586.688	21279.45
587.048	21323.97
587.408	21271.55
587.768	21100.02
588.127	21309.28
588.487	21258.44
588.846	21317.42
589.206	21064.55
589.565	21114.26
589.925	21230.42
590.284	21279.91
590.643	21179.8
591.003	21328.72
591.362	21194.49
591.721	21260.02
592.08	21196.29
592.44	21406.68
592.799	21303.86
593.158	21244.43
593.517	21327.14
593.876	21404.2
594.235	21473.12
594.593	21315.61
594.952	21335.05
595.311	21332.56
595.67	21371.66
596.029	21427.02
596.387	21403.29
596.746	21506.34
597.104	21325.78
597.463	21377.53
597.822	21453.24
598.18	21427.47
598.538	21355.84
598.897	21529.62
599.255	21468.83
599.613	21777.29
599.972	21587.7
600.33	21671.53
600.688	21487.36
601.046	21573.46
601.404	21554.7
601.762	21561.48
602.12	21758.54
602.478	21615.04
602.836	21746.33
603.194	21620.24
603.552	21682.16
603.91	21628.15
604.268	21740.69
604.625	21631.99
604.983	21710.63
605.341	21485.1
605.698	21643.06
606.056	21674.02
606.413	21667.24
606.771	21661.82
607.128	21831.53
607.485	21744.3
607.843	21839.21
608.2	21825.65
608.557	21854.13
608.914	21833.34
609.272	21963.05
609.629	22002.6
609.986	22010.51
610.343	21990.17
610.7	22026.1
611.057	22035.14
611.414	22184.06
611.771	22053.9
612.127	22242.82
612.484	22235.81
612.841	22264.97
613.198	22276.26
613.554	22299.31
613.911	22371.4
614.267	22314.91
614.624	22238.3
614.98	22197.62
615.337	22401.46
615.693	22332.31
616.05	22238.98
616.406	22337.96
616.762	22309.03
617.118	22402.59
617.475	22344.51
617.831	22467.67
618.187	22411.18
618.543	22511.06
618.899	22732.3
619.255	22637.61
619.611	22615.24
619.967	22680.32
620.323	22740.43
620.678	22585.63
621.034	22532.3
621.39	22588.57
621.746	22473.77
622.101	22596.71
622.457	22577.5
622.812	22522.13
623.168	22692.52
623.523	22782.69
623.879	22676.25
624.234	22598.06
624.589	22636.03
624.945	22555.35
625.3	22577.73
625.655	22659.31
626.01	22508.35
626.365	22605.75
626.72	22579.99
627.075	22575.69
627.43	22489.14
627.785	22591.06
628.14	22563.71
628.495	22607.1
628.85	22573.66
629.205	22551.29
629.559	22711.96
629.914	22526.2
630.269	22532.98
630.623	22530.04
630.978	22380.44
631.332	22480.78
631.687	22491.17
632.041	22478.97
632.396	22546.09
632.75	22343.16
633.104	22389.48
633.459	22268.58
633.813	22216.83
634.167	22243.05
634.521	22258.19
634.875	22196.04
635.229	22187.45
635.583	22014.12
635.937	22098.19
636.291	21946.1
636.645	21911.98
636.999	21874.47
637.352	21966.44
637.706	21878.76
638.06	21945.88
638.413	21912.43
638.767	21887.57
639.121	21919.66
639.474	21739.56
639.828	21811.87
640.181	21766.45
640.534	21742.95
640.888	21588.15
641.241	21516.28
641.594	21536.4
641.947	21643.29
642.301	21431.77
642.654	21484.65
643.007	21603.97
643.36	21495.49
643.713	21357.87
644.066	21560.13
644.419	21493.69
644.771	21253.69
645.124	21086.47
645.477	21077.65
645.83	20934.6
646.182	20825.91
646.535	20679.02
646.888	20791.33
647.24	20608.51
647.593	20748.62
647.945	20649.87
648.298	20558.34
648.65	20511.57
649.002	20441.74
649.355	20484
649.707	20463.2
650.059	20762.41
650.411	20971.44
650.763	20945
651.115	21114.49
651.467	21148.61
651.819	21027.71
652.171	20942.74
652.523	20937.09
652.875	20915.17
653.227	20853.48
653.578	21003.3
653.93	20854.83
654.282	20731.22
654.633	20719.92
654.985	20711.33
655.337	20763.76
655.688	20860.03
656.039	20806.25
656.391	20495.97
656.742	20595.4
657.094	20643.31
657.445	20809.86
657.796	20776.64
658.147	20682.63
658.498	20723.54
658.849	20735.29
659.2	20684.22
659.551	20551.34
659.902	20685.12
660.253	20640.83
660.604	20639.92
660.955	20570.09
661.306	20529.87
661.656	20517.67
662.007	20486.48
662.358	20411.68
662.708	20432.7
663.059	20471.79
663.409	20333.49
663.76	20475.41
664.11	20437.22
664.461	20536.65
664.811	20491.45
665.161	20453.49
665.511	20375.07
665.862	20324
666.212	20308.18
666.562	20368.07
666.912	20307.05
667.262	20306.37
667.612	20228.63
667.962	20306.82
668.312	20181.18
668.662	20343.21
669.011	20292.59
669.361	20190.9
669.711	20180.27
670.06	20171.91
670.41	20005.36
670.76	19998.36
671.109	20032.48
671.459	20128.98
671.808	20004.23
672.157	20150.67
672.507	19961.75
672.856	19967.4
673.205	19871.36
673.554	19990.22
673.904	19920.62
674.253	20001.97
674.602	19960.39
674.951	19632.49
675.3	19583
675.649	19743
675.998	19849.89
676.346	19942.31
676.695	19937.34
677.044	19814.41
677.393	19829.32
677.741	19768.53
678.09	19698.25
678.438	19711.81
678.787	19785.93
679.135	19698.71
679.484	19571.93
679.832	19722.66
680.181	19511.37
680.529	19677.91
680.877	19549.33
681.225	19536.22
681.573	19681.53
681.922	19418.71
682.27	19384.82
682.618	19468.65
682.966	19355.44
683.314	19399.73
683.661	19318.83
684.009	19228.89
684.357	19136.23
684.705	19033.41
685.053	19237.02
685.4	19283.35
685.748	18993.86
686.095	19026.86
686.443	18790.71
686.79	18939.18
687.138	18889.23
687.485	18814.43
687.832	18712.06
688.18	18701.67
688.527	18635.23
688.874	18709.58
689.221	18602.91
689.568	18583.93
689.915	18541.45
690.262	18507.1
690.609	18377.38
690.956	18381.9
691.303	18363.15
691.65	18186.65
691.997	18255.35
692.344	18120.44
692.69	18186.65
693.037	18142.59
693.383	17999.31
693.73	18184.39
694.077	18004.06
694.423	18100.78
694.769	17894.91
695.116	17988.02
695.462	17902.14
695.808	17694.92
696.155	17763.84
696.501	17621.92
696.847	17663.05
697.193	17610.62
697.539	17634.8
697.885	17546.22
698.231	17421.93
698.577	17394.36
698.923	17379.67
699.269	17327.47
699.614	17231.2
699.96	17221.71
700.306	17101.03
700.651	17065.55
700.997	16967.7
701.342	16983.52
701.688	16946.24
702.033	16912.34
702.379	16882.06
702.724	16883.86
703.069	17006.8
703.415	16840.48
703.76	16720.48
704.105	16764.77
704.45	16762.29
704.795	16602.97
705.14	16543.53
705.485	16567.49
705.83	16432.8
706.175	16492.69
706.52	16446.36
706.865	16299.7
707.209	16376.98
707.554	16311.22
707.899	16300.15
708.243	16206.37
708.588	16210.66
708.932	16056.09
709.277	16132.92
709.621	16095.18
709.966	16018.35
710.31	16035.75
710.654	15859.94
710.998	15944
711.342	15857.45
711.687	15914.4
712.031	15765.02
712.375	15635.31
712.719	15596.67
713.063	15606.84
713.407	15626.5
713.75	15465.6
714.094	15467.63
714.438	15455.65
714.782	15472.6
715.125	15440.06
715.469	15442.77
715.812	15384.69
716.156	15241.87
716.499	15345.6
716.843	15260.4
717.186	15190.35
717.53	15231.48
717.873	15326.16
718.216	15289.78
718.559	15201.65
718.902	15058.83
719.246	15196.68
719.589	15134.08
719.932	15010.47
720.275	15005.72
720.617	14865.16
720.96	14884.37
721.303	14821.77
721.646	14918.49
721.989	14817.7
722.331	14867.65
722.674	14840.75
723.016	14812.51
723.359	14796.69
723.701	14718.05
724.044	14702
724.386	14657.71
724.729	14669.91
725.071	14606.86
725.413	14565.28
725.755	14533.42
726.097	14462.46
726.439	14424.27
726.782	14417.71
727.124	14506.07
727.465	14352.63
727.807	14408.9
728.149	14349.92
728.491	14271.73
728.833	14303.82
729.175	14251.39
729.516	14238.51
729.858	14257.94
730.199	14342.24
730.541	14196.03
730.882	14126.2
731.224	14169.81
731.565	14124.16
731.906	14008.91
732.248	14027.89
732.589	14013.43
732.93	13918.52
733.271	14050.72
733.612	14041
733.953	14085.97
734.294	13939.99
734.635	13931.63
734.976	13937.05
735.317	13902.25
735.658	13908.12
735.999	13833.77
736.339	13769.37
736.68	13810.72
737.021	13708.81
737.361	13666.77
737.702	13763.72
738.042	13686.43
738.383	13709.26
738.723	13639.2
739.063	13534.12
739.404	13682.59
739.744	13552.2
740.084	13520.56
740.424	13623.61
740.764	13532.09
741.104	13559.88
741.444	13462.03
741.784	13426.1
742.124	13342.94
742.464	13346.78
742.804	13368.93
743.143	13260.68
743.483	13369.38
743.823	13220.91
744.162	13382.49
744.502	13323.73
744.841	13288.7
745.181	13319.89
745.52	13283.96
745.86	13307.23
746.199	13256.39
746.538	13210.97
746.877	13163.06
747.216	13074.7
747.556	13022.04
747.895	13038.99
748.234	13044.87
748.573	13107.01
748.911	12965.32
749.25	12980.69
749.589	12887.36
749.928	13010.29
750.267	12904.31
750.605	12867.47
750.944	12838.55
751.283	12773.69
751.621	12875.38
751.96	12765.78
752.298	12739.11
752.636	12780.02
752.975	12695.27
753.313	12638.78
753.651	12672.9
753.989	12676.07
754.327	12586.35
754.666	12553.81
755.004	12396.52
755.342	12438.33
755.679	12471.1
756.017	12363.98
756.355	12352.68
756.693	12272.69
757.031	12403.76
757.368	12262.97
757.706	12250.09
758.044	12241.95
758.381	12281.73
758.719	12218.9
759.056	12231.78
759.394	12224.33
759.731	12059.58
760.068	12084.67
760.405	12000.6
760.743	11942.75
761.08	11907.5
761.417	11815.52
761.754	11891.23
762.091	11875.18
762.428	11856.65
762.765	11768.52
763.102	11705.47
763.438	11665.7
763.775	11556.55
764.112	11549.09
764.449	11552.7
764.785	11509.54
765.122	11453.72
765.458	11502.99
765.795	11353.61
766.131	11460.5
766.467	11357.23
766.804	11224.58
767.14	11243.79
767.476	11193.17
767.812	11162.66
768.148	11218.02
768.485	11098.48
768.821	11089.21
769.157	11102.1
769.492	11068.88
769.828	11047.86
770.164	10941.42
770.5	10933.74
770.836	10973.51
771.171	10899.16
771.507	10769.45
771.842	10764.93
772.178	10793.4
772.513	10725.61
772.849	10722.44
773.184	10621.66
773.519	10609.45
773.855	10537.36
774.19	10478.16
774.525	10487.65
774.86	10484.26
775.195	10481.55
775.53	10354.54
775.865	10403.58
776.2	10285.17
776.535	10240.42
776.87	10225.06
777.205	10213.3
777.539	10150.03
777.874	10165.62
778.209	10103.48
778.543	10089.92
778.878	10025.74
779.212	10017.6
779.547	9962.24
779.881	9970.83
780.215	9805.86
780.55	9836.14
780.884	9726.76
781.218	9730.61
781.552	9704.84
781.886	9684.96
782.22	9601.34
782.554	9575.58
782.888	9502.36
783.222	9426.88
783.556	9468.92
783.889	9463.49
784.223	9385.08
784.557	9396.38
784.89	9408.13
785.224	9350.5
785.557	9342.59
785.891	9270.73
786.224	9285.42
786.558	9213.78
786.891	9135.82
787.224	9096.05
787.557	9139.89
787.891	9125.65
788.224	9102.6
788.557	9130.4
788.89	9065.31
789.223	9096.05
789.556	8959.33
789.888	8977.41
790.221	8961.13
790.554	8926.33
790.887	8917.75
791.219	8795.72
791.552	8762.95
791.884	8714.59
792.217	8668.49
792.549	8651.31
792.882	8594.59
793.214	8548.49
793.546	8625.78
793.879	8606.34
794.211	8494.03
794.543	8513.24
794.875	8516.63
795.207	8562.27
795.539	8462.84
795.871	8410.19
796.203	8403.63
796.535	8326.35
796.867	8282.06
797.198	8201.61
797.53	8233.7
797.862	8174.71
798.193	8209.97
798.525	8177.43
798.856	8153.25
799.188	8100.37
799.519	8102.17
799.85	7999.8
800.182	8061.5
800.513	7989.63
800.844	7962.52
801.175	8038.22
801.506	8055.62
801.837	7970.88
802.168	7905.57
802.499	7852.91
802.83	7813.82
803.161	7861.28
803.491	7861.5
803.822	7791
804.153	7780.83
804.483	7661.73
804.814	7634.62
805.145	7656.54
805.475	7577.89
805.805	7638.01
806.136	7674.61
806.466	7647.04
806.796	7662.86
807.126	7560.27
807.457	7546.48
807.787	7493.15
808.117	7454.06
808.447	7518.69
808.777	7529.31
809.107	7456.77
809.436	7487.5
809.766	7449.08
810.096	7421.97
810.426	7297
810.755	7422.64
811.085	7379.48
811.414	7294.74
811.744	7277.56
812.073	7213.84
812.403	7211.12
812.732	7177
813.061	7220.84
813.39	7096.78
813.719	7181.29
814.049	7174.97
814.378	7185.81
814.707	7101.97
815.036	7104.23
815.365	7099.04
815.693	7069.88
816.022	7014.07
816.351	6985.14
816.68	7000.51
817.008	6928.42
817.337	6908.76
817.665	6908.08
817.994	6934.75
818.322	6927.74
818.651	6819.72
818.979	6859.95
819.307	6890.91
819.636	6835.09
819.964	6814.98
820.292	6803.68
820.62	6832.83
820.948	6847.97
821.276	6835.31
821.604	6835.99
821.932	6874.64
822.259	6791.47
822.587	6805.71
822.915	6759.16
823.243	6859.27
823.57	6776.79
823.898	6734.98
824.225	6775.66
824.553	6801.64
824.88	6823.56
825.207	6831.47
825.535	6804.35
825.862	6805.48
826.189	6812.26
826.516	6861.08
826.843	6793.06
827.17	6817.24
827.497	6824.24
827.824	6841.87
828.151	6875.77
828.478	6786.73
828.805	6792.15
829.131	6775.43
829.458	6823.79
829.785	6780.4
830.111	6771.59
830.438	6817.91
830.764	6768.65
831.09	6768.42
831.417	6749.67
831.743	6812.94
832.069	6727.52
832.395	6692.95
832.722	6779.5
833.048	6750.57
833.374	6734.53
833.7	6721.87
834.026	6763
834.351	6705.83
834.677	6711.48
835.003	6697.69
835.329	6698.82
835.654	6729.78
835.98	6693.62
836.306	6710.8
836.631	6681.87
836.956	6643.46
837.282	6681.65
837.607	6572.95
837.932	6560.75
838.258	6565.27
838.583	6555.77
838.908	6522.33
839.233	6547.86
839.558	6540.63
839.883	6558.49
840.208	6503.35
840.533	6585.6
840.858	6556.9
841.182	6522.55
841.507	6510.35
841.832	6520.52
842.156	6455.21
842.481	6479.62
842.805	6515.78
843.13	6435.55
843.454	6388.77
843.778	6466.28
844.103	6373.63
844.427	6414.53
844.751	6342.45
845.075	6358.72
845.399	6351.71
845.723	6282.79
846.047	6313.07
846.371	6269
846.695	6299.28
847.019	6276.01
847.343	6263.13
847.666	6184.94
847.99	6129.8
848.313	6162.34
848.637	6130.7
848.96	6089.57
849.284	6093.41
849.607	6038.27
849.931	6003.7
850.254	5986.07
850.577	5937.03
850.9	5926.41
851.223	5946.98
851.546	5878.28
851.869	5857.94
852.192	5905.85
852.515	5830.37
852.838	5736.81
853.161	5717.83
853.483	5711.05
853.806	5728.9
854.129	5706.08
854.451	5719.64
854.774	5631.05
855.096	5601.9
855.419	5621.11
855.741	5663.59
856.063	5595.35
856.385	5617.27
856.708	5603.71
857.03	5584.95
857.352	5568.46
857.674	5517.16
857.996	5471.51
858.318	5483.03
858.64	5505.41
858.961	5523.71
859.283	5504.05
859.605	5469.7
859.926	5457.05
860.248	5455.69
860.57	5372.53
860.891	5412.53
861.212	5367.56
861.534	5382.47
861.855	5364.17
862.176	5383.15
862.498	5375.24
862.819	5358.07
863.14	5361.46
863.461	5321.68
863.782	5303.6
864.103	5283.04
864.424	5247.79
864.745	5309.93
865.065	5241.01
865.386	5218.86
865.707	5266.77
866.027	5232.64
866.348	5252.53
866.668	5175.02
866.989	5246.66
867.309	5149.26
867.63	5153.32
867.95	5195.13
868.27	5163.27
868.59	5231.97
868.91	5142.93
869.23	5155.36
869.55	5125.76
869.87	5126.43
870.19	5153.32
870.51	5197.84
870.83	5172.08
871.15	5072.65
871.469	5107.9
871.789	5161.01
872.109	5123.04
872.428	5075.13
872.748	5135.92
873.067	5082.59
873.386	5076.26
873.706	5038.53
874.025	5055.25
874.344	5047.34
874.663	5017.28
874.982	5039.43
875.301	5004.63
875.62	4982.03
875.939	4960.11
876.258	5008.92
876.577	4986.1
876.896	4944.74
877.214	4875.59
877.533	4871.52
877.852	4883.5
878.17	4957.85
878.489	4981.58
878.807	4873.33
879.125	4907.23
879.444	4918.08
879.762	4862.94
880.08	4879.21
880.398	4867.91
880.716	4876.5
881.034	4794.69
881.352	4862.26
881.67	4840.56
881.988	4838.3
882.306	4785.2
882.624	4822.03
882.941	4766.22
883.259	4791.53
883.577	4762.37
883.894	4765.09
884.212	4787.23
884.529	4728.7
884.846	4739.55
885.164	4731.19
885.481	4718.31
885.798	4689.83
886.115	4646.22
886.432	4637.41
886.75	4635.82
887.067	4590.63
887.383	4620.91
887.7	4625.43
888.017	4613.68
888.334	4597.18
888.651	4533
888.967	4580.46
889.284	4589.95
889.6	4536.84
889.917	4507.69
890.233	4523.74
890.55	4554.47
890.866	4556.5
891.182	4469.28
891.498	4488.71
891.815	4476.96
892.131	4516.51
892.447	4460.46
892.763	4455.49
893.079	4448.71
893.395	4432.44
893.71	4392.89
894.026	4422.5
894.342	4363.06
894.657	4348.37
894.973	4342.95
895.289	4317.41
895.604	4346.34
895.92	4274.48
896.235	4294.59
896.55	4285.78
896.865	4277.42
897.181	4270.41
897.496	4273.35
897.811	4253.01
898.126	4234.25
898.441	4188.15
898.756	4188.83
899.071	4121.71
899.386	4170.07
899.7	4124.88
900.015	4153.58
900.33	4120.58
900.644	4141.15
900.959	4140.47
901.273	4089.17
901.588	4081.49
901.902	4091.66
902.216	4083.52
902.531	4051.21
902.845	4072.45
903.159	4019.57
903.473	4024.77
903.787	3955.39
904.101	3972.57
904.415	3915.17
904.729	3962.4
905.042	3909.52
905.356	3884.88
905.67	3879.23
905.984	3880.59
906.297	3867.03
906.611	3860.48
906.924	3865.9
907.237	3808.95
907.551	3832.68
907.864	3819.57
908.177	3794.49
908.491	3787.49
908.804	3744.1
909.117	3787.26
909.43	3742.74
909.743	3687.83
910.056	3709.07
910.368	3692.35
910.681	3684.44
910.994	3659.58
911.307	3681.05
911.619	3647.15
911.932	3659.35
912.244	3602.18
912.557	3648.73
912.869	3605.34
913.181	3583.42
913.494	3580.71
913.806	3525.57
914.118	3555.85
914.43	3554.5
914.742	3507.49
915.054	3481.96
915.366	3486.93
915.678	3486.48
915.99	3417.33
916.302	3434.05
916.613	3427.49
916.925	3397.89
917.236	3382.75
917.548	3384.11
917.859	3398.12
918.171	3375.29
918.482	3374.16
918.794	3331.23
919.105	3321.73
919.416	3276.54
919.727	3266.14
920.038	3298.68
920.349	3252.58
920.66	3234.51
920.971	3269.08
921.282	3194.05
921.593	3185.92
921.903	3154.51
922.214	3186.15
922.525	3189.76
922.835	3155.19
923.146	3139.37
923.456	3153.15
923.767	3191.79
924.077	3135.07
924.387	3064.79
924.697	3056.43
925.008	3057.33
925.318	3060.27
925.628	3083.32
925.938	3070.44
926.248	3046.26
926.558	3001.07
926.867	3017.34
927.177	2971.69
927.487	3015.98
927.796	2961.07
928.106	2924.46
928.416	2961.07
928.725	2985.02
929.034	2898.24
929.344	2901.41
929.653	2879.71
929.962	2874.74
930.271	2869.09
930.581	2840.62
930.89	2854.4
931.199	2851.24
931.508	2821.41
931.817	2838.36
932.125	2785.93
932.434	2805.14
932.743	2771.47
933.051	2780.51
933.36	2740.73
933.669	2755.87
933.977	2706.84
934.286	2747.06
934.594	2715.65
934.902	2746.83
935.21	2704.35
935.519	2677.01
935.827	2675.2
936.135	2663.9
936.443	2668.42
936.751	2638.59
937.059	2658.7
937.367	2623.9
937.674	2617.35
937.982	2610.34
938.29	2591.36
938.597	2581.42
938.905	2566.05
939.213	2590.68
939.52	2550.91
939.827	2542.77
940.135	2543.45
940.442	2531.25
940.749	2555.88
941.056	2494.41
941.363	2493.96
941.67	2479.27
941.977	2444.47
942.284	2447.18
942.591	2440.4
942.898	2403.79
943.205	2433.85
943.511	2436.11
943.818	2428.2
944.125	2415.54
944.431	2399.5
944.738	2334.87
945.044	2369.67
945.35	2354.98
945.657	2392.72
945.963	2315.21
946.269	2361.31
946.575	2353.62
946.881	2329.22
947.187	2297.13
947.493	2305.04
947.799	2292.61
948.105	2294.42
948.41	2258.26
948.716	2271.82
949.022	2253.29
949.327	2249.9
949.633	2234.53
949.938	2255.1
950.244	2205.83
950.549	2195.21
950.854	2190.01
951.16	2216.9
951.465	2170.13
951.77	2153.86
952.075	2197.24
952.38	2151.37
952.685	2144.82
952.99	2109.34
953.294	2126.29
953.599	2116.12
953.904	2128.77
954.209	2103.24
954.513	2100.3
954.818	2076.8
955.122	2060.75
955.426	2062.78
955.731	2089.45
956.035	2077.47
956.339	2036.34
956.643	2027.53
956.948	2018.72
957.252	2070.47
957.556	2037.47
957.86	2017.36
958.163	2010.13
958.467	1999.06
958.771	2014.2
959.075	2001.09
959.378	1988.66
959.682	2019.62
959.985	1963.58
960.289	1948.21
960.592	1985.05
960.896	1943.92
961.199	1943.01
961.502	1925.39
961.805	1904.14
962.108	1893.3
962.411	1899.63
962.714	1868.89
963.017	1883.13
963.32	1891.94
963.623	1834.99
963.926	1858.72
964.228	1843.58
964.531	1855.78
964.833	1833.86
965.136	1850.81
965.438	1825.05
965.741	1840.87
966.043	1848.1
966.345	1826.41
966.648	1792.06
966.95	1779.63
967.252	1809.01
967.554	1776.01
967.856	1793.19
968.158	1778.5
968.46	1741.89
968.761	1748.67
969.063	1751.83
969.365	1726.52
969.666	1727.2
969.968	1695.34
970.269	1695.79
970.571	1740.08
970.872	1721.55
971.174	1722
971.475	1682.68
971.776	1670.93
972.077	1714.77
972.378	1631.38
972.679	1663.7
972.98	1687.2
973.281	1655.56
973.582	1667.09
973.883	1630.48
974.183	1637.71
974.484	1619.41
974.785	1622.8
975.085	1608.79
975.386	1614.21
975.686	1589.12
975.986	1598.16
976.287	1588.9
976.587	1576.47
976.887	1581.44
977.187	1569.92
977.487	1562.46
977.787	1551.16
978.087	1556.13
978.387	1546.19
978.687	1539.41
978.987	1557.71
979.286	1529.01
979.586	1521.33
979.885	1524.72
980.185	1493.53
980.484	1520.2
980.784	1491.27
981.083	1500.77
981.382	1526.75
981.682	1487.88
981.981	1481.33
982.28	1451.5
982.579	1454.67
982.878	1491.5
983.177	1451.73
983.475	1435
983.774	1445.4
984.073	1428.68
984.372	1404.27
984.67	1420.77
984.969	1415.57
985.267	1432.29
985.566	1385.97
985.864	1382.12
986.162	1412.41
986.461	1402.46
986.759	1360.66
987.057	1385.06
987.355	1384.38
987.653	1349.58
987.951	1351.17
988.249	1368.34
988.547	1365.85
988.844	1366.53
989.142	1366.98
989.44	1315.91
989.737	1355.68
990.035	1323.6
990.332	1336.02
990.63	1344.61
990.927	1328.79
991.224	1310.94
991.521	1289.47
991.819	1295.8
992.116	1287.21
992.413	1271.39
992.71	1282.24
993.006	1267.1
993.303	1286.99
993.6	1277.04
993.897	1264.61
994.193	1245.86
994.49	1265.07
994.787	1242.24
995.083	1246.99
995.379	1256.48
995.676	1213.99
995.972	1225.52
996.268	1235.24
996.565	1199.53
996.861	1200.21
997.157	1182.13
997.453	1192.53
997.749	1195.69
998.044	1178.29
998.34	1185.07
998.636	1165.41
998.932	1183.71
999.227	1185.52
999.523	1177.16
999.818	1154.56
1000.114	1168.57
1000.409	1135.58
1000.704	1135.35
1001	1140.55
1001.295	1133.32
1001.59	1122.02
1001.885	1115.01
1002.18	1143.71
1002.475	1109.82
1002.77	1098.74
1003.065	1098.74
1003.359	1091.06
1003.654	1102.13
1003.949	1090.38
1004.243	1092.87
1004.538	1089.48
1004.832	1075.92
1005.127	1077.95
1005.421	1065.75
1005.715	1070.72
1006.009	1043.15
1006.304	1044.73
1006.598	1025.3
1006.892	1018.74
1007.186	999.99
1007.48	1038.63
1007.773	1031.4
1008.067	1030.72
1008.361	1013.09
1008.655	1012.87
1008.948	1019.2
1009.242	1015.58
1009.535	1009.48
1009.829	1001.8
1010.122	984.17
1010.415	961.57
1010.708	971.29
1011.001	938.29
1011.295	961.34
1011.588	969.03
1011.881	963.83
1012.173	951.63
1012.466	947.33
1012.759	944.4
1013.052	942.59
1013.344	940.1
1013.637	928.35
1013.93	918.18
1014.222	934.23
1014.514	919.76
1014.807	896.94
1015.099	914.79
1015.391	896.04
1015.683	890.16
1015.976	901.91
1016.268	901.46
1016.56	880.67
1016.851	878.18
1017.143	863.95
1017.435	884.28
1017.727	879.77
1018.018	856.49
1018.31	864.4
1018.602	859.43
1018.893	848.35
1019.185	834.79
1019.476	831.63
1019.767	841.57
1020.058	825.08
1020.35	830.73
1020.641	804.06
1020.932	828.01
1021.223	799.99
1021.514	809.03
1021.804	812.42
1022.095	809.48
1022.386	808.81
1022.677	780.56
1022.967	814
1023.258	788.92
1023.548	788.69
1023.839	776.94
1024.129	773.1
1024.419	774.46
1024.709	780.11
1025	775.13
1025.29	766.1
1025.58	769.49
1025.87	741.92
1026.16	773.78
1026.449	781.69
1026.739	765.19
1027.029	755.25
1027.319	717.96
1027.608	714.57
1027.898	732.65
1028.187	744.18
1028.477	722.71
1028.766	713.89
1029.055	704.4
1029.344	715.93
1029.634	681.13
1029.923	731.29
1030.212	710.5
1030.501	739.43
1030.79	698.07
1031.078	689.71
1031.367	684.97
1031.656	693.1
1031.945	675.48
1032.233	683.61
1032.522	687.45
1032.81	653.1
1033.099	655.59
1033.387	671.18
1033.675	665.76
1033.963	660.79
1034.251	657.17
1034.54	642.71
1034.828	647.23
1035.116	653.78
1035.403	624.63
1035.691	645.42
1035.979	642.94
1036.267	629.38
1036.554	610.62
1036.842	633.22
1037.129	634.8
1037.417	630.05
1037.704	633.9
1037.992	617.4
1038.279	645.19
1038.566	622.82
1038.853	622.82
1039.14	622.82
