Data from black_metal_pc_casing_FLMS001491_00020.txt Node
Date: Wed Feb 08 14:32:04 GMT 2017
User: dcchb
Spectrometer: FLMS00149
Trigger mode: 0
Integration Time (sec): 2.000000E-2
Scans to average: 10
Electric dark correction enabled: true
Nonlinearity correction enabled: false
Boxcar width: 0
XAxis mode: Wavelengths
Number of Pixels in Spectrum: 2048
>>>>>Begin Spectral Data<<<<<
341.393	-10.83
341.776	-10.83
342.16	-10.83
342.543	-67.78
342.927	-55.58
343.31	-60.32
343.693	-80.89
344.077	-62.36
344.46	-63.04
344.843	-55.13
345.226	-40.44
345.61	-24.62
345.993	-22.13
346.376	-18.97
346.759	-5.18
347.142	34.59
347.525	36.17
347.908	65.1
348.291	81.59
348.674	93.35
349.057	122.27
349.44	131.76
349.823	159.11
350.206	140.8
350.588	174.25
350.971	179.44
351.354	208.14
351.737	222.83
352.119	251.31
352.502	233.23
352.884	255.37
353.267	257.18
353.65	280.91
354.032	275.26
354.414	294.24
354.797	299.44
355.179	307.8
355.562	277.75
355.944	317.29
356.326	311.64
356.709	328.59
357.091	317.97
357.473	314.36
357.855	325.43
358.238	330.17
358.62	313.23
359.002	334.92
359.384	333.11
359.766	319.55
360.148	341.02
360.53	336.73
360.912	316.16
361.294	310.51
361.676	317.29
362.057	313
362.439	314.58
362.821	316.84
363.203	320.01
363.584	313.68
363.966	310.74
364.348	291.31
364.729	303.96
365.111	306.67
365.493	297.18
365.874	293.34
366.256	290.63
366.637	307.8
367.019	295.37
367.4	310.06
367.781	300.8
368.163	307.8
368.544	277.29
368.925	296.05
369.306	318.42
369.688	304.86
370.069	292.89
370.45	324.53
370.831	307.8
371.212	303.28
371.593	317.52
371.974	294.7
372.355	303.51
372.736	296.73
373.117	295.37
373.498	287.01
373.879	309.61
374.26	298.99
374.641	309.84
375.021	288.59
375.402	289.05
375.783	275.71
376.163	308.03
376.544	309.38
376.925	306.22
377.305	322.49
377.686	314.81
378.066	300.12
378.447	293.79
378.827	323.4
379.208	321.59
379.588	315.49
379.968	322.04
380.349	332.66
380.729	322.49
381.109	333.56
381.489	341.47
381.87	313.9
382.25	310.29
382.63	329.05
383.01	316.16
383.39	322.04
383.77	317.29
384.15	337.41
384.53	322.72
384.91	332.66
385.29	321.14
385.67	334.47
386.049	337.18
386.429	322.94
386.809	349.61
387.189	343.06
387.568	349.16
387.948	340.34
388.328	344.41
388.707	340.57
389.087	353.23
389.466	333.79
389.846	364.98
390.225	345.32
390.605	374.92
390.984	362.26
391.363	339.89
391.743	358.87
392.122	352.1
392.501	362.49
392.881	371.3
393.26	371.98
393.639	352.55
394.018	377.86
394.397	377.41
394.776	368.37
395.155	352.32
395.534	365.2
395.913	391.87
396.292	366.78
396.671	386.9
397.05	371.08
397.429	374.47
397.808	378.08
398.186	368.37
398.565	375.82
398.944	387.35
399.323	397.29
399.701	393.68
400.08	386.67
400.458	367.69
400.837	396.84
401.215	378.08
401.594	402.72
401.972	418.08
402.351	403.39
402.729	391.87
403.107	409.04
403.486	407.01
403.864	402.26
404.242	421.25
404.62	408.59
404.999	414.47
405.377	410.4
405.755	421.7
406.133	398.87
406.511	413.56
406.889	417.63
407.267	444.07
407.645	434.35
408.023	418.31
408.401	441.81
408.779	438.65
409.156	423.05
409.534	431.19
409.912	434.13
410.29	431.64
410.667	438.87
411.045	461.92
411.422	458.76
411.8	454.69
412.178	450.17
412.555	478.19
412.933	490.62
413.31	474.13
413.687	485.43
414.065	486.33
414.442	497.85
414.819	474.13
415.197	493.11
415.574	479.55
415.951	489.94
416.328	478.42
416.705	501.7
417.082	500.11
417.46	500.11
417.837	499.21
418.214	500.79
418.591	515.25
418.967	487.68
419.344	513.67
419.721	527.01
420.098	528.36
420.475	533.79
420.852	510.28
421.228	520.9
421.605	553.22
421.982	516.61
422.358	531.3
422.735	543.05
423.111	541.92
423.488	539.66
423.864	538.53
424.241	551.41
424.617	570.17
424.994	561.81
425.37	572.88
425.746	568.59
426.123	584.63
426.499	581.92
426.875	587.8
427.251	579.21
427.627	612.2
428.003	575.82
428.379	616.5
428.756	602.26
429.132	628.25
429.507	603.16
429.883	608.81
430.259	641.35
430.635	620.56
431.011	599.55
431.387	640.9
431.763	635.7
432.138	649.94
432.514	660.34
432.89	637.06
433.265	662.82
433.641	694.91
434.016	684.06
434.392	665.53
434.767	683.84
435.143	702.59
435.518	715.02
435.894	685.19
436.269	683.61
436.644	716.61
437.02	718.19
437.395	717.28
437.77	736.49
438.145	753.21
438.52	740.79
438.895	756.83
439.271	750.05
439.646	779.65
440.021	790.28
440.395	772.2
440.77	764.29
441.145	745.76
441.52	787.11
441.895	780.33
442.27	796.83
442.645	802.7
443.019	813.33
443.394	799.09
443.769	805.64
444.143	797.73
444.518	819.43
444.892	802.03
445.267	823.95
445.641	810.61
446.016	831.63
446.39	817.39
446.764	847.45
447.139	841.12
447.513	832.53
447.887	857.39
448.262	855.13
448.636	841.12
449.01	839.77
449.384	867.11
449.758	887.22
450.132	877.05
450.506	884.51
450.88	873.44
451.254	866.88
451.628	890.84
452.002	923.15
452.376	925.41
452.75	914.34
453.123	924.28
453.497	911.18
453.871	910.95
454.244	936.26
454.618	938.97
454.992	991.4
455.365	949.14
455.739	973.77
456.112	985.75
456.486	980.33
456.859	993.89
457.232	1023.26
457.606	1016.26
457.979	1047.22
458.352	1032.53
458.725	1046.54
459.099	1054.68
459.472	1082.25
459.845	1066.2
460.218	1105.97
460.591	1101.68
460.964	1131.74
461.337	1116.59
461.71	1140.1
462.083	1150.94
462.456	1174.45
462.829	1169.47
463.201	1164.28
463.574	1180.77
463.947	1193.2
464.32	1196.59
464.692	1212.19
465.065	1265.74
465.438	1257.83
465.81	1256.25
466.183	1288.12
466.555	1299.19
466.928	1296.7
467.3	1284.73
467.672	1300.32
468.045	1357.49
468.417	1365.18
468.789	1359.07
469.161	1385.74
469.534	1375.57
469.906	1430.94
470.278	1397.27
470.65	1456.25
471.022	1478.85
471.394	1510.71
471.766	1490.14
472.138	1501.67
472.51	1557.71
472.882	1553.65
473.253	1545.51
473.625	1559.52
473.997	1615.56
474.369	1630.93
474.74	1621.89
475.112	1666.19
475.484	1690.59
475.855	1715
476.227	1726.3
476.598	1752.28
476.97	1802.45
477.341	1790.48
477.713	1823.24
478.084	1838.16
478.455	1879.51
478.827	1917.03
479.198	1933.97
479.569	1933.52
479.94	1977.36
480.311	1999.28
480.682	2022.11
481.053	2079.73
481.424	2075.44
481.795	2117.47
482.166	2137.36
482.537	2202.44
482.908	2220.97
483.279	2207.41
483.65	2283.34
484.021	2328.54
484.391	2329.9
484.762	2376.67
485.133	2397.92
485.503	2410.35
485.874	2460.97
486.244	2493.51
486.615	2515.2
486.985	2524.92
487.356	2584.8
487.726	2615.76
488.097	2626.16
488.467	2657.35
488.837	2688.31
489.207	2705.25
489.578	2764.01
489.948	2804.01
490.318	2824.12
490.688	2870.45
491.058	2897.57
491.428	2859.15
491.798	2934.17
492.168	2974.4
492.538	2998.35
492.908	3026.6
493.278	3069.09
493.648	3070.67
494.017	3107.05
494.387	3141.85
494.757	3175.98
495.126	3200.16
495.496	3218.91
495.866	3229.08
496.235	3273.15
496.605	3290.1
496.974	3312.7
497.344	3324.67
497.713	3378
498.082	3361.28
498.452	3406.48
498.821	3414.84
499.19	3420.04
499.559	3432.92
499.928	3464.78
500.298	3502.29
500.667	3565.12
501.036	3539.58
501.405	3586.59
501.774	3599.02
502.143	3630.65
502.512	3596.76
502.88	3644.66
503.249	3686.24
503.618	3683.31
503.987	3703.65
504.356	3727.6
504.724	3780.03
505.093	3768.5
505.462	3782.51
505.83	3844.21
506.199	3832.46
506.567	3906.8
506.936	3888.05
507.304	3944.32
507.672	3985.67
508.041	3964.43
508.409	3955.16
508.777	4046.24
509.145	4088.27
509.514	4087.82
509.882	4126.91
510.25	4123.07
510.618	4145.22
510.986	4152.22
511.354	4210.52
511.722	4220.24
512.09	4244.65
512.458	4311.54
512.826	4337.08
513.193	4375.27
513.561	4387.02
513.929	4384.08
514.297	4431.31
514.664	4486.68
515.032	4453.23
515.4	4481.48
515.767	4547.92
516.135	4530.06
516.502	4573.45
516.869	4654.81
517.237	4653
517.604	4635.15
517.972	4722.83
518.339	4747.91
518.706	4746.56
519.073	4803.96
519.44	4797.4
519.808	4907
520.175	4886.89
520.542	4946.55
520.909	4940.22
521.276	4964.86
521.643	5029.94
522.009	5086.89
522.376	5095.47
522.743	5101.12
523.11	5150.61
523.477	5237.84
523.843	5247.56
524.21	5287.11
524.577	5356.03
524.943	5332.98
525.31	5407.33
525.676	5422.47
526.043	5464.5
526.409	5478.74
526.776	5536.37
527.142	5545.41
527.508	5610.49
527.874	5645.06
528.241	5662.92
528.607	5700.2
528.973	5736.59
529.339	5700.43
529.705	5804.38
530.071	5810.71
530.437	5859.75
530.803	5876.24
531.169	5952.85
531.535	5962.34
531.901	6006.64
532.267	6003.02
532.632	6070.59
532.998	6057.26
533.364	6123.24
533.73	6069.46
534.095	6159.4
534.461	6183.35
534.826	6186.52
535.192	6250.7
535.557	6317.36
535.923	6280.3
536.288	6312.16
536.653	6392.39
537.019	6330.47
537.384	6354.2
537.749	6403.69
538.114	6431.03
538.479	6447.98
538.845	6427.87
539.21	6448.43
539.575	6478.94
539.94	6554.19
540.305	6608.2
540.67	6568.2
541.034	6607.75
541.399	6622.21
541.764	6611.14
542.129	6671.48
542.494	6661.08
542.858	6676
543.223	6687.3
543.587	6734.07
543.952	6734.53
544.316	6814.3
544.681	6818.37
545.045	6858.14
545.41	6880.29
545.774	6900.17
546.138	6908.53
546.503	6951.47
546.867	6992.6
547.231	7004.8
547.595	7021.98
547.959	7036.44
548.324	7007.06
548.688	7048.64
549.052	7070.34
549.416	7141.52
549.779	7110.79
550.143	7194.4
550.507	7204.8
550.871	7209.99
551.235	7232.82
551.599	7276.88
551.962	7246.15
552.326	7261.29
552.689	7335.64
553.053	7348.3
553.417	7283.44
553.78	7430.78
554.143	7426.94
554.507	7449.54
554.87	7489.31
555.234	7534.28
555.597	7540.61
555.96	7545.13
556.323	7588.06
556.686	7605.24
557.05	7680.72
557.413	7709.87
557.776	7744.67
558.139	7737.44
558.502	7778.34
558.865	7816.08
559.228	7861.95
559.59	7908.73
559.953	7886.36
560.316	7945.12
560.679	8007.49
561.041	8094.72
561.404	8062.63
561.767	8158.22
562.129	8107.37
562.492	8201.15
562.854	8190.31
563.217	8176.3
563.579	8230.53
563.941	8337.2
564.304	8374.48
564.666	8419.68
565.028	8438.21
565.39	8414.03
565.753	8499.9
566.115	8506.23
566.477	8574.48
566.839	8547.13
567.201	8636.4
567.563	8648.6
567.925	8717.75
568.287	8687.7
568.648	8724.98
569.01	8777.64
569.372	8838.65
569.734	8868.71
570.095	8871.19
570.457	8974.92
570.819	8885.2
571.18	8885.88
571.542	9014.92
571.903	8976.95
572.265	9005.65
572.626	9053.11
572.987	9109.61
573.349	9156.16
573.71	9149.38
574.071	9226.21
574.432	9208.81
574.794	9274.57
575.155	9189.83
575.516	9200.68
575.877	9262.37
576.238	9284.52
576.599	9304.18
576.96	9348.69
577.32	9333.55
577.681	9344.4
578.042	9344.4
578.403	9359.54
578.763	9420.11
579.124	9454
579.485	9441.35
579.845	9418.07
580.206	9434.34
580.566	9460.78
580.927	9420.56
581.287	9547.79
581.648	9559.08
582.008	9499.88
582.368	9477.05
582.728	9563.6
583.089	9496.49
583.449	9518.41
583.809	9562.25
584.169	9560.67
584.529	9538.75
584.889	9592.08
585.249	9487.45
585.609	9554.11
585.969	9618.07
586.329	9577.84
586.688	9635.24
587.048	9587.78
587.408	9523.83
587.768	9549.82
588.127	9562.47
588.487	9527.45
588.846	9609.03
589.206	9542.81
589.565	9566.09
589.925	9562.47
590.284	9546.2
590.643	9596.15
591.003	9586.43
591.362	9624.39
591.721	9550.95
592.08	9644.51
592.44	9621.46
592.799	9573.1
593.158	9658.52
593.517	9614.22
593.876	9651.96
594.235	9621
594.593	9638.4
594.952	9613.32
595.311	9611.29
595.67	9621.46
596.029	9690.15
596.387	9729.48
596.746	9697.84
597.104	9650.16
597.463	9722.02
597.822	9680.21
598.18	9648.8
598.538	9645.64
598.897	9765.63
599.255	9657.16
599.613	9757.5
599.972	9721.57
600.33	9769.93
600.688	9752.53
601.046	9781
601.404	9815.35
601.762	9771.73
602.12	9778.29
602.478	9861.22
602.836	9848.57
603.194	9699.42
603.552	9843.6
603.91	9824.39
604.268	9822.81
604.625	9802.24
604.983	9838.17
605.341	9757.72
605.698	9862.81
606.056	9894.44
606.413	9832.52
606.771	9790.04
607.128	9898.74
607.485	9896.93
607.843	9889.25
608.2	9964.27
608.557	9988.9
608.914	9930.37
609.272	9980.09
609.629	9962.46
609.986	10005.63
610.343	9970.15
610.7	10119.97
611.057	10027.55
611.414	10059.86
611.771	9991.84
612.127	10082.46
612.484	10083.59
612.841	10089.01
613.198	10044.95
613.554	10008.79
613.911	10131.05
614.267	10168.11
614.624	10144.38
614.98	10167.2
615.337	10198.39
615.693	10297.82
616.05	10118.17
616.406	10167.2
616.762	10133.08
617.118	10138.5
617.475	10182.12
617.831	10239.52
618.187	10264.6
618.543	10247.65
618.899	10358.84
619.255	10287.88
619.611	10260.31
619.967	10294.21
620.323	10283.81
620.678	10229.8
621.034	10257.37
621.39	10336.24
621.746	10211.27
622.101	10316.81
622.457	10300.76
622.812	10283.13
623.168	10261.89
623.523	10347.99
623.879	10357.03
624.234	10325.62
624.589	10360.65
624.945	10267.77
625.3	10335.56
625.655	10355.67
626.01	10358.16
626.365	10308.44
626.72	10279.52
627.075	10389.12
627.43	10327.88
627.785	10307.09
628.14	10336.01
628.495	10351.15
628.85	10303.7
629.205	10248.33
629.559	10306.18
629.914	10259.86
630.269	10359.29
630.623	10254.66
630.978	10237.26
631.332	10226.41
631.687	10305.96
632.041	10283.13
632.396	10298.5
632.75	10269.8
633.104	10252.85
633.459	10169.69
633.813	10191.84
634.167	10150.71
634.521	10154.55
634.875	10127.43
635.229	10158.84
635.583	10109.58
635.937	10119.75
636.291	10107.09
636.645	10066.87
636.999	10112.29
637.352	10087.21
637.706	9997.94
638.06	10062.8
638.413	10050.82
638.767	9989.36
639.121	10015.57
639.474	9983.71
639.828	10025.74
640.181	9972.41
640.534	9988
640.888	9934.67
641.241	9943.71
641.594	9886.53
641.947	9922.01
642.301	9984.61
642.654	10006.3
643.007	9934.67
643.36	9854.44
643.713	9847.89
644.066	9928.11
644.419	9861.22
644.771	9753.2
645.124	9646.77
645.477	9610.38
645.83	9670.04
646.182	9513.21
646.535	9561.8
646.888	9574.23
647.24	9506.43
647.593	9555.24
647.945	9490.61
648.298	9479.76
648.65	9508.24
649.002	9477.51
649.355	9390.73
649.707	9484.51
650.059	9539.88
650.411	9594.34
650.763	9646.77
651.115	9700.1
651.467	9637.05
651.819	9624.39
652.171	9665.3
652.523	9581.01
652.875	9629.37
653.227	9579.42
653.578	9638.18
653.93	9588.24
654.282	9539.88
654.633	9550.5
654.985	9503.49
655.337	9592.3
655.688	9535.13
656.039	9600.67
656.391	9475.02
656.742	9504.4
657.094	9543.27
657.445	9552.98
657.796	9517.05
658.147	9465.75
658.498	9456.94
658.849	9549.37
659.2	9496.04
659.551	9477.96
659.902	9526.09
660.253	9481.8
660.604	9499.88
660.955	9496.26
661.306	9482.48
661.656	9521.12
662.007	9463.95
662.358	9472.76
662.708	9472.08
663.059	9428.47
663.409	9418.98
663.76	9472.31
664.11	9390.28
664.461	9489.93
664.811	9428.47
665.161	9454.45
665.511	9398.64
665.862	9411.07
666.212	9416.04
666.562	9432.76
666.912	9430.27
667.262	9435.47
667.612	9383.04
667.962	9421.01
668.312	9353.21
668.662	9395.47
669.011	9385.3
669.361	9352.08
669.711	9361.35
670.06	9379.43
670.41	9325.64
670.76	9379.43
671.109	9272.99
671.459	9364.97
671.808	9290.39
672.157	9346.66
672.507	9276.61
672.856	9321.8
673.205	9265.31
673.554	9322.03
673.904	9272.09
674.253	9370.84
674.602	9321.12
674.951	9205.2
675.3	9103.5
675.649	9284.97
675.998	9158.64
676.346	9318.87
676.695	9263.05
677.044	9181.02
677.393	9236.16
677.741	9227.34
678.09	9192.31
678.438	9170.39
678.787	9187.34
679.135	9213.78
679.484	9086.78
679.832	9188.93
680.181	9049.49
680.529	9129.94
680.877	9051.53
681.225	9095.14
681.573	9130.62
681.922	9038.65
682.27	9012.21
682.618	9080.45
682.966	8993
683.314	9084.52
683.661	9044.3
684.009	8975.37
684.357	8941.02
684.705	8951.42
685.053	8963.39
685.4	8990.96
685.748	8896.96
686.095	8945.99
686.443	8899.89
686.79	8879.1
687.138	8829.61
687.485	8833
687.832	8839.33
688.18	8774.25
688.527	8707.58
688.874	8778.99
689.221	8740.35
689.568	8768.37
689.915	8776.96
690.262	8711.2
690.609	8647.47
690.956	8685.44
691.303	8622.61
691.65	8560.24
691.997	8565.44
692.344	8554.14
692.69	8617.87
693.037	8531.54
693.383	8458.77
693.73	8541.48
694.077	8481.37
694.423	8489.06
694.769	8331.32
695.116	8364.54
695.462	8319.8
695.808	8383.75
696.155	8388.72
696.501	8267.59
696.847	8316.18
697.193	8270.31
697.539	8318.21
697.885	8233.24
698.231	8201.61
698.577	8221.49
698.923	8219.46
699.269	8169.29
699.614	8149.18
699.96	8157.77
700.306	8092.68
700.651	8087.94
700.997	8088.84
701.342	8000.71
701.688	8031.44
702.033	7980.82
702.379	7986.7
702.724	7983.31
703.069	8024.89
703.415	7907.6
703.76	7924.1
704.105	7856.76
704.45	7850.43
704.795	7842.07
705.14	7750.77
705.485	7794.84
705.83	7778.79
706.175	7859.24
706.52	7781.28
706.865	7716.2
707.209	7704.22
707.554	7658.34
707.899	7666.93
708.243	7641.17
708.588	7576.09
708.932	7541.74
709.277	7593.49
709.621	7601.17
709.966	7625.58
710.31	7531.34
710.654	7455.86
710.998	7478.24
711.342	7502.19
711.687	7521.62
712.031	7405.7
712.375	7465.81
712.719	7485.24
713.063	7441.63
713.407	7419.03
713.75	7424.9
714.094	7405.92
714.438	7378.13
714.782	7307.39
715.125	7367.96
715.469	7334.96
715.812	7335.64
716.156	7290.22
716.499	7229.2
716.843	7239.37
717.186	7260.61
717.53	7266.49
717.873	7284.57
718.216	7253.38
718.559	7223.78
718.902	7196.44
719.246	7200.05
719.589	7164.35
719.932	7145.81
720.275	7114.63
720.617	7111.92
720.96	7097
721.303	7096.1
721.646	7120.73
721.989	7023.78
722.331	7128.87
722.674	7006.84
723.016	7051.35
723.359	7044.57
723.701	7060.62
724.044	7045.25
724.386	6953.96
724.729	6981.3
725.071	6974.97
725.413	6909.21
725.755	6975.2
726.097	6952.83
726.439	6981.98
726.782	6919.15
727.124	6926.61
727.465	6906.95
727.807	6878.48
728.149	6857.23
728.491	6828.76
728.833	6845.94
729.175	6870.12
729.516	6798.03
729.858	6842.09
730.199	6798.93
730.541	6824.24
730.882	6805.94
731.224	6838.7
731.565	6827.18
731.906	6738.14
732.248	6768.88
732.589	6752.6
732.93	6672.83
733.271	6755.77
733.612	6743.34
733.953	6743.34
734.294	6641.65
734.635	6688.2
734.976	6699.5
735.317	6602.78
735.658	6681.19
735.999	6665.15
736.339	6645.26
736.68	6703.34
737.021	6657.01
737.361	6640.97
737.702	6572.27
738.042	6581.54
738.383	6600.97
738.723	6625.38
739.063	6568.65
739.404	6563.01
739.744	6523.46
740.084	6539.5
740.424	6535.21
740.764	6466.74
741.104	6512.61
741.444	6469.45
741.784	6484.14
742.124	6485.27
742.464	6483.01
742.804	6511.03
743.143	6490.92
743.483	6473.52
743.823	6391.26
744.162	6431.48
744.502	6427.42
744.841	6320.07
745.181	6403.91
745.52	6387.64
745.86	6372.05
746.199	6384.25
746.538	6391.03
746.877	6358.72
747.216	6359.85
747.556	6365.27
747.895	6323.69
748.234	6297.48
748.573	6341.77
748.911	6337.7
749.25	6294.31
749.589	6246.4
749.928	6256.12
750.267	6235.56
750.605	6255.44
750.944	6265.16
751.283	6256.57
751.621	6241.88
751.96	6209.57
752.298	6150.13
752.636	6161.21
752.975	6135.45
753.313	6120.53
753.651	6160.08
753.989	6082.79
754.327	6096.8
754.666	6056.8
755.004	6045.5
755.342	6068.78
755.679	6060.42
756.017	6039.63
756.355	6064.94
756.693	6008.44
757.031	6040.99
757.368	5962.12
757.706	5993.98
758.044	5929.8
758.381	5963.7
758.719	5939.07
759.056	5913.08
759.394	5894.1
759.731	5838.73
760.068	5876.24
760.405	5776.13
760.743	5797.6
761.08	5845.06
761.417	5770.48
761.754	5828.34
762.091	5802.12
762.428	5735.23
762.765	5695.68
763.102	5767.09
763.438	5651.84
763.775	5707.21
764.112	5699.3
764.449	5664.95
764.785	5662.01
765.122	5611.62
765.458	5596.25
765.795	5625.85
766.131	5580.66
766.467	5543.37
766.804	5578.62
767.14	5497.27
767.476	5513.77
767.812	5526.2
768.148	5506.76
768.485	5481
768.821	5463.6
769.157	5409.59
769.492	5426.76
769.828	5392.41
770.164	5365.07
770.5	5375.47
770.836	5356.94
771.171	5311.29
771.507	5318.29
771.842	5292.08
772.178	5311.96
772.513	5314.68
772.849	5268.12
773.184	5227.9
773.519	5221.8
773.855	5171.4
774.19	5121.91
774.525	5168.92
774.86	5204.17
775.195	5187.67
775.53	5097.73
775.865	5055.47
776.2	5021.58
776.535	5015.02
776.87	5021.8
777.205	5043.27
777.539	4973.22
777.874	4984.06
778.209	4953.33
778.543	4906.1
778.878	4916.27
779.212	4916.27
779.547	4898.64
779.881	4836.95
780.215	4852.32
780.55	4858.64
780.884	4837.63
781.218	4836.5
781.552	4844.41
781.886	4800.79
782.22	4773.45
782.554	4738.65
782.888	4699.33
783.222	4671.53
783.556	4647.8
783.889	4705.43
784.223	4629.27
784.557	4607.35
784.89	4634.69
785.224	4575.49
785.557	4569.39
785.891	4600.35
786.224	4578.42
786.558	4559.44
786.891	4525.32
787.224	4570.97
787.557	4492.33
787.891	4505.43
788.224	4503.62
788.557	4460.46
788.89	4475.15
789.223	4451.2
789.556	4434.02
789.888	4407.58
790.221	4395.15
790.554	4373.01
790.887	4378.66
791.219	4360.8
791.552	4326
791.884	4359.45
792.217	4341.37
792.549	4306.34
792.882	4276.96
793.214	4287.36
793.546	4276.29
793.879	4208.72
794.211	4246.68
794.543	4226.57
794.875	4180.47
795.207	4179.79
795.539	4213.24
795.871	4191.32
796.203	4195.61
796.535	4158.55
796.867	4116.74
797.198	4100.47
797.53	4118.32
797.862	4070.87
798.193	4092.11
798.525	4082.62
798.856	4069.06
799.188	4049.85
799.519	4022.51
799.85	4023.64
800.182	4037.65
800.513	4031.77
800.844	4007.37
801.175	4008.04
801.506	4006.24
801.837	3991.77
802.168	3929.63
802.499	3935.28
802.83	3950.42
803.161	3938.89
803.491	3910.87
803.822	3898.67
804.153	3832.23
804.483	3876.3
804.814	3821.38
805.145	3882.62
805.475	3845.11
805.805	3855.28
806.136	3831.78
806.466	3804.89
806.796	3815.96
807.126	3795.85
807.457	3762.18
807.787	3774.15
808.117	3759.01
808.447	3742.97
808.777	3757.88
809.107	3756.98
809.436	3726.24
809.766	3725.11
810.096	3720.82
810.426	3684.66
810.755	3687.6
811.085	3665.68
811.414	3662.29
811.744	3634.04
812.073	3645.12
812.403	3623.2
812.732	3651.44
813.061	3599.92
813.39	3590.65
813.719	3602.18
814.049	3624.78
814.378	3638.56
814.707	3575.74
815.036	3597.43
815.365	3581.16
815.693	3583.87
816.022	3573.25
816.351	3525.12
816.68	3530.32
817.008	3515.18
817.337	3486.02
817.665	3498.68
817.994	3490.09
818.322	3491
818.651	3485.35
818.979	3461.84
819.307	3493.03
819.636	3446.03
819.964	3461.39
820.292	3460.71
820.62	3466.14
820.948	3448.96
821.276	3440.38
821.604	3439.92
821.932	3469.53
822.259	3427.95
822.587	3437.21
822.915	3425.46
823.243	3408.96
823.57	3422.3
823.898	3455.06
824.225	3423.88
824.553	3435.18
824.88	3432.69
825.207	3402.64
825.535	3442.64
825.862	3426.14
826.189	3403.99
826.516	3416.2
826.843	3420.04
827.17	3423.2
827.497	3428.85
827.824	3392.24
828.151	3453.26
828.478	3438.12
828.805	3426.82
829.131	3393.6
829.458	3434.73
829.785	3395.18
830.111	3427.95
830.438	3406.48
830.764	3393.82
831.09	3448.29
831.417	3437.66
831.743	3435.18
832.069	3371.9
832.395	3394.73
832.722	3433.82
833.048	3374.16
833.374	3383.88
833.7	3388.63
834.026	3379.59
834.351	3377.78
834.677	3396.99
835.003	3379.59
835.329	3385.91
835.654	3342.53
835.98	3386.37
836.306	3386.14
836.631	3387.72
836.956	3379.81
837.282	3394.28
837.607	3393.15
837.932	3335.52
838.258	3331.9
838.583	3336.42
838.908	3313.6
839.233	3301.17
839.558	3362.64
839.883	3315.18
840.208	3303.43
840.533	3287.61
840.858	3278.57
841.182	3285.35
841.507	3291
841.832	3311.79
842.156	3264.56
842.481	3278.12
842.805	3274.73
843.13	3269.98
843.454	3267.95
843.778	3233.83
844.103	3264.79
844.427	3259.59
844.751	3265.01
845.075	3227.5
845.399	3212.13
845.723	3189.31
846.047	3187.5
846.371	3166.03
846.695	3178.69
847.019	3141.4
847.343	3124
847.666	3114.96
847.99	3075.19
848.313	3125.81
848.637	3080.39
848.96	3091.23
849.284	3091.91
849.607	3065.92
849.931	3101.4
850.254	3032.25
850.577	3008.07
850.9	3025.7
851.223	3001.74
851.546	2967.39
851.869	2982.08
852.192	2970.56
852.515	2947.73
852.838	2932.59
853.161	2947.06
853.483	2956.32
853.806	2946.6
854.129	2924.23
854.451	2914.74
854.774	2922.88
855.096	2909.09
855.419	2911.58
855.741	2880.16
856.063	2887.85
856.385	2860.5
856.708	2836.55
857.03	2866.61
857.352	2846.94
857.674	2820.73
857.996	2844.46
858.318	2817.34
858.64	2831.58
858.961	2829.09
859.283	2789.55
859.605	2793.84
859.926	2771.69
860.248	2738.47
860.57	2770.11
860.891	2751.13
861.212	2717.91
861.534	2742.99
861.855	2746.83
862.176	2734.18
862.498	2741.64
862.819	2706.61
863.14	2703.67
863.461	2717.68
863.782	2693.05
864.103	2760.62
864.424	2735.31
864.745	2719.94
865.065	2708.19
865.386	2697.57
865.707	2677.91
866.027	2698.25
866.348	2652.37
866.668	2676.78
866.989	2665.25
867.309	2659.83
867.63	2651.92
867.95	2669.55
868.27	2660.51
868.59	2677.46
868.91	2635.65
869.23	2676.55
869.55	2629.55
869.87	2667.51
870.19	2654.18
870.51	2635.43
870.83	2644.92
871.15	2632.71
871.469	2615.99
871.789	2609.44
872.109	2601.98
872.428	2594.07
872.748	2618.25
873.067	2617.8
873.386	2606.5
873.706	2575.99
874.025	2593.84
874.344	2576.9
874.663	2605.14
874.982	2562.88
875.301	2579.16
875.62	2575.99
875.939	2593.39
876.258	2572.38
876.577	2518.82
876.896	2550.68
877.214	2519.95
877.533	2580.74
877.852	2528.31
878.17	2528.08
878.489	2529.67
878.807	2563.79
879.125	2521.98
879.444	2538.93
879.762	2489.21
880.08	2540.96
880.398	2537.12
880.716	2541.64
881.034	2507.97
881.352	2506.39
881.67	2516.33
881.988	2504.58
882.306	2457.8
882.624	2502.77
882.941	2450.8
883.259	2476.79
883.577	2487.41
883.894	2463.9
884.212	2437.46
884.529	2426.17
884.846	2442.66
885.164	2457.35
885.481	2433.4
885.798	2402.89
886.115	2451.25
886.432	2453.06
886.75	2418.93
887.067	2428.88
887.383	2365.15
887.7	2423.91
888.017	2365.6
888.334	2413.96
888.651	2389.1
888.967	2387.52
889.284	2366.28
889.6	2376.9
889.917	2345.26
890.233	2352.49
890.55	2368.77
890.866	2350.23
891.182	2346.62
891.498	2331.93
891.815	2333.06
892.131	2331.25
892.447	2344.36
892.763	2281.99
893.079	2321.54
893.395	2292.61
893.71	2301.65
894.026	2298.03
894.342	2283.12
894.657	2272.04
894.973	2284.25
895.289	2269.33
895.604	2309.56
895.92	2239.73
896.235	2244.7
896.55	2282.89
896.865	2243.8
897.181	2206.74
897.496	2248.09
897.811	2236.79
898.126	2220.97
898.441	2200.41
898.756	2210.58
899.071	2155.89
899.386	2191.37
899.7	2182.1
900.015	2172.39
900.33	2161.99
900.644	2151.14
900.959	2160.86
901.273	2123.8
901.588	2113.18
901.902	2081.54
902.216	2121.31
902.531	2104.82
902.845	2119.05
903.159	2110.47
903.473	2110.69
903.787	2069.56
904.101	2078.15
904.415	2085.83
904.729	2067.98
905.042	2054.42
905.356	2063.01
905.67	2073.63
905.984	2037.93
906.297	2056.01
906.611	2036.12
906.924	2037.25
907.237	2024.82
907.551	2031.37
907.864	1990.24
908.177	2010.58
908.491	1963.8
908.804	2000.64
909.117	1962.22
909.43	1944.14
909.743	1943.92
910.056	1940.75
910.368	1945.27
910.681	1957.7
910.994	1952.73
911.307	1933.97
911.619	1890.36
911.932	1916.12
912.244	1896.24
912.557	1894.88
912.869	1878.16
913.181	1923.81
913.494	1906.4
913.806	1870.02
914.118	1861.21
914.43	1848.78
914.742	1860.76
915.054	1846.97
915.366	1877.7
915.678	1841.32
915.99	1837.71
916.302	1838.38
916.613	1813.07
916.925	1811.27
917.236	1796.35
917.548	1801.77
917.859	1787.76
918.171	1803.81
918.482	1817.82
918.794	1796.13
919.105	1783.24
919.416	1792.51
919.727	1778.95
920.038	1783.02
920.349	1756.13
920.66	1782.57
920.971	1743.02
921.282	1737.14
921.593	1724.49
921.903	1727.65
922.214	1704.38
922.525	1722.91
922.835	1714.09
923.146	1693.53
923.456	1689.69
923.767	1669.35
924.077	1679.52
924.387	1659.63
924.697	1663.25
925.008	1664.83
925.318	1641.78
925.628	1646.75
925.938	1658.95
926.248	1632.51
926.558	1628.45
926.867	1618.28
927.177	1608.33
927.487	1590.03
927.796	1615.11
928.106	1611.72
928.416	1555
928.725	1607.66
929.034	1577.15
929.344	1574.89
929.653	1595.9
929.962	1557.04
930.271	1561.78
930.581	1545.74
930.89	1547.54
931.199	1536.92
931.508	1536.02
931.817	1554.55
932.125	1523.82
932.434	1557.26
932.743	1522.69
933.051	1486.3
933.36	1502.12
933.669	1506.87
933.977	1500.31
934.286	1500.99
934.594	1475.68
934.902	1507.09
935.21	1499.41
935.519	1483.59
935.827	1460.54
936.135	1479.75
936.443	1457.15
936.751	1437.94
937.059	1465.29
937.367	1455.8
937.674	1414.67
937.982	1449.02
938.29	1448.34
938.597	1443.82
938.905	1424.16
939.213	1424.61
939.52	1386.42
939.827	1404.72
940.135	1416.02
940.442	1408.79
940.749	1404.72
941.056	1396.81
941.363	1364.5
941.67	1372.18
941.977	1395.91
942.284	1402.69
942.591	1353.2
942.898	1362.46
943.205	1346.65
943.511	1365.85
943.818	1344.16
944.125	1338.28
944.431	1362.92
944.738	1340.54
945.044	1318.17
945.35	1329.47
945.657	1311.17
945.963	1302.8
946.269	1318.4
946.575	1313.43
946.881	1306.65
947.187	1289.25
947.493	1312.52
947.799	1295.57
948.105	1306.19
948.41	1281.34
948.716	1284.5
949.022	1268.46
949.327	1268.68
949.633	1235.69
949.938	1225.74
950.244	1249.25
950.549	1241.34
950.854	1231.39
951.16	1238.63
951.465	1238.4
951.77	1233.2
952.075	1220.77
952.38	1226.65
952.685	1235.24
952.99	1199.76
953.294	1205.86
953.599	1211.96
953.904	1202.92
954.209	1175.58
954.513	1211.06
954.818	1206.99
955.122	1189.14
955.426	1187.1
955.731	1156.37
956.035	1171.06
956.339	1151.17
956.643	1177.16
956.948	1176.48
957.252	1169.47
957.556	1141.91
957.86	1154.11
958.163	1149.59
958.467	1150.27
958.771	1150.04
959.075	1116.82
959.378	1102.58
959.682	1108.46
959.985	1113.21
960.289	1110.27
960.592	1124.96
960.896	1124.5
961.199	1103.71
961.502	1099.65
961.805	1107.78
962.108	1096.03
962.411	1094.67
962.714	1071.62
963.017	1060.55
963.32	1082.47
963.623	1083.38
963.926	1078.63
964.228	1068.01
964.531	1084.96
964.833	1072.53
965.136	1061.46
965.438	1057.16
965.741	1041.12
966.043	1064.17
966.345	1053.09
966.648	1040.44
966.95	1052.19
967.252	1032.53
967.554	1044.05
967.856	1018.07
968.158	1020.55
968.46	1007.9
968.761	1011.96
969.063	1010.16
969.365	1041.34
969.666	1025.75
969.968	1024.17
970.269	980.33
970.571	1008.8
970.872	1012.87
971.174	1007.22
971.475	981.91
971.776	988.69
972.077	965.19
972.378	979.2
972.679	1004.28
972.98	980.78
973.281	972.87
973.582	980.1
973.883	948.92
974.183	955.47
974.484	941.68
974.785	919.99
975.085	969.93
975.386	941.23
975.686	941.91
975.986	943.27
976.287	965.64
976.587	935.13
976.887	937.84
977.187	929.93
977.487	931.52
977.787	965.64
978.087	910.05
978.387	903.72
978.687	909.37
978.987	892.65
979.286	900.56
979.586	920.44
979.885	917.05
980.185	899.65
980.484	898.3
980.784	913.21
981.083	922.02
981.382	927
981.682	893.55
981.981	886.77
982.28	887.9
982.579	860.1
982.878	870.95
983.177	868.24
983.475	881.8
983.774	864.62
984.073	865.53
984.372	889.26
984.67	852.87
984.969	866.21
985.267	867.56
985.566	867.11
985.864	874.57
986.162	845.42
986.461	842.03
986.759	839.31
987.057	854.23
987.355	803.83
987.653	816.49
987.951	815.13
988.249	822.82
988.547	812.65
988.844	829.14
989.142	823.04
989.44	813.55
989.737	823.72
990.035	800.45
990.332	811.74
990.63	812.2
990.927	820.56
991.224	806.32
991.521	811.52
991.819	810.39
992.116	781.69
992.413	789.37
992.71	812.65
993.006	780.78
993.303	777.39
993.6	774.91
993.897	803.38
994.193	772.65
994.49	764.51
994.787	780.11
995.083	765.87
995.379	755.7
995.676	773.1
995.972	771.07
996.268	772.42
996.565	771.07
996.861	760.22
997.157	744.63
997.453	756.83
997.749	733.55
998.044	751.41
998.34	732.42
998.636	726.1
998.932	749.37
999.227	732.65
999.523	738.98
999.818	719.77
1000.114	718.41
1000.409	726.77
1000.704	715.7
1001	721.8
1001.295	702.59
1001.59	708.24
1001.885	729.26
1002.18	715.25
1002.475	690.39
1002.77	722.71
1003.065	701.69
1003.359	691.97
1003.654	720.67
1003.949	709.37
1004.243	710.96
1004.538	675.7
1004.832	685.19
1005.127	682.26
1005.421	671.86
1005.715	665.08
1006.009	667.79
1006.304	675.48
1006.598	677.74
1006.892	666.66
1007.186	625.53
1007.48	696.27
1007.773	664.63
1008.067	678.19
1008.361	683.16
1008.655	661.24
1008.948	653.33
1009.242	643.39
1009.535	635.93
1009.829	623.5
1010.122	642.03
1010.415	625.53
1010.708	643.16
1011.001	634.35
1011.295	636.61
1011.588	631.18
1011.881	638.87
1012.173	642.03
1012.466	624.63
1012.759	622.82
1013.052	637.74
1013.344	616.72
1013.637	615.37
1013.93	628.7
1014.222	633.9
1014.514	616.27
1014.807	611.98
1015.099	632.99
1015.391	604.74
1015.683	614.69
1015.976	599.77
1016.268	588.02
1016.56	612.88
1016.851	591.64
1017.143	582.37
1017.435	577.63
1017.727	590.96
1018.018	598.19
1018.31	600.68
1018.602	599.32
1018.893	578.76
1019.185	586.89
1019.476	582.37
1019.767	587.8
1020.058	588.25
1020.35	550.96
1020.641	573.11
1020.932	579.89
1021.223	573.11
1021.514	553.22
1021.804	546.21
1022.095	532.43
1022.386	563.84
1022.677	561.36
1022.967	548.7
1023.258	539.66
1023.548	571.07
1023.839	550.06
1024.129	546.67
1024.419	525.65
1024.709	543.73
1025	545.76
1025.29	538.76
1025.58	553.9
1025.87	504.18
1026.16	517.51
1026.449	531.53
1026.739	542.15
1027.029	538.53
1027.319	524.52
1027.608	531.07
1027.898	518.87
1028.187	533.56
1028.477	498.98
1028.766	507.8
1029.055	508.25
1029.344	501.24
1029.634	523.62
1029.923	520.45
1030.212	523.84
1030.501	499.66
1030.79	511.41
1031.078	506.22
1031.367	496.27
1031.656	476.84
1031.945	503.73
1032.233	490.85
1032.522	504.86
1032.81	479.78
1033.099	496.27
1033.387	479.78
1033.675	482.04
1033.963	494.24
1034.251	486.1
1034.54	489.94
1034.828	477.29
1035.116	491.98
1035.403	489.94
1035.691	474.58
1035.979	473.22
1036.267	481.36
1036.554	479.55
1036.842	487.68
1037.129	447.91
1037.417	464.63
1037.704	463.96
1037.992	454.01
1038.279	468.93
1038.566	456.05
1038.853	456.05
1039.14	456.05
