Data from black_plastic_tray_FLMS001491_069.txt Node
Date: Tue Feb 07 10:40:22 GMT 2017
User: dcchb
Spectrometer: FLMS00149
Trigger mode: 0
Integration Time (sec): 2.000000E-2
Scans to average: 10
Electric dark correction enabled: true
Nonlinearity correction enabled: false
Boxcar width: 0
XAxis mode: Wavelengths
Number of Pixels in Spectrum: 2048
>>>>>Begin Spectral Data<<<<<
341.393	-9.35
341.776	-9.35
342.16	-9.35
342.543	-55.68
342.927	-47.09
343.31	-58.16
343.693	-63.13
344.077	-64.49
344.46	-50.03
344.843	-47.09
345.226	-43.47
345.61	-34.21
345.993	-20.65
346.376	-12.97
346.759	2.18
347.142	27.03
347.525	25.23
347.908	52.8
348.291	76.07
348.674	97.09
349.057	113.81
349.44	123.08
349.823	163.07
350.206	161.49
350.588	197.2
350.971	194.94
351.354	215.05
351.737	223.41
352.119	227.03
352.502	256.41
352.884	245.78
353.267	282.62
353.65	289.4
354.032	278.33
354.414	316.07
354.797	293.01
355.179	287.14
355.562	320.13
355.944	327.36
356.326	321.26
356.709	314.71
357.091	332.11
357.473	330.3
357.855	341.15
358.238	338.89
358.62	338.66
359.002	331.66
359.384	318.32
359.766	319.68
360.148	352
360.53	323.52
360.912	323.75
361.294	321.04
361.676	326.69
362.057	320.81
362.439	315.84
362.821	294.6
363.203	305.44
363.584	316.52
363.966	322.17
364.348	335.73
364.729	322.39
365.111	313.58
365.493	327.36
365.874	296.4
366.256	293.92
366.637	327.59
367.019	318.78
367.4	300.92
367.781	295.73
368.163	312.22
368.544	309.51
368.925	317.87
369.306	328.49
369.688	314.26
370.069	296.86
370.45	300.7
370.831	300.25
371.212	308.16
371.593	323.97
371.974	304.77
372.355	305.9
372.736	301.38
373.117	308.61
373.498	298.21
373.879	307.48
374.26	299.34
374.641	310.64
375.021	330.08
375.402	335.5
375.783	313.35
376.163	304.77
376.544	334.6
376.925	326.23
377.305	331.21
377.686	342.96
378.066	331.43
378.447	325.1
378.827	308.38
379.208	331.21
379.588	324.43
379.968	348.15
380.349	335.27
380.729	335.73
381.109	336.63
381.489	341.83
381.87	354.26
382.25	341.83
382.63	335.95
383.01	341.83
383.39	328.49
383.77	343.41
384.15	345.67
384.53	354.71
384.91	356.06
385.29	349.06
385.67	371.66
386.049	354.03
386.429	362.17
386.809	362.62
387.189	340.92
387.568	353.58
387.948	343.64
388.328	355.16
388.707	368.72
389.087	387.25
389.466	363.52
389.846	364.88
390.225	354.26
390.605	373.01
390.984	391.77
391.363	380.7
391.743	382.96
392.122	370.3
392.501	386.12
392.881	395.84
393.26	402.16
393.639	380.7
394.018	377.08
394.397	399.23
394.776	403.97
395.155	403.97
395.534	389.51
395.913	383.63
396.292	394.48
396.671	404.2
397.05	398.32
397.429	396.06
397.808	395.61
398.186	396.97
398.565	398.55
398.944	397.64
399.323	399.68
399.701	411.43
400.08	417.98
400.458	416.85
400.837	430.19
401.215	433.12
401.594	401.03
401.972	425.67
402.351	437.19
402.729	433.12
403.107	411.43
403.486	436.74
403.864	425.89
404.242	431.54
404.62	427.02
404.999	434.93
405.377	441.26
405.755	436.29
406.133	437.87
406.511	459.11
406.889	457.53
407.267	453.46
407.645	466.8
408.023	465.67
408.401	492.56
408.779	484.87
409.156	463.41
409.534	492.78
409.912	482.61
410.29	483.97
410.667	500.24
411.045	502.95
411.422	506.34
411.8	494.37
412.178	521.03
412.555	520.81
412.933	512.22
413.31	541.82
413.687	546.12
414.065	535.27
414.442	535.27
414.819	543.4
415.197	542.73
415.574	533.01
415.951	516.51
416.328	545.44
416.705	542.95
417.082	544.53
417.46	555.83
417.837	563.29
418.214	571.65
418.591	586.34
418.967	584.08
419.344	563.97
419.721	572.33
420.098	584.76
420.475	598.32
420.852	622.72
421.228	594.02
421.605	594.7
421.982	611.42
422.358	602.39
422.735	609.39
423.111	610.97
423.488	601.26
423.864	609.62
424.241	622.05
424.617	608.26
424.994	637.19
425.37	627.7
425.746	615.94
426.123	643.51
426.499	648.49
426.875	627.02
427.251	640.35
427.627	674.7
428.003	671.99
428.379	648.26
428.756	667.02
429.132	697.07
429.507	702.5
429.883	703.17
430.259	722.16
430.635	706.11
431.011	728.26
431.387	722.61
431.763	740.91
432.138	731.87
432.514	783.4
432.89	758.54
433.265	766.45
433.641	781.59
434.016	794.92
434.392	798.09
434.767	799.89
435.143	823.62
435.518	809.39
435.894	800.35
436.269	833.57
436.644	829.95
437.02	823.85
437.395	828.59
437.77	837.41
438.145	868.59
438.52	872.43
438.895	867.24
439.271	863.4
439.646	886.67
440.021	916.05
440.395	892.1
440.77	909.5
441.145	903.85
441.52	879.67
441.895	908.37
442.27	933
442.645	901.59
443.019	941.13
443.394	924.86
443.769	927.35
444.143	928.25
444.518	947.23
444.892	952.88
445.267	963.05
445.641	980.68
446.016	947.01
446.39	967.12
446.764	989.72
447.139	988.36
447.513	990.4
447.887	977.29
448.262	1002.83
448.636	971.87
449.01	978.19
449.384	1018.65
449.758	1024.75
450.132	1042.83
450.506	1053.67
450.88	1023.84
451.254	1039.21
451.628	1067.91
452.002	1061.58
452.376	1073.56
452.75	1068.59
453.123	1081.24
453.497	1117.63
453.871	1100.9
454.244	1159.21
454.618	1129.38
454.992	1118.08
455.365	1155.37
455.739	1172.99
456.112	1164.86
456.486	1152.88
456.859	1195.36
457.232	1223.39
457.606	1220.67
457.979	1222.03
458.352	1232.88
458.725	1240.33
459.099	1248.7
459.472	1276.27
459.845	1310.39
460.218	1311.75
460.591	1330.95
460.964	1318.52
461.337	1359.65
461.71	1350.16
462.083	1358.75
462.456	1393.1
462.829	1384.74
463.201	1452.53
463.574	1433.32
463.947	1436.49
464.32	1492.53
464.692	1463.61
465.065	1488.01
465.438	1488.92
465.81	1530.27
466.183	1551.06
466.555	1562.36
466.928	1575.24
467.3	1579.08
467.672	1589.48
468.045	1628.35
468.417	1621.34
468.789	1683.03
469.161	1669.48
469.534	1662.24
469.906	1690.04
470.278	1749.93
470.65	1758.06
471.022	1798.96
471.394	1808.46
471.766	1810.94
472.138	1850.04
472.51	1837.38
472.882	1871.05
473.253	1893.2
473.625	1909.92
473.997	1954.89
474.369	2011.84
474.74	2003.7
475.112	2036.25
475.484	2039.18
475.855	2086.64
476.227	2086.41
476.598	2118.05
476.97	2192.4
477.341	2199.18
477.713	2229.24
478.084	2229.69
478.455	2281.44
478.827	2320.76
479.198	2352.4
479.569	2395.56
479.94	2408.89
480.311	2469.45
480.682	2516.91
481.053	2578.38
481.424	2593.97
481.795	2629.22
482.166	2637.81
482.537	2674.87
482.908	2761.2
483.279	2780.86
483.65	2788.77
484.021	2863.79
484.391	2890.69
484.762	2923.45
485.133	2922.78
485.503	3002.55
485.874	3005.49
486.244	3048.2
486.615	3097.69
486.985	3169.78
487.356	3207.29
487.726	3261.98
488.097	3270.79
488.467	3283.44
488.837	3371.8
489.207	3426.72
489.578	3447.73
489.948	3485.25
490.318	3546.26
490.688	3522.08
491.058	3551.46
491.428	3672.36
491.798	3659.03
492.168	3747.61
492.538	3755.75
492.908	3779.7
493.278	3846.37
493.648	3873.49
494.017	3890.21
494.387	3909.19
494.757	3968.85
495.126	3994.16
495.496	3989.41
495.866	4031.67
496.235	4077.77
496.605	4081.39
496.974	4125
497.344	4183.31
497.713	4187.6
498.082	4239.35
498.452	4297.43
498.821	4324.55
499.19	4295.17
499.559	4354.15
499.928	4412.91
500.298	4429.18
500.667	4415.39
501.036	4442.74
501.405	4458.33
501.774	4481.83
502.143	4558.21
502.512	4538.1
502.88	4556.18
503.249	4557.08
503.618	4622.39
503.987	4676.85
504.356	4702.62
504.724	4723.18
505.093	4743.07
505.462	4718.21
505.83	4760.02
506.199	4772.22
506.567	4915.72
506.936	4929.5
507.304	4967.69
507.672	4978.54
508.041	4996.62
508.409	5001.59
508.777	5021.03
509.145	5077.75
509.514	5123.62
509.882	5144.19
510.25	5145.32
510.618	5210.85
510.986	5242.49
511.354	5298.98
511.722	5299.44
512.09	5395.48
512.458	5324.07
512.826	5442.03
513.193	5460.79
513.561	5425.08
513.929	5534.91
514.297	5552.99
514.664	5602.03
515.032	5600.67
515.4	5670.5
515.767	5741.69
516.135	5752.31
516.502	5703.27
516.869	5829.37
517.237	5860.78
517.604	5816.71
517.972	5931.28
518.339	5916.82
518.706	5976.71
519.073	6031.62
519.44	6072.52
519.808	6107.78
520.175	6141.9
520.542	6213.76
520.909	6249.92
521.276	6231.84
521.643	6363.36
522.009	6413.98
522.376	6438.16
522.743	6486.3
523.11	6541.44
523.477	6623.92
523.843	6637.93
524.21	6650.36
524.577	6646.75
524.943	6788.89
525.31	6778.95
525.676	6877.47
526.043	6871.37
526.409	6916.8
526.776	6999.51
527.142	7019.84
527.508	7076.57
527.874	7098.94
528.241	7159.05
528.607	7181.87
528.973	7288.54
529.339	7219.16
529.705	7372.83
530.071	7359.72
530.437	7425.93
530.803	7479.04
531.169	7523.33
531.535	7549.1
531.901	7483.33
532.267	7549.1
532.632	7669.09
532.998	7647.62
533.364	7691.69
533.73	7731.92
534.095	7749.54
534.461	7860.05
534.826	7860.95
535.192	7813.72
535.557	7908.18
535.923	7927.84
536.288	8010.1
536.653	8006.03
537.019	7961.06
537.384	8050.78
537.749	8089.87
538.114	8093.94
538.479	8150.44
538.845	8185.46
539.21	8180.49
539.575	8256.2
539.94	8208.74
540.305	8285.8
540.67	8332.13
541.034	8343.88
541.399	8377.77
541.764	8449.86
542.129	8398.11
542.494	8374.61
542.858	8404.89
543.223	8471.56
543.587	8544.1
543.952	8571.44
544.316	8554.49
544.681	8597.88
545.045	8651.21
545.41	8711.55
545.774	8688.27
546.138	8714.71
546.503	8746.58
546.867	8736.18
547.231	8800.36
547.595	8892.79
547.959	8889.85
548.324	8859.34
548.688	8923.52
549.052	8956.97
549.416	8944.09
549.779	8923.75
550.143	9024.76
550.507	9074.93
550.871	9113.12
551.235	9081.94
551.599	9181.59
551.962	9196.28
552.326	9239.22
552.689	9318.99
553.053	9289.84
553.417	9320.57
553.78	9434.24
554.143	9436.28
554.507	9485.99
554.87	9488.48
555.234	9549.27
555.597	9567.35
555.96	9591.53
556.323	9675.82
556.686	9662.03
557.05	9760.34
557.413	9765.76
557.776	9777.96
558.139	9907
558.502	9903.61
558.865	9862.25
559.228	9954.23
559.59	10052.53
559.953	10054.79
560.316	10211.62
560.679	10145.64
561.041	10232.41
561.404	10247.33
561.767	10264.5
562.129	10226.09
562.492	10417.72
562.854	10308.34
563.217	10386.08
563.579	10368.91
563.941	10481
564.304	10480.09
564.666	10538.17
565.028	10596.47
565.39	10579.98
565.753	10667.88
566.115	10786.75
566.477	10801.89
566.839	10733.42
567.201	10784.94
567.563	10834.66
567.925	10909.46
568.287	10965.73
568.648	10968.21
569.01	11007.54
569.372	11059.06
569.734	11072.17
570.095	11069
570.457	11207.76
570.819	11248.43
571.18	11226.74
571.542	11233.97
571.903	11288.21
572.265	11330.69
572.626	11331.37
572.987	11372.95
573.349	11448.65
573.71	11404.36
574.071	11406.62
574.432	11545.37
574.794	11533.17
575.155	11498.82
575.516	11554.64
575.877	11586.28
576.238	11603.23
576.599	11613.4
576.96	11582.89
577.32	11575.43
577.681	11691.81
578.042	11755.99
578.403	11754.63
578.763	11803.9
579.124	11708.08
579.485	11803.9
579.845	11850
580.206	11846.84
580.566	11800.96
580.927	11858.81
581.287	11840.96
581.648	11775.2
582.008	11806.38
582.368	11864.46
582.728	11897.46
583.089	11775.88
583.449	11824.01
583.809	11872.37
584.169	11859.04
584.529	11894.29
584.889	11978.58
585.249	11830.34
585.609	11866.95
585.969	11935.42
586.329	11951.01
586.688	12050.22
587.048	11954.86
587.408	11959.37
587.768	11888.42
588.127	12018.58
588.487	11961.41
588.846	12007.06
589.206	11896.1
589.565	11933.16
589.925	11959.37
590.284	12021.29
590.643	12045.02
591.003	12042.76
591.362	12024.68
591.721	12082.54
592.08	12061.52
592.44	12168.41
592.799	12186.26
593.158	12099.26
593.517	12073.95
593.876	12071.69
594.235	12116.21
594.593	12108.75
594.952	12175.87
595.311	12059.03
595.67	12109.43
596.029	12112.59
596.387	12138.58
596.746	12143.1
597.104	12132.03
597.463	12219.93
597.822	12127.28
598.18	12134.29
598.538	12174.28
598.897	12204.11
599.255	12070.78
599.613	12303.77
599.972	12175.19
600.33	12174.06
600.688	12155.75
601.046	12232.14
601.404	12329.08
601.762	12265.13
602.12	12290.89
602.478	12270.33
602.836	12324.34
603.194	12266.49
603.552	12312.59
603.91	12272.59
604.268	12335.86
604.625	12306.71
604.983	12312.36
605.341	12239.59
605.698	12323.21
606.056	12346.26
606.413	12304.68
606.771	12353.04
607.128	12431.9
607.485	12328.4
607.843	12257.67
608.2	12355.97
608.557	12403.88
608.914	12444.33
609.272	12385.13
609.629	12461.06
609.986	12499.47
610.343	12432.58
610.7	12499.02
611.057	12550.09
611.414	12411.11
611.771	12513.71
612.127	12487.5
612.484	12395.97
612.841	12527.5
613.198	12493.6
613.554	12497.44
613.911	12557.33
614.267	12607.95
614.624	12567.72
614.98	12567.95
615.337	12655.63
615.693	12604.33
616.05	12616.08
616.406	12698.79
616.762	12545.57
617.118	12596.42
617.475	12623.54
617.831	12596.65
618.187	12638.68
618.543	12637.32
618.899	12734.04
619.255	12740.15
619.611	12727.49
619.967	12800.26
620.323	12776.3
620.678	12679.58
621.034	12746.47
621.39	12675.97
621.746	12673.93
622.101	12820.82
622.457	12773.59
622.812	12748.73
623.168	12876.64
623.523	12766.13
623.879	12813.82
624.234	12713.48
624.589	12739.47
624.945	12812.46
625.3	12775.85
625.655	12758
626.01	12775.4
626.365	12749.64
626.72	12784.21
627.075	12801.16
627.43	12760.94
627.785	12683.2
628.14	12720.03
628.495	12763.42
628.85	12649.07
629.205	12626.93
629.559	12789.41
629.914	12689.07
630.269	12649.07
630.623	12613.14
630.978	12570.66
631.332	12652.92
631.687	12602.07
632.041	12654.95
632.396	12651.33
632.75	12627.38
633.104	12636.87
633.459	12525.24
633.813	12535.63
634.167	12471.45
634.521	12495.41
634.875	12544.22
635.229	12447.95
635.583	12472.58
635.937	12421.96
636.291	12319.82
636.645	12426.93
636.999	12343.09
637.352	12402.53
637.706	12369.53
638.06	12411.79
638.413	12377.44
638.767	12299.25
639.121	12349.2
639.474	12216.32
639.828	12297.22
640.181	12276.88
640.534	12351.68
640.888	12245.02
641.241	12231.46
641.594	12118.92
641.947	12148.3
642.301	12190.33
642.654	12193.49
643.007	12124.34
643.36	12167.05
643.713	12135.87
644.066	12115.08
644.419	12111.69
644.771	12059.94
645.124	11970.22
645.477	11875.76
645.83	11723
646.182	11720.51
646.535	11716.44
646.888	11683.9
647.24	11649.1
647.593	11671.25
647.945	11640.74
648.298	11621.08
648.65	11620.63
649.002	11492.27
649.355	11567.07
649.707	11594.64
650.059	11647.52
650.411	11748.76
650.763	11840.06
651.115	11901.75
651.467	11862.43
651.819	11809.55
652.171	11859.72
652.523	11811.58
652.875	11822.2
653.227	11750.57
653.578	11815.42
653.93	11804.12
654.282	11734.97
654.633	11628.76
654.985	11721.19
655.337	11681.87
655.688	11736.33
656.039	11763.67
656.391	11581.08
656.742	11669.44
657.094	11627.41
657.445	11682.55
657.796	11688.42
658.147	11732.94
658.498	11647.52
658.849	11683.9
659.2	11629.67
659.551	11633.28
659.902	11628.99
660.253	11609.78
660.604	11535.88
660.955	11535.21
661.306	11567.75
661.656	11438.26
662.007	11558.71
662.358	11511.03
662.708	11478.71
663.059	11532.95
663.409	11469.9
663.76	11534.08
664.11	11401.2
664.461	11474.42
664.811	11505.38
665.161	11500.86
665.511	11500.18
665.862	11478.26
666.212	11498.6
666.562	11471.7
666.912	11485.04
667.262	11448.88
667.612	11416.34
667.962	11382.67
668.312	11381.99
668.662	11423.57
669.011	11401.2
669.361	11357.81
669.711	11287.75
670.06	11268.09
670.41	11269
670.76	11285.95
671.109	11259.28
671.459	11276.23
671.808	11272.16
672.157	11237.59
672.507	11209.34
672.856	11228.77
673.205	11192.39
673.554	11215.44
673.904	11253.4
674.253	11196.46
674.602	11245.27
674.951	11080.3
675.3	11012.28
675.649	11144.71
675.998	11128.66
676.346	11170.24
676.695	11260.64
677.044	11199.85
677.393	11171.37
677.741	11114.88
678.09	11151.94
678.438	11025.16
678.787	11071.49
679.135	11104.71
679.484	11035.78
679.832	11092.96
680.181	11034.2
680.529	11046.86
680.877	11034.2
681.225	11013.18
681.573	11076.01
681.922	11020.64
682.27	10904.94
682.618	10961.89
682.966	10892.96
683.314	10990.13
683.661	10892.74
684.009	10833.3
684.357	10838.27
684.705	10852.74
685.053	10930.02
685.4	10850.93
685.748	10769.35
686.095	10757.82
686.443	10707.88
686.79	10746.98
687.138	10618.62
687.485	10723.02
687.832	10712.4
688.18	10637.6
688.527	10518.06
688.874	10583.37
689.221	10554.44
689.568	10507.66
689.915	10481.67
690.262	10497.49
690.609	10487.1
690.956	10473.09
691.303	10497.72
691.65	10389.25
691.997	10415.01
692.344	10329.81
692.69	10293.43
693.037	10344.05
693.383	10250.72
693.73	10257.27
694.077	10327.1
694.423	10221.34
694.769	10233.77
695.116	10254.79
695.462	10196.94
695.808	10163.26
696.155	10035.13
696.501	10039.65
696.847	10072.87
697.193	10045.3
697.539	10064.74
697.885	10009.6
698.231	9937.96
698.577	9901.58
698.923	9882.82
699.269	9928.92
699.614	9843.95
699.96	9751.3
700.306	9872.2
700.651	9788.13
700.997	9708.59
701.342	9647.12
701.688	9653.22
702.033	9649.38
702.379	9624.07
702.724	9648.48
703.069	9694.58
703.415	9615.03
703.76	9602.37
704.105	9518.31
704.45	9497.07
704.795	9565.54
705.14	9391.08
705.485	9430.18
705.83	9436.73
706.175	9391.31
706.52	9323.29
706.865	9366.45
707.209	9286.22
707.554	9228.6
707.899	9312.44
708.243	9270.41
708.588	9274.47
708.932	9221.37
709.277	9221.14
709.621	9201.93
709.966	9203.74
710.31	9164.19
710.654	9106.12
710.998	9102.5
711.342	9026.12
711.687	9050.98
712.031	8990.87
712.375	8987.02
712.719	8997.87
713.063	8940.7
713.407	8980.92
713.75	8842.39
714.094	8923.75
714.438	8771.44
714.782	8799.01
715.125	8808.5
715.469	8830.64
715.812	8762.62
716.156	8760.59
716.499	8732.57
716.843	8712.91
717.186	8675.62
717.53	8717.43
717.873	8756.75
718.216	8702.96
718.559	8621.16
718.902	8627.26
719.246	8614.83
719.589	8636.07
719.932	8544.1
720.275	8540.03
720.617	8504.1
720.96	8477.21
721.303	8502.29
721.646	8496.64
721.989	8462.74
722.331	8458
722.674	8483.31
723.016	8459.81
723.359	8416.19
723.701	8425.46
724.044	8399.24
724.386	8343.2
724.729	8367.6
725.071	8249.42
725.413	8324.67
725.755	8275.63
726.097	8217.55
726.439	8252.13
726.782	8236.99
727.124	8216.65
727.465	8214.84
727.807	8236.76
728.149	8203.54
728.491	8165.58
728.833	8176.2
729.175	8084.45
729.516	8108.63
729.858	8203.09
730.199	8100.27
730.541	8159.02
730.882	8087.16
731.224	8140.27
731.565	8092.36
731.906	8094.39
732.248	7990.21
732.589	8058.23
732.93	7968.52
733.271	8037.9
733.612	8014.85
733.953	8010.33
734.294	7916.77
734.635	7921.51
734.976	7993.15
735.317	7942.98
735.658	7978.01
735.999	7934.62
736.339	7962.64
736.68	7949.31
737.021	7909.31
737.361	7855.75
737.702	7926.94
738.042	7864.79
738.383	7774.4
738.723	7822.31
739.063	7758.58
739.404	7771.46
739.744	7711.8
740.084	7764.91
740.424	7759.49
740.764	7745.93
741.104	7785.02
741.444	7760.84
741.784	7738.02
742.124	7713.84
742.464	7733.5
742.804	7662.54
743.143	7655.76
743.483	7677.68
743.823	7648.75
744.162	7662.76
744.502	7703.22
744.841	7676.32
745.181	7643.78
745.52	7556.55
745.86	7618.25
746.199	7622.54
746.538	7545.48
746.877	7600.85
747.216	7595.42
747.556	7533.73
747.895	7574.18
748.234	7518.59
748.573	7503.67
748.911	7498.93
749.25	7481.07
749.589	7479.27
749.928	7448.08
750.267	7477.23
750.605	7465.71
750.944	7412.83
751.283	7377.12
751.621	7371.25
751.96	7333.28
752.298	7351.13
752.636	7375.09
752.975	7286.28
753.313	7259.61
753.651	7290.57
753.989	7279.5
754.327	7278.14
754.666	7251.25
755.004	7234.08
755.342	7256.22
755.679	7202.44
756.017	7142.55
756.355	7142.1
756.693	7107.52
757.031	7140.07
757.368	7198.6
757.706	7120.86
758.044	7099.39
758.381	7095.32
758.719	7059.84
759.056	7053.74
759.394	6983.69
759.731	6971.71
760.068	6997.47
760.405	6897.81
760.743	6892.16
761.08	6921.77
761.417	6915.44
761.754	6880.19
762.091	6831.83
762.428	6887.19
762.765	6851.03
763.102	6875.21
763.438	6828.44
763.775	6776.46
764.112	6772.17
764.449	6731.72
764.785	6769
765.122	6688.78
765.458	6697.59
765.795	6691.49
766.131	6648.33
766.467	6670.47
766.804	6553.87
767.14	6494.21
767.476	6541.44
767.812	6468.9
768.148	6492.85
768.485	6416.7
768.821	6437.71
769.157	6428.45
769.492	6356.81
769.828	6373.31
770.164	6309.13
770.5	6349.58
770.836	6377.15
771.171	6315.68
771.507	6302.57
771.842	6275
772.178	6245.85
772.513	6263.03
772.849	6202.92
773.184	6155.46
773.519	6170.37
773.855	6135.8
774.19	6144.16
774.525	6130.38
774.86	6088.57
775.195	6044.5
775.53	6091.51
775.865	6062.58
776.2	5962.24
776.535	5981.45
776.87	5924.05
777.205	5911.85
777.539	5870.95
777.874	5920.66
778.209	5841.8
778.543	5838.18
778.878	5813.1
779.212	5807.22
779.547	5813.77
779.881	5777.62
780.215	5736.04
780.55	5759.76
780.884	5652.2
781.218	5668.24
781.552	5757.96
781.886	5640.22
782.22	5577.4
782.554	5620.33
782.888	5578.53
783.222	5495.14
783.556	5510.73
783.889	5485.65
784.223	5518.64
784.557	5458.98
784.89	5478.42
785.224	5448.59
785.557	5452.88
785.891	5395.25
786.224	5427.12
786.558	5444.52
786.891	5341.24
787.224	5349.61
787.557	5363.62
787.891	5317.52
788.224	5294.01
788.557	5304.18
788.89	5344.86
789.223	5324.75
789.556	5285.65
789.888	5216.73
790.221	5218.99
790.554	5177.18
790.887	5140.8
791.219	5135.83
791.552	5152.77
791.884	5077.07
792.217	5021.25
792.549	5062.83
792.882	5013.79
793.214	5050.18
793.546	5011.08
793.879	5045.88
794.211	4963.17
794.543	4960.91
794.875	4942.61
795.207	4986.22
795.539	4892.89
795.871	4900.8
796.203	4838.43
796.535	4862.61
796.867	4788.94
797.198	4823.52
797.53	4758.66
797.862	4794.82
798.193	4792.56
798.525	4788.04
798.856	4731.99
799.188	4736.06
799.519	4704.2
799.85	4684.54
800.182	4715.27
800.513	4723.86
800.844	4669.4
801.175	4708.49
801.506	4729.06
801.837	4661.49
802.168	4646.35
802.499	4651.54
802.83	4608.38
803.161	4625.1
803.491	4596.86
803.822	4566.57
804.153	4546.46
804.483	4487.48
804.814	4472.57
805.145	4492.45
805.475	4496.29
805.805	4475.28
806.136	4492.45
806.466	4478.89
806.796	4442.96
807.126	4466.69
807.457	4417.88
807.787	4420.36
808.117	4386.47
808.447	4421.95
808.777	4466.46
809.107	4406.35
809.436	4380.59
809.766	4361.16
810.096	4326.36
810.426	4313.02
810.755	4274.61
811.085	4273.48
811.414	4261.95
811.744	4278.22
812.073	4245.68
812.403	4238.67
812.732	4227.83
813.061	4236.64
813.39	4238.9
813.719	4188.96
814.049	4195.74
814.378	4175.17
814.707	4210.88
815.036	4176.53
815.365	4160.94
815.693	4118.68
816.022	4137.66
816.351	4153.93
816.68	4112.12
817.008	4125.91
817.337	4082.52
817.665	4055.63
817.994	4116.64
818.322	4076.64
818.651	4048.17
818.979	4053.59
819.307	4052.01
819.636	4012.24
819.964	4026.25
820.292	4088.4
820.62	4001.84
820.948	4005.23
821.276	4071.9
821.604	4016.98
821.932	3996.42
822.259	4042.97
822.587	4038
822.915	4047.27
823.243	4044.55
823.57	4025.8
823.898	3991
824.225	3997.1
824.553	4007.04
824.88	4036.42
825.207	4017.66
825.535	4019.7
825.862	4052.01
826.189	4092.24
826.516	4058.34
826.843	4062.41
827.17	4035.74
827.497	4052.01
827.824	4024.67
828.151	4030.32
828.478	3986.03
828.805	4042.97
829.131	4030.32
829.458	4031.9
829.785	4018.11
830.111	4007.72
830.438	4021.28
830.764	4043.65
831.09	4017.21
831.417	3983.99
831.743	4015.85
832.069	4041.62
832.395	3991.9
832.722	4045.01
833.048	4008.17
833.374	4008.85
833.7	4008.62
834.026	3988.96
834.351	3990.32
834.677	3945.57
835.003	3999.58
835.329	3959.13
835.654	3958.23
835.98	3948.06
836.306	3924.78
836.631	3942.18
836.956	3940.15
837.282	3927.04
837.607	3930.89
837.932	3890.66
838.258	3927.5
838.583	3967.04
838.908	3891.56
839.233	3931.11
839.558	3898.34
839.883	3908.74
840.208	3888.17
840.533	3882.07
840.858	3845.01
841.182	3861.73
841.507	3846.14
841.832	3813.37
842.156	3840.94
842.481	3779.25
842.805	3792.81
843.13	3814.96
843.454	3811.79
843.778	3846.82
844.103	3799.82
844.427	3830.77
844.751	3763.88
845.075	3761.4
845.399	3738.12
845.723	3734.05
846.047	3751.23
846.371	3736.77
846.695	3718.69
847.019	3740.83
847.343	3673.04
847.666	3617
847.99	3636.43
848.313	3604.57
848.637	3608.63
848.96	3613.83
849.284	3629.65
849.607	3559.6
849.931	3571.57
850.254	3581.97
850.577	3555.53
850.9	3532.25
851.223	3529.54
851.546	3498.58
851.869	3488.41
852.192	3526.15
852.515	3496.77
852.838	3451.58
853.161	3435.98
853.483	3433.5
853.806	3431.24
854.129	3394.18
854.451	3417.23
854.774	3453.84
855.096	3382.88
855.419	3379.94
855.741	3348.75
856.063	3322.31
856.385	3364.12
856.708	3372.71
857.03	3345.59
857.352	3301.75
857.674	3299.72
857.996	3303.33
858.318	3278.47
858.64	3279.38
858.961	3290.68
859.283	3275.99
859.605	3233.28
859.926	3256.55
860.248	3225.82
860.57	3235.54
860.891	3216.55
861.212	3233.95
861.534	3222.43
861.855	3178.59
862.176	3198.93
862.498	3213.62
862.819	3262.88
863.14	3215.65
863.461	3188.53
863.782	3170.91
864.103	3171.58
864.424	3162.32
864.745	3144.01
865.065	3166.16
865.386	3174.3
865.707	3171.81
866.027	3161.41
866.348	3149.44
866.668	3153.73
866.989	3097.91
867.309	3098.14
867.63	3061.98
867.95	3104.24
868.27	3087.74
868.59	3084.13
868.91	3070.57
869.23	3094.3
869.55	3060.85
869.87	3068.08
870.19	3095.88
870.51	3066.28
870.83	3062.21
871.15	3031.02
871.469	3038.03
871.789	3050.46
872.109	3079.61
872.428	3016.56
872.748	3021.98
873.067	3003.45
873.386	3064.24
873.706	2994.19
874.025	2997.58
874.344	2992.15
874.663	2988.76
874.982	2949.44
875.301	2977.01
875.62	2959.84
875.939	2926.62
876.258	2955.54
876.577	2956
876.896	2945.15
877.214	2947.41
877.533	2926.39
877.852	2958.93
878.17	2991.25
878.489	2922.1
878.807	2964.36
879.125	2928.88
879.444	2930.23
879.762	2884.36
880.08	2957.8
880.398	2919.84
880.716	2923.91
881.034	2931.82
881.352	2900.86
881.67	2878.94
881.988	2873.74
882.306	2858.82
882.624	2873.06
882.941	2861.53
883.259	2843
883.577	2864.25
883.894	2842.78
884.212	2854.98
884.529	2863.79
884.846	2794.19
885.164	2816.56
885.481	2819.95
885.798	2806.62
886.115	2803.01
886.432	2760.07
886.75	2791.25
887.067	2794.42
887.383	2757.36
887.7	2770.69
888.017	2751.26
888.334	2758.71
888.651	2763.46
888.967	2761.65
889.284	2740.18
889.6	2720.3
889.917	2711.71
890.233	2703.12
890.55	2720.97
890.866	2706.96
891.182	2694.31
891.498	2683.69
891.815	2697.92
892.131	2693.63
892.447	2698.6
892.763	2654.53
893.079	2656.57
893.395	2647.3
893.71	2643.91
894.026	2641.2
894.342	2649.34
894.657	2619.73
894.973	2583.58
895.289	2616.8
895.604	2657.47
895.92	2609.11
896.235	2590.13
896.55	2594.42
896.865	2568.21
897.181	2585.61
897.496	2588.55
897.811	2561.43
898.126	2526.63
898.441	2537.02
898.756	2521.88
899.071	2510.81
899.386	2508.78
899.7	2480.3
900.015	2501.09
900.33	2484.6
900.644	2504.48
900.959	2479.4
901.273	2453.41
901.588	2497.7
901.902	2433.52
902.216	2443.69
902.531	2427.65
902.845	2427.2
903.159	2439.63
903.473	2435.33
903.787	2420.42
904.101	2414.32
904.415	2398.5
904.729	2401.66
905.042	2391.49
905.356	2356.92
905.67	2400.53
905.984	2368.67
906.297	2364.37
906.611	2337.93
906.924	2306.07
907.237	2325.05
907.551	2328.67
907.864	2329.8
908.177	2318.05
908.491	2312.62
908.804	2274.88
909.117	2285.28
909.43	2277.82
909.743	2275.11
910.056	2247.99
910.368	2238.95
910.681	2220.87
910.994	2252.06
911.307	2245.05
911.619	2241.89
911.932	2217.48
912.244	2217.71
912.557	2239.18
912.869	2220.65
913.181	2209.8
913.494	2142.46
913.806	2154.66
914.118	2155.79
914.43	2167.32
914.742	2131.16
915.054	2129.35
915.366	2137.49
915.678	2129.8
915.99	2112.63
916.302	2112.85
916.613	2075.11
916.925	2076.92
917.236	2104.27
917.548	2101.55
917.859	2092.06
918.171	2087.77
918.482	2086.87
918.794	2051.61
919.105	2075.57
919.416	2042.35
919.727	2044.61
920.038	2044.83
920.349	2037.38
920.66	2011.16
920.971	2002.35
921.282	1991.73
921.593	1981.33
921.903	2010.03
922.214	1984.04
922.525	1955.12
922.835	1957.83
923.146	1951.73
923.456	1957.83
923.767	1935.23
924.077	1979.52
924.387	1920.99
924.697	1933.2
925.008	1906.98
925.318	1905.18
925.628	1935.01
925.938	1921.67
926.248	1855.46
926.558	1906.53
926.867	1889.58
927.177	1860.66
927.487	1853.43
927.796	1847.55
928.106	1879.19
928.416	1857.49
928.725	1858.85
929.034	1837.61
929.344	1827.21
929.653	1801.68
929.962	1805.74
930.271	1802.35
930.581	1790.6
930.89	1811.62
931.199	1800.32
931.508	1798.06
931.817	1788.12
932.125	1794.67
932.434	1771.17
932.743	1729.81
933.051	1745.41
933.36	1711.51
933.669	1729.59
933.977	1744.73
934.286	1748.34
934.594	1739.98
934.902	1732.3
935.21	1711.06
935.519	1745.41
935.827	1682.13
936.135	1717.38
936.443	1680.1
936.751	1696.82
937.059	1682.13
937.367	1658.4
937.674	1649.59
937.982	1671.96
938.29	1674.22
938.597	1644.17
938.905	1643.49
939.213	1642.13
939.52	1664.05
939.827	1649.14
940.135	1616.14
940.442	1563.94
940.749	1613.66
941.056	1597.39
941.363	1584.96
941.67	1589.7
941.977	1616.37
942.284	1540.21
942.591	1574.11
942.898	1547.45
943.205	1542.25
943.511	1573.43
943.818	1551.96
944.125	1546.09
944.431	1535.02
944.738	1525.98
945.044	1520.78
945.35	1532.53
945.657	1481.01
945.963	1517.62
946.269	1504.51
946.575	1478.07
946.881	1509.71
947.187	1481.68
947.493	1459.54
947.799	1467.22
948.105	1468.13
948.41	1444.85
948.716	1429.93
949.022	1441.69
949.327	1449.14
949.633	1434.23
949.938	1423.83
950.244	1431.06
950.549	1409.6
950.854	1423.38
951.16	1410.05
951.465	1399.43
951.77	1422.7
952.075	1397.17
952.38	1385.87
952.685	1385.64
952.99	1392.87
953.294	1376.83
953.599	1353.33
953.904	1357.85
954.209	1373.44
954.513	1351.74
954.818	1366.66
955.122	1359.65
955.426	1347.9
955.731	1361.01
956.035	1345.19
956.339	1330.73
956.643	1318.52
956.948	1324.63
957.252	1328.02
957.556	1306.55
957.86	1291.86
958.163	1307.68
958.467	1321.69
958.771	1306.77
959.075	1258.19
959.378	1292.54
959.682	1295.47
959.985	1292.54
960.289	1273.78
960.592	1281.92
960.896	1262.48
961.199	1280.11
961.502	1260.67
961.805	1257.96
962.108	1268.36
962.411	1255.7
962.714	1250.5
963.017	1249.15
963.32	1235.14
963.623	1220
963.926	1235.14
964.228	1243.5
964.531	1204.18
964.833	1215.25
965.136	1199.21
965.438	1185.87
965.741	1178.42
966.043	1209.6
966.345	1194.91
966.648	1184.06
966.95	1173.44
967.252	1183.16
967.554	1189.26
967.856	1162.37
968.158	1193.1
968.46	1151.98
968.761	1147
969.063	1147.46
969.365	1144.97
969.666	1154.91
969.968	1113.33
970.269	1149.49
970.571	1144.29
970.872	1109.72
971.174	1141.13
971.475	1130.73
971.776	1115.82
972.077	1145.42
972.378	1112.88
972.679	1111.3
972.98	1084.63
973.281	1072.2
973.582	1076.95
973.883	1095.93
974.183	1063.16
974.484	1060.45
974.785	1085.08
975.085	1052.77
975.386	1080.11
975.686	1065.65
975.986	1072.2
976.287	1052.77
976.587	1036.95
976.887	1038.98
977.187	1069.94
977.487	1032.66
977.787	1042.37
978.087	1034.01
978.387	1039.21
978.687	1048.25
978.987	1042.37
979.286	1024.97
979.586	1022.49
979.885	1008.7
980.185	1007.35
980.484	996.05
980.784	1019.55
981.083	1015.71
981.382	982.04
981.682	984.75
981.981	994.92
982.28	988.82
982.579	984.75
982.878	981.36
983.177	992.66
983.475	953.34
983.774	969.83
984.073	965.09
984.372	953.79
984.67	959.21
984.969	924.86
985.267	964.41
985.566	945.2
985.864	953.79
986.162	921.02
986.461	959.21
986.759	914.69
987.057	942.49
987.355	930.06
987.653	932.55
987.951	949.49
988.249	931.87
988.547	930.06
988.844	938.65
989.142	944.52
989.44	919.67
989.737	898.65
990.035	883.28
990.332	905.88
990.63	896.16
990.927	918.31
991.224	892.32
991.521	877.18
991.819	882.83
992.116	898.42
992.413	867.24
992.71	881.25
993.006	862.27
993.303	881.02
993.6	867.46
993.897	880.12
994.193	877.41
994.49	870.17
994.787	862.27
995.083	853.45
995.379	862.72
995.676	850.51
995.972	850.51
996.268	843.06
996.565	844.86
996.861	845.77
997.157	833.11
997.453	823.17
997.749	827.46
998.044	836.5
998.34	816.84
998.636	836.28
998.932	825.2
999.227	827.69
999.523	831.53
999.818	823.17
1000.114	820.91
1000.409	815.49
1000.704	828.37
1001	785.43
1001.295	794.24
1001.59	795.37
1001.885	800.57
1002.18	769.61
1002.475	774.81
1002.77	783.85
1003.065	782.49
1003.359	795.6
1003.654	785.88
1003.949	791.76
1004.243	747.24
1004.538	765.32
1004.832	773.68
1005.127	721.93
1005.421	782.27
1005.715	747.47
1006.009	739.56
1006.304	740.46
1006.598	721.25
1006.892	749.05
1007.186	729.16
1007.48	747.69
1007.773	707.24
1008.067	730.74
1008.361	718.31
1008.655	740.46
1008.948	731.42
1009.242	705.89
1009.535	696.62
1009.829	738.43
1010.122	716.05
1010.415	700.69
1010.708	713.12
1011.001	681.25
1011.295	692.33
1011.588	707.69
1011.881	688.94
1012.173	700.01
1012.466	685.09
1012.759	702.04
1013.052	701.82
1013.344	694.13
1013.637	695.04
1013.93	673.57
1014.222	656.4
1014.514	679.45
1014.807	689.61
1015.099	675.83
1015.391	672.67
1015.683	654.14
1015.976	651.2
1016.268	660.91
1016.56	664.53
1016.851	659.78
1017.143	654.81
1017.435	665.66
1017.727	655.04
1018.018	645.77
1018.31	648.49
1018.602	643.06
1018.893	628.6
1019.185	629.96
1019.476	643.06
1019.767	656.17
1020.058	640.58
1020.35	615.27
1020.641	618.88
1020.932	603.97
1021.223	604.42
1021.514	604.19
1021.804	615.04
1022.095	605.32
1022.386	590.86
1022.677	622.72
1022.967	608.71
1023.258	616.4
1023.548	596.28
1023.839	587.7
1024.129	607.13
1024.419	608.71
1024.709	589.28
1025	575.95
1025.29	577.98
1025.58	557.19
1025.87	579.79
1026.16	557.19
1026.449	580.01
1026.739	572.78
1027.029	559.67
1027.319	564.42
1027.608	563.52
1027.898	570.07
1028.187	591.31
1028.477	571.2
1028.766	559.22
1029.055	527.36
1029.344	542.5
1029.634	536.62
1029.923	540.69
1030.212	551.99
1030.501	545.21
1030.79	544.31
1031.078	564.65
1031.367	504.76
1031.656	521.94
1031.945	533.23
1032.233	512.67
1032.522	530.52
1032.81	534.82
1033.099	528.49
1033.387	540.69
1033.675	518.55
1033.963	515.38
1034.251	504.31
1034.54	531.65
1034.828	519.68
1035.116	520.58
1035.403	533.46
1035.691	506.34
1035.979	515.61
1036.267	511.31
1036.554	490.75
1036.842	505.66
1037.129	499.34
1037.417	494.37
1037.704	486.91
1037.992	494.59
1038.279	494.14
1038.566	476.51
1038.853	476.51
1039.14	476.51
