Data from black_plastic_tray_FLMS001491_056.txt Node
Date: Tue Feb 07 10:40:09 GMT 2017
User: dcchb
Spectrometer: FLMS00149
Trigger mode: 0
Integration Time (sec): 2.000000E-2
Scans to average: 10
Electric dark correction enabled: true
Nonlinearity correction enabled: false
Boxcar width: 0
XAxis mode: Wavelengths
Number of Pixels in Spectrum: 2048
>>>>>Begin Spectral Data<<<<<
341.393	-5.96
341.776	-5.96
342.16	-5.96
342.543	-64.49
342.927	-62.68
343.31	-47.54
343.693	-102.23
344.077	-77.37
344.46	-56.81
344.843	-52.06
345.226	-26.75
345.61	-33.53
345.993	-21.78
346.376	-9.8
346.759	15.73
347.142	19.58
347.525	29.52
347.908	74.26
348.291	72
348.674	99.57
349.057	117.2
349.44	128.73
349.823	148.61
350.206	161.94
350.588	171.89
350.971	215.73
351.354	223.86
351.737	224.77
352.119	247.37
352.502	239.68
352.884	266.35
353.267	266.57
353.65	270.64
354.032	311.55
354.414	292.79
354.797	293.01
355.179	320.81
355.562	324.2
355.944	320.36
356.326	319.68
356.709	307.25
357.091	329.85
357.473	342.96
357.855	333.24
358.238	330.98
358.62	332.11
359.002	319.23
359.384	322.84
359.766	342.96
360.148	342.05
360.53	329.85
360.912	311.77
361.294	312.68
361.676	317.42
362.057	340.47
362.439	330.3
362.821	316.29
363.203	314.26
363.584	329.17
363.966	306.57
364.348	308.83
364.729	304.77
365.111	305.22
365.493	316.74
365.874	312
366.256	308.83
366.637	312
367.019	312.68
367.4	335.27
367.781	317.65
368.163	328.04
368.544	312.45
368.925	298.89
369.306	313.58
369.688	314.48
370.069	300.25
370.45	307.93
370.831	325.33
371.212	310.64
371.593	317.2
371.974	310.19
372.355	283.52
372.736	326.23
373.117	314.03
373.498	333.01
373.879	302.96
374.26	323.97
374.641	324.43
375.021	315.61
375.402	301.6
375.783	329.62
376.163	329.17
376.544	322.62
376.925	332.34
377.305	319.68
377.686	350.19
378.066	340.92
378.447	310.42
378.827	329.62
379.208	353.35
379.588	330.3
379.968	362.17
380.349	342.28
380.729	324.43
381.109	342.05
381.489	346.35
381.87	354.48
382.25	349.51
382.63	359.68
383.01	357.87
383.39	360.58
383.77	349.06
384.15	364.43
384.53	359.68
384.91	374.37
385.29	346.12
385.67	366.01
386.049	366.91
386.429	393.13
386.809	387.93
387.189	377.53
387.568	353.58
387.948	354.71
388.328	358.78
388.707	379.79
389.087	382.28
389.466	376.63
389.846	373.24
390.225	385.22
390.605	391.09
390.984	390.64
391.363	403.29
391.743	392
392.122	393.8
392.501	387.93
392.881	390.41
393.26	401.71
393.639	404.65
394.018	421.15
394.397	417.31
394.776	419.34
395.155	402.39
395.534	422.28
395.913	428.15
396.292	406.01
396.671	430.86
397.05	433.35
397.429	441.03
397.808	425.44
398.186	427.7
398.565	443.52
398.944	438.32
399.323	437.64
399.701	431.99
400.08	442.39
400.458	437.42
400.837	464.54
401.215	473.8
401.594	451.65
401.972	435.61
402.351	441.03
402.729	456.17
403.107	480.58
403.486	492.78
403.864	472.22
404.242	465.21
404.62	470.86
404.999	483.97
405.377	477.87
405.755	501.82
406.133	503.4
406.511	467.47
406.889	502.73
407.267	512.22
407.645	513.8
408.023	534.36
408.401	541.82
408.779	497.3
409.156	544.08
409.534	556.06
409.912	525.78
410.29	535.49
410.667	553.35
411.045	538.66
411.422	561.48
411.8	517.64
412.178	577.3
412.555	546.79
412.933	563.74
413.31	583.85
413.687	574.82
414.065	579.11
414.442	590.63
414.819	595.61
415.197	596.96
415.574	607.58
415.951	593.57
416.328	643.97
416.705	620.69
417.082	598.54
417.46	615.72
417.837	628.37
418.214	632.22
418.591	657.98
418.967	662.04
419.344	664.08
419.721	654.59
420.098	641.25
420.475	660.91
420.852	665.89
421.228	668.82
421.605	668.15
421.982	668.37
422.358	687.81
422.735	687.35
423.111	702.27
423.488	694.36
423.864	676.28
424.241	734.13
424.617	703.17
424.994	715.83
425.37	742.95
425.746	744.53
426.123	727.13
426.499	747.69
426.875	763.51
427.251	748.14
427.627	783.4
428.003	796.05
428.379	794.02
428.756	770.97
429.132	791.31
429.507	801.7
429.883	808.93
430.259	828.59
430.635	832.89
431.011	829.05
431.387	853.23
431.763	859.78
432.138	843.06
432.514	882.38
432.89	894.13
433.265	890.51
433.641	912.21
434.016	903.17
434.392	937.29
434.767	942.94
435.143	949.04
435.518	960.12
435.894	954.47
436.269	961.25
436.644	967.8
437.02	995.82
437.395	989.04
437.77	1011.87
438.145	1028.59
438.52	1015.26
438.895	1016.39
439.271	1025.65
439.646	1019.32
440.021	1039.21
440.395	1061.13
440.77	1042.83
441.145	1042.6
441.52	1095.93
441.895	1058.42
442.27	1080.56
442.645	1104.74
443.019	1101.36
443.394	1080.34
443.769	1102.94
444.143	1111.98
444.518	1121.69
444.892	1138.42
445.267	1112.43
445.641	1144.52
446.016	1135.93
446.39	1140
446.764	1142.94
447.139	1138.87
447.513	1169.83
447.887	1182.26
448.262	1171.18
448.636	1188.81
449.01	1217.96
449.384	1236.72
449.758	1197.62
450.132	1220.45
450.506	1230.62
450.88	1241.24
451.254	1245.98
451.628	1246.66
452.002	1269.49
452.376	1305.87
452.75	1282.37
453.123	1290.05
453.497	1321.46
453.871	1328.92
454.244	1332.08
454.618	1377.51
454.992	1390.84
455.365	1382.7
455.739	1414.12
456.112	1422.7
456.486	1444.62
456.859	1453.89
457.232	1473.32
457.606	1467.45
457.979	1492.98
458.352	1491.63
458.725	1525.07
459.099	1549.03
459.472	1551.29
459.845	1592.87
460.218	1592.42
460.591	1577.95
460.964	1622.02
461.337	1625.41
461.71	1623.15
462.083	1677.16
462.456	1702.47
462.829	1664.96
463.201	1716.48
463.574	1739.08
463.947	1749.02
464.32	1799.42
464.692	1774.78
465.065	1827.21
465.438	1865.18
465.81	1863.14
466.183	1889.36
466.555	1902.92
466.928	1925.06
467.3	1932.52
467.672	1959.64
468.045	1990.37
468.417	2013.42
468.789	2034.21
469.161	2035.34
469.534	2071.73
469.906	2113.31
470.278	2144.49
470.65	2150.59
471.022	2172.29
471.394	2214.09
471.766	2214.55
472.138	2238.5
472.51	2294.32
472.882	2328.89
473.253	2361.89
473.625	2381.55
473.997	2462.45
474.369	2458.83
474.74	2500.41
475.112	2518.72
475.484	2570.02
475.855	2602.11
476.227	2631.48
476.598	2683.69
476.97	2680.52
477.341	2752.61
477.713	2797.58
478.084	2803.01
478.455	2879.16
478.827	2898.14
479.198	2988.54
479.569	2988.31
479.94	3074.86
480.311	3130.45
480.682	3122.32
481.053	3194.41
481.424	3288.42
481.795	3315.53
482.166	3354.63
482.537	3415.19
482.908	3482.31
483.279	3464
483.65	3543.78
484.021	3606.6
484.391	3678.24
484.762	3697.67
485.133	3736.09
485.503	3767.95
485.874	3858.34
486.244	3856.99
486.615	3897.67
486.985	4006.82
487.356	4064.22
487.726	4115.74
488.097	4189.64
488.467	4178.34
488.837	4251.78
489.207	4312.34
489.578	4368.39
489.948	4414.04
490.318	4443.41
490.688	4455.62
491.058	4494.26
491.428	4590.08
491.798	4644.54
492.168	4739.23
492.538	4683.18
492.908	4789.62
493.278	4876.85
493.648	4860.58
494.017	4856.51
494.387	4948.71
494.757	4981.48
495.126	5094.24
495.496	4980.8
495.866	5115.49
496.235	5148.48
496.605	5218.99
496.974	5209.27
497.344	5306.67
497.713	5353.67
498.082	5392.77
498.452	5398.64
498.821	5406.33
499.19	5471.18
499.559	5486.55
499.928	5564.06
500.298	5618.75
500.667	5647.22
501.036	5638.64
501.405	5716.15
501.774	5728.8
502.143	5769.26
502.512	5752.53
502.88	5820.1
503.249	5887.22
503.618	5966.76
503.987	5912.3
504.356	6001.57
504.724	5980.32
505.093	6106.2
505.462	6102.81
505.83	6144.84
506.199	6177.83
506.567	6284.72
506.936	6276.13
507.304	6364.72
507.672	6383.7
508.041	6434.1
508.409	6425.73
508.777	6504.38
509.145	6534.88
509.514	6555
509.882	6603.36
510.25	6571.49
510.618	6690.59
510.986	6714.31
511.354	6800.19
511.722	6863.92
512.09	6987.75
512.458	6936.23
512.826	6988.66
513.193	7067.75
513.561	7088.54
513.929	7109.33
514.297	7145.26
514.664	7265.03
515.032	7232.95
515.4	7324.24
515.767	7394.98
516.135	7390.68
516.502	7360.63
516.869	7516.1
517.237	7564.46
517.604	7558.13
517.972	7606.04
518.339	7717.23
518.706	7653.05
519.073	7800.16
519.44	7823.89
519.808	7935.3
520.175	7910.67
520.542	8011.46
520.909	8088.74
521.276	8127.61
521.643	8224.33
522.009	8222.07
522.376	8233.6
522.743	8320.83
523.11	8416.19
523.477	8454.38
523.843	8535.96
524.21	8687.14
524.577	8606.92
524.943	8688.95
525.31	8807.59
525.676	8882.39
526.043	8965.56
526.409	8946.12
526.776	9104.31
527.142	9062.5
527.508	9083.97
527.874	9160.58
528.241	9286.22
528.607	9303.17
528.973	9424.53
529.339	9373.23
529.705	9517.41
530.071	9585.65
530.437	9628.81
530.803	9642.37
531.169	9678.53
531.535	9696.61
531.901	9685.99
532.267	9821.35
532.632	9851.63
532.998	9879.66
533.364	9989.48
533.73	10030.61
534.095	10067.9
534.461	10109.25
534.826	10186.77
535.192	10109.71
535.557	10278.52
535.923	10234
536.288	10311.51
536.653	10391.96
537.019	10403.26
537.384	10454.1
537.749	10533.88
538.114	10545.4
538.479	10599.18
538.845	10641.22
539.21	10637.6
539.575	10656.81
539.94	10761.89
540.305	10745.85
540.67	10729.12
541.034	10726.19
541.399	10886.86
541.764	10880.08
542.129	10914.66
542.494	10986.75
542.858	10961.21
543.223	10965.73
543.587	11046.18
543.952	11090.92
544.316	11089.12
544.681	11091.15
545.045	11167.76
545.41	11257.7
545.774	11276
546.138	11269
546.503	11398.03
546.867	11361.2
547.231	11504.25
547.595	11483.68
547.959	11571.14
548.324	11459.27
548.688	11581.53
549.052	11584.7
549.416	11616.33
549.779	11634.41
550.143	11686.39
550.507	11838.7
550.871	11787.4
551.235	11788.98
551.599	11918.02
551.962	11901.52
552.326	11961.18
552.689	12069.88
553.053	12033.95
553.417	12093.16
553.78	12206.15
554.143	12193.49
554.507	12313.04
554.87	12317.11
555.234	12445.01
555.597	12367.73
555.96	12380.83
556.323	12517.33
556.686	12482.52
557.05	12607.95
557.413	12611.34
557.776	12675.29
558.139	12728.62
558.502	12847.04
558.865	12815.17
559.228	12947.37
559.59	12884.32
559.953	13015.84
560.316	13117.31
560.679	13096.52
561.041	13115.05
561.404	13226.23
561.767	13297.42
562.129	13265.1
562.492	13466
562.854	13425.32
563.217	13448.38
563.579	13597.75
563.941	13660.57
564.304	13638.88
564.666	13792.09
565.028	13809.5
565.39	13814.24
565.753	13824.41
566.115	13884.3
566.477	13908.48
566.839	14081.13
567.201	14083.16
567.563	14064.4
567.925	14254.91
568.287	14250.39
568.648	14271.86
569.01	14322.02
569.372	14500.78
569.734	14416.03
570.095	14529.7
570.457	14610.83
570.819	14628.23
571.18	14622.58
571.542	14722.47
571.903	14667.78
572.265	14736.48
572.626	14791.84
572.987	14870.26
573.349	14873.2
573.71	14955.68
574.071	14962.91
574.432	15034.32
574.794	15114.09
575.155	15033.19
575.516	15061.21
575.877	15164.04
576.238	15172.85
576.599	15256.92
576.96	15201.55
577.32	15203.13
577.681	15354.54
578.042	15395.44
578.403	15400.41
578.763	15412.17
579.124	15461.43
579.485	15447.64
579.845	15471.37
580.206	15381.21
580.566	15413.52
580.927	15470.24
581.287	15473.63
581.648	15500.75
582.008	15627.07
582.368	15502.11
582.728	15512.05
583.089	15568.09
583.449	15599.28
583.809	15559.05
584.169	15623.01
584.529	15500.98
584.889	15571.03
585.249	15582.78
585.609	15577.81
585.969	15569.68
586.329	15693.74
586.688	15593.86
587.048	15639.73
587.408	15550.92
587.768	15597.25
588.127	15668.88
588.487	15633.63
588.846	15704.59
589.206	15562.67
589.565	15528.55
589.925	15648.32
590.284	15601.76
590.643	15642.44
591.003	15690.12
591.362	15663.23
591.721	15608.54
592.08	15720.86
592.44	15752.04
592.799	15690.12
593.158	15680.86
593.517	15708.43
593.876	15797.47
594.235	15737.13
594.593	15708.2
594.952	15802.44
595.311	15750.01
595.67	15633.18
596.029	15793.17
596.387	15707.98
596.746	15884.47
597.104	15764.47
597.463	15754.3
597.822	15799.05
598.18	15701.88
598.538	15636.11
598.897	15784.13
599.255	15692.16
599.613	15966.05
599.972	15787.07
600.33	15915.65
600.688	15836.56
601.046	15874.53
601.404	15954.52
601.762	15926.5
602.12	16071.58
602.478	15957.69
602.836	15972.83
603.194	15990.23
603.552	15982.32
603.91	15959.95
604.268	15987.74
604.625	15980.96
604.983	15900.74
605.341	15939.61
605.698	15994.07
606.056	16041.3
606.413	15926.95
606.771	16071.81
607.128	16081.07
607.485	16069.55
607.843	16054.86
608.2	16081.53
608.557	16180.96
608.914	16140.28
609.272	16118.36
609.629	16146.38
609.986	16212.82
610.343	16084.92
610.7	16198.59
611.057	16261.18
611.414	16269.09
611.771	16244.23
612.127	16251.47
612.484	16258.02
612.841	16323.55
613.198	16378.47
613.554	16486.26
613.911	16528.29
614.267	16424.79
614.624	16375.98
614.98	16418.01
615.337	16491.91
615.693	16429.54
616.05	16455.08
616.406	16566.03
616.762	16481.29
617.118	16567.39
617.475	16552.93
617.831	16646.94
618.187	16610.55
618.543	16547.05
618.899	16722.19
619.255	16650.1
619.611	16649.87
619.967	16767.61
620.323	16721.51
620.678	16638.35
621.034	16595.19
621.39	16602.42
621.746	16647.16
622.101	16749.98
622.457	16625.01
622.812	16697.78
623.168	16803.32
623.523	16684.45
623.879	16774.16
624.234	16611.46
624.589	16792.92
624.945	16761.28
625.3	16751.57
625.655	16740.04
626.01	16739.59
626.365	16747.05
626.72	16725.13
627.075	16739.14
627.43	16727.84
627.785	16695.3
628.14	16691
628.495	16728.29
628.85	16688.97
629.205	16635.18
629.559	16785.24
629.914	16669.08
630.269	16721.74
630.623	16611
630.978	16495.3
631.332	16655.07
631.687	16736.65
632.041	16654.17
632.396	16697.78
632.75	16618.91
633.104	16663.88
633.459	16580.72
633.813	16447.39
634.167	16444.68
634.521	16415.75
634.875	16387.73
635.229	16348.19
635.583	16359.71
635.937	16309.77
636.291	16226.83
636.645	16207.85
636.999	16216.21
637.352	16235.87
637.706	16172.15
638.06	16225.25
638.413	16205.82
638.767	16082.88
639.121	16166.04
639.474	16101.19
639.828	16113.62
640.181	16182.31
640.534	16066.16
640.888	16028.19
641.241	15942.09
641.594	15901.19
641.947	16050.57
642.301	16027.06
642.654	15923.11
643.007	15874.98
643.36	15881.08
643.713	15841.98
644.066	15833.4
644.419	15792.49
644.771	15739.61
645.124	15572.39
645.477	15493.29
645.83	15385.73
646.182	15324.03
646.535	15252.17
646.888	15303.47
647.24	15260.76
647.593	15433.63
647.945	15216.24
648.298	15254.43
648.65	15171.04
649.002	15152.74
649.355	15242.9
649.707	15163.58
650.059	15222.11
650.411	15422.56
650.763	15418.49
651.115	15589.11
651.467	15632.72
651.819	15515.44
652.171	15443.13
652.523	15423.92
652.875	15512.05
653.227	15427.76
653.578	15491.94
653.93	15478.15
654.282	15345.27
654.633	15301.66
654.985	15320.19
655.337	15397.7
655.688	15315.22
656.039	15340.08
656.391	15135.34
656.742	15232.28
657.094	15257.14
657.445	15356.12
657.796	15327.2
658.147	15277.03
658.498	15309.34
658.849	15319.74
659.2	15219.85
659.551	15308.67
659.902	15233.41
660.253	15118.16
660.604	15302.79
660.955	15204.04
661.306	15177.14
661.656	15160.19
662.007	15077.26
662.358	15071.16
662.708	15143.7
663.059	15159.74
663.409	15065.28
663.76	15045.4
664.11	15098.95
664.461	15102.57
664.811	14992.29
665.161	15137.82
665.511	15127.65
665.862	15004.27
666.212	15028.9
666.562	15072.29
666.912	14974.21
667.262	15015.79
667.612	15034.1
667.962	15002.46
668.312	14976.7
668.662	15003.36
669.011	15027.54
669.361	14936.7
669.711	14918.62
670.06	14940.77
670.41	14939.41
670.76	14808.34
671.109	14928.79
671.459	14846.3
671.808	14811.5
672.157	14981.89
672.507	14772.18
672.856	14778.74
673.205	14855.8
673.554	14825.06
673.904	14871.39
674.253	14870.26
674.602	14784.39
674.951	14639.53
675.3	14552.07
675.649	14732.41
675.998	14704.84
676.346	14758.85
676.695	14764.05
677.044	14770.37
677.393	14715.69
677.741	14683.37
678.09	14574.9
678.438	14475.47
678.787	14556.14
679.135	14584.84
679.484	14448.8
679.832	14628.01
680.181	14399.54
680.529	14531.74
680.877	14433.89
681.225	14465.07
681.573	14521.57
681.922	14431.63
682.27	14376.03
682.618	14457.84
682.966	14387.79
683.314	14451.96
683.661	14393.89
684.009	14290.39
684.357	14231.86
684.705	14257.62
685.053	14270.95
685.4	14298.07
685.748	14144.4
686.095	14199.09
686.443	14017.4
686.79	14078.64
687.138	14068.7
687.485	14029.83
687.832	13998.19
688.18	14035.03
688.527	13907.57
688.874	13827.35
689.221	13854.69
689.568	13898.31
689.915	13835.03
690.262	13804.75
690.609	13796.61
690.956	13705.32
691.303	13680.23
691.65	13606.56
691.997	13572.89
692.344	13483.63
692.69	13520.46
693.037	13448.83
693.383	13368.83
693.73	13557.52
694.077	13543.97
694.423	13420.35
694.769	13394.59
695.116	13348.04
695.462	13245.67
695.808	13235.05
696.155	13323.18
696.501	13182.85
696.847	13275.05
697.193	13083.19
697.539	13160.25
697.885	13034.83
698.231	12979.46
698.577	12983.98
698.923	12944.89
699.269	12959.8
699.614	12956.41
699.96	12839.35
700.306	12787.15
700.651	12685.91
700.997	12774.27
701.342	12657.66
701.688	12677.77
702.033	12621.5
702.379	12675.51
702.724	12671.45
703.069	12609.08
703.415	12507.61
703.76	12533.82
704.105	12486.37
704.45	12459.47
704.795	12346.26
705.14	12389.19
705.485	12409.76
705.83	12275.98
706.175	12258.12
706.52	12243.21
706.865	12322.98
707.209	12334.51
707.554	12186.94
707.899	12151.01
708.243	12030.56
708.588	12188.52
708.932	12005.25
709.277	12049.32
709.621	12027.17
709.966	11945.59
710.31	12028.53
710.654	11918.92
710.998	11906.72
711.342	11928.42
711.687	11899.04
712.031	11783.33
712.375	11649.78
712.719	11796.22
713.063	11790.79
713.407	11793.73
713.75	11727.06
714.094	11585.37
714.438	11548.99
714.782	11559.84
715.125	11528.88
715.469	11595.32
715.812	11605.26
716.156	11421.76
716.499	11505.38
716.843	11434.42
717.186	11371.82
717.53	11440.07
717.873	11430.58
718.216	11418.15
718.559	11430.12
718.902	11265.83
719.246	11355.55
719.589	11252.5
719.932	11198.94
720.275	11248.21
720.617	11273.52
720.96	11239.17
721.303	11226.74
721.646	11185.38
721.989	11111.71
722.331	11166.18
722.674	11087.08
723.016	11170.02
723.359	11033.98
723.701	11087.08
724.044	11062.68
724.386	10979.51
724.729	11022.68
725.071	10991.04
725.413	11000.53
725.755	10876.24
726.097	10899.97
726.439	10825.17
726.782	10854.09
727.124	10867.43
727.465	10822.68
727.807	10843.7
728.149	10857.26
728.491	10739.52
728.833	10798.5
729.175	10746.3
729.516	10744.04
729.858	10701.1
730.199	10763.25
730.541	10767.09
730.882	10701.33
731.224	10697.49
731.565	10650.71
731.906	10618.17
732.248	10633.99
732.589	10573.87
732.93	10539.53
733.271	10576.81
733.612	10591.5
733.953	10585.4
734.294	10495.01
734.635	10459.3
734.976	10549.02
735.317	10503.59
735.658	10532.29
735.999	10484.16
736.339	10364.39
736.68	10392.64
737.021	10375.69
737.361	10329.36
737.702	10376.82
738.042	10365.74
738.383	10261.11
738.723	10295.92
739.063	10248.91
739.404	10312.41
739.744	10227.22
740.084	10133.43
740.424	10264.05
740.764	10232.19
741.104	10244.62
741.444	10194.22
741.784	10128.01
742.124	10152.64
742.464	10074
742.804	10094.11
743.143	10073.55
743.483	10041.91
743.823	10066.09
744.162	10088.69
744.502	10148.35
744.841	10003.04
745.181	10109.03
745.52	10048.46
745.86	10102.25
746.199	9966.21
746.538	9994
746.877	9897.73
747.216	9896.6
747.556	9847.11
747.895	9902.48
748.234	9875.81
748.573	9846.44
748.911	9844.4
749.25	9872.42
749.589	9828.58
749.928	9787.23
750.267	9782.26
750.605	9778.64
750.944	9784.52
751.283	9694.12
751.621	9682.6
751.96	9715.14
752.298	9656.38
752.636	9698.64
752.975	9619.1
753.313	9611.19
753.651	9627.23
753.989	9526.22
754.327	9556.95
754.666	9517.86
755.004	9432.44
755.342	9480.12
755.679	9461.36
756.017	9357.18
756.355	9335.94
756.693	9356.73
757.031	9397.41
757.368	9277.64
757.706	9377.07
758.044	9315.15
758.381	9335.71
758.719	9253.01
759.056	9273.12
759.394	9180.46
759.731	9165.1
760.068	9123.97
760.405	9078.32
760.743	9021.15
761.08	9062.28
761.417	9034.03
761.754	9067.7
762.091	9051.88
762.428	8967.14
762.765	8891.88
763.102	8967.36
763.438	8912
763.775	8847.59
764.112	8832.9
764.449	8865.22
764.785	8773.47
765.122	8708.39
765.458	8694.83
765.795	8695.96
766.131	8634.04
766.467	8683.53
766.804	8644.43
767.14	8558.56
767.476	8553.81
767.812	8460.26
768.148	8547.26
768.485	8436.98
768.821	8481.95
769.157	8428.62
769.492	8407.38
769.828	8371.22
770.164	8316.53
770.5	8369.86
770.836	8402.41
771.171	8321.5
771.507	8289.19
771.842	8204.22
772.178	8206.25
772.513	8137.78
772.849	8143.43
773.184	8084.9
773.519	8095.75
773.855	8048.52
774.19	7953.15
774.525	8011
774.86	8015.07
775.195	7910.89
775.53	7940.95
775.865	7922.64
776.2	7824.34
776.535	7869.76
776.87	7836.32
777.205	7772.82
777.539	7751.58
777.874	7733.95
778.209	7664.8
778.543	7745.7
778.878	7611.69
779.212	7637
779.547	7542.77
779.881	7587.06
780.215	7518.14
780.55	7485.59
780.884	7430.68
781.218	7410.34
781.552	7379.83
781.886	7415.09
782.22	7354.75
782.554	7305.71
782.888	7272.49
783.222	7194.53
783.556	7192.72
783.889	7168.77
784.223	7168.99
784.557	7150.46
784.89	7187.75
785.224	7163.34
785.557	7128.77
785.891	7088.09
786.224	7056.68
786.558	7054.42
786.891	6974.2
787.224	7015.55
787.557	6980.07
787.891	6955.89
788.224	6958.38
788.557	6955.89
788.89	6945.72
789.223	6899.85
789.556	6867.53
789.888	6831.83
790.221	6828.44
790.554	6759.29
790.887	6780.3
791.219	6744.37
791.552	6705.95
791.884	6652.17
792.217	6651.49
792.549	6634.09
792.882	6589.12
793.214	6555.45
793.546	6620.31
793.879	6581.21
794.211	6572.85
794.543	6551.16
794.875	6473.19
795.207	6521.55
795.539	6529.24
795.871	6440.65
796.203	6439.75
796.535	6306.42
796.867	6355.68
797.198	6293.99
797.53	6311.16
797.862	6266.19
798.193	6223.03
798.525	6227.1
798.856	6209.92
799.188	6203.82
799.519	6170.83
799.85	6123.14
800.182	6127.44
800.513	6083.6
800.844	6093.54
801.175	6162.69
801.506	6162.69
801.837	6142.58
802.168	6131.73
802.499	6107.55
802.83	6063.71
803.161	5993.43
803.491	5952.3
803.822	5986.65
804.153	5903.04
804.483	5910.49
804.814	5876.6
805.145	5812.64
805.475	5813.1
805.805	5783.72
806.136	5830.95
806.466	5768.58
806.796	5824.17
807.126	5737.17
807.457	5788.69
807.787	5820.78
808.117	5743.72
808.447	5710.95
808.777	5710.05
809.107	5780.78
809.436	5776.26
809.766	5676.6
810.096	5668.24
810.426	5596.6
810.755	5638.86
811.085	5659.2
811.414	5643.61
811.744	5600.9
812.073	5574.23
812.403	5525.19
812.732	5593.67
813.061	5529.49
813.39	5470.28
813.719	5455.37
814.049	5482.93
814.378	5491.52
814.707	5518.64
815.036	5457.62
815.365	5435.03
815.693	5392.32
816.022	5442.94
816.351	5385.99
816.68	5383.5
817.008	5363.84
817.337	5327.23
817.665	5288.59
817.994	5327.91
818.322	5369.27
818.651	5294.69
818.979	5278.42
819.307	5288.82
819.636	5310.06
819.964	5246.78
820.292	5274.35
820.62	5259.66
820.948	5233.22
821.276	5271.64
821.604	5268.48
821.932	5271.64
822.259	5289.72
822.587	5243.17
822.915	5241.13
823.243	5250.17
823.57	5242.49
823.898	5219.89
824.225	5186.67
824.553	5176.28
824.88	5201.59
825.207	5241.59
825.535	5288.36
825.862	5267.35
826.189	5214.92
826.516	5244.98
826.843	5279.32
827.17	5242.72
827.497	5223.73
827.824	5278.65
828.151	5236.84
828.478	5216.95
828.805	5242.94
829.131	5221.47
829.458	5230.51
829.785	5191.19
830.111	5190.51
830.438	5247.46
830.764	5220.79
831.09	5232.32
831.417	5179.21
831.743	5185.99
832.069	5199.55
832.395	5159.33
832.722	5221.02
833.048	5154.36
833.374	5123.4
833.7	5159.1
834.026	5132.66
834.351	5171.98
834.677	5124.75
835.003	5164.3
835.329	5127.46
835.654	5136.96
835.98	5131.53
836.306	5197.07
836.631	5122.94
836.956	5191.87
837.282	5164.75
837.607	5097.86
837.932	5088.37
838.258	5044.08
838.583	5051.08
838.908	4996.85
839.233	5066.67
839.558	5090.85
839.883	5048.6
840.208	5004.98
840.533	5065.32
840.858	5043.4
841.182	5038.88
841.507	5052.66
841.832	4971.99
842.156	5009.05
842.481	5003.4
842.805	4963.85
843.13	4984.42
843.454	4977.41
843.778	4889.73
844.103	4930.63
844.427	4889.96
844.751	4945.55
845.075	4893.8
845.399	4933.12
845.723	4863.74
846.047	4885.89
846.371	4846.79
846.695	4843.63
847.019	4796.4
847.343	4827.13
847.666	4787.81
847.99	4739
848.313	4758.21
848.637	4714.82
848.96	4711.2
849.284	4714.82
849.607	4668.27
849.931	4641.6
850.254	4639.57
850.577	4541.94
850.9	4548.5
851.223	4572.45
851.546	4552.34
851.869	4509.4
852.192	4545.11
852.515	4484.54
852.838	4454.04
853.161	4436.63
853.483	4410.65
853.806	4384.21
854.129	4406.13
854.451	4426.24
854.774	4400.93
855.096	4320.25
855.419	4345.34
855.741	4337.65
856.063	4369.74
856.385	4331.55
856.708	4317.54
857.03	4299.92
857.352	4273.02
857.674	4291.1
857.996	4250.2
858.318	4181.73
858.64	4230.31
858.961	4231.44
859.283	4279.35
859.605	4215.85
859.926	4257.66
860.248	4223.08
860.57	4138.79
860.891	4163.65
861.212	4171.33
861.534	4154.16
861.855	4172.91
862.176	4119.13
862.498	4198.67
862.819	4170.2
863.14	4112.12
863.461	4090.88
863.782	4067.83
864.103	4087.72
864.424	4046.14
864.745	4077.77
865.065	4107.38
865.386	4076.64
865.707	4076.87
866.027	4074.61
866.348	4032.8
866.668	4043.65
866.989	4033.71
867.309	4019.47
867.63	3989.19
867.95	4037.78
868.27	4000.04
868.59	3980.83
868.91	3956.2
869.23	3986.03
869.55	3963.88
869.87	3983.09
870.19	3935.4
870.51	3967.04
870.83	3959.36
871.15	4002.97
871.469	4016.08
871.789	3975.4
872.109	3962.52
872.428	3953.94
872.748	3941.05
873.067	3905.12
873.386	3897.21
873.706	3880.27
874.025	3927.72
874.344	3901.96
874.663	3887.04
874.982	3853.83
875.301	3848.4
875.62	3858.57
875.939	3900.15
876.258	3875.97
876.577	3851.79
876.896	3859.02
877.214	3805.01
877.533	3805.01
877.852	3775.41
878.17	3779.02
878.489	3824.22
878.807	3810.21
879.125	3788.52
879.444	3760.95
879.762	3776.99
880.08	3767.05
880.398	3781.28
880.716	3798.46
881.034	3806.82
881.352	3714.85
881.67	3746.71
881.988	3733.83
882.306	3762.75
882.624	3762.98
882.941	3706.26
883.259	3685.24
883.577	3747.16
883.894	3723.66
884.212	3746.71
884.529	3744.22
884.846	3714.17
885.164	3668.29
885.481	3663.77
885.798	3701.51
886.115	3603.44
886.432	3642.76
886.75	3627.62
887.067	3631.23
887.383	3563.66
887.7	3559.37
888.017	3567.28
888.334	3535.19
888.651	3536.32
888.967	3541.29
889.284	3544.23
889.6	3578.58
889.917	3489.99
890.233	3520.5
890.55	3520.73
890.866	3513.72
891.182	3493.61
891.498	3521.4
891.815	3526.6
892.131	3458.58
892.447	3504.91
892.763	3481.41
893.079	3453.61
893.395	3485.7
893.71	3440.05
894.026	3433.27
894.342	3446.6
894.657	3383.33
894.973	3427.4
895.289	3400.05
895.604	3391.46
895.92	3377.23
896.235	3337.23
896.55	3335.65
896.865	3298.13
897.181	3313.95
897.496	3339.49
897.811	3299.04
898.126	3261.98
898.441	3255.65
898.756	3285.48
899.071	3259.72
899.386	3267.4
899.7	3212.03
900.015	3241.86
900.33	3218.14
900.644	3206.38
900.959	3240.96
901.273	3193.73
901.588	3194.63
901.902	3155.09
902.216	3171.81
902.531	3153.28
902.845	3168.65
903.159	3119.38
903.473	3146.27
903.787	3141.98
904.101	3117.8
904.415	3084.81
904.729	3075.09
905.042	3081.42
905.356	3038.71
905.67	3024.92
905.984	3033.96
906.297	3033.51
906.611	3021.08
906.924	3079.38
907.237	3028.08
907.551	2956.45
907.864	2965.71
908.177	2990.12
908.491	2994.19
908.804	2921.42
909.117	2939.72
909.43	2888.65
909.743	2916.45
910.056	2854.98
910.368	2840.74
910.681	2850.46
910.994	2907.18
911.307	2871.7
911.619	2845.04
911.932	2853.4
912.244	2827.41
912.557	2827.86
912.869	2812.95
913.181	2799.62
913.494	2767.53
913.806	2812.27
914.118	2784.93
914.43	2760.07
914.742	2757.58
915.054	2717.58
915.366	2722.33
915.678	2706.28
915.99	2727.3
916.302	2683.91
916.613	2691.37
916.925	2639.17
917.236	2645.27
917.548	2638.04
917.859	2657.25
918.171	2629.22
918.482	2640.3
918.794	2633.52
919.105	2605.5
919.416	2586.97
919.727	2560.07
920.038	2564.14
920.349	2541.09
920.66	2560.07
920.971	2579.96
921.282	2541.54
921.593	2491.15
921.903	2516.46
922.214	2495.44
922.525	2496.8
922.835	2482.34
923.146	2473.52
923.456	2480.75
923.767	2482.56
924.077	2460.64
924.387	2440.98
924.697	2453.64
925.008	2460.64
925.318	2454.99
925.628	2436.69
925.938	2441.66
926.248	2391.26
926.558	2401.43
926.867	2376.58
927.177	2363.02
927.487	2362.34
927.796	2312.17
928.106	2355.11
928.416	2338.16
928.725	2322.34
929.034	2354.2
929.344	2317.37
929.653	2277.6
929.962	2249.57
930.271	2279.4
930.581	2265.84
930.89	2236.01
931.199	2271.95
931.508	2235.79
931.817	2212.29
932.125	2221.78
932.434	2222.46
932.743	2185.62
933.051	2172.51
933.36	2163.02
933.669	2175.68
933.977	2145.17
934.286	2174.1
934.594	2162.8
934.902	2139.29
935.21	2123.93
935.519	2132.06
935.827	2149.46
936.135	2145.85
936.443	2124.15
936.751	2121.67
937.059	2122.8
937.367	2070.37
937.674	2084.38
937.982	2050.71
938.29	2062.91
938.597	2054.32
938.905	2030.14
939.213	2052.97
939.52	2051.39
939.827	2030.14
940.135	2028.11
940.442	2003.48
940.749	2014.55
941.056	1973.87
941.363	1993.31
941.67	1965.97
941.977	1972.74
942.284	1983.59
942.591	1977.94
942.898	1977.49
943.205	1939.98
943.511	1952.63
943.818	1932.52
944.125	1935.68
944.431	1929.13
944.738	1916.48
945.044	1934.55
945.35	1907.44
945.657	1879.87
945.963	1890.94
946.269	1884.39
946.575	1924.84
946.881	1834.9
947.187	1856.59
947.493	1855.01
947.799	1857.49
948.105	1812.97
948.41	1826.99
948.716	1816.59
949.022	1812.52
949.327	1789.02
949.633	1791.28
949.938	1787.66
950.244	1796.03
950.549	1753.77
950.854	1761.45
951.16	1789.25
951.465	1744.28
951.77	1758.74
952.075	1751.28
952.38	1734.11
952.685	1736.59
952.99	1735.91
953.294	1692.3
953.599	1725.07
953.904	1693.66
954.209	1696.82
954.513	1704.28
954.818	1694.11
955.122	1668.57
955.426	1699.98
955.731	1660.44
956.035	1640.55
956.339	1670.83
956.643	1645.97
956.948	1670.61
957.252	1625.64
957.556	1625.18
957.86	1631.06
958.163	1650.04
958.467	1624.73
958.771	1622.02
959.075	1612.3
959.378	1606.65
959.682	1581.79
959.985	1608.69
960.289	1599.2
960.592	1588.35
960.896	1571.85
961.199	1581.34
961.502	1549.25
961.805	1575.24
962.108	1554
962.411	1538.18
962.714	1533.43
963.017	1516.94
963.32	1523.04
963.623	1520.55
963.926	1529.82
964.228	1509.93
964.531	1511.06
964.833	1488.24
965.136	1508.12
965.438	1480.55
965.741	1459.54
966.043	1459.76
966.345	1492.31
966.648	1435.36
966.95	1453.66
967.252	1440.56
967.554	1447.33
967.856	1412.99
968.158	1425.19
968.46	1450.95
968.761	1418.41
969.063	1445.98
969.365	1425.64
969.666	1402.36
969.968	1384.96
970.269	1398.52
970.571	1402.59
970.872	1382.03
971.174	1381.12
971.475	1395.58
971.776	1355.81
972.077	1384.06
972.378	1369.14
972.679	1389.26
972.98	1363.95
973.281	1377.28
973.582	1369.14
973.883	1334.8
974.183	1340.22
974.484	1311.52
974.785	1335.93
975.085	1322.82
975.386	1331.86
975.686	1300.67
975.986	1286.21
976.287	1308.13
976.587	1269.03
976.887	1279.43
977.187	1296.38
977.487	1290.95
977.787	1266.55
978.087	1289.15
978.387	1260.9
978.687	1268.81
978.987	1248.92
979.286	1248.24
979.586	1254.35
979.885	1274.46
980.185	1257.06
980.484	1252.99
980.784	1254.57
981.083	1230.39
981.382	1237.62
981.682	1229.04
981.981	1244.63
982.28	1225.19
982.579	1192.65
982.878	1208.7
983.177	1195.82
983.475	1211.63
983.774	1178.64
984.073	1191.52
984.372	1176.16
984.67	1168.25
984.969	1169.83
985.267	1159.66
985.566	1170.05
985.864	1141.13
986.162	1131.64
986.461	1159.43
986.759	1142.26
987.057	1146.55
987.355	1132.99
987.653	1140.22
987.951	1113.11
988.249	1127.8
988.547	1116.04
988.844	1111.52
989.142	1109.72
989.44	1116.5
989.737	1085.99
990.035	1092.32
990.332	1103.39
990.63	1097.51
990.927	1074.92
991.224	1055.71
991.521	1123.5
991.819	1093.45
992.116	1071.53
992.413	1086.21
992.71	1067.01
993.006	1044.63
993.303	1050.51
993.6	1056.16
993.897	1015.26
994.193	1045.09
994.49	1078.3
994.787	1033.33
995.083	1063.62
995.379	1027.46
995.676	1040.79
995.972	1023.17
996.268	1023.39
996.565	1013.45
996.861	1030.85
997.157	987.23
997.453	984.07
997.749	990.85
998.044	975.93
998.34	984.75
998.636	983.39
998.932	992.66
999.227	957.86
999.523	971.87
999.818	958.08
1000.114	971.64
1000.409	971.19
1000.704	957.18
1001	952.66
1001.295	967.57
1001.59	947.23
1001.885	966.44
1002.18	925.31
1002.475	928.48
1002.77	931.87
1003.065	900
1003.359	898.42
1003.654	927.35
1003.949	913.79
1004.243	930.74
1004.538	912.43
1004.832	910.4
1005.127	909.5
1005.421	907.46
1005.715	905.88
1006.009	894.58
1006.304	870.63
1006.598	884.64
1006.892	867.01
1007.186	862.27
1007.48	888.93
1007.773	848.71
1008.067	853.23
1008.361	853.9
1008.655	865.66
1008.948	848.93
1009.242	818.2
1009.535	845.54
1009.829	833.57
1010.122	835.6
1010.415	850.74
1010.708	822.27
1011.001	842.38
1011.295	838.54
1011.588	829.72
1011.881	818.42
1012.173	804.41
1012.466	816.62
1012.759	800.12
1013.052	820.23
1013.344	806.22
1013.637	785.66
1013.93	776.62
1014.222	774.36
1014.514	790.85
1014.807	777.97
1015.099	769.84
1015.391	792.44
1015.683	779.1
1015.976	755.38
1016.268	756.05
1016.56	756.28
1016.851	741.36
1017.143	756.96
1017.435	762.38
1017.727	738.43
1018.018	757.18
1018.31	756.96
1018.602	761.25
1018.893	734.81
1019.185	754.47
1019.476	734.36
1019.767	721.7
1020.058	722.61
1020.35	716.96
1020.641	704.3
1020.932	720.57
1021.223	720.8
1021.514	695.49
1021.804	691.2
1022.095	693.46
1022.386	673.8
1022.677	680.8
1022.967	680.8
1023.258	684.64
1023.548	708.6
1023.839	681.71
1024.129	668.15
1024.419	679.45
1024.709	663.4
1025	677.19
1025.29	645.55
1025.58	676.28
1025.87	663.63
1026.16	659.33
1026.449	660.46
1026.739	639.67
1027.029	660.46
1027.319	653.23
1027.608	647.81
1027.898	639.22
1028.187	634.93
1028.477	621.59
1028.766	629.96
1029.055	628.6
1029.344	630.41
1029.634	621.37
1029.923	596.74
1030.212	598.32
1030.501	615.72
1030.79	582.27
1031.078	576.4
1031.367	596.96
1031.656	610.07
1031.945	600.35
1032.233	596.96
1032.522	594.02
1032.81	605.55
1033.099	555.38
1033.387	569.62
1033.675	573.91
1033.963	563.06
1034.251	595.61
1034.54	558.32
1034.828	574.82
1035.116	565.55
1035.403	568.49
1035.691	579.56
1035.979	568.49
1036.267	554.7
1036.554	583.85
1036.842	570.52
1037.129	554.93
1037.417	550.64
1037.704	558.77
1037.992	526.68
1038.279	542.73
1038.566	528.71
1038.853	528.71
1039.14	528.71
