Data from black_metal_pc_casing_FLMS001491_00086.txt Node
Date: Wed Feb 08 14:33:38 GMT 2017
User: dcchb
Spectrometer: FLMS00149
Trigger mode: 0
Integration Time (sec): 2.000000E-2
Scans to average: 10
Electric dark correction enabled: true
Nonlinearity correction enabled: false
Boxcar width: 0
XAxis mode: Wavelengths
Number of Pixels in Spectrum: 2048
>>>>>Begin Spectral Data<<<<<
341.393	-39.65
341.776	-39.65
342.16	-39.65
342.543	-64.73
342.927	-76.26
343.31	-88.91
343.693	-72.87
344.077	-73.54
344.46	-62.24
344.843	-52.53
345.226	-41.68
345.61	-27.89
345.993	-5.75
346.376	3.52
346.759	22.5
347.142	26.34
347.525	51.65
347.908	54.14
348.291	68.6
348.674	79.45
349.057	119.22
349.44	129.16
349.823	149.5
350.206	151.99
350.588	187.01
350.971	208.94
351.354	202.38
351.737	220.23
352.119	228.14
352.502	252.55
352.884	265.66
353.267	269.72
353.65	288.93
354.032	273.34
354.414	313.79
354.797	304.53
355.179	290.29
355.562	321.25
355.944	318.31
356.326	328.93
356.709	316.95
357.091	331.42
357.473	335.26
357.855	338.42
358.238	331.64
358.62	346.78
359.002	330.74
359.384	329.16
359.766	350.4
360.148	340.46
360.53	355.82
360.912	328.03
361.294	337.75
361.676	323.96
362.057	326.45
362.439	318.08
362.821	322.83
363.203	349.5
363.584	344.52
363.966	307.46
364.348	337.75
364.729	314.24
365.111	313.34
365.493	325.77
365.874	310.85
366.256	297.97
366.637	294.81
367.019	310.63
367.4	300.01
367.781	307.01
368.163	301.36
368.544	321.93
368.925	315.83
369.306	328.71
369.688	325.77
370.069	323.28
370.45	311.08
370.831	316.05
371.212	302.49
371.593	337.52
371.974	336.84
372.355	301.36
372.736	316.73
373.117	309.95
373.498	325.77
373.879	307.46
374.26	333.68
374.641	319.44
375.021	308.82
375.402	320.12
375.783	313.79
376.163	341.14
376.544	339.55
376.925	338.2
377.305	338.2
377.686	341.81
378.066	329.61
378.447	324.19
378.827	347.01
379.208	319.67
379.588	315.37
379.968	337.29
380.349	340.23
380.729	340.01
381.109	353.34
381.489	344.52
381.87	320.34
382.25	348.14
382.63	360.8
383.01	340.68
383.39	375.48
383.77	355.6
384.15	369.83
384.53	373
384.91	346.11
385.29	370.06
385.67	388.82
386.049	376.39
386.429	395.37
386.809	364.64
387.189	372.09
387.568	401.7
387.948	352.66
388.328	376.61
388.707	401.02
389.087	380.23
389.466	386.56
389.846	397.86
390.225	392.89
390.605	394.24
390.984	365.99
391.363	385.88
391.743	398.76
392.122	423.17
392.501	393.79
392.881	408.25
393.26	415.26
393.639	403.73
394.018	420.23
394.397	404.41
394.776	415.26
395.155	418.65
395.534	396.05
395.913	414.35
396.292	425.43
396.671	428.36
397.05	428.14
397.429	421.13
397.808	429.72
398.186	447.8
398.565	457.29
398.944	440.57
399.323	430.85
399.701	420
400.08	468.14
400.458	438.08
400.837	447.12
401.215	441.92
401.594	464.75
401.972	472.21
402.351	459.32
402.729	455.48
403.107	468.82
403.486	442.6
403.864	463.84
404.242	463.17
404.62	494.35
404.999	501.81
405.377	474.69
405.755	494.58
406.133	499.77
406.511	495.03
406.889	511.07
407.267	514.69
407.645	493.67
408.023	507.23
408.401	521.92
408.779	511.98
409.156	535.48
409.534	536.38
409.912	550.4
410.29	528.47
410.667	548.36
411.045	531.64
411.422	557.85
411.8	556.72
412.178	566.89
412.555	571.41
412.933	562.37
413.31	560.34
413.687	569.15
414.065	570.96
414.442	589.94
414.819	595.14
415.197	606.21
415.574	593.33
415.951	627.68
416.328	626.1
416.705	627.68
417.082	631.97
417.46	605.31
417.837	644.4
418.214	624.52
418.591	633.33
418.967	644.63
419.344	647.79
419.721	655.7
420.098	631.07
420.475	660.22
420.852	670.62
421.228	645.08
421.605	678.08
421.982	663.84
422.358	667.45
422.735	669.04
423.111	684.85
423.488	694.12
423.864	709.26
424.241	695.48
424.617	700.9
424.994	723.5
425.37	708.36
425.746	704.06
426.123	736.15
426.499	730.96
426.875	753.33
427.251	751.29
427.627	753.55
428.003	786.1
428.379	754.68
428.756	793.78
429.132	783.16
429.507	790.84
429.883	808.24
430.259	797.62
430.635	824.51
431.011	804.85
431.387	829.94
431.763	852.76
432.138	864.51
432.514	865.19
432.89	875.36
433.265	911.74
433.641	869.26
434.016	870.84
434.392	892.08
434.767	928.24
435.143	924.17
435.518	952.87
435.894	922.81
436.269	957.84
436.644	981.34
437.02	968.01
437.395	946.99
437.77	960.33
438.145	986.54
438.52	997.84
438.895	984.51
439.271	990.38
439.646	1005.75
440.021	1026.99
440.395	1038.52
440.77	1011.4
441.145	1017.73
441.52	1057.27
441.895	1032.19
442.27	1079.19
442.645	1025.18
443.019	1066.77
443.394	1065.64
443.769	1058.18
444.143	1053.88
444.518	1094.34
444.892	1118.06
445.267	1091.85
445.641	1091.85
446.016	1134.11
446.39	1138.4
446.764	1116.03
447.139	1134.11
447.513	1149.93
447.887	1121
448.262	1140.66
448.636	1181.56
449.01	1167.1
449.384	1204.16
449.758	1182.02
450.132	1213.43
450.506	1188.12
450.88	1203.49
451.254	1210.49
451.628	1220.66
452.002	1212.52
452.376	1262.92
452.75	1252.07
453.123	1273.31
453.497	1283.48
453.871	1304.95
454.244	1295.46
454.618	1345.85
454.992	1355.12
455.365	1328.23
455.739	1377.72
456.112	1349.47
456.486	1382.24
456.859	1386.08
457.232	1417.26
457.606	1425.17
457.979	1456.59
458.352	1479.86
458.725	1457.26
459.099	1524.15
459.472	1517.38
459.845	1518.96
460.218	1544.72
460.591	1594.44
460.964	1523.7
461.337	1581.1
461.71	1582.46
462.083	1655
462.456	1621.1
462.829	1622.01
463.201	1668.56
463.574	1671.04
463.947	1697.26
464.32	1740.19
464.692	1748.33
465.065	1753.3
465.438	1770.7
465.81	1784.71
466.183	1814.99
466.555	1834.66
466.928	1857.03
467.3	1860.42
467.672	1901.32
468.045	1913.75
468.417	1951.71
468.789	1940.42
469.161	1981.54
469.534	2007.31
469.906	2027.64
470.278	2035.78
470.65	2060.64
471.022	2088.66
471.394	2149.45
471.766	2128.43
472.138	2161.43
472.51	2242.33
472.882	2236.68
473.253	2259.73
473.625	2276.68
473.997	2334.53
474.369	2324.59
474.74	2353.51
475.112	2396.22
475.484	2479.61
475.855	2489.1
476.227	2501.76
476.598	2582.43
476.97	2569.55
477.341	2663.33
477.713	2658.81
478.084	2707.17
478.455	2771.35
478.827	2779.04
479.198	2864.91
479.569	2891.35
479.94	2915.08
480.311	2944.46
480.682	3019.71
481.053	3071.68
481.424	3122.3
481.795	3146.03
482.166	3150.78
482.537	3200.95
482.908	3242.75
483.279	3287.27
483.65	3344.45
484.021	3430.32
484.391	3479.36
484.762	3508.74
485.133	3512.58
485.503	3600.48
485.874	3644.55
486.244	3702.63
486.615	3724.55
486.985	3763.87
487.356	3833.47
487.726	3888.84
488.097	3951.44
488.467	3973.58
488.837	4034.6
489.207	4066.01
489.578	4141.04
489.948	4184.88
490.318	4248.38
490.688	4271.43
491.058	4304.87
491.428	4361.82
491.798	4430.29
492.168	4463.96
492.538	4484.75
492.908	4555.49
493.278	4605.88
493.648	4605.43
494.017	4698.76
494.387	4709.61
494.757	4752.54
495.126	4778.98
495.496	4825.76
495.866	4854.69
496.235	4915.48
496.605	4973.78
496.974	4960.45
497.344	5008.81
497.713	5059.88
498.082	5076.6
498.452	5164.74
498.821	5167.9
499.19	5176.04
499.559	5237.73
499.928	5231.63
500.298	5277.5
500.667	5340.33
501.036	5371.51
501.405	5409.02
501.774	5465.07
502.143	5474.56
502.512	5517.72
502.88	5574.22
503.249	5566.99
503.618	5598.4
503.987	5682.01
504.356	5616.48
504.724	5686.76
505.093	5763.37
505.462	5742.8
505.83	5815.12
506.199	5878.62
506.567	5907.54
506.936	5907.54
507.304	5974.89
507.672	6053.75
508.041	6020.08
508.409	6128.78
508.777	6177.82
509.145	6161.77
509.514	6159.74
509.882	6227.08
510.25	6328.32
510.618	6322.67
510.986	6353.86
511.354	6374.65
511.722	6422.56
512.09	6514.76
512.458	6491.26
512.826	6510.69
513.193	6558.82
513.561	6636.34
513.929	6647.41
514.297	6754.07
514.664	6785.49
515.032	6865.48
515.4	6853.51
515.767	6859.16
516.135	6959.27
516.502	6950
516.869	7072.94
517.237	7101.41
517.604	7049.43
517.972	7174.85
518.339	7211.24
518.706	7255.53
519.073	7243.78
519.44	7340.05
519.808	7418.01
520.175	7417.56
520.542	7593.37
520.909	7535.52
521.276	7594.5
521.643	7636.31
522.009	7779.36
522.376	7710.43
522.743	7784.56
523.11	7903.2
523.477	8047.6
523.843	7998.79
524.21	8089.86
524.577	8162.17
524.943	8218.44
525.31	8260.7
525.676	8305.67
526.043	8356.97
526.409	8415.05
526.776	8491.88
527.142	8557.19
527.508	8575.95
527.874	8680.58
528.241	8726.23
528.607	8709.95
528.973	8807.81
529.339	8771.87
529.705	8921.7
530.071	8952.66
530.437	9039.44
530.803	9061.36
531.169	9153.56
531.535	9145.42
531.901	9208.7
532.267	9207.79
532.632	9338.19
532.998	9270.62
533.364	9358.3
533.73	9417.28
534.095	9564.17
534.461	9515.36
534.826	9615.02
535.192	9556.26
535.557	9684.62
535.923	9665.86
536.288	9742.92
536.653	9849.36
537.019	9772.07
537.384	9848.68
537.749	9923.48
538.114	9937.94
538.479	9901.56
538.845	9969.81
539.21	9947.44
539.575	10040.09
539.94	10053.42
540.305	10153.31
540.67	10128.67
541.034	10204.83
541.399	10237.37
541.764	10236.02
542.129	10304.04
542.494	10328.44
542.858	10439.63
543.223	10447.31
543.587	10491.15
543.952	10449.12
544.316	10491.38
544.681	10554.43
545.045	10548.78
545.41	10613.86
545.774	10654.08
546.138	10664.48
546.503	10728.21
546.867	10770.47
547.231	10760.75
547.595	10892.95
547.959	10818.15
548.324	10944.02
548.688	10874.19
549.052	10898.15
549.416	11032.38
549.779	10996.9
550.143	11058.82
550.507	11102.21
550.871	11217.01
551.235	11105.6
551.599	11253.84
551.962	11290.9
552.326	11262.66
552.689	11388.98
553.053	11300.62
553.417	11346.5
553.78	11514.4
554.143	11473.05
554.507	11563.89
554.87	11565.47
555.234	11724.34
555.597	11685.24
555.96	11705.13
556.323	11807.73
556.686	11805.92
557.05	11912.81
557.413	11964.56
557.776	11989.87
558.139	12055.86
558.502	12045.01
558.865	12095.4
559.228	12147.15
559.59	12223.08
559.953	12186.47
560.316	12405.68
560.679	12333.59
561.041	12423.76
561.404	12479.35
561.767	12562.96
562.129	12566.58
562.492	12701.94
562.854	12688.83
563.217	12657.2
563.579	12718.89
563.941	12865.1
564.304	12954.81
564.666	13011.99
565.028	13021.71
565.39	13110.97
565.753	13115.49
566.115	13183.51
566.477	13175.6
566.839	13285.2
567.201	13348.25
567.563	13422.83
567.925	13464.18
568.287	13515.03
568.648	13528.81
569.01	13553.9
569.372	13711.63
569.734	13687
570.095	13680.9
570.457	13813.55
570.819	13874.56
571.18	13864.62
571.542	13988.91
571.903	14008.57
572.265	13984.39
572.626	14085.63
572.987	13998.4
573.349	14124.05
573.71	14211.5
574.071	14242.24
574.432	14248.57
574.794	14359.07
575.155	14338.73
575.516	14294.21
575.877	14395.91
576.238	14416.25
576.599	14449.92
576.96	14535.79
577.32	14479.07
577.681	14532.85
578.042	14572.17
578.403	14597.71
578.763	14649.01
579.124	14531.27
579.485	14722.68
579.845	14712.51
580.206	14665.28
580.566	14725.39
580.927	14696.24
581.287	14839.74
581.648	14730.14
582.008	14826.86
582.368	14760.87
582.728	14868.44
583.089	14799.74
583.449	14808.1
583.809	14869.34
584.169	14853.07
584.529	14797.93
584.889	14918.6
585.249	14850.58
585.609	14830.92
585.969	14955.67
586.329	14823.24
586.688	14911.6
587.048	14936.68
587.408	14829.12
587.768	14877.93
588.127	14884.26
588.487	14895.33
588.846	14971.26
589.206	14852.39
589.565	14845.84
589.925	14943.24
590.284	14919.96
590.643	14915.22
591.003	14918.83
591.362	14985.5
591.721	14947.76
592.08	14951.82
592.44	15019.39
592.799	14933.75
593.158	14994.08
593.517	14896.23
593.876	14952.73
594.235	14975.55
594.593	15086.28
594.952	14959.06
595.311	14972.61
595.67	15023.01
596.029	15114.98
596.387	15125.15
596.746	15111.14
597.104	15098.94
597.463	15075.44
597.822	15064.82
598.18	15058.26
598.538	15019.85
598.897	15152.5
599.255	15006.06
599.613	15266.84
599.972	15106.85
600.33	15214.42
600.688	15072.95
601.046	15173.06
601.404	15288.76
601.762	15169.67
602.12	15317.46
602.478	15244.02
602.836	15287.18
603.194	15177.58
603.552	15197.24
603.91	15188.65
604.268	15331.7
604.625	15199.05
604.983	15297.8
605.341	15276.34
605.698	15367.86
606.056	15316.11
606.413	15296.67
606.771	15428.65
607.128	15408.99
607.485	15343.45
607.843	15367.18
608.2	15446.73
608.557	15434.52
608.914	15483.56
609.272	15448.76
609.629	15569.66
609.986	15579.83
610.343	15529.44
610.7	15675.87
611.057	15650.79
611.414	15585.25
611.771	15585.03
612.127	15581.86
612.484	15606.72
612.841	15723.1
613.198	15688.75
613.554	15713.16
613.911	15689.66
614.267	15785.25
614.624	15693.73
614.98	15732.59
615.337	15799.03
615.693	15884.68
616.05	15811.24
616.406	15857.79
616.762	15796.32
617.118	15754.29
617.475	15891.01
617.831	15862.53
618.187	15975.3
618.543	15874.74
618.899	16045.58
619.255	15945.47
619.611	15948.41
619.967	15976.66
620.323	16036.77
620.678	15887.17
621.034	15897.11
621.39	15975.3
621.746	15898.24
622.101	16144.79
622.457	15926.26
622.812	16054.17
623.168	16078.8
623.523	16053.94
623.879	16037.9
624.234	15900.5
624.589	15946.37
624.945	16073.15
625.3	16005.13
625.655	16058.01
626.01	16096.2
626.365	16092.13
626.72	16106.14
627.075	16024.79
627.43	15992.25
627.785	15954.96
628.14	16025.24
628.495	16066.6
628.85	16065.47
629.205	15971.46
629.559	16067.5
629.914	15881.07
630.269	15950.44
630.623	15865.25
630.978	15827.73
631.332	15940.95
631.687	16028.86
632.041	15899.82
632.396	15876.55
632.75	15890.1
633.104	15916.09
633.459	15840.84
633.813	15820.5
634.167	15831.12
634.521	15792.25
634.875	15826.38
635.229	15751.35
635.583	15683.33
635.937	15649.66
636.291	15786.38
636.645	15673.84
636.999	15654.18
637.352	15758.13
637.706	15660.51
638.06	15568.98
638.413	15580.73
638.767	15570.11
639.121	15661.86
639.474	15438.59
639.828	15482.66
640.181	15500.74
640.534	15512.26
640.888	15393.85
641.241	15364.92
641.594	15471.58
641.947	15490.57
642.301	15333.51
642.654	15360.85
643.007	15454.64
643.36	15349.55
643.713	15293.96
644.066	15328.09
644.419	15315.66
644.771	15162.89
645.124	14939.4
645.477	15030.69
645.83	14851.71
646.182	14812.39
646.535	14801.32
646.888	14861.21
647.24	14745.05
647.593	14829.57
647.945	14754.54
648.298	14787.76
648.65	14680.42
649.002	14658.27
649.355	14716.35
649.707	14700.53
650.059	14766.74
650.411	14970.81
650.763	14968.32
651.115	15106.62
651.467	14954.08
651.819	14998.38
652.171	14978.04
652.523	14942.79
652.875	14849.68
653.227	14905.95
653.578	14942.56
653.93	14972.61
654.282	14828.21
654.633	14827.08
654.985	14800.42
655.337	14867.98
655.688	14837.48
656.039	14875.22
656.391	14713.19
656.742	14809.46
657.094	14823.92
657.445	14833.18
657.796	14771.94
658.147	14740.3
658.498	14743.69
658.849	14759.74
659.2	14638.16
659.551	14657.82
659.902	14720.19
660.253	14673.41
660.604	14760.64
660.955	14611.72
661.306	14683.58
661.656	14644.94
662.007	14729.46
662.358	14636.13
662.708	14707.76
663.059	14698.27
663.409	14544.15
663.76	14627.09
664.11	14633.87
664.461	14616.92
664.811	14655.11
665.161	14581.44
665.511	14599.29
665.862	14652.17
666.212	14580.76
666.562	14655.33
666.912	14563.59
667.262	14495.34
667.612	14618.05
667.962	14588.44
668.312	14515.9
668.662	14593.87
669.011	14541.67
669.361	14504.38
669.711	14485.62
670.06	14536.02
670.41	14497.15
670.76	14511.16
671.109	14547.99
671.459	14495.57
671.808	14470.26
672.157	14421.67
672.507	14378.28
672.856	14313.65
673.205	14356.59
673.554	14467.09
673.904	14382.57
674.253	14506.19
674.602	14382.8
674.951	14177.16
675.3	14085.63
675.649	14405.4
675.998	14295.34
676.346	14331.05
676.695	14414.21
677.044	14289.02
677.393	14340.54
677.741	14250.15
678.09	14299.64
678.438	14234.33
678.787	14300.32
679.135	14265.06
679.484	14153.88
679.832	14182.81
680.181	14164.27
680.529	14119.08
680.877	14133.77
681.225	14095.58
681.573	14155.24
681.922	14005.41
682.27	14075.69
682.618	14063.49
682.966	14025.52
683.314	14115.24
683.661	13961.34
684.009	13925.41
684.357	13917.95
684.705	13883.83
685.053	13893.32
685.4	13861.68
685.748	13785.53
686.095	13829.59
686.443	13756.38
686.79	13738.97
687.138	13779.88
687.485	13710.73
687.832	13652.42
688.18	13733.78
688.527	13650.39
688.874	13608.13
689.221	13601.35
689.568	13517.29
689.915	13526.78
690.262	13583.27
690.609	13466.44
690.956	13433.9
691.303	13331.53
691.65	13282.94
691.997	13351.19
692.344	13277.97
692.69	13232.1
693.037	13216.05
693.383	13057.86
693.73	13237.52
694.077	13124.08
694.423	13078.88
694.769	13090.63
695.116	13012.44
695.462	12986.45
695.808	12903.06
696.155	12974.25
696.501	12880.92
696.847	12904.42
697.193	12860.81
697.539	12908.49
697.885	12742.62
698.231	12672.79
698.577	12710.3
698.923	12666.23
699.269	12657.65
699.614	12560.47
699.96	12519.12
700.306	12524.09
700.651	12473.7
700.997	12484.09
701.342	12479.12
701.688	12350.99
702.033	12349.63
702.379	12355.73
702.724	12310.54
703.069	12372.68
703.415	12244.55
703.76	12120.49
704.105	12253.82
704.45	12160.49
704.795	12059.7
705.14	12113.03
705.485	12010.43
705.83	12011.34
706.175	12006.14
706.52	11948.51
706.865	11911.23
707.209	11888.63
707.554	11835.75
707.899	11853.37
708.243	11840.04
708.588	11861.51
708.932	11736.32
709.277	11722.3
709.621	11773.38
709.966	11627.17
710.31	11706.03
710.654	11589.2
710.998	11594.62
711.342	11617.9
711.687	11595.53
712.031	11546.72
712.375	11527.96
712.719	11463.33
713.063	11506.49
713.407	11515.53
713.75	11469.2
714.094	11444.12
714.438	11325.03
714.782	11348.3
715.125	11353.95
715.469	11440.05
715.812	11260.4
716.156	11323.9
716.499	11266.05
716.843	11218.36
717.186	11222.2
717.53	11219.72
717.873	11186.05
718.216	11149.21
718.559	11137.24
718.902	11047.29
719.246	11107.86
719.589	11085.71
719.932	11087.52
720.275	10999.16
720.617	11047.75
720.96	10972.49
721.303	10977.69
721.646	10978.14
721.989	11043.45
722.331	10917.81
722.674	10950.35
723.016	10917.81
723.359	10949.9
723.701	10850.46
724.044	10788.77
724.386	10743.57
724.729	10892.27
725.071	10765.95
725.413	10747.42
725.755	10758.26
726.097	10690.47
726.439	10697.92
726.782	10677.81
727.124	10774.76
727.465	10694.31
727.807	10624.03
728.149	10577.7
728.491	10541.32
728.833	10656.57
729.175	10532.96
729.516	10548.78
729.858	10478.5
730.199	10503.35
730.541	10451.15
730.882	10485.95
731.224	10542.9
731.565	10467.2
731.906	10455.9
732.248	10411.6
732.589	10387.2
732.93	10358.72
733.271	10375
733.612	10331.38
733.953	10407.99
734.294	10325.96
734.635	10309.46
734.976	10337.26
735.317	10255
735.658	10228.33
735.999	10250.71
736.339	10297.03
736.68	10302.91
737.021	10229.46
737.361	10148.79
737.702	10200.99
738.042	10170.48
738.383	10151.27
738.723	10178.39
739.063	10103.36
739.404	10141.33
739.744	10125.51
740.084	10039.41
740.424	10137.94
740.764	10062.01
741.104	10125.51
741.444	10019.07
741.784	9936.59
742.124	10016.59
742.464	10054.1
742.804	9962.58
743.143	9944.27
743.483	9970.49
743.823	9920.09
744.162	9902.92
744.502	9968.45
744.841	9881.22
745.181	9950.6
745.52	9862.47
745.86	9816.37
746.199	9878.51
746.538	9745.41
746.877	9805.29
747.216	9800.32
747.556	9762.58
747.895	9765.75
748.234	9680.32
748.573	9717.39
748.911	9703.6
749.25	9680.78
749.589	9573.89
749.928	9613.89
750.267	9615.69
750.605	9556.71
750.944	9586.09
751.283	9546.77
751.621	9551.97
751.96	9448.92
752.298	9435.13
752.636	9503.15
752.975	9420.44
753.313	9401.01
753.651	9391.07
753.989	9346.55
754.327	9444.4
754.666	9346.55
755.004	9386.77
755.342	9303.84
755.679	9321.46
756.017	9314.91
756.355	9317.4
756.693	9217.29
757.031	9245.08
757.368	9173.67
757.706	9199.21
758.044	9100.23
758.381	9127.12
758.719	9163.28
759.056	9135.71
759.394	9013.22
759.731	8981.36
760.068	9027.46
760.405	8968.7
760.743	8910.63
761.08	8961.47
761.417	8915.15
761.754	8870.63
762.091	8838.31
762.428	8838.99
762.765	8763.96
763.102	8781.37
763.438	8820.91
763.775	8710.63
764.112	8758.77
764.449	8710.86
764.785	8670.86
765.122	8607.13
765.458	8616.4
765.795	8555.61
766.131	8546.34
766.467	8531.88
766.804	8586.79
767.14	8418.44
767.476	8480.81
767.812	8414.82
768.148	8406.69
768.485	8416.4
768.821	8309.97
769.157	8324.88
769.492	8313.58
769.828	8314.94
770.164	8260.47
770.5	8226.58
770.836	8221.61
771.171	8197.2
771.507	8150.65
771.842	8076.75
772.178	8072.46
772.513	8057.77
772.849	8030.42
773.184	7955.4
773.519	7974.15
773.855	7955.4
774.19	7939.13
774.525	7893.48
774.86	7886.7
775.195	7889.19
775.53	7817.55
775.865	7777.1
776.2	7693.71
776.535	7706.82
776.87	7683.99
777.205	7660.26
777.539	7613.49
777.874	7654.16
778.209	7536.65
778.543	7547.73
778.878	7488.07
779.212	7474.28
779.547	7439.71
779.881	7442.19
780.215	7438.58
780.55	7408.07
780.884	7439.71
781.218	7366.04
781.552	7401.29
781.886	7298.92
782.22	7249.88
782.554	7208.07
782.888	7171.24
783.222	7213.95
783.556	7133.5
783.889	7159.03
784.223	7082.65
784.557	7033.84
784.89	7158.81
785.224	7042.43
785.557	7044.01
785.891	6994.29
786.224	6931.47
786.558	6995.88
786.891	6897.8
787.224	6927.85
787.557	6773.06
787.891	6865.71
788.224	6830.23
788.557	6839.72
788.89	6806.05
789.223	6812.6
789.556	6736.9
789.888	6733.06
790.221	6662.55
790.554	6709.56
790.887	6670.46
791.219	6662.78
791.552	6613.29
791.884	6585.26
792.217	6499.84
792.549	6482.44
792.882	6509.79
793.214	6494.65
793.546	6471.82
793.879	6498.94
794.211	6415.78
794.543	6431.37
794.875	6412.39
795.207	6415.1
795.539	6404.25
795.871	6405.83
796.203	6330.13
796.535	6345.95
796.867	6282
797.198	6262.56
797.53	6236.57
797.862	6196.57
798.193	6291.49
798.525	6161.77
798.856	6146.18
799.188	6103.92
799.519	6057.82
799.85	6084.03
800.182	6126.29
800.513	6140.98
800.844	6090.81
801.175	6050.36
801.506	6046.97
801.837	6008.1
802.168	5983.7
802.499	5982.79
802.83	5974.43
803.161	5934.89
803.491	5907.99
803.822	5908.45
804.153	5918.84
804.483	5881.1
804.814	5909.35
805.145	5831.16
805.475	5776.47
805.805	5803.36
806.136	5799.75
806.466	5802.23
806.796	5804.49
807.126	5798.84
807.457	5790.71
807.787	5745.74
808.117	5658.06
808.447	5705.06
808.777	5690.6
809.107	5665.74
809.436	5667.32
809.766	5686.53
810.096	5599.08
810.426	5589.36
810.755	5662.8
811.085	5607.44
811.414	5571.96
811.744	5533.54
812.073	5558.63
812.403	5512.52
812.732	5493.32
813.061	5515.91
813.39	5448.12
813.719	5422.58
814.049	5477.5
814.378	5426.65
814.707	5388.46
815.036	5396.82
815.365	5398.4
815.693	5364.51
816.022	5354.79
816.351	5347.11
816.68	5303.94
817.008	5371.06
817.337	5338.29
817.665	5303.04
817.994	5250.61
818.322	5246.99
818.651	5293.1
818.979	5300.1
819.307	5285.64
819.636	5271.85
819.964	5193.89
820.292	5207.67
820.62	5246.09
820.948	5242.02
821.276	5192.98
821.604	5188.24
821.932	5235.7
822.259	5206.77
822.587	5205.41
822.915	5188.01
823.243	5242.7
823.57	5193.66
823.898	5172.65
824.225	5178.52
824.553	5164.74
824.88	5169.48
825.207	5165.64
825.535	5160.44
825.862	5169.03
826.189	5114.12
826.516	5143.04
826.843	5191.18
827.17	5135.13
827.497	5140.33
827.824	5108.02
828.151	5209.93
828.478	5169.26
828.805	5156.83
829.131	5149.14
829.458	5154.79
829.785	5112.08
830.111	5141.69
830.438	5151.18
830.764	5151.4
831.09	5123.83
831.417	5099.43
831.743	5137.85
832.069	5217.84
832.395	5102.82
832.722	5151.63
833.048	5134.68
833.374	5113.44
833.7	5108.69
834.026	5063.72
834.351	5127.68
834.677	5117.05
835.003	5155.92
835.329	5140.78
835.654	5103.5
835.98	5078.19
836.306	5109.15
836.631	5069.15
836.956	5075.93
837.282	5058.07
837.607	5039.32
837.932	5025.31
838.258	5025.98
838.583	5022.82
838.908	5003.61
839.233	5002.71
839.558	4989.83
839.883	4981.69
840.208	4969.71
840.533	4966.78
840.858	5029.37
841.182	4953.44
841.507	4935.59
841.832	4973.1
842.156	4926.33
842.481	4937.62
842.805	4974.23
843.13	4916.83
843.454	4929.04
843.778	4934.01
844.103	4860.34
844.427	4866.67
844.751	4866.21
845.075	4857.17
845.399	4838.19
845.723	4828.93
846.047	4788.02
846.371	4738.08
846.695	4810.17
847.019	4735.82
847.343	4727.91
847.666	4721.58
847.99	4671.19
848.313	4661.02
848.637	4621.25
848.96	4620.57
849.284	4667.8
849.607	4614.24
849.931	4618.76
850.254	4567.01
850.577	4489.27
850.9	4488.82
851.223	4470.29
851.546	4492.44
851.869	4457.64
852.192	4473.46
852.515	4438.65
852.838	4395.04
853.161	4422.38
853.483	4391.88
853.806	4371.54
854.129	4403.63
854.451	4376.51
854.774	4352.33
855.096	4313.46
855.419	4275.95
855.741	4294.93
856.063	4266.46
856.385	4274.59
856.708	4264.42
857.03	4302.16
857.352	4291.77
857.674	4253.12
857.996	4264.42
858.318	4213.58
858.64	4273.69
858.961	4192.79
859.283	4157.98
859.605	4123.18
859.926	4178.1
860.248	4150.3
860.57	4125.67
860.891	4111.88
861.212	4125.67
861.534	4107.36
861.855	4089.96
862.176	4094.03
862.498	4124.76
862.819	4091.54
863.14	4115.5
863.461	4064.88
863.782	4042.05
864.103	4059
864.424	4073.01
864.745	4073.92
865.065	4055.61
865.386	4009.29
865.707	4047.93
866.027	4004.09
866.348	4025.11
866.668	3996.63
866.989	3958.89
867.309	3974.94
867.63	3976.07
867.95	3995.05
868.27	3950.76
868.59	3992.79
868.91	3967.93
869.23	3980.81
869.55	3948.5
869.87	3937.65
870.19	3952.57
870.51	3934.49
870.83	3990.98
871.15	3891.32
871.469	3927.48
871.789	3927.71
872.109	3901.49
872.428	3921.15
872.748	3901.04
873.067	3867.37
873.386	3950.08
873.706	3916.86
874.025	3880.48
874.344	3870.08
874.663	3833.7
874.982	3838.9
875.301	3872.57
875.62	3785.11
875.939	3821.27
876.258	3840.03
876.577	3796.41
876.896	3828.05
877.214	3826.02
877.533	3796.41
877.852	3809.97
878.17	3812
878.489	3798.45
878.807	3789.63
879.125	3750.54
879.444	3765.68
879.762	3786.02
880.08	3774.94
880.398	3754.83
880.716	3782.85
881.034	3769.29
881.352	3737.2
881.67	3706.92
881.988	3764.32
882.306	3734.27
882.624	3719.35
882.941	3678
883.259	3654.04
883.577	3695.62
883.894	3669.86
884.212	3636.42
884.529	3627.83
884.846	3643.2
885.164	3691.1
885.481	3621.27
885.798	3610.65
886.115	3578.11
886.432	3605
886.75	3598
887.067	3604.78
887.383	3568.17
887.7	3583.99
888.017	3608.17
888.334	3595.74
888.651	3559.58
888.967	3507.61
889.284	3525.01
889.6	3499.24
889.917	3513.48
890.233	3498.34
890.55	3523.2
890.866	3503.09
891.182	3515.29
891.498	3454.27
891.815	3428.06
892.131	3466.48
892.447	3469.41
892.763	3426.7
893.079	3401.85
893.395	3406.37
893.71	3423.99
894.026	3395.97
894.342	3403.43
894.657	3356.65
894.973	3352.36
895.289	3335.86
895.604	3336.31
895.92	3302.64
896.235	3312.13
896.55	3355.97
896.865	3306.03
897.181	3295.63
897.496	3337.21
897.811	3264.9
898.126	3277.78
898.441	3265.13
898.756	3230.1
899.071	3244.56
899.386	3226.26
899.7	3189.42
900.015	3199.82
900.33	3205.01
900.644	3172.25
900.959	3177.22
901.273	3172.02
901.588	3155.98
901.902	3133.6
902.216	3119.59
902.531	3125.69
902.845	3136.09
903.159	3131.34
903.473	3083.44
903.787	3110.1
904.101	3066.71
904.415	3069.88
904.729	3074.17
905.042	3032.36
905.356	3039.6
905.67	3038.01
905.984	3038.24
906.297	3019.03
906.611	2997.34
906.924	3005.47
907.237	2966.15
907.551	2955.76
907.864	2939.48
908.177	2929.99
908.491	2934.51
908.804	2944.23
909.117	2958.92
909.43	2906.49
909.743	2904.46
910.056	2867.62
910.368	2878.7
910.681	2843.44
910.994	2846.83
911.307	2835.98
911.619	2796.89
911.932	2815.65
912.244	2798.02
912.557	2832.37
912.869	2798.47
913.181	2795.53
913.494	2784.91
913.806	2786.49
914.118	2716.21
914.43	2726.16
914.742	2735.2
915.054	2722.54
915.366	2685.03
915.678	2693.84
915.99	2652.94
916.302	2676.89
916.613	2659.27
916.925	2676.89
917.236	2652.26
917.548	2626.72
917.859	2632.6
918.171	2619.72
918.482	2633.05
918.794	2608.65
919.105	2572.94
919.416	2546.95
919.727	2577.91
920.038	2560.06
920.349	2573.39
920.66	2514.41
920.971	2539.72
921.282	2528.65
921.593	2471.93
921.903	2462.66
922.214	2499.27
922.525	2486.84
922.835	2476.22
923.146	2451.36
923.456	2461.53
923.767	2450.01
924.077	2429.89
924.387	2407.97
924.697	2411.59
925.008	2420.18
925.318	2403.91
925.628	2361.42
925.938	2382.44
926.248	2367.52
926.558	2398.48
926.867	2335.43
927.177	2327.75
927.487	2336.34
927.796	2326.62
928.106	2305.83
928.416	2278.71
928.725	2297.02
929.034	2290.46
929.344	2304.93
929.653	2284.59
929.962	2253.85
930.271	2237.13
930.581	2254.31
930.89	2230.58
931.199	2213.4
931.508	2192.84
931.817	2227.41
932.125	2202.33
932.434	2230.35
932.743	2203.91
933.051	2170.92
933.36	2172.5
933.669	2147.64
933.977	2158.94
934.286	2145.61
934.594	2155.1
934.902	2129.34
935.21	2129.34
935.519	2125.72
935.827	2130.92
936.135	2128.66
936.443	2126.62
936.751	2108.32
937.059	2089.79
937.367	2063.12
937.674	2083.69
937.982	2056.57
938.29	2046.85
938.597	2041.88
938.905	2019.06
939.213	2035.55
939.52	2017.48
939.827	2024.03
940.135	1993.52
940.442	1995.1
940.749	2007.31
941.056	2003.69
941.363	1989.23
941.67	1998.72
941.977	1962.79
942.284	1936.57
942.591	1950.36
942.898	1942.22
943.205	1954.2
943.511	1902.22
943.818	1915.78
944.125	1889.79
944.431	1882.11
944.738	1889.79
945.044	1920.3
945.35	1896.12
945.657	1871.04
945.963	1852.06
946.269	1844.82
946.575	1857.03
946.881	1865.16
947.187	1868.1
947.493	1794.2
947.799	1827.42
948.105	1818.16
948.41	1809.12
948.716	1811.6
949.022	1805.73
949.327	1773.87
949.633	1795.33
949.938	1788.33
950.244	1791.72
950.549	1761.44
950.854	1745.17
951.16	1746.52
951.465	1739.74
951.77	1730.7
952.075	1734.09
952.38	1723.47
952.685	1717.37
952.99	1714.88
953.294	1700.65
953.599	1717.37
953.904	1686.41
954.209	1709.69
954.513	1678.28
954.818	1666.52
955.122	1687.54
955.426	1656.35
955.731	1667.88
956.035	1622.91
956.339	1616.58
956.643	1622.68
956.948	1625.85
957.252	1618.84
957.556	1620.88
957.86	1623.36
958.163	1606.64
958.467	1574.55
958.771	1596.47
959.075	1589.92
959.378	1600.54
959.682	1591.95
959.985	1584.72
960.289	1595.34
960.592	1555.11
960.896	1545.17
961.199	1548.56
961.502	1550.59
961.805	1537.94
962.108	1524.15
962.411	1506.75
962.714	1515.79
963.017	1523.48
963.32	1534.78
963.623	1496.58
963.926	1480.09
964.228	1478.73
964.531	1497.49
964.833	1486.42
965.136	1455.91
965.438	1496.13
965.741	1416.81
966.043	1453.65
966.345	1459.75
966.648	1474.89
966.95	1419.3
967.252	1430.15
967.554	1426.08
967.856	1415.23
968.158	1393.31
968.46	1418.62
968.761	1405.97
969.063	1409.13
969.365	1406.87
969.666	1383.59
969.968	1397.38
970.269	1402.58
970.571	1419.07
970.872	1378.4
971.174	1362.58
971.475	1369.36
971.776	1390.37
972.077	1368
972.378	1327.32
972.679	1365.29
972.98	1340.66
973.281	1365.51
973.582	1339.07
973.883	1310.83
974.183	1325.06
974.484	1321
974.785	1324.84
975.085	1329.36
975.386	1302.24
975.686	1280.77
975.986	1294.33
976.287	1287.32
976.587	1267.21
976.887	1270.6
977.187	1286.87
977.487	1239.64
977.787	1283.26
978.087	1248.68
978.387	1245.74
978.687	1230.15
978.987	1239.19
979.286	1240.32
979.586	1257.04
979.885	1234.9
980.185	1231.06
980.484	1216.14
980.784	1234.44
981.083	1241.45
981.382	1198.51
981.682	1199.19
981.981	1217.72
982.28	1216.82
982.579	1216.37
982.878	1181.34
983.177	1205.75
983.475	1179.31
983.774	1186.76
984.073	1157.84
984.372	1175.46
984.67	1130.49
984.969	1160.32
985.267	1154
985.566	1146.09
985.864	1160.1
986.162	1154.9
986.461	1130.94
986.759	1122.81
987.057	1110.15
987.355	1154.67
987.653	1111.28
987.951	1102.7
988.249	1123.49
988.547	1118.74
988.844	1092.53
989.142	1091.85
989.44	1098.4
989.737	1089.36
990.035	1083.71
990.332	1098.18
990.63	1089.59
990.927	1069.93
991.224	1099.31
991.521	1062.25
991.819	1041
992.116	1042.36
992.413	1069.93
992.71	1082.81
993.006	1046.43
993.303	1071.74
993.6	1067.9
993.897	1032.42
994.193	1067.67
994.49	1048.69
994.787	1029.48
995.083	1024.73
995.379	989.03
995.676	1017.73
995.972	1019.08
996.268	1014.56
996.565	995.58
996.861	1006.2
997.157	1010.72
997.453	996.71
997.749	995.36
998.044	984.96
998.34	980.21
998.636	976.6
998.932	987.45
999.227	989.03
999.523	960.78
999.818	938.63
1000.114	956.26
1000.409	939.54
1000.704	934.11
1001	945.19
1001.295	921.23
1001.59	939.54
1001.885	942.25
1002.18	924.62
1002.475	932.98
1002.77	918.52
1003.065	916.04
1003.359	902.7
1003.654	918.97
1003.949	898.63
1004.243	906.09
1004.538	908.35
1004.832	911.29
1005.127	905.87
1005.421	895.47
1005.715	889.6
1006.009	885.3
1006.304	881.23
1006.598	876.04
1006.892	881.69
1007.186	874
1007.48	865.64
1007.773	861.57
1008.067	847.79
1008.361	863.83
1008.655	858.41
1008.948	854.34
1009.242	860.67
1009.535	847.79
1009.829	824.29
1010.122	815.25
1010.415	816.38
1010.708	841.23
1011.001	816.83
1011.295	812.08
1011.588	815.47
1011.881	775.7
1012.173	802.59
1012.466	800.56
1012.759	795.59
1013.052	794
1013.344	794
1013.637	791.29
1013.93	803.04
1014.222	769.37
1014.514	799.88
1014.807	791.29
1015.099	770.5
1015.391	768.02
1015.683	757.85
1015.976	756.27
1016.268	782.48
1016.56	725.98
1016.851	756.72
1017.143	746.77
1017.435	750.84
1017.727	728.24
1018.018	728.92
1018.31	742.03
1018.602	736.15
1018.893	714.46
1019.185	724.4
1019.476	740.22
1019.767	734.12
1020.058	727.79
1020.35	700.45
1020.641	718.3
1020.932	707.68
1021.223	710.84
1021.514	706.55
1021.804	684.85
1022.095	669.26
1022.386	707.45
1022.677	706.32
1022.967	681.24
1023.258	680.56
1023.548	662.03
1023.839	683.27
1024.129	679.21
1024.419	692.54
1024.709	671.3
1025	662.26
1025.29	654.35
1025.58	644.4
1025.87	654.35
1026.16	644.63
1026.449	688.47
1026.739	657.06
1027.029	629.49
1027.319	644.63
1027.608	641.69
1027.898	634.46
1028.187	618.42
1028.477	611.41
1028.766	636.27
1029.055	631.52
1029.344	618.87
1029.634	605.31
1029.923	616.83
1030.212	600.34
1030.501	616.38
1030.79	610.73
1031.078	590.39
1031.367	604.86
1031.656	605.76
1031.945	595.82
1032.233	589.49
1032.522	587.23
1032.81	584.97
1033.099	580.68
1033.387	584.52
1033.675	577.97
1033.963	559.43
1034.251	598.76
1034.54	578.87
1034.828	577.06
1035.116	566.67
1035.403	566.21
1035.691	561.02
1035.979	564.18
1036.267	550.17
1036.554	552.65
1036.842	572.77
1037.129	565.99
1037.417	532.77
1037.704	541.13
1037.992	539.1
1038.279	561.24
1038.566	525.99
1038.853	525.99
1039.14	525.99
