Data from black_metal_pc_casing_FLMS001491_00043.txt Node
Date: Wed Feb 08 14:32:45 GMT 2017
User: dcchb
Spectrometer: FLMS00149
Trigger mode: 0
Integration Time (sec): 2.000000E-2
Scans to average: 10
Electric dark correction enabled: true
Nonlinearity correction enabled: false
Boxcar width: 0
XAxis mode: Wavelengths
Number of Pixels in Spectrum: 2048
>>>>>Begin Spectral Data<<<<<
341.393	-18.4
341.776	-18.4
342.16	-18.4
342.543	-55.92
342.927	-54.56
343.31	-82.58
343.693	-56.37
344.077	-49.59
344.46	-57.72
344.843	-56.59
345.226	-50.27
345.61	-22.7
345.993	-3.49
346.376	-17.05
346.759	11.65
347.142	11.65
347.525	29.5
347.908	64.53
348.291	77.19
348.674	90.97
349.057	110.86
349.44	128.03
349.823	143.85
350.206	156.51
350.588	181.37
350.971	191.76
351.354	215.71
351.737	217.75
352.119	234.7
352.502	256.84
352.884	257.3
353.267	253
353.65	282.38
354.032	288.71
354.414	283.74
354.797	290.51
355.179	282.61
355.562	288.26
355.944	310.18
356.326	313.34
356.709	314.24
357.091	322.38
357.473	319.44
357.855	323.96
358.238	329.61
358.62	330.06
359.002	317.41
359.384	335.03
359.766	323.73
360.148	356.05
360.53	328.25
360.912	323.73
361.294	316.28
361.676	313.57
362.057	311.31
362.439	325.32
362.821	308.82
363.203	303.4
363.584	303.17
363.966	306.56
364.348	316.73
364.729	307.01
365.111	315.37
365.493	296.16
365.874	300.91
366.256	295.49
366.637	303.85
367.019	291.87
367.4	309.05
367.781	322.38
368.163	295.71
368.544	286.9
368.925	295.26
369.306	309.27
369.688	313.79
370.069	287.35
370.45	295.49
370.831	302.94
371.212	287.8
371.593	281.93
371.974	300.23
372.355	299.78
372.736	296.39
373.117	315.37
373.498	293.23
373.879	307.24
374.26	274.24
374.641	311.98
375.021	300.68
375.402	318.31
375.783	310.18
376.163	318.31
376.544	320.34
376.925	310.18
377.305	301.14
377.686	326.45
378.066	328.93
378.447	319.89
378.827	307.69
379.208	302.49
379.588	310.63
379.968	323.28
380.349	323.28
380.729	322.6
381.109	317.41
381.489	321.25
381.87	335.71
382.25	330.51
382.63	304.75
383.01	328.93
383.39	332.55
383.77	312.66
384.15	316.05
384.53	314.24
384.91	326.22
385.29	337.29
385.67	333.68
386.049	333.9
386.429	338.88
386.809	337.97
387.189	362.38
387.568	323.06
387.948	341.59
388.328	342.04
388.707	335.03
389.087	343.85
389.466	359.89
389.846	380.91
390.225	353.56
390.605	358.99
390.984	358.31
391.363	355.37
391.743	368.25
392.122	340.23
392.501	352.89
392.881	352.89
393.26	350.85
393.639	386.56
394.018	360.34
394.397	380.23
394.776	373.68
395.155	358.31
395.534	380.23
395.913	397.4
396.292	384.75
396.671	375.26
397.05	362.38
397.429	391.98
397.808	402.15
398.186	370.51
398.565	382.26
398.944	393.79
399.323	363.06
399.701	364.86
400.08	395.82
400.458	384.75
400.837	384.98
401.215	381.13
401.594	400.79
401.972	401.7
402.351	401.25
402.729	398.31
403.107	377.74
403.486	381.81
403.864	401.92
404.242	409.83
404.62	384.07
404.999	416.39
405.377	427.91
405.755	405.99
406.133	420.68
406.511	415.94
406.889	427.01
407.267	425.2
407.645	414.35
408.023	421.13
408.401	448.7
408.779	444.41
409.156	432.88
409.534	435.6
409.912	443.28
410.29	437.63
410.667	464.97
411.045	436.95
411.422	434.01
411.8	439.44
412.178	464.3
412.555	467.01
412.933	466.56
413.31	453.45
413.687	449.83
414.065	490.28
414.442	467.23
414.819	473.11
415.197	473.56
415.574	475.14
415.951	488.48
416.328	481.47
416.705	484.18
417.082	482.15
417.46	477.85
417.837	503.62
418.214	517.4
418.591	487.57
418.967	497.29
419.344	509.04
419.721	505.88
420.098	511.07
420.475	518.31
420.852	535.71
421.228	522.15
421.605	518.53
421.982	522.6
422.358	544.52
422.735	549.04
423.111	540.9
423.488	561.92
423.864	537.29
424.241	552.88
424.617	547.68
424.994	577.29
425.37	561.92
425.746	583.61
426.123	541.13
426.499	564.63
426.875	555.37
427.251	593.11
427.627	596.95
428.003	581.58
428.379	598.3
428.756	585.2
429.132	602.15
429.507	617.74
429.883	576.61
430.259	630.62
430.635	620
431.011	609.15
431.387	632.65
431.763	635.82
432.138	620.22
432.514	638.98
432.89	637.17
433.265	654.8
433.641	664.97
434.016	648.92
434.392	687.11
434.767	649.6
435.143	664.29
435.518	673.1
435.894	698.64
436.269	717.4
436.644	677.4
437.02	697.06
437.395	695.02
437.77	714.23
438.145	705.19
438.52	710.16
438.895	739.99
439.271	727.34
439.646	751.97
440.021	753.55
440.395	726.66
440.77	781.12
441.145	747.68
441.52	766.89
441.895	770.05
442.27	776.6
442.645	770.05
443.019	777.51
443.394	759.88
443.769	783.84
444.143	775.47
444.518	782.71
444.892	782.71
445.267	788.13
445.641	789.48
446.016	802.59
446.39	808.24
446.764	813.44
447.139	784.74
447.513	804.63
447.887	824.74
448.262	816.83
448.636	822.93
449.01	836.49
449.384	837.62
449.758	846.66
450.132	847.79
450.506	844.4
450.88	852.99
451.254	858.64
451.628	892.76
452.002	889.37
452.376	892.98
452.75	887.56
453.123	888.01
453.497	900.44
453.871	892.31
454.244	938.86
454.618	950.84
454.992	958.29
455.365	932.76
455.739	956.03
456.112	977.73
456.486	995.81
456.859	977.5
457.232	997.16
457.606	964.62
457.979	1024.96
458.352	1017.5
458.725	1018.86
459.099	1038.29
459.472	1054.11
459.845	1038.29
460.218	1061.57
460.591	1073.09
460.964	1081.91
461.337	1097.95
461.71	1118.06
462.083	1109.48
462.456	1132.07
462.829	1152.41
463.201	1146.76
463.574	1141.11
463.947	1168.68
464.32	1196.03
464.692	1170.04
465.065	1211.62
465.438	1223.6
465.81	1226.31
466.183	1230.38
466.555	1257.04
466.928	1238.06
467.3	1263.6
467.672	1306.76
468.045	1304.05
468.417	1297.95
468.789	1307.66
469.161	1310.15
469.534	1347.21
469.906	1369.36
470.278	1378.17
470.65	1398.73
471.022	1399.86
471.394	1448.9
471.766	1462.69
472.138	1435.57
472.51	1484.83
472.882	1478.05
473.253	1510.14
473.625	1553.08
473.997	1531.16
474.369	1581.78
474.74	1592.4
475.112	1595.11
475.484	1632.4
475.855	1645.28
476.227	1644.38
476.598	1695
476.97	1720.31
477.341	1741.78
477.713	1779.52
478.084	1775.22
478.455	1812.28
478.827	1850.02
479.198	1870.59
479.569	1864.26
479.94	1913.98
480.311	1942.67
480.682	1960.98
481.053	2011.83
481.424	2063.8
481.795	2055.21
482.166	2079.39
482.537	2110.13
482.908	2121.2
483.279	2158.04
483.65	2207.98
484.021	2220.18
484.391	2288.43
484.762	2258.37
485.133	2307.86
485.503	2322.1
485.874	2356.22
486.244	2422.44
486.615	2445.26
486.985	2426.73
487.356	2494.98
487.726	2517.58
488.097	2564.35
488.467	2544.02
488.837	2625.14
489.207	2658.36
489.578	2672.6
489.948	2704.91
490.318	2710.79
490.688	2717.12
491.058	2795.53
491.428	2787.85
491.798	2829.66
492.168	2844.35
492.538	2897.9
492.908	2930.9
493.278	2947.39
493.648	2979.26
494.017	2958.92
494.387	3045.24
494.757	3042.53
495.126	3092.48
495.496	3060.16
495.866	3123.21
496.235	3142.42
496.605	3163.21
496.974	3205.92
497.344	3264.67
497.713	3256.31
498.082	3281.17
498.452	3289.98
498.821	3329.98
499.19	3319.14
499.559	3359.81
499.928	3394.84
500.298	3401.17
500.667	3396.87
501.036	3440.94
501.405	3445.46
501.774	3451.79
502.143	3464.44
502.512	3505.8
502.88	3517.77
503.249	3532.46
503.618	3578.34
503.987	3568.17
504.356	3589.86
504.724	3611.78
505.093	3661.95
505.462	3696.98
505.83	3741.5
506.199	3703.31
506.567	3768.16
506.936	3767.71
507.304	3859.46
507.672	3814.94
508.041	3837.54
508.409	3857.43
508.777	3900.59
509.145	3928.16
509.514	3949.85
509.882	3957.31
510.25	3986.91
510.618	4002.51
510.986	4026.24
511.354	4022.39
511.722	4107.82
512.09	4119.11
512.458	4102.62
512.826	4127.93
513.193	4174.25
513.561	4174.93
513.929	4231.88
514.297	4318.88
514.664	4309.39
515.032	4249.51
515.4	4354.14
515.767	4363.63
516.135	4394.81
516.502	4352.78
516.869	4425.1
517.237	4485.21
517.604	4479.33
517.972	4558.88
518.339	4581.25
518.706	4591.42
519.073	4582.83
519.44	4643.85
519.808	4714.58
520.175	4683.62
520.542	4752.32
520.909	4795.26
521.276	4804.97
521.643	4836.16
522.009	4853.78
522.376	4915.25
522.743	4982.37
523.11	5027.79
523.477	5027.79
523.843	4993.89
524.21	5074.12
524.577	5164.29
524.943	5164.29
525.31	5134.91
525.676	5231.18
526.043	5249.71
526.409	5312.3
526.776	5327.9
527.142	5370.38
527.508	5395.01
527.874	5442.47
528.241	5456.71
528.607	5449.02
528.973	5586.65
529.339	5541
529.705	5633.2
530.071	5607.44
530.437	5618.96
530.803	5650.83
531.169	5731.5
531.535	5712.52
531.901	5750.71
532.267	5769.24
532.632	5833.65
532.998	5841.78
533.364	5831.16
533.73	5894.21
534.095	5915.9
534.461	5926.98
534.826	5953.87
535.192	5944.83
535.557	6008.56
535.923	6046.75
536.288	6082.68
536.653	6059.4
537.019	6107.09
537.384	6134.43
537.749	6134.43
538.114	6091.27
538.479	6226.63
538.845	6220.53
539.21	6211.72
539.575	6228.66
539.94	6238.16
540.305	6381.2
540.67	6321.32
541.034	6392.5
541.399	6376.91
541.764	6394.99
542.129	6387.3
542.494	6416.68
542.858	6425.72
543.223	6437.92
543.587	6530.35
543.952	6429.56
544.316	6576.23
544.681	6507.3
545.045	6604.02
545.41	6570.58
545.774	6603.8
546.138	6672.04
546.503	6623.23
546.867	6719.27
547.231	6683.12
547.595	6699.39
547.959	6724.02
548.324	6793.62
548.688	6673.4
549.052	6798.37
549.416	6841.3
549.779	6837.46
550.143	6824.13
550.507	6882.66
550.871	6941.87
551.235	6944.58
551.599	6965.59
551.962	6944.35
552.326	6947.74
552.689	7062.54
553.053	7030.9
553.417	7068.64
553.78	7192.48
554.143	7070
554.507	7170.33
554.87	7183.44
555.234	7245.36
555.597	7221.41
555.96	7241.29
556.323	7365.13
556.686	7288.3
557.05	7342.98
557.413	7395.41
557.776	7392.02
558.139	7461.17
558.502	7458.24
558.865	7448.97
559.228	7578.91
559.59	7578.01
559.953	7522.42
560.316	7641.96
560.679	7681.51
561.041	7736.65
561.404	7685.57
561.767	7790.88
562.129	7757.89
562.492	7846.25
562.854	7861.16
563.217	7875.63
563.579	7895.06
563.941	7961.95
564.304	7985.91
564.666	7940.26
565.028	8070.42
565.39	8099.8
565.753	8161.49
566.115	8165.11
566.477	8174.38
566.839	8166.69
567.201	8241.49
567.563	8297.76
567.925	8320.13
568.287	8342.73
568.648	8337.54
569.01	8361.04
569.372	8448.49
569.734	8403.97
570.095	8515.16
570.457	8538.89
570.819	8490.07
571.18	8531.2
571.542	8624.99
571.903	8573.01
572.265	8653.91
572.626	8641.26
572.987	8665.21
573.349	8681.48
573.71	8735.94
574.071	8768.94
574.432	8747.47
574.794	8761.25
575.155	8805.77
575.516	8794.02
575.877	8823.17
576.238	8866.33
576.599	8852.32
576.96	8856.62
577.32	8824.75
577.681	8961.7
578.042	8935.49
578.403	8962.15
578.763	8972.77
579.124	8960.12
579.485	9026.1
579.845	9015.26
580.206	8984.52
580.566	9033.11
580.927	9022.26
581.287	9033.56
581.648	9038.76
582.008	9050.96
582.368	9086.44
582.728	9104.07
583.089	9102.03
583.449	9066.56
583.809	9091.87
584.169	9055.26
584.529	9084.63
584.889	9105.42
585.249	9101.81
585.609	9067.01
585.969	9126.44
586.329	9114.92
586.688	9124.18
587.048	9107.91
587.408	9114.69
587.768	9129.83
588.127	9088.25
588.487	9086.67
588.846	9121.92
589.206	9181.58
589.565	9108.81
589.925	9173.9
590.284	9173.22
590.643	9172.99
591.003	9133.9
591.362	9118.53
591.721	9161.92
592.08	9202.82
592.44	9260.9
592.799	9248.7
593.158	9203.5
593.517	9230.17
593.876	9234.91
594.235	9201.24
594.593	9184.74
594.952	9237.85
595.311	9216.38
595.67	9237.17
596.029	9302.26
596.387	9255.93
596.746	9289.15
597.104	9190.62
597.463	9203.5
597.822	9321.01
598.18	9310.84
598.538	9232.43
598.897	9302.71
599.255	9232.88
599.613	9358.3
599.972	9307.23
600.33	9328.7
600.688	9280.34
601.046	9285.98
601.404	9362.14
601.762	9348.36
602.12	9357.62
602.478	9366.89
602.836	9389.94
603.194	9333.44
603.552	9340.45
603.91	9330.73
604.268	9372.31
604.625	9382.48
604.983	9358.07
605.341	9343.61
605.698	9381.35
606.056	9427.68
606.413	9418.64
606.771	9427
607.128	9430.16
607.485	9367.34
607.843	9421.35
608.2	9441.23
608.557	9524.62
608.914	9447.56
609.272	9523.94
609.629	9482.14
609.986	9535.47
610.343	9530.5
610.7	9558.29
611.057	9529.59
611.414	9572.53
611.771	9554.23
612.127	9604.85
612.484	9646.88
612.841	9564.4
613.198	9529.14
613.554	9580.67
613.911	9675.35
614.267	9652.75
614.624	9622.02
614.98	9633.55
615.337	9754.22
615.693	9725.75
616.05	9688.69
616.406	9758.06
616.762	9745.41
617.118	9744.5
617.475	9759.87
617.831	9703.6
618.187	9775.01
618.543	9763.26
618.899	9793.32
619.255	9795.12
619.611	9765.29
619.967	9814.78
620.323	9803.94
620.678	9830.15
621.034	9762.36
621.39	9774.56
621.746	9773.66
622.101	9846.42
622.457	9768.23
622.812	9791.28
623.168	9795.8
623.523	9795.35
623.879	9836.7
624.234	9761.9
624.589	9803.94
624.945	9780.89
625.3	9850.72
625.655	9786.76
626.01	9771.4
626.365	9863.14
626.72	9784.05
627.075	9821.56
627.43	9825.63
627.785	9808.91
628.14	9830.6
628.495	9862.24
628.85	9823.15
629.205	9766.2
629.559	9767.1
629.914	9781.11
630.269	9783.82
630.623	9766.65
630.978	9690.72
631.332	9730.94
631.687	9785.41
632.041	9688.01
632.396	9745.41
632.75	9704.05
633.104	9736.59
633.459	9697.5
633.813	9643.26
634.167	9702.7
634.521	9651.4
634.875	9707.44
635.229	9734.56
635.583	9669.03
635.937	9602.59
636.291	9602.13
636.645	9587.9
636.999	9524.62
637.352	9554
637.706	9523.04
638.06	9607.11
638.413	9573.66
638.767	9532.08
639.121	9517.17
639.474	9449.6
639.828	9487.79
640.181	9527.11
640.534	9519.42
640.888	9507.45
641.241	9511.29
641.594	9454.12
641.947	9459.31
642.301	9455.7
642.654	9368.47
643.007	9443.27
643.36	9465.64
643.713	9414.12
644.066	9419.54
644.419	9337.96
644.771	9295.02
645.124	9264.29
645.477	9191.07
645.83	9176.61
646.182	9129.15
646.535	9092.77
646.888	9061.13
647.24	9026.56
647.593	9090.96
647.945	9009.16
648.298	9043.73
648.65	9058.65
649.002	8971.19
649.355	9044.18
649.707	8952.89
650.059	9046.22
650.411	9150.39
650.763	9149.49
651.115	9195.82
651.467	9161.02
651.819	9170.28
652.171	9216.38
652.523	9117.85
652.875	9212.77
653.227	9079.21
653.578	9185.87
653.93	9124.41
654.282	9120.11
654.633	9078.98
654.985	9064.3
655.337	9161.02
655.688	9081.92
656.039	9146.1
656.391	9031.98
656.742	9062.49
657.094	9030.85
657.445	9119.89
657.796	9015.94
658.147	9010.96
658.498	9029.95
658.849	9111.75
659.2	9005.31
659.551	9004.64
659.902	9068.59
660.253	9044.18
660.604	9002.83
660.955	8937.07
661.306	9018.42
661.656	9009.83
662.007	8972.32
662.358	8881.02
662.708	8988.82
663.059	8954.24
663.409	8869.72
663.76	9017.74
664.11	8911.76
664.461	8985.65
664.811	9015.94
665.161	8929.38
665.511	8993.79
665.862	8968.03
666.212	8992.89
666.562	9030.85
666.912	8921.7
667.262	8921.47
667.612	8980.91
667.962	8989.27
668.312	8931.42
668.662	8958.08
669.011	8917.41
669.361	8908.59
669.711	8885.32
670.06	8942.26
670.41	8888.71
670.76	8861.36
671.109	8868.59
671.459	8864.53
671.808	8862.72
672.157	8888.25
672.507	8869.95
672.856	8808.03
673.205	8852.32
673.554	8808.03
673.904	8796.96
674.253	8816.17
674.602	8770.29
674.951	8808.48
675.3	8678.99
675.649	8817.75
675.998	8828.37
676.346	8740.46
676.695	8803.06
677.044	8727.81
677.393	8759.22
677.741	8784.08
678.09	8749.73
678.438	8731.2
678.787	8770.07
679.135	8721.03
679.484	8618.66
679.832	8731.87
680.181	8746.56
680.529	8627.24
680.877	8628.83
681.225	8720.8
681.573	8703.4
681.922	8628.15
682.27	8597.19
682.618	8666.34
682.966	8599
683.314	8634.02
683.661	8546.34
684.009	8447.36
684.357	8523.97
684.705	8492.33
685.053	8508.15
685.4	8438.32
685.748	8467.02
686.095	8455.95
686.443	8427.02
686.79	8408.27
687.138	8418.89
687.485	8372.11
687.832	8387.93
688.18	8433.35
688.527	8350.19
688.874	8314.48
689.221	8307.93
689.568	8237.88
689.915	8297.99
690.262	8282.4
690.609	8316.97
690.956	8211.21
691.303	8209.85
691.65	8116.75
691.997	8171.89
692.344	8161.95
692.69	8111.78
693.037	8151.55
693.383	8026.13
693.73	8110.42
694.077	8050.54
694.423	8024.32
694.769	7958.79
695.116	7935.96
695.462	7989.52
695.808	7961.5
696.155	7931.44
696.501	7906.59
696.847	7917.89
697.193	7842.86
697.539	7838.34
697.885	7796.31
698.231	7750.43
698.577	7832.69
698.923	7732.13
699.269	7697.55
699.614	7672.24
699.96	7705.69
700.306	7657.33
700.651	7609.42
700.997	7606.93
701.342	7628.85
701.688	7576.2
702.033	7687.16
702.379	7600.61
702.724	7586.14
703.069	7619.81
703.415	7488.74
703.76	7449.87
704.105	7504.34
704.45	7483.55
704.795	7411.91
705.14	7421.85
705.485	7376.2
705.83	7399.48
706.175	7300.5
706.52	7302.53
706.865	7344.57
707.209	7366.26
707.554	7295.53
707.899	7273.16
708.243	7265.47
708.588	7314.96
708.932	7242.42
709.277	7240.84
709.621	7229.54
709.966	7150.9
710.31	7204.01
710.654	7130.79
710.998	7171.69
711.342	7109.32
711.687	7179.37
712.031	7071.81
712.375	7061.18
712.719	7058.25
713.063	7016.21
713.407	7112.03
713.75	7107.96
714.094	7043.11
714.438	6987.29
714.782	7000.4
715.125	6955.2
715.469	6989.77
715.812	6937.35
716.156	6930.11
716.499	6990.23
716.843	6944.35
717.186	6861.42
717.53	6946.16
717.873	6935.31
718.216	6901.87
718.559	6851.02
718.902	6851.25
719.246	6823.68
719.589	6886.27
719.932	6814.64
720.275	6804.92
720.617	6757.92
720.96	6704.36
721.303	6752.94
721.646	6759.95
721.989	6786.84
722.331	6765.6
722.674	6748.2
723.016	6758.14
723.359	6682.66
723.701	6722.44
724.044	6662.1
724.386	6656
724.729	6680.18
725.071	6704.81
725.413	6675.21
725.755	6624.81
726.097	6526.28
726.439	6570.35
726.782	6642.21
727.124	6665.26
727.465	6573.06
727.807	6515.89
728.149	6561.31
728.491	6509.79
728.833	6570.35
729.175	6536.68
729.516	6519.5
729.858	6475.44
730.199	6517.02
730.541	6462.56
730.882	6474.31
731.224	6482.22
731.565	6462.56
731.906	6465.04
732.248	6454.42
732.589	6363.12
732.93	6387.98
733.271	6423.69
733.612	6382.33
733.953	6391.82
734.294	6417.81
734.635	6340.53
734.976	6384.59
735.317	6350.02
735.658	6349.79
735.999	6315.44
736.339	6328.77
736.68	6310.7
737.021	6349.11
737.361	6303.69
737.702	6276.8
738.042	6279.28
738.383	6281.77
738.723	6318.15
739.063	6246.29
739.404	6268.66
739.744	6246.06
740.084	6239.51
740.424	6213.07
740.764	6202.45
741.104	6152.06
741.444	6237.03
741.784	6114.32
742.124	6208.55
742.464	6145.95
742.804	6119.74
743.143	6181.89
743.483	6148.21
743.823	6152.73
744.162	6107.76
744.502	6105.96
744.841	6064.83
745.181	6073.64
745.52	6091.94
745.86	6114.54
746.199	6086.97
746.538	6093.07
746.877	6079.52
747.216	6072.51
747.556	6032.96
747.895	6062.34
748.234	5997.48
748.573	6020.53
748.911	5992.29
749.25	5976.92
749.589	5932.17
749.928	5934.66
750.267	5942.57
750.605	5954.32
750.944	5931.27
751.283	5894.21
751.621	5924.49
751.96	5847.88
752.298	5896.24
752.636	5888.56
752.975	5839.07
753.313	5846.3
753.651	5871.39
753.989	5797.26
754.327	5817.6
754.666	5788.45
755.004	5758.17
755.342	5767.21
755.679	5779.41
756.017	5703.25
756.355	5762.69
756.693	5731.28
757.031	5682.46
757.368	5683.82
757.706	5680.43
758.044	5706.64
758.381	5710.03
758.719	5637.04
759.056	5623.93
759.394	5647.21
759.731	5621.9
760.068	5574.9
760.405	5612.41
760.743	5549.13
761.08	5566.08
761.417	5554.11
761.754	5526.54
762.091	5490.83
762.428	5523.82
762.765	5476.37
763.102	5453.54
763.438	5461.45
763.775	5422.36
764.112	5401.79
764.449	5429.59
764.785	5397.73
765.122	5396.37
765.458	5363.83
765.795	5352.75
766.131	5352.75
766.467	5345.52
766.804	5326.99
767.14	5290.16
767.476	5286.99
767.812	5228.46
768.148	5228.01
768.485	5159.54
768.821	5209.48
769.157	5129.48
769.492	5190.73
769.828	5192.31
770.164	5135.36
770.5	5124.29
770.836	5108.24
771.171	5082.71
771.507	5075.02
771.842	5019.88
772.178	5078.19
772.513	5010.16
772.849	4995.48
773.184	5028.47
773.519	4996.38
773.855	4975.14
774.19	4938.75
774.525	4969.71
774.86	4939.43
775.195	4947.79
775.53	4882.48
775.865	4836.61
776.2	4823.05
776.535	4840.68
776.87	4818.98
777.205	4755.71
777.539	4736.27
777.874	4799.55
778.209	4700.12
778.543	4773.56
778.878	4716.84
779.212	4688.59
779.547	4650.85
779.881	4657.86
780.215	4654.47
780.55	4610.63
780.884	4648.37
781.218	4647.69
781.552	4617.18
781.886	4586.22
782.22	4544.64
782.554	4586.67
782.888	4536.96
783.222	4508.71
783.556	4428.03
783.889	4468.94
784.223	4433
784.557	4466
784.89	4461.03
785.224	4404.53
785.557	4405.44
785.891	4385.32
786.224	4333.12
786.558	4350.97
786.891	4315.72
787.224	4343.74
787.557	4320.24
787.891	4301.93
788.224	4321.82
788.557	4265.78
788.89	4254.7
789.223	4264.65
789.556	4229.62
789.888	4209.96
790.221	4238.66
790.554	4187.81
790.887	4185.78
791.219	4183.75
791.552	4175.61
791.884	4131.09
792.217	4155.72
792.549	4078.21
792.882	4097.19
793.214	4066.23
793.546	4117.08
793.879	4051.77
794.211	4050.19
794.543	4069.85
794.875	4016.29
795.207	4047.25
795.539	3992.11
795.871	4059.46
796.203	3964.54
796.535	3903.08
796.867	3971.55
797.198	3927.71
797.53	3944.2
797.862	3915.73
798.193	3932.45
798.525	3888.61
798.856	3867.14
799.188	3877.09
799.519	3845.9
799.85	3848.39
800.182	3844.09
800.513	3816.52
800.844	3797.09
801.175	3832.57
801.506	3779.24
801.837	3756.19
802.168	3787.82
802.499	3755.73
802.83	3746.92
803.161	3711.89
803.491	3747.83
803.822	3748.28
804.153	3681.16
804.483	3689.75
804.814	3696.75
805.145	3685.23
805.475	3706.92
805.805	3683.19
806.136	3661.73
806.466	3587.6
806.796	3634.16
807.126	3615.63
807.457	3614.04
807.787	3619.02
808.117	3588.51
808.447	3595.29
808.777	3559.58
809.107	3600.26
809.436	3553.48
809.766	3586.02
810.096	3573.59
810.426	3565.23
810.755	3591.67
811.085	3542.18
811.414	3546.25
811.744	3476.42
812.073	3527.72
812.403	3515.97
812.732	3500.6
813.061	3497.44
813.39	3516.87
813.719	3474.84
814.049	3491.79
814.378	3471.67
814.707	3468.74
815.036	3445.69
815.365	3449.08
815.693	3399.13
816.022	3395.52
816.351	3414.27
816.68	3381.96
817.008	3432.58
817.337	3341.51
817.665	3346.03
817.994	3354.39
818.322	3353.03
818.651	3328.85
818.979	3337.44
819.307	3353.71
819.636	3337.44
819.964	3330.44
820.292	3317.55
820.62	3331.56
820.948	3259.25
821.276	3329.53
821.604	3313.94
821.932	3356.2
822.259	3306.71
822.587	3304.45
822.915	3288.63
823.243	3293.6
823.57	3284.56
823.898	3261.06
824.225	3266.48
824.553	3279.14
824.88	3296.54
825.207	3299.93
825.535	3283.88
825.862	3268.74
826.189	3282.53
826.516	3308.29
826.843	3314.84
827.17	3308.74
827.497	3300.38
827.824	3302.19
828.151	3309.64
828.478	3310.1
828.805	3275.52
829.131	3314.16
829.458	3270.32
829.785	3223.09
830.111	3261.74
830.438	3252.02
830.764	3250.66
831.09	3288.18
831.417	3238.91
831.743	3238.46
832.069	3274.39
832.395	3255.18
832.722	3241.4
833.048	3252.7
833.374	3254.96
833.7	3251.57
834.026	3242.98
834.351	3249.76
834.677	3227.39
835.003	3239.82
835.329	3295.41
835.654	3264.9
835.98	3219.93
836.306	3252.47
836.631	3214.51
836.956	3247.05
837.282	3253.83
837.607	3216.09
837.932	3200.49
838.258	3163.66
838.583	3201.85
838.908	3193.26
839.233	3198.91
839.558	3169.76
839.883	3183.09
840.208	3153.94
840.533	3132.47
840.858	3153.72
841.182	3154.62
841.507	3156.88
841.832	3116.2
842.156	3129.99
842.481	3132.7
842.805	3168.86
843.13	3150.78
843.454	3113.72
843.778	3165.47
844.103	3103.32
844.427	3087.96
844.751	3089.09
845.075	3083.44
845.399	3094.96
845.723	3057.9
846.047	3047.73
846.371	3049.99
846.695	3034.62
847.019	2997.79
847.343	2978.35
847.666	3013.61
847.99	2989.43
848.313	2954.85
848.637	2963.21
848.96	2960.95
849.284	2987.85
849.607	2925.02
849.931	2959.82
850.254	2913.5
850.577	2858.81
850.9	2874.4
851.223	2880.96
851.546	2881.86
851.869	2872.37
852.192	2866.04
852.515	2835.53
852.838	2814.06
853.161	2803.22
853.483	2830.11
853.806	2796.21
854.129	2806.61
854.451	2765.93
854.774	2741.07
855.096	2750.56
855.419	2793.27
855.741	2767.74
856.063	2773.39
856.385	2723.67
856.708	2731.58
857.03	2729.32
857.352	2710.34
857.674	2718.02
857.996	2752.15
858.318	2687.97
858.64	2684.35
858.961	2737.91
859.283	2727.29
859.605	2662.43
859.926	2676.21
860.248	2663.11
860.57	2618.36
860.891	2703.56
861.212	2682.32
861.534	2662.66
861.855	2659.49
862.176	2646.84
862.498	2603.22
862.819	2629.66
863.14	2610
863.461	2594.41
863.782	2616.1
864.103	2644.35
864.424	2596.89
864.745	2620.62
865.065	2614.97
865.386	2599.15
865.707	2603.22
866.027	2598.7
866.348	2585.82
866.668	2591.92
866.989	2568.42
867.309	2533.39
867.63	2559.83
867.95	2559.38
868.27	2547.63
868.59	2532.49
868.91	2539.95
869.23	2539.95
869.55	2515.54
869.87	2558.25
870.19	2545.82
870.51	2545.37
870.83	2534.3
871.15	2520.74
871.469	2509.67
871.789	2479.61
872.109	2507.18
872.428	2489.1
872.748	2510.57
873.067	2505.82
873.386	2497.91
873.706	2485.49
874.025	2479.61
874.344	2463.79
874.663	2508.99
874.982	2480.51
875.301	2492.04
875.62	2477.58
875.939	2478.25
876.258	2438.93
876.577	2468.08
876.896	2454.53
877.214	2457.92
877.533	2454.3
877.852	2428.99
878.17	2466.73
878.489	2452.04
878.807	2466.05
879.125	2460.63
879.444	2457.69
879.762	2456.79
880.08	2432.15
880.398	2423.34
880.716	2431.02
881.034	2415.43
881.352	2389.44
881.67	2400.52
881.988	2459.27
882.306	2446.84
882.624	2418.82
882.941	2366.62
883.259	2384.02
883.577	2377.47
883.894	2392.15
884.212	2383.34
884.529	2405.71
884.846	2336.11
885.164	2348.77
885.481	2374.75
885.798	2338.14
886.115	2361.87
886.432	2338.37
886.75	2337.47
887.067	2339.95
887.383	2343.12
887.7	2271.71
888.017	2291.59
888.334	2297.02
888.651	2327.52
888.967	2299.28
889.284	2283.91
889.6	2268.32
889.917	2276.23
890.233	2264.93
890.55	2242.55
890.866	2263.34
891.182	2259.28
891.498	2266.06
891.815	2254.08
892.131	2247.53
892.447	2228.09
892.763	2186.06
893.079	2205.27
893.395	2208.2
893.71	2220.86
894.026	2213.63
894.342	2196.45
894.657	2199.62
894.973	2207.53
895.289	2188.09
895.604	2197.81
895.92	2201.65
896.235	2153.29
896.55	2159.17
896.865	2166.4
897.181	2161.88
897.496	2158.26
897.811	2174.31
898.126	2101.54
898.441	2094.08
898.756	2123.69
899.071	2111.26
899.386	2102.22
899.7	2129.11
900.015	2086.63
900.33	2069.23
900.644	2104.03
900.959	2106.96
901.273	2066.06
901.588	2077.36
901.902	2026.06
902.216	2030.58
902.531	2051.15
902.845	2039.85
903.159	1996.91
903.473	2007.98
903.787	2023.58
904.101	2043.01
904.415	1993.75
904.729	1977.25
905.042	1997.59
905.356	1996.46
905.67	2000.53
905.984	1988.55
906.297	1940.87
906.611	1959.85
906.924	1963.69
907.237	1956.23
907.551	1947.87
907.864	1946.29
908.177	1931.83
908.491	1945.39
908.804	1945.39
909.117	1914.43
909.43	1918.27
909.743	1902.68
910.056	1887.31
910.368	1907.2
910.681	1863.13
910.994	1892.51
911.307	1894.54
911.619	1881.89
911.932	1868.78
912.244	1841.89
912.557	1833.53
912.869	1848.21
913.181	1805.28
913.494	1810.7
913.806	1817.48
914.118	1830.14
914.43	1790.14
914.742	1821.77
915.054	1819.29
915.366	1772.96
915.678	1806.18
915.99	1795.56
916.302	1793.07
916.613	1749.91
916.925	1736.13
917.236	1775.22
917.548	1763.47
917.859	1736.35
918.171	1717.6
918.482	1737.26
918.794	1729.57
919.105	1740.87
919.416	1720.76
919.727	1735.45
920.038	1718.95
920.349	1690.7
920.66	1674.21
920.971	1701.33
921.282	1682.57
921.593	1670.37
921.903	1665.17
922.214	1657.94
922.525	1669.01
922.835	1658.61
923.146	1624.72
923.456	1647.77
923.767	1622.46
924.077	1650.03
924.387	1622.23
924.697	1631.95
925.008	1608.9
925.318	1590.14
925.628	1619.52
925.938	1619.29
926.248	1577.26
926.558	1596.47
926.867	1565.51
927.177	1581.78
927.487	1570.03
927.796	1584.27
928.106	1577.94
928.416	1526.64
928.725	1566.19
929.034	1535.68
929.344	1539.97
929.653	1527.09
929.962	1496.81
930.271	1524.15
930.581	1509.69
930.89	1503.36
931.199	1491.39
931.508	1492.97
931.817	1485.74
932.125	1469.02
932.434	1499.52
932.743	1442.8
933.051	1477.83
933.36	1483.48
933.669	1450.94
933.977	1454.55
934.286	1487.77
934.594	1452.97
934.902	1431.73
935.21	1466.76
935.519	1434.21
935.827	1427.21
936.135	1437.15
936.443	1400.99
936.751	1423.82
937.059	1411.62
937.367	1416.36
937.674	1374.78
937.982	1372.97
938.29	1404.84
938.597	1372.75
938.905	1372.52
939.213	1365.74
939.52	1355.57
939.827	1363.48
940.135	1329.13
940.442	1351.96
940.749	1371.16
941.056	1355.35
941.363	1342.69
941.67	1330.04
941.977	1326.87
942.284	1353.09
942.591	1332.07
942.898	1297.49
943.205	1322.8
943.511	1296.14
943.818	1300.66
944.125	1284.61
944.431	1285.29
944.738	1307.44
945.044	1301.56
945.35	1295.69
945.657	1275.57
945.963	1249.59
946.269	1275.57
946.575	1270.6
946.881	1261.56
947.187	1250.72
947.493	1264.73
947.799	1255.69
948.105	1267.66
948.41	1234.9
948.716	1236.7
949.022	1241.22
949.327	1250.04
949.633	1221.34
949.938	1235.8
950.244	1212.52
950.549	1207.33
950.854	1199.42
951.16	1197.84
951.465	1222.69
951.77	1206.2
952.075	1186.08
952.38	1180.89
952.685	1185.18
952.99	1192.19
953.294	1187.89
953.599	1153.77
953.904	1163.49
954.209	1168.91
954.513	1154.9
954.818	1154.67
955.122	1142.24
955.426	1159.87
955.731	1165.07
956.035	1136.59
956.339	1129.14
956.643	1146.76
956.948	1129.59
957.252	1131.4
957.556	1154.22
957.86	1110.38
958.163	1140.44
958.467	1107.89
958.771	1127.78
959.075	1123.04
959.378	1113.54
959.682	1087.33
959.985	1058.4
960.289	1073.77
960.592	1099.08
960.896	1081.68
961.199	1075.13
961.502	1087.78
961.805	1080.32
962.108	1081.23
962.411	1071.74
962.714	1061.12
963.017	1035.13
963.32	1043.94
963.623	1062.92
963.926	1036.03
964.228	1059.31
964.531	1051.62
964.833	1017.5
965.136	1037.16
965.438	1039.42
965.741	1022.7
966.043	1019.54
966.345	991.51
966.648	1043.26
966.95	1027.44
967.252	1029.25
967.554	986.54
967.856	1041
968.158	1018.86
968.46	1009.82
968.761	990.16
969.063	998.74
969.365	975.69
969.666	996.26
969.968	968.92
970.269	961.01
970.571	984.96
970.872	974.11
971.174	1001.23
971.475	980.44
971.776	979.99
972.077	956.49
972.378	939.09
972.679	946.99
972.98	958.29
973.281	947.67
973.582	939.54
973.883	939.99
974.183	934.11
974.484	954.68
974.785	921.23
975.085	950.38
975.386	938.18
975.686	907
975.986	941.35
976.287	934.11
976.587	907.67
976.887	939.99
977.187	908.13
977.487	922.36
977.787	897.28
978.087	899.99
978.387	888.69
978.687	913.1
978.987	903.83
979.286	888.24
979.586	875.58
979.885	875.13
980.185	874
980.484	905.64
980.784	884.17
981.083	891.63
981.382	903.38
981.682	876.04
981.981	865.42
982.28	871.29
982.579	851.63
982.878	842.59
983.177	851.86
983.475	843.04
983.774	845.08
984.073	856.83
984.372	857.28
984.67	842.14
984.969	848.69
985.267	853.89
985.566	833.33
985.864	854.79
986.162	838.07
986.461	844.62
986.759	812.54
987.057	822.93
987.355	809.15
987.653	842.59
987.951	835.81
988.249	805.08
988.547	807.79
988.844	834.91
989.142	832.2
989.44	819.31
989.737	792.42
990.035	812.31
990.332	778.64
990.63	799.65
990.927	775.02
991.224	771.41
991.521	785.64
991.819	799.88
992.116	782.71
992.413	784.51
992.71	792.42
993.006	765.76
993.303	761.01
993.6	767.79
993.897	761.91
994.193	774.12
994.49	767.79
994.787	758.53
995.083	764.4
995.379	754.46
995.676	757.62
995.972	741.58
996.268	755.36
996.565	770.73
996.861	731.86
997.157	738.64
997.453	738.86
997.749	744.06
998.044	741.35
998.34	725.08
998.636	735.02
998.932	715.36
999.227	724.85
999.523	717.62
999.818	737.28
1000.114	692.31
1000.409	728.47
1000.704	717.4
1001	724.18
1001.295	719.88
1001.59	712.65
1001.885	729.37
1002.18	705.19
1002.475	711.29
1002.77	691.63
1003.065	713.78
1003.359	705.42
1003.654	705.65
1003.949	700
1004.243	694.8
1004.538	698.41
1004.832	690.5
1005.127	663.16
1005.421	665.65
1005.715	660.67
1006.009	683.27
1006.304	678.3
1006.598	673.56
1006.892	659.54
1007.186	669.04
1007.48	672.43
1007.773	678.98
1008.067	653.9
1008.361	671.52
1008.655	638.98
1008.948	646.44
1009.242	652.54
1009.535	636.04
1009.829	620.22
1010.122	641.92
1010.415	622.26
1010.708	626.78
1011.001	629.26
1011.295	617.06
1011.588	618.42
1011.881	604.18
1012.173	619.77
1012.466	611.41
1012.759	598.98
1013.052	620.9
1013.344	593.78
1013.637	606.44
1013.93	598.3
1014.222	606.21
1014.514	614.57
1014.807	597.17
1015.099	594.24
1015.391	606.89
1015.683	622.03
1015.976	616.38
1016.268	607.12
1016.56	581.58
1016.851	575.71
1017.143	582.94
1017.435	586.78
1017.727	595.59
1018.018	562.15
1018.31	596.04
1018.602	584.07
1018.893	580.22
1019.185	581.58
1019.476	567.12
1019.767	580
1020.058	583.39
1020.35	565.08
1020.641	558.98
1020.932	552.43
1021.223	577.51
1021.514	544.52
1021.804	551.98
1022.095	550.62
1022.386	546.1
1022.677	555.37
1022.967	548.59
1023.258	544.75
1023.548	537.29
1023.839	533.67
1024.129	546.1
1024.419	556.95
1024.709	537.74
1025	510.17
1025.29	518.98
1025.58	517.18
1025.87	544.52
1026.16	543.62
1026.449	530.73
1026.739	525.99
1027.029	515.59
1027.319	524.63
1027.608	538.64
1027.898	519.89
1028.187	512.2
1028.477	505.65
1028.766	502.49
1029.055	496.61
1029.344	517.85
1029.634	512.66
1029.923	504.07
1030.212	501.81
1030.501	500
1030.79	503.84
1031.078	509.49
1031.367	484.86
1031.656	485.99
1031.945	497.97
1032.233	481.92
1032.522	477.18
1032.81	477.85
1033.099	495.03
1033.387	485.54
1033.675	476.27
1033.963	486.89
1034.251	482.15
1034.54	466.33
1034.828	471.53
1035.116	485.76
1035.403	487.57
1035.691	483.28
1035.979	481.24
1036.267	464.07
1036.554	471.75
1036.842	455.26
1037.129	467.23
1037.417	455.71
1037.704	459.1
1037.992	457.29
1038.279	464.52
1038.566	459.1
1038.853	459.1
1039.14	459.1
