Data from black_plastic_tray_FLMS001491_053.txt Node
Date: Tue Feb 07 10:40:09 GMT 2017
User: dcchb
Spectrometer: FLMS00149
Trigger mode: 0
Integration Time (sec): 2.000000E-2
Scans to average: 10
Electric dark correction enabled: true
Nonlinearity correction enabled: false
Boxcar width: 0
XAxis mode: Wavelengths
Number of Pixels in Spectrum: 2048
>>>>>Begin Spectral Data<<<<<
341.393	9.83
341.776	9.83
342.16	9.83
342.543	-52.99
342.927	-63.16
343.31	-72.65
343.693	-79.43
344.077	-67.46
344.46	-50.51
344.843	-64.97
345.226	-46.67
345.61	-22.49
345.993	-28.81
346.376	23.84
346.759	-1.24
347.142	31.98
347.525	47.34
347.908	62.48
348.291	75.14
348.674	69.72
349.057	123.73
349.44	127.57
349.823	135.02
350.206	161.24
350.588	183.61
350.971	192.2
351.354	211.41
351.737	234.01
352.119	243.95
352.502	245.76
352.884	264.96
353.267	264.96
353.65	292.99
354.032	277.62
354.414	290.27
354.797	330.05
355.179	302.03
355.562	311.29
355.944	316.94
356.326	348.13
356.709	326.66
357.091	325.75
357.473	320.78
357.855	327.34
358.238	327.11
358.62	345.41
359.002	333.66
359.384	333.89
359.766	331.86
360.148	351.06
360.53	323.04
360.912	335.02
361.294	338.41
361.676	315.81
362.057	307.68
362.439	333.66
362.821	314.23
363.203	321.01
363.584	303.38
363.966	330.27
364.348	312.42
364.729	297.51
365.111	302.48
365.493	326.21
365.874	311.74
366.256	324.85
366.637	331.4
367.019	326.66
367.4	298.41
367.781	305.64
368.163	307.9
368.544	336.6
368.925	306.55
369.306	307.9
369.688	313.33
370.069	295.7
370.45	324.4
370.831	310.84
371.212	320.78
371.593	305.87
371.974	314.68
372.355	322.14
372.736	311.52
373.117	332.31
373.498	323.04
373.879	319.88
374.26	306.77
374.641	317.62
375.021	333.44
375.402	308.35
375.783	326.66
376.163	353.55
376.544	338.86
376.925	321.69
377.305	329.14
377.686	344.51
378.066	328.47
378.447	323.72
378.827	329.82
379.208	347
379.588	342.93
379.968	331.86
380.349	335.7
380.729	323.72
381.109	336.15
381.489	362.59
381.87	338.64
382.25	347.9
382.63	359.65
383.01	338.64
383.39	340.89
383.77	352.87
384.15	346.77
384.53	331.63
384.91	361.01
385.29	354.91
385.67	365.75
386.049	379.09
386.429	375.24
386.809	384.28
387.189	384.96
387.568	390.61
387.948	367.79
388.328	375.47
388.707	377.05
389.087	367.33
389.466	388.58
389.846	382.7
390.225	400.1
390.605	379.31
390.984	398.07
391.363	394.23
391.743	407.11
392.122	420.89
392.501	409.59
392.881	412.08
393.26	419.54
393.639	400.55
394.018	402.14
394.397	424.51
394.776	398.75
395.155	399.65
395.534	431.29
395.913	428.58
396.292	439.2
396.671	443.94
397.05	433.1
397.429	441.23
397.808	442.59
398.186	459.08
398.565	448.24
398.944	439.65
399.323	442.14
399.701	449.82
400.08	456.37
400.458	450.95
400.837	459.31
401.215	448.91
401.594	465.19
401.972	451.63
402.351	472.42
402.729	471.51
403.107	465.19
403.486	453.66
403.864	465.19
404.242	483.26
404.62	495.69
404.999	462.02
405.377	479.2
405.755	509.7
406.133	499.08
406.511	500.21
406.889	535.01
407.267	538.63
407.645	522.81
408.023	491.63
408.401	514.9
408.779	530.04
409.156	540.21
409.534	520.1
409.912	521.46
410.29	559.19
410.667	547.9
411.045	519.42
411.422	551.51
411.8	593.32
412.178	559.19
412.555	569.14
412.933	588.12
413.31	582.7
413.687	569.14
414.065	580.89
414.442	594
414.819	589.7
415.197	599.87
415.574	596.03
415.951	633.32
416.328	609.36
416.705	608.23
417.082	642.81
417.46	615.01
417.837	623.15
418.214	611.17
418.591	659.08
418.967	646.2
419.344	661.56
419.721	669.02
420.098	650.27
420.475	654.56
420.852	655.91
421.228	676.48
421.605	688
421.982	687.55
422.358	693.43
422.735	711.96
423.111	681
423.488	688.91
423.864	721.22
424.241	715.35
424.617	722.81
424.994	721
425.37	723.26
425.746	762.8
426.123	738.17
426.499	717.83
426.875	740.21
427.251	773.88
427.627	764.16
428.003	786.98
428.379	784.27
428.756	790.37
429.132	788.79
429.507	785.18
429.883	804.61
430.259	828.11
430.635	831.5
431.011	824.5
431.387	850.49
431.763	872.41
432.138	873.08
432.514	890.49
432.89	881.45
433.265	875.34
433.641	908.34
434.016	925.96
434.392	923.03
434.767	908.11
435.143	936.13
435.518	952.86
435.894	961.67
436.269	982.46
436.644	966.42
437.02	999.86
437.395	969.58
437.77	988.56
438.145	1011.84
438.52	1010.71
438.895	1018.17
439.271	1036.92
439.646	1050.25
440.021	1063.36
440.395	1082.8
440.77	1070.59
441.145	1058.62
441.52	1033.31
441.895	1087.77
442.27	1083.25
442.645	1085.96
443.019	1118.05
443.394	1106.75
443.769	1110.59
444.143	1104.49
444.518	1118.5
444.892	1107.43
445.267	1133.42
445.641	1128.9
446.016	1150.82
446.39	1173.64
446.764	1158.05
447.139	1184.04
447.513	1186.3
447.887	1168.22
448.262	1186.52
448.636	1198.05
449.01	1200.99
449.384	1233.3
449.758	1224.26
450.132	1262
450.506	1229.69
450.88	1231.04
451.254	1255.67
451.628	1263.81
452.002	1288.89
452.376	1297.25
452.75	1293.64
453.123	1300.87
453.497	1327.54
453.871	1338.38
454.244	1373.64
454.618	1351.94
454.992	1389.68
455.365	1387.87
455.739	1389
456.112	1427.19
456.486	1408.66
456.859	1470.36
457.232	1467.87
457.606	1467.42
457.979	1502.9
458.352	1517.81
458.725	1531.37
459.099	1544.48
459.472	1570.24
459.845	1592.16
460.218	1582.9
460.591	1610.01
460.964	1610.92
461.337	1660.41
461.71	1661.09
462.083	1680.97
462.456	1665.15
462.829	1710.35
463.201	1716.45
463.574	1720.52
463.947	1754.64
464.32	1796.68
464.692	1800.29
465.065	1843.23
465.438	1857.24
465.81	1868.09
466.183	1880.74
466.555	1925.26
466.928	1915.77
467.3	1942.66
467.672	1960.74
468.045	2042.77
468.417	2011.36
468.789	2056.1
469.161	2049.55
469.534	2080.28
469.906	2118.48
470.278	2127.06
470.65	2145.37
471.022	2168.19
471.394	2242.09
471.766	2262.43
472.138	2277.12
472.51	2325.7
472.882	2351.46
473.253	2376.1
473.625	2332.26
473.997	2449.77
474.369	2430.33
474.74	2499.71
475.112	2548.52
475.484	2546.49
475.855	2559.37
476.227	2634.62
476.598	2716.88
476.97	2722.75
477.341	2760.27
477.713	2798.91
478.084	2838.46
478.455	2907.38
478.827	2911.22
479.198	2987.61
479.569	2992.35
479.94	3079.81
480.311	3139.47
480.682	3156.64
481.053	3186.47
481.424	3259.69
481.795	3302.4
482.166	3328.16
482.537	3407.48
482.908	3450.19
483.279	3534.26
483.65	3573.8
484.021	3640.7
484.391	3657.19
484.762	3715.27
485.133	3700.58
485.503	3783.97
485.874	3862.38
486.244	3866.68
486.615	3963.62
486.985	3963.17
487.356	4060.57
487.726	4095.82
488.097	4159.1
488.467	4180.79
488.837	4264.63
489.207	4339.43
489.578	4348.93
489.948	4401.58
490.318	4501.46
490.688	4487.68
491.058	4548.69
491.428	4593.89
491.798	4673.44
492.168	4705.3
492.538	4755.69
492.908	4813.09
493.278	4813.77
493.648	4862.58
494.017	4926.31
494.387	4898.74
494.757	5063.26
495.126	5088.79
495.496	5069.36
495.866	5151.39
496.235	5174.89
496.605	5250.6
496.974	5273.87
497.344	5364.94
497.713	5376.24
498.082	5390.71
498.452	5400.42
498.821	5456.24
499.19	5437.94
499.559	5545.96
499.928	5572.4
500.298	5576.24
500.667	5659.63
501.036	5656.46
501.405	5731.94
501.774	5728.55
502.143	5839.73
502.512	5847.64
502.88	5848.09
503.249	5959.05
503.618	5945.04
503.987	5952.95
504.356	6012.84
504.724	6006.28
505.093	6047.86
505.462	6111.82
505.83	6142.32
506.199	6180.97
506.567	6235.2
506.936	6249.44
507.304	6374.86
507.672	6399.94
508.041	6413.5
508.409	6414.41
508.777	6528.98
509.145	6497.12
509.514	6577.79
509.882	6642.88
510.25	6650.56
510.618	6705.02
510.986	6693.04
511.354	6834.28
511.722	6865.7
512.09	6950.89
512.458	6940.95
512.826	6959.7
513.193	7079.7
513.561	7081.96
513.929	7113.15
514.297	7128.29
514.664	7205.35
515.032	7277.21
515.4	7326.02
515.767	7299.58
516.135	7420.48
516.502	7357.89
516.869	7486.7
517.237	7579.57
517.604	7526.92
517.972	7669.06
518.339	7758.78
518.706	7698.67
519.073	7742.28
519.44	7928.27
519.808	7977.08
520.175	7961.71
520.542	8046.46
520.909	8114.7
521.276	8094.82
521.643	8170.75
522.009	8263.62
522.376	8258.2
522.743	8312.66
523.11	8448.25
523.477	8507.69
523.843	8549.27
524.21	8642.6
524.577	8665.42
524.943	8692.31
525.31	8805.76
525.676	8784.97
526.043	8947
526.409	9015.7
526.776	9066.99
527.142	9093.66
527.508	9167.33
527.874	9208.46
528.241	9272.86
528.607	9309.92
528.973	9414.33
529.339	9411.16
529.705	9462.46
530.071	9591.95
530.437	9627.2
530.803	9685.73
531.169	9718.05
531.535	9690.25
531.901	9750.14
532.267	9868.78
532.632	9902.23
532.998	9864.94
533.364	10034.2
533.73	9988.78
534.095	10095.89
534.461	10126.63
534.826	10177.47
535.192	10185.83
535.557	10276.23
535.923	10311.71
536.288	10311.93
536.653	10398.26
537.019	10408.2
537.384	10454.08
537.749	10513.96
538.114	10494.75
538.479	10520.51
538.845	10643.9
539.21	10681.41
539.575	10716.89
539.94	10663.56
540.305	10788.3
540.67	10722.99
541.034	10774.07
541.399	10855.42
541.764	10849.32
542.129	10980.62
542.494	10965.47
542.858	11051.35
543.223	11042.08
543.587	11067.39
543.952	11023.55
544.316	11058.81
544.681	11118.92
545.045	11206.82
545.41	11255.64
545.774	11289.31
546.138	11258.35
546.503	11377.89
546.867	11322.53
547.231	11495.4
547.595	11512.35
547.959	11633.48
548.324	11546.7
548.688	11549.41
549.052	11569.3
549.416	11601.39
549.779	11619.92
550.143	11640.94
550.507	11791.67
550.871	11763.42
551.235	11800.93
551.599	11855.39
551.962	11978.78
552.326	12018.33
552.689	12088.38
553.053	12023.98
553.417	12084.09
553.78	12204.09
554.143	12199.57
554.507	12268.94
554.87	12295.16
555.234	12470.52
555.597	12370.18
555.96	12377.64
556.323	12537.86
556.686	12441.82
557.05	12578.77
557.413	12640.68
557.776	12659.22
558.139	12774.69
558.502	12778.99
558.865	12884.52
559.228	12969.26
559.59	13003.61
559.953	12924.29
560.316	13114.34
560.679	13048.13
561.041	13238.63
561.404	13178.3
561.767	13306.88
562.129	13290.84
562.492	13487.67
562.854	13464.84
563.217	13457.16
563.579	13493.09
563.941	13716.14
564.304	13606.99
564.666	13672.3
565.028	13750.26
565.39	13841.33
565.753	13872.29
566.115	13967.43
566.477	13940.09
566.839	13947.99
567.201	14148.22
567.563	14071.61
567.925	14240.19
568.287	14188.21
568.648	14243.58
569.01	14365.61
569.372	14413.52
569.734	14473.63
570.095	14530.58
570.457	14683.79
570.819	14589.33
571.18	14660.52
571.542	14668.2
571.903	14826.39
572.265	14782.78
572.626	14872.72
572.987	14767.86
573.349	14799.5
573.71	14913.39
574.071	14899.83
574.432	15002.43
574.794	15146.16
575.155	15147.74
575.516	15014.41
575.877	15113.61
576.238	15079.26
576.599	15234.29
576.96	15129.43
577.32	15230.22
577.681	15335.75
578.042	15363.78
578.403	15368.3
578.763	15430.22
579.124	15434.06
579.485	15453.49
579.845	15570.1
580.206	15433.15
580.566	15437.22
580.927	15483.32
581.287	15521.51
581.648	15485.81
582.008	15514.73
582.368	15554.05
582.728	15645.35
583.089	15531.68
583.449	15604.45
583.809	15618.69
584.169	15524.9
584.529	15543.43
584.889	15710.43
585.249	15628.63
585.609	15513.6
585.969	15563.77
586.329	15578.23
586.688	15592.02
587.048	15560.16
587.408	15557.9
587.768	15634.28
588.127	15608.29
588.487	15477.67
588.846	15646.71
589.206	15450.33
589.565	15543.43
589.925	15675.86
590.284	15628.18
590.643	15702.75
591.003	15715.63
591.362	15722.41
591.721	15705.91
592.08	15672.47
592.44	15789.08
592.799	15712.69
593.158	15724.22
593.517	15740.26
593.876	15741.85
594.235	15665.01
594.593	15761.28
594.952	15817.1
595.311	15658.01
595.67	15737.78
596.029	15844.89
596.387	15814.61
596.746	15775.74
597.104	15758.12
597.463	15592.7
597.822	15717.89
598.18	15702.52
598.538	15695.75
598.897	15829.3
599.255	15787.49
599.613	16031.33
599.972	15859.36
600.33	15989.07
600.688	15840.15
601.046	15869.3
601.404	16020.03
601.762	15980.48
602.12	15977.55
602.478	16027.04
602.836	15982.74
603.194	15917.21
603.552	16003.31
603.91	15944.78
604.268	15998.56
604.625	15993.82
604.983	15946.81
605.341	15912.91
605.698	15997.88
606.056	16026.81
606.413	15978.9
606.771	15982.29
607.128	16073.36
607.485	16010.77
607.843	16023.87
608.2	16075.17
608.557	16269.52
608.914	16141.61
609.272	16228.16
609.629	16229.97
609.986	16216.86
610.343	16122.85
610.7	16283.98
611.057	16187.03
611.414	16217.77
611.771	16265.9
612.127	16347.25
612.484	16303.87
612.841	16417.99
613.198	16314.49
613.554	16452.56
613.911	16504.09
614.267	16470.19
614.624	16369.17
614.98	16297.09
615.337	16493.92
615.693	16455.27
616.05	16415.5
616.406	16598.77
616.762	16521.03
617.118	16493.92
617.475	16629.96
617.831	16627.7
618.187	16592.67
618.543	16662.5
618.899	16795.6
619.255	16698.88
619.611	16692.1
619.967	16735.72
620.323	16701.37
620.678	16732.55
621.034	16610.52
621.39	16650.52
621.746	16644.42
622.101	16766.9
622.457	16639.9
622.812	16729.16
623.168	16714.93
623.523	16810.29
623.879	16810.07
624.234	16657.75
624.589	16726.23
624.945	16707.7
625.3	16773.01
625.655	16742.72
626.01	16760.12
626.365	16725.55
626.72	16740.69
627.075	16775.27
627.43	16670.64
627.785	16696.4
628.14	16763.29
628.495	16676.06
628.85	16727.36
629.205	16663.86
629.559	16866.56
629.914	16690.75
630.269	16665.21
630.623	16641.26
630.978	16465.22
631.332	16673.12
631.687	16683.97
632.041	16546.8
632.396	16726.45
632.75	16597.87
633.104	16723.74
633.459	16544.99
633.813	16457.99
634.167	16449.85
634.521	16415.73
634.875	16460.02
635.229	16435.61
635.583	16356.75
635.937	16303.64
636.291	16343.19
636.645	16258.44
636.999	16276.75
637.352	16275.17
637.706	16191.33
638.06	16169.18
638.413	16241.72
638.767	16157.88
639.121	16241.27
639.474	16117.88
639.828	16114.72
640.181	16106.81
640.534	16088.96
640.888	15922.18
641.241	15890.99
641.594	15998.56
641.947	15993.82
642.301	15997.43
642.654	15935.74
643.007	15935.29
643.36	15952.91
643.713	15884.44
644.066	15919.47
644.419	15783.43
644.771	15615.3
645.124	15584.56
645.477	15548.4
645.83	15501.63
646.182	15402.19
646.535	15358.35
646.888	15279.03
647.24	15240.84
647.593	15324.23
647.945	15290.78
648.298	15230
648.65	15221.41
649.002	15120.39
649.355	15246.27
649.707	15089.66
650.059	15222.99
650.411	15505.69
650.763	15445.81
651.115	15585.92
651.467	15538.91
651.819	15465.02
652.171	15366.49
652.523	15533.49
652.875	15365.13
653.227	15379.6
653.578	15479.25
653.93	15387.96
654.282	15372.59
654.633	15330.56
654.985	15299.6
655.337	15382.53
655.688	15357
656.039	15333.04
656.391	15222.99
656.742	15280.62
657.094	15236.77
657.445	15274.51
657.796	15269.32
658.147	15347.51
658.498	15262.08
658.849	15319.48
659.2	15311.12
659.551	15244.23
659.902	15301.63
660.253	15261.63
660.604	15229.54
660.955	15121.52
661.306	15182.09
661.656	15062.99
662.007	15086.04
662.358	15174.86
662.708	15209.88
663.059	15066.38
663.409	15036.78
663.76	15037.01
664.11	15148.19
664.461	15109.32
664.811	15147.74
665.161	15125.59
665.511	15036.55
665.862	15011.7
666.212	15056.21
666.562	15024.8
666.912	14953.62
667.262	15036.33
667.612	15024.58
667.962	15026.38
668.312	14964.01
668.662	15131.69
669.011	15007.63
669.361	14983
669.711	14941.42
670.06	14948.42
670.41	14861.19
670.76	14877.24
671.109	14850.57
671.459	14941.42
671.808	14853.06
672.157	14921.08
672.507	14752.72
672.856	14860.74
673.205	14841.3
673.554	14935.31
673.904	14827.97
674.253	14890.57
674.602	14880.85
674.951	14626.17
675.3	14499.39
675.649	14685.38
675.998	14708.88
676.346	14726.51
676.695	14811.7
677.044	14640.63
677.393	14783.91
677.741	14680.4
678.09	14657.58
678.438	14587.3
678.787	14620.07
679.135	14634.98
679.484	14541.43
679.832	14596.34
680.181	14512.05
680.529	14550.24
680.877	14499.39
681.225	14505.95
681.573	14538.71
681.922	14445.38
682.27	14423.91
682.618	14416.23
682.966	14367.42
683.314	14486.29
683.661	14358.61
684.009	14311.38
684.357	14245.84
684.705	14256.91
685.053	14281.77
685.4	14333.52
685.748	14202.9
686.095	14199.97
686.443	14075.45
686.79	14007.88
687.138	14048.33
687.485	14002.23
687.832	14029.57
688.18	13979.63
688.527	13922.68
688.874	13923.59
689.221	13847.66
689.568	13797.49
689.915	13852.18
690.262	13759.3
690.609	13739.64
690.956	13719.07
691.303	13703.93
691.65	13585.74
691.997	13637.27
692.344	13448.8
692.69	13485.18
693.037	13515.69
693.383	13402.02
693.73	13541.9
694.077	13410.83
694.423	13470.72
694.769	13415.58
695.116	13344.85
695.462	13270.72
695.808	13222.36
696.155	13301.46
696.501	13233.44
696.847	13225.98
697.193	13134.68
697.539	13155.47
697.885	13135.81
698.231	13028.02
698.577	12962.71
698.923	12992.99
699.269	12940.56
699.614	12893.33
699.96	12796.84
700.306	12764.3
700.651	12779.44
700.997	12631.42
701.342	12701.02
701.688	12655.15
702.033	12661.02
702.379	12743.96
702.724	12698.54
703.069	12637.75
703.415	12531.53
703.76	12530.86
704.105	12515.72
704.45	12460.8
704.795	12376.28
705.14	12397.3
705.485	12424.87
705.83	12294.48
706.175	12360.69
706.52	12267.81
706.865	12232.79
707.209	12251.77
707.554	12124.54
707.899	12155.27
708.243	12142.17
708.588	12117.31
708.932	12113.69
709.277	12134.03
709.621	12016.75
709.966	11988.95
710.31	11945.56
710.654	11871.67
710.998	11927.93
711.342	11936.52
711.687	11833.47
712.031	11812.01
712.375	11771.55
712.719	11791.44
713.063	11654.27
713.407	11725.91
713.75	11739.92
714.094	11704.89
714.438	11582.86
714.782	11560.04
715.125	11531.11
715.469	11614.95
715.812	11525.91
716.156	11541.5
716.499	11491.34
716.843	11476.87
717.186	11407.95
717.53	11427.61
717.873	11458.34
718.216	11434.39
718.559	11471
718.902	11400.49
719.246	11397.55
719.589	11283.21
719.932	11265.35
720.275	11268.52
720.617	11217.45
720.96	11207.05
721.303	11119.37
721.646	11207.05
721.989	11153.94
722.331	11127.5
722.674	11092.93
723.016	11056.55
723.359	11126.37
723.701	11098.58
724.044	11101.52
724.386	11033.27
724.729	11059.48
725.071	10935.42
725.413	10956.21
725.755	10953.72
726.097	10869.88
726.439	10876.21
726.782	10855.65
727.124	10871.92
727.465	10735.2
727.807	10865.14
728.149	10903.56
728.491	10794.86
728.833	10790.79
729.175	10700.4
729.516	10731.36
729.858	10783.11
730.199	10673.05
730.541	10741.75
730.882	10744.46
731.224	10701.07
731.565	10621.08
731.906	10669.66
732.248	10599.38
732.589	10622.43
732.93	10599.38
733.271	10534.53
733.612	10564.35
733.953	10595.09
734.294	10483.91
734.635	10490.01
734.976	10548.08
735.317	10456.34
735.658	10498.37
735.999	10494.3
736.339	10390.57
736.68	10470.57
737.021	10357.13
737.361	10320.75
737.702	10367.07
738.042	10356
738.383	10272.16
738.723	10348.77
739.063	10259.73
739.404	10272.16
739.744	10209.11
740.084	10169.34
740.424	10266.28
740.764	10188.55
741.104	10232.39
741.444	10116.23
741.784	10176.12
742.124	10172.73
742.464	10108.77
742.804	10158.04
743.143	10111.71
743.483	10101.99
743.823	10050.24
744.162	10010.92
744.502	10170.02
744.841	10059.28
745.181	10106.06
745.52	10036.69
745.86	10075.1
746.199	10066.97
746.538	9970.47
746.877	9930.25
747.216	9922.11
747.556	9923.92
747.895	9955.56
748.234	9898.84
748.573	9908.33
748.911	9839.85
749.25	9835.11
749.589	9749.01
749.928	9791.72
750.267	9784.71
750.605	9796.92
750.944	9782.91
751.283	9737.94
751.621	9694.77
751.96	9649.35
752.298	9680.31
752.636	9676.47
752.975	9606.64
753.313	9611.61
753.651	9627.2
753.989	9527.77
754.327	9516.02
754.666	9519.64
755.004	9457.49
755.342	9432.18
755.679	9462.69
756.017	9417.94
756.355	9354.44
756.693	9349.02
757.031	9374.1
757.368	9290.04
757.706	9297.27
758.044	9345.4
758.381	9347.89
758.719	9257.5
759.056	9254.56
759.394	9229.47
759.731	9175.69
760.068	9091.17
760.405	9087.11
760.743	9054.34
761.08	9044.39
761.417	9038.75
761.754	9023.38
762.091	9028.58
762.428	9005.75
762.765	8941.57
763.102	9024.06
763.438	8904.51
763.775	8873.1
764.112	8842.14
764.449	8910.16
764.785	8839.88
765.122	8742.26
765.458	8737.28
765.795	8725.31
766.131	8700.45
766.467	8697.74
766.804	8620.9
767.14	8569.83
767.476	8579.1
767.812	8527.8
768.148	8555.59
768.485	8454.35
768.821	8458.65
769.157	8398.76
769.492	8385.43
769.828	8430.17
770.164	8304.53
770.5	8331.65
770.836	8348.82
771.171	8305.66
771.507	8267.24
771.842	8190.41
772.178	8211.2
772.513	8163.97
772.849	8184.08
773.184	8077.41
773.519	8086
773.855	8017.3
774.19	8023.4
774.525	8050.97
774.86	7962.62
775.195	7911.77
775.53	7903.41
775.865	7867.93
776.2	7826.8
776.535	7742.28
776.87	7848.27
777.205	7860.7
777.539	7745.22
777.874	7756.29
778.209	7665.9
778.543	7683.3
778.878	7690.53
779.212	7617.77
779.547	7599.91
779.881	7572.57
780.215	7482.4
780.55	7493.7
780.884	7377.77
781.218	7426.81
781.552	7399.47
781.886	7437.88
782.22	7267.72
782.554	7271.33
782.888	7210.09
783.222	7212.35
783.556	7223.88
783.889	7160.38
784.223	7179.81
784.557	7173.71
784.89	7163.99
785.224	7193.37
785.557	7070.21
785.891	7156.53
786.224	7075.41
786.558	7094.39
786.891	6983.21
787.224	7025.46
787.557	6937.56
787.891	6928.29
788.224	6971.23
788.557	6935.98
788.89	6917.22
789.223	6925.13
789.556	6893.04
789.888	6861.18
790.221	6795.87
790.554	6797
790.887	6745.25
791.219	6702.31
791.552	6677.9
791.884	6612.37
792.217	6589.77
792.549	6642.65
792.882	6603.33
793.214	6549.32
793.546	6609.2
793.879	6558.36
794.211	6515.87
794.543	6523.56
794.875	6526.04
795.207	6533.5
795.539	6480.39
795.871	6434.97
796.203	6407.4
796.535	6402.2
796.867	6355.2
797.198	6326.27
797.53	6341.64
797.862	6225.26
798.193	6256.45
798.525	6227.75
798.856	6270
799.188	6177.58
799.519	6173.06
799.85	6102.1
800.182	6150.46
800.513	6171.93
800.844	6101.65
801.175	6148.88
801.506	6082.21
801.837	6109.1
802.168	6088.77
802.499	6043.34
802.83	6067.52
803.161	6043.12
803.491	6018.03
803.822	6014.87
804.153	5941.88
804.483	5851.94
804.814	5830.92
805.145	5867.76
805.475	5860.98
805.805	5840.41
806.136	5867.98
806.466	5871.82
806.796	5839.51
807.126	5810.36
807.457	5770.81
807.787	5797.7
808.117	5809.23
808.447	5715.89
808.777	5727.19
809.107	5801.32
809.436	5692.17
809.766	5726.97
810.096	5693.07
810.426	5664.14
810.755	5660.53
811.085	5650.36
811.414	5634.77
811.744	5593.86
812.073	5580.08
812.403	5599.06
812.732	5559.29
813.061	5535.79
813.39	5512.51
813.719	5491.04
814.049	5530.36
814.378	5495.79
814.707	5437.48
815.036	5492.62
815.365	5427.09
815.693	5447.88
816.022	5407.43
816.351	5438.84
816.68	5352.06
817.008	5391.84
817.337	5338.05
817.665	5273.65
817.994	5303.02
818.322	5301.89
818.651	5330.59
818.979	5312.29
819.307	5315.91
819.636	5298.05
819.964	5282.91
820.292	5257.38
820.62	5272.06
820.948	5231.61
821.276	5255.12
821.604	5269.58
821.932	5291.95
822.259	5236.36
822.587	5224.38
822.915	5257.83
823.243	5204.27
823.57	5187.32
823.898	5241.56
824.225	5230.03
824.553	5223.93
824.88	5206.53
825.207	5243.59
825.535	5205.85
825.862	5252.4
826.189	5241.78
826.516	5289.47
826.843	5238.85
827.17	5290.82
827.497	5278.84
827.824	5259.86
828.151	5269.35
828.478	5202.69
828.805	5337.15
829.131	5286.53
829.458	5170.37
829.785	5264.16
830.111	5239.98
830.438	5226.64
830.764	5207.66
831.09	5216.7
831.417	5170.6
831.743	5212.18
832.069	5212.41
832.395	5221.67
832.722	5212.18
833.048	5116.14
833.374	5166.53
833.7	5149.81
834.026	5175.12
834.351	5179.86
834.677	5159.07
835.003	5138.73
835.329	5143.71
835.654	5156.81
835.98	5159.3
836.306	5163.82
836.631	5117.49
836.956	5078.17
837.282	5151.62
837.607	5108.45
837.932	5072.97
838.258	5108.45
838.583	5061.67
838.908	5037.27
839.233	5054.22
839.558	5024.16
839.883	5054.9
840.208	5049.47
840.533	5034.1
840.858	5082.01
841.182	5027.55
841.507	5061.9
841.832	5039.3
842.156	4989.13
842.481	4997.5
842.805	4998.4
843.13	4953.43
843.454	4985.97
843.778	4946.42
844.103	4937.61
844.427	4925.18
844.751	4893.09
845.075	4914.11
845.399	4896.93
845.723	4882.92
846.047	4858.29
846.371	4785.07
846.695	4789.59
847.019	4813.09
847.343	4793.43
847.666	4798.18
847.99	4780.55
848.313	4760.44
848.637	4734.68
848.96	4676.83
849.284	4703.27
849.607	4649.26
849.931	4643.38
850.254	4614.23
850.577	4590.05
850.9	4581.69
851.223	4549.15
851.546	4551.63
851.869	4519.77
852.192	4525.19
852.515	4510.5
852.838	4473.44
853.161	4497.85
853.483	4454.46
853.806	4395.7
854.129	4430.73
854.451	4392.54
854.774	4401.35
855.096	4382.82
855.419	4356.16
855.741	4365.42
856.063	4322.03
856.385	4319.77
856.708	4357.96
857.03	4276.16
857.352	4322.71
857.674	4283.39
857.996	4248.36
858.318	4226.44
858.64	4253.56
858.961	4208.36
859.283	4228.7
859.605	4218.31
859.926	4221.24
860.248	4193.68
860.57	4140.12
860.891	4157.74
861.212	4147.12
861.534	4160.91
861.855	4148.48
862.176	4176.27
862.498	4177.4
862.819	4119.1
863.14	4114.13
863.461	4103.28
863.782	4128.14
864.103	4087.01
864.424	4096.5
864.745	4039.33
865.065	4097.41
865.386	4084.07
865.707	4072.32
866.027	4068.48
866.348	4080.01
866.668	4010.4
866.989	4014.24
867.309	3978.54
867.63	4031.65
867.95	4023.74
868.27	3990.06
868.59	3987.35
868.91	3987.13
869.23	4011.53
869.55	3939.67
869.87	4003.62
870.19	4007.01
870.51	4011.31
870.83	3986
871.15	3959.33
871.469	3978.31
871.789	4003.85
872.109	3951.65
872.428	3936.96
872.748	3941.7
873.067	3895.6
873.386	3901.48
873.706	3879.33
874.025	3898.77
874.344	3819
874.663	3915.04
874.982	3865.77
875.301	3869.16
875.62	3862.16
875.939	3841.82
876.258	3887.24
876.577	3816.74
876.896	3841.59
877.214	3793.91
877.533	3842.05
877.852	3814.25
878.17	3824.87
878.489	3853.12
878.807	3808.6
879.125	3816.51
879.444	3775.61
879.762	3753.01
880.08	3786.68
880.398	3722.73
880.716	3803.4
881.034	3778.09
881.352	3755.27
881.67	3774.93
881.988	3762.73
882.306	3741.94
882.624	3734.25
882.941	3727.47
883.259	3709.39
883.577	3697.87
883.894	3728.6
884.212	3728.6
884.529	3715.27
884.846	3702.84
885.164	3658.55
885.481	3677.98
885.798	3689.28
886.115	3642.73
886.432	3632.33
886.75	3564.31
887.067	3578.32
887.383	3571.09
887.7	3573.58
888.017	3536.74
888.334	3545.33
888.651	3589.17
888.967	3585.1
889.284	3534.71
889.6	3553.47
889.917	3503.3
890.233	3540.81
890.55	3517.99
890.866	3537.87
891.182	3506.24
891.498	3482.28
891.815	3506.91
892.131	3490.64
892.447	3476.41
892.763	3501.94
893.079	3473.02
893.395	3450.87
893.71	3412.23
894.026	3463.3
894.342	3439.34
894.657	3412.23
894.973	3386.24
895.289	3349.63
895.604	3419.46
895.92	3407.93
896.235	3350.76
896.55	3337.88
896.865	3305.79
897.181	3328.61
897.496	3319.12
897.811	3296.98
898.126	3303.3
898.441	3277.31
898.756	3219.69
899.071	3252.23
899.386	3247.03
899.7	3224.89
900.015	3238.45
900.33	3203.42
900.644	3219.24
900.959	3244.1
901.273	3186.7
901.588	3222.18
901.902	3187.15
902.216	3185.34
902.531	3181.05
902.845	3165.68
903.159	3165.91
903.473	3120.26
903.787	3134.95
904.101	3099.24
904.415	3129.3
904.729	3110.77
905.042	3101.05
905.356	3028.51
905.67	3087.94
905.984	3013.37
906.297	2990.77
906.611	3036.64
906.924	3006.36
907.237	3025.34
907.551	3015.4
907.864	2995.51
908.177	2979.92
908.491	2974.27
908.804	2970.88
909.117	2934.27
909.43	2932.92
909.743	2912.35
910.056	2871
910.368	2872.58
910.681	2882.3
910.994	2850.89
911.307	2916.65
911.619	2810.66
911.932	2861.51
912.244	2849.76
912.557	2834.16
912.869	2856.54
913.181	2801.62
913.494	2800.27
913.806	2788.51
914.118	2797.55
914.43	2767.5
914.742	2778.8
915.054	2747.39
915.366	2744.9
915.678	2720.27
915.99	2689.76
916.302	2681.4
916.613	2722.08
916.925	2684.79
917.236	2670.55
917.548	2628.52
917.859	2658.8
918.171	2660.61
918.482	2608.63
918.794	2613.15
919.105	2639.14
919.416	2592.59
919.727	2568.63
920.038	2572.93
920.349	2587.62
920.66	2576.54
920.971	2571.34
921.282	2542.19
921.593	2516.43
921.903	2521.63
922.214	2532.02
922.525	2510.1
922.835	2474.85
923.146	2482.53
923.456	2497.22
923.767	2487.28
924.077	2468.3
924.387	2447.51
924.697	2437.79
925.008	2419.03
925.318	2453.83
925.628	2437.56
925.938	2399.82
926.248	2387.62
926.558	2386.26
926.867	2386.26
927.177	2362.54
927.487	2322.09
927.796	2302.2
928.106	2332.48
928.416	2335.42
928.725	2327.74
929.034	2301.75
929.344	2307.85
929.653	2306.27
929.962	2295.87
930.271	2248.87
930.581	2268.75
930.89	2273.27
931.199	2257.23
931.508	2259.71
931.817	2209.77
932.125	2222.43
932.434	2228.08
932.743	2196.44
933.051	2170.68
933.36	2205.48
933.669	2203.44
933.977	2134.52
934.286	2179.04
934.594	2148.76
934.902	2190.11
935.21	2137.23
935.519	2151.24
935.827	2169.1
936.135	2153.28
936.443	2124.12
936.751	2094.07
937.059	2115.54
937.367	2074.18
937.674	2100.85
937.982	2073.96
938.29	2053.84
938.597	2056.78
938.905	2054.3
939.213	2061.98
939.52	2050.91
939.827	2052.26
940.135	2026.73
940.442	2042.77
940.749	2043.9
941.056	1998.48
941.363	1986.5
941.67	1981.53
941.977	1970.91
942.284	1981.3
942.591	1963.23
942.898	1945.6
943.205	1930.91
943.511	1897.01
943.818	1933.4
944.125	1899.95
944.431	1917.8
944.738	1916.45
945.044	1910.57
945.35	1927.97
945.657	1897.69
945.963	1857.24
946.269	1894.3
946.575	1878.71
946.881	1862.66
947.187	1867.18
947.493	1843
947.799	1803.68
948.105	1835.32
948.41	1832.38
948.716	1794.87
949.022	1785.6
949.327	1824.47
949.633	1809.33
949.938	1787.41
950.244	1776.56
950.549	1753.74
950.854	1780.18
951.16	1816.11
951.465	1767.52
951.77	1777.92
952.075	1742.21
952.38	1740.86
952.685	1779.95
952.99	1722.78
953.294	1750.12
953.599	1707.64
953.904	1732.5
954.209	1706.28
954.513	1698.83
954.818	1676.68
955.122	1701.54
955.426	1693.4
955.731	1701.31
956.035	1683.91
956.339	1657.02
956.643	1656.11
956.948	1650.69
957.252	1689.11
957.556	1684.59
957.86	1622.44
958.163	1645.49
958.467	1627.64
958.771	1617.47
959.075	1610.92
959.378	1612.05
959.682	1616.34
959.985	1609.34
960.289	1589.22
960.592	1588.55
960.896	1600.97
961.199	1584.03
961.502	1562.78
961.805	1540.64
962.108	1531.82
962.411	1551.48
962.714	1543.12
963.017	1517.14
963.32	1529.56
963.623	1508.55
963.926	1534.08
964.228	1529.11
964.531	1518.04
964.833	1534.31
965.136	1487.08
965.438	1469
965.741	1483.69
966.043	1476.46
966.345	1495.89
966.648	1466.97
966.95	1457.02
967.252	1445.27
967.554	1443.46
967.856	1409.12
968.158	1432.39
968.46	1424.03
968.761	1410.02
969.063	1441.88
969.365	1419.06
969.666	1433.97
969.968	1417.7
970.269	1423.13
970.571	1416.8
970.872	1417.02
971.174	1379.96
971.475	1373.41
971.776	1379.51
972.077	1386.97
972.378	1401.66
972.679	1372.51
972.98	1353.52
973.281	1338.38
973.582	1359.17
973.883	1339.29
974.183	1352.39
974.484	1346.07
974.785	1347.65
975.085	1308.55
975.386	1333.86
975.686	1329.34
975.986	1303.13
976.287	1299.51
976.587	1286.63
976.887	1289.12
977.187	1318.95
977.487	1272.17
977.787	1316.91
978.087	1278.27
978.387	1276.92
978.687	1292.96
978.987	1266.75
979.286	1276.24
979.586	1257.03
979.885	1251.61
980.185	1242.79
980.484	1248.67
980.784	1208.22
981.083	1238.95
981.382	1223.81
981.682	1240.76
981.981	1225.39
982.28	1205.73
982.579	1201.44
982.878	1188.78
983.177	1219.29
983.475	1203.25
983.774	1219.52
984.073	1174.77
984.372	1184.04
984.67	1168.44
984.969	1176.81
985.267	1172.06
985.566	1164.6
985.864	1178.16
986.162	1181.78
986.461	1171.38
986.759	1161.66
987.057	1169.12
987.355	1153.53
987.653	1145.62
987.951	1130.93
988.249	1136.35
988.547	1102.91
988.844	1109.69
989.142	1127.77
989.44	1106.98
989.737	1104.72
990.035	1096.58
990.332	1108.33
990.63	1119.86
990.927	1090.93
991.224	1083.93
991.521	1080.99
991.819	1092.29
992.116	1085.96
992.413	1064.94
992.71	1064.72
993.006	1051.84
993.303	1080.99
993.6	1067.2
993.897	1071.95
994.193	1076.47
994.49	1070.59
994.787	1052.74
995.083	1005.51
995.379	1064.49
995.676	1026.98
995.972	1034.21
996.268	1027.43
996.565	1025.17
996.861	1017.94
997.157	1043.93
997.453	1011.39
997.749	1013.42
998.044	1024.72
998.34	999.41
998.636	979.3
998.932	991.5
999.227	977.71
999.523	994.66
999.818	968.45
1000.114	946.3
1000.409	966.64
1000.704	951.5
1001	940.43
1001.295	967.09
1001.59	958.28
1001.885	961.67
1002.18	947.88
1002.475	939.07
1002.77	963.25
1003.065	947.88
1003.359	939.75
1003.654	929.58
1003.949	938.62
1004.243	928.45
1004.538	911.95
1004.832	917.38
1005.127	897.49
1005.421	916.02
1005.715	878.28
1006.009	863.37
1006.304	897.72
1006.598	849.13
1006.892	892.29
1007.186	878.96
1007.48	892.74
1007.773	862.01
1008.067	875.57
1008.361	855.68
1008.655	876.7
1008.948	830.6
1009.242	863.59
1009.535	861.56
1009.829	859.07
1010.122	838.74
1010.415	827.44
1010.708	818.62
1011.001	811.84
1011.295	832.63
1011.588	824.27
1011.881	805.97
1012.173	838.74
1012.466	808.45
1012.759	789.47
1013.052	804.84
1013.344	822.69
1013.637	812.07
1013.93	805.74
1014.222	777.49
1014.514	768.23
1014.807	773.43
1015.099	764.61
1015.391	814.33
1015.683	764.61
1015.976	776.82
1016.268	780.21
1016.56	771.62
1016.851	773.2
1017.143	761.45
1017.435	767.78
1017.727	742.92
1018.018	755.57
1018.31	746.31
1018.602	737.49
1018.893	747.21
1019.185	720.32
1019.476	745.86
1019.767	718.96
1020.058	725.52
1020.35	717.83
1020.641	731.39
1020.932	718.74
1021.223	692.3
1021.514	694.11
1021.804	694.78
1022.095	684.16
1022.386	707.89
1022.677	700.43
1022.967	676.93
1023.258	666.31
1023.548	689.13
1023.839	676.48
1024.129	676.25
1024.419	707.89
1024.709	693.65
1025	684.84
1025.29	664.28
1025.58	676.03
1025.87	660.66
1026.16	668.8
1026.449	645.75
1026.739	633.32
1027.029	648.91
1027.319	647.78
1027.608	648.91
1027.898	643.03
1028.187	654.56
1028.477	630.6
1028.766	643.03
1029.055	622.24
1029.344	636.48
1029.634	636.93
1029.923	619.76
1030.212	626.09
1030.501	625.18
1030.79	622.24
1031.078	597.16
1031.367	617.95
1031.656	596.48
1031.945	609.81
1032.233	616.37
1032.522	604.39
1032.81	602.58
1033.099	587.89
1033.387	589.93
1033.675	599.19
1033.963	580.66
1034.251	595.8
1034.54	566.88
1034.828	581.57
1035.116	592.19
1035.403	577.5
1035.691	568.23
1035.979	554.9
1036.267	558.06
1036.554	565.97
1036.842	575.01
1037.129	558.97
1037.417	556.93
1037.704	559.19
1037.992	561
1038.279	553.32
1038.566	530.49
1038.853	530.49
1039.14	530.49
