Data from black_plastic_tray_FLMS001491_040.txt Node
Date: Tue Feb 07 10:39:43 GMT 2017
User: dcchb
Spectrometer: FLMS00149
Trigger mode: 0
Integration Time (sec): 2.000000E-2
Scans to average: 10
Electric dark correction enabled: true
Nonlinearity correction enabled: false
Boxcar width: 0
XAxis mode: Wavelengths
Number of Pixels in Spectrum: 2048
>>>>>Begin Spectral Data<<<<<
341.393	-16.34
341.776	-16.34
342.16	-16.34
342.543	-70.13
342.927	-80.29
343.31	-59.05
343.693	-44.82
344.077	-70.8
344.46	-33.29
344.843	-54.76
345.226	-29.22
345.61	-43.23
345.993	-21.76
346.376	-3.46
346.759	-10.24
347.142	4.45
347.525	48.52
347.908	61.4
348.291	64.11
348.674	94.39
349.057	97.78
349.44	99.14
349.823	139.13
350.206	158.8
350.588	177.55
350.971	199.25
351.354	214.84
351.737	217.55
352.119	241.28
352.502	240.83
352.884	279.24
353.267	271.11
353.65	281.5
354.032	279.24
354.414	291.9
354.797	310.43
355.179	296.42
355.562	307.72
355.944	314.5
356.326	322.86
356.709	320.37
357.091	326.02
357.473	316.08
357.855	327.83
358.238	333.03
358.62	345.68
359.002	318.79
359.384	346.13
359.766	322.63
360.148	339.58
360.53	305.46
360.912	333.71
361.294	314.72
361.676	338
362.057	332.12
362.439	320.82
362.821	319.47
363.203	304.1
363.584	316.76
363.966	319.47
364.348	302.29
364.729	316.53
365.111	332.12
365.493	307.04
365.874	314.05
366.256	330.54
366.637	323.31
367.019	298.45
367.4	320.37
367.781	316.76
368.163	339.81
368.544	277.44
368.925	306.81
369.306	313.82
369.688	306.36
370.069	319.92
370.45	317.89
370.831	316.98
371.212	323.08
371.593	322.63
371.974	324.89
372.355	322.18
372.736	342.97
373.117	318.79
373.498	319.02
373.879	321.95
374.26	326.93
374.641	296.64
375.021	326.7
375.402	347.26
375.783	327.38
376.163	348.17
376.544	338.68
376.925	352.46
377.305	333.03
377.686	336.42
378.066	356.98
378.447	352.46
378.827	352.91
379.208	349.52
379.588	340.26
379.968	333.25
380.349	354.5
380.729	333.03
381.109	372.8
381.489	356.76
381.87	360.15
382.25	345.01
382.63	367.38
383.01	357.21
383.39	373.03
383.77	355.63
384.15	373.25
384.53	358.56
384.91	382.29
385.29	381.61
385.67	379.35
386.049	385.91
386.429	399.92
386.809	385
387.189	363.08
387.568	381.61
387.948	386.81
388.328	402.4
388.707	382.74
389.087	381.84
389.466	396.53
389.846	400.82
390.225	406.25
390.605	398.34
390.984	403.76
391.363	403.31
391.743	427.94
392.122	421.16
392.501	424.1
392.881	411.67
393.26	435.17
393.639	427.26
394.018	431.1
394.397	439.24
394.776	420.03
395.155	458
395.534	451.67
395.913	434.95
396.292	436.53
396.671	452.8
397.05	436.75
397.429	468.17
397.808	457.77
398.186	463.19
398.565	464.55
398.944	460.48
399.323	456.19
399.701	475.17
400.08	449.41
400.458	478.79
400.837	495.28
401.215	477.2
401.594	490.76
401.972	478.11
402.351	475.85
402.729	482.18
403.107	495.28
403.486	521.27
403.864	505.9
404.242	507.94
404.62	507.26
404.999	542.06
405.377	517.88
405.755	536.41
406.133	540.03
406.511	521.72
406.889	534.15
407.267	554.49
407.645	556.52
408.023	544.77
408.401	557.88
408.779	573.93
409.156	594.49
409.534	585
409.912	577.77
410.29	587.48
410.667	599.69
411.045	582.96
411.422	596.52
411.8	619.8
412.178	614.83
412.555	632.68
412.933	615.51
413.31	642.62
413.687	625.9
414.065	629.29
414.442	659.57
414.819	647.37
415.197	647.14
415.574	653.02
415.951	647.14
416.328	659.57
416.705	679.01
417.082	675.84
417.46	678.78
417.837	679.23
418.214	684.43
418.591	695.28
418.967	688.95
419.344	707.03
419.721	722.17
420.098	735.05
420.475	756.75
420.852	727.59
421.228	729.18
421.605	735.05
421.982	770.53
422.358	731.89
422.735	786.58
423.111	777.08
423.488	802.85
423.864	779.34
424.241	781.15
424.617	800.59
424.994	805.56
425.37	804.2
425.746	800.13
426.123	834.03
426.499	826.57
426.875	822.28
427.251	827.7
427.627	850.98
428.003	883.75
428.379	889.85
428.756	880.81
429.132	875.84
429.507	932.33
429.883	884.88
430.259	928.27
430.635	935.5
431.011	916.06
431.387	954.25
431.763	959.9
432.138	982.95
432.514	981.15
432.89	993.35
433.265	1034.93
433.641	1010.98
434.016	1001.48
434.392	1056.62
434.767	1036.06
435.143	1059.34
435.518	1066.12
435.894	1064.31
436.269	1108.6
436.644	1079
437.02	1112.22
437.395	1105.21
437.77	1116.74
438.145	1113.57
438.52	1156.96
438.895	1145.66
439.271	1136.17
439.646	1177.07
440.021	1180.92
440.395	1173.23
440.77	1177.07
441.145	1188.15
441.52	1217.98
441.895	1222.04
442.27	1225.66
442.645	1238.77
443.019	1260.24
443.394	1229.73
443.769	1246.9
444.143	1266.11
444.518	1259.56
444.892	1279.67
445.267	1278.09
445.641	1273.79
446.016	1295.04
446.39	1321.02
446.764	1337.52
447.139	1338.65
447.513	1345.43
447.887	1325.32
448.262	1336.84
448.636	1353.11
449.01	1391.98
449.384	1376.16
449.758	1379.78
450.132	1370.51
450.506	1392.89
450.88	1440.8
451.254	1436.95
451.628	1443.51
452.002	1469.72
452.376	1452.55
452.75	1475.14
453.123	1500.68
453.497	1492.09
453.871	1502.94
454.244	1558.31
454.618	1545.2
454.992	1558.76
455.365	1579.32
455.739	1628.36
456.112	1652.32
456.486	1653.22
456.859	1644.18
457.232	1687.79
457.606	1647.8
457.979	1723.73
458.352	1765.98
458.725	1749.49
459.099	1778.87
459.472	1776.15
459.845	1815.93
460.218	1811.86
460.591	1870.84
460.964	1831.29
461.337	1881.69
461.71	1919.65
462.083	1930.95
462.456	1957.62
462.829	1992.42
463.201	1984.74
463.574	2004.17
463.947	2000.78
464.32	2042.36
464.692	2075.58
465.065	2084.85
465.438	2124.39
465.81	2154.45
466.183	2153.09
466.555	2205.97
466.928	2202.36
467.3	2248.91
467.672	2268.12
468.045	2294.56
468.417	2332.07
468.789	2338.62
469.161	2386.31
469.534	2401.45
469.906	2462.69
470.278	2491.39
470.65	2506.98
471.022	2592.86
471.394	2580.65
471.766	2584.27
472.138	2584.04
472.51	2707.88
472.882	2711.27
473.253	2749.69
473.625	2782
473.997	2819.52
474.369	2861.78
474.74	2874.66
475.112	2939.51
475.484	2995.56
475.855	3060.41
476.227	3051.6
476.598	3099.06
476.97	3167.76
477.341	3248.66
477.713	3268.32
478.084	3265.61
478.455	3362.78
478.827	3353.74
479.198	3488.65
479.569	3511.93
479.94	3588.99
480.311	3591.47
480.682	3699.04
481.053	3748.53
481.424	3843.22
481.795	3813.61
482.166	3905.59
482.537	3952.82
482.908	4034.63
483.279	4052.03
483.65	4153.94
484.021	4194.62
484.391	4238.91
484.762	4285.47
485.133	4311
485.503	4372.7
485.874	4541.5
486.244	4543.31
486.615	4598.9
486.985	4643.88
487.356	4767.94
487.726	4777.2
488.097	4845.23
488.467	4903.98
488.837	5004.09
489.207	4997.31
489.578	5108.95
489.948	5174.26
490.318	5259.23
490.688	5268.27
491.058	5320.47
491.428	5381.93
491.798	5441.14
492.168	5602.04
492.538	5537.18
492.908	5630.52
493.278	5744.19
493.648	5771.08
494.017	5751.42
494.387	5816.27
494.757	5916.84
495.126	5973.78
495.496	5989.38
495.866	6012.65
496.235	6110.73
496.605	6162.03
496.974	6168.81
497.344	6178.07
497.713	6272.08
498.082	6254.45
498.452	6346.66
498.821	6428.46
499.19	6405.41
499.559	6526.09
499.928	6529.25
500.298	6558.85
500.667	6708.68
501.036	6641.11
501.405	6746.19
501.774	6746.64
502.143	6773.31
502.512	6802.69
502.88	6888.11
503.249	6900.99
503.618	6963.81
503.987	7029.8
504.356	7077.71
504.724	7076.81
505.093	7089.69
505.462	7167.65
505.83	7187.76
506.199	7275.44
506.567	7419.4
506.936	7409.9
507.304	7459.62
507.672	7489
508.041	7494.42
508.409	7556.11
508.777	7627.75
509.145	7644.25
509.514	7731.48
509.882	7750.23
510.25	7796.11
510.618	7807.63
510.986	7894.41
511.354	7955.65
511.722	8072.71
512.09	8110.22
512.458	8074.75
512.826	8218.02
513.193	8233.61
513.561	8265.47
513.929	8315.87
514.297	8346.38
514.664	8407.84
515.032	8495.3
515.4	8591.12
515.767	8606.26
516.135	8623.43
516.502	8645.8
516.869	8740.94
517.237	8853.71
517.604	8857.55
517.972	8924.89
518.339	9044.21
518.706	9040.37
519.073	9099.8
519.44	9203.76
519.808	9262.28
520.175	9252.79
520.542	9359.46
520.909	9491.43
521.276	9507.93
521.643	9581.15
522.009	9649.17
522.376	9748.6
522.743	9771.88
523.11	9850.07
523.477	9995.37
523.843	10001.93
524.21	10108.36
524.577	10211.64
524.943	10220.23
525.31	10234.91
525.676	10456.38
526.043	10477.85
526.409	10537.73
526.776	10617.73
527.142	10659.54
527.508	10715.58
527.874	10837.16
528.241	10864.5
528.607	10929.59
528.973	11077.15
529.339	11019.98
529.705	11139.75
530.071	11230.82
530.437	11233.31
530.803	11358.27
531.169	11415.45
531.535	11475.33
531.901	11406.18
532.267	11530.25
532.632	11647.31
532.998	11616.35
533.364	11755.1
533.73	11781.99
534.095	11845.95
534.461	11947.64
534.826	12022.66
535.192	11993.29
535.557	12031.48
535.923	12099.72
536.288	12197.35
536.653	12232.6
537.019	12233.28
537.384	12239.16
537.749	12313.73
538.114	12381.52
538.479	12438.02
538.845	12520.05
539.21	12468.98
539.575	12567.51
539.94	12621.52
540.305	12640.95
540.67	12592.37
541.034	12676.66
541.399	12764.57
541.764	12895.41
542.129	12802.76
542.494	12890.89
542.858	12916.43
543.223	13006.59
543.587	13001.85
543.952	12914.62
544.316	13033.48
544.681	13076.65
545.045	13110.77
545.41	13190.77
545.774	13129.3
546.138	13211.33
546.503	13327.49
546.867	13348.96
547.231	13430.76
547.595	13548.27
547.959	13527.48
548.324	13542.85
548.688	13543.08
549.052	13620.36
549.416	13598.89
549.779	13678.89
550.143	13734.71
550.507	13844.31
550.871	13905.33
551.235	13882.05
551.599	13870.53
551.962	14015.38
552.326	14035.94
552.689	14176.51
553.053	14059.67
553.417	14146.9
553.78	14336.5
554.143	14394.35
554.507	14341.47
554.87	14374.24
555.234	14574.69
555.597	14529.04
555.96	14575.82
556.323	14660.33
556.686	14611.75
557.05	14751.41
557.413	14757.96
557.776	14823.72
558.139	14932.42
558.502	15080.66
558.865	15139.42
559.228	15164.28
559.59	15285.4
559.953	15263.93
560.316	15459.64
560.679	15415.57
561.041	15501.89
561.404	15524.27
561.767	15622.12
562.129	15532.4
562.492	15772.85
562.854	15796.8
563.217	15827.31
563.579	15820.53
563.941	16093.97
564.304	15972.62
564.666	16120.18
565.028	16105.49
565.39	16246.28
565.753	16254.42
566.115	16333.74
566.477	16392.72
566.839	16524.47
567.201	16580.74
567.563	16606.05
567.925	16687.17
568.287	16696.67
568.648	16675.65
569.01	16810.56
569.372	16873.61
569.734	16906.6
570.095	17066.83
570.457	17192.7
570.819	17166.71
571.18	17098.46
571.542	17367.38
571.903	17290.55
572.265	17336.65
572.626	17400.6
572.987	17386.82
573.349	17487.15
573.71	17537.1
574.071	17527.6
574.432	17657.32
574.794	17820.7
575.155	17724.89
575.516	17729.18
575.877	17802.4
576.238	17796.75
576.599	17831.78
576.96	17963.3
577.32	17882.17
577.681	17959.68
578.042	18091.21
578.403	18127.36
578.763	18160.13
579.124	18196.51
579.485	18209.85
579.845	18255.72
580.206	18133.24
580.566	18083.75
580.927	18129.62
581.287	18101.15
581.648	18106.12
582.008	18231.99
582.368	18242.84
582.728	18279.9
583.089	18172.78
583.449	18285.1
583.809	18354.48
584.169	18296.85
584.529	18195.16
584.889	18415.72
585.249	18282.84
585.609	18235.38
585.969	18361.93
586.329	18253.23
586.688	18373.46
587.048	18221.37
587.408	18257.3
587.768	18370.29
588.127	18221.37
588.487	18368.26
588.846	18384.98
589.206	18234.48
589.565	18167.81
589.925	18296.17
590.284	18262.73
590.643	18253.69
591.003	18368.26
591.362	18394.7
591.721	18286.45
592.08	18298.88
592.44	18384.53
592.799	18374.81
593.158	18342.95
593.517	18341.14
593.876	18434.25
594.235	18399.67
594.593	18499.56
594.952	18431.08
595.311	18370.07
595.67	18543.17
596.029	18474.02
596.387	18562.83
596.746	18507.69
597.104	18505.66
597.463	18412.78
597.822	18467.47
598.18	18433.12
598.538	18466.34
598.897	18539.78
599.255	18359.67
599.613	18758.53
599.972	18570.51
600.33	18547.92
600.688	18586.79
601.046	18621.59
601.404	18718.53
601.762	18591.3
602.12	18773
602.478	18721.92
602.836	18797.63
603.194	18647.8
603.552	18746.78
603.91	18638.54
604.268	18762.6
604.625	18724.63
604.983	18691.87
605.341	18659.33
605.698	18679.66
606.056	18768.48
606.413	18646.44
606.771	18752.88
607.128	18786.1
607.485	18736.39
607.843	18789.04
608.2	18824.52
608.557	18981.58
608.914	18886.21
609.272	18939.32
609.629	18990.16
609.986	19051.63
610.343	18927.12
610.7	19102.48
611.057	19109.94
611.414	19099.99
611.771	19142.02
612.127	19150.61
612.484	19175.02
612.841	19211.18
613.198	19183.38
613.554	19206.43
613.911	19286.88
614.267	19271.51
614.624	19325.07
614.98	19152.42
615.337	19405.52
615.693	19332.3
616.05	19236.03
616.406	19358.74
616.762	19360.78
617.118	19283.94
617.475	19449.36
617.831	19380.66
618.187	19422.24
618.543	19483.03
618.899	19628.34
619.255	19455.01
619.611	19502.02
619.967	19573.2
620.323	19667.21
620.678	19538.4
621.034	19497.5
621.39	19485.29
621.746	19535.46
622.101	19813.65
622.457	19559.87
622.812	19592.86
623.168	19680.09
623.523	19640.54
623.879	19620.2
624.234	19519.64
624.589	19602.13
624.945	19639.64
625.3	19690.49
625.655	19575.46
626.01	19622.01
626.365	19705.4
626.72	19566.42
627.075	19640.32
627.43	19521.22
627.785	19556.93
628.14	19544.5
628.495	19724.83
628.85	19467.21
629.205	19353.77
629.559	19614.1
629.914	19506.08
630.269	19543.82
630.623	19374.34
630.978	19442.81
631.332	19557.61
631.687	19589.24
632.041	19405.97
632.396	19519.42
632.75	19387.89
633.104	19426.31
633.459	19371.17
633.813	19277.16
634.167	19313.77
634.521	19406.42
634.875	19343.38
635.229	19276.03
635.583	19185.87
635.937	19116.26
636.291	19196.03
636.645	19073.1
636.999	18987
637.352	19093.66
637.706	18964.4
638.06	19074.91
638.413	18967.34
638.767	18965.31
639.121	18956.04
639.474	18862.94
639.828	18788.81
640.181	18925.76
640.534	18858.42
640.888	18793.56
641.241	18728.02
641.594	18707.69
641.947	18803.95
642.301	18677.4
642.654	18619.33
643.007	18609.84
643.36	18619.55
643.713	18569.16
644.066	18621.36
644.419	18568.25
644.771	18460.01
645.124	18353.12
645.477	18232.9
645.83	18067.93
646.182	18016.4
646.535	17815.05
646.888	17948.38
647.24	17817.31
647.593	17926.01
647.945	17856.18
648.298	17818.67
648.65	17787.26
649.002	17700.03
649.355	17746.13
649.707	17698.9
650.059	17791.55
650.411	18148.38
650.763	18138.89
651.115	18184.76
651.467	18210.52
651.819	18251.88
652.171	18050.75
652.523	18046.69
652.875	18012.34
653.227	17945.67
653.578	18200.35
653.93	18021.6
654.282	17991.09
654.633	17926.46
654.985	17965.78
655.337	17965.33
655.688	17928.05
656.039	17940.25
656.391	17733.7
656.742	17840.59
657.094	17779.12
657.445	17829.29
657.796	17829.74
658.147	17840.36
658.498	17849.18
658.849	17872.45
659.2	17837.43
659.551	17843.98
659.902	17906.58
660.253	17916.07
660.604	17867.03
660.955	17713.59
661.306	17787.03
661.656	17747.49
662.007	17649.86
662.358	17721.05
662.708	17683.31
663.059	17655.96
663.409	17622.74
663.76	17672.46
664.11	17731.67
664.461	17724.44
664.811	17647.6
665.161	17746.58
665.511	17557.89
665.862	17504.78
666.212	17597.66
666.562	17592.46
666.912	17486.7
667.262	17453.71
667.612	17514.72
667.962	17502.29
668.312	17447.61
668.662	17537.55
669.011	17463.65
669.361	17370.55
669.711	17428.17
670.06	17385.69
670.41	17342.75
670.76	17315.86
671.109	17378.23
671.459	17245.13
671.808	17310.89
672.157	17301.62
672.507	17214.39
672.856	17151.57
673.205	17230.44
673.554	17208.97
673.904	17201.06
674.253	17280.6
674.602	17194.51
674.951	16991.8
675.3	16832.03
675.649	17167.61
675.998	17126.94
676.346	17262.07
676.695	17277.89
677.044	17174.39
677.393	17177.78
677.741	17165.35
678.09	16965.58
678.438	16934.85
678.787	17030.22
679.135	17061.18
679.484	17005.58
679.832	17081.74
680.181	16938.24
680.529	16996.77
680.877	17014.4
681.225	16899.82
681.573	16983.21
681.922	16820.73
682.27	16697.34
682.618	16775.53
682.966	16721.98
683.314	16834.97
683.661	16705.48
684.009	16693.5
684.357	16570.79
684.705	16545.48
685.053	16569.66
685.4	16555.43
685.748	16524.24
686.095	16579.61
686.443	16347.52
686.79	16256
687.138	16340.97
687.485	16318.14
687.832	16324.47
688.18	16333.29
688.527	16175.32
688.874	16164.02
689.221	16095.78
689.568	16126.74
689.915	16067.3
690.262	16059.39
690.609	16099.62
690.956	15945.5
691.303	15870.25
691.65	15867.99
691.997	15800.87
692.344	15697.14
692.69	15805.16
693.037	15787.54
693.383	15655.56
693.73	15750.93
694.077	15639.29
694.423	15644.94
694.769	15595
695.116	15530.37
695.462	15533.76
695.808	15415.57
696.155	15509.58
696.501	15279.08
696.847	15384.16
697.193	15206.54
697.539	15170.15
697.885	15151.4
698.231	15123.6
698.577	15073.66
698.923	15048.8
699.269	15002.25
699.614	14904.85
699.96	14916.15
700.306	14990.27
700.651	14733.78
700.997	14783.27
701.342	14728.13
701.688	14659.43
702.033	14759.09
702.379	14689.71
702.724	14612.43
703.069	14713.67
703.415	14486.33
703.76	14560
704.105	14557.51
704.45	14554.35
704.795	14468.93
705.14	14349.38
705.485	14435.71
705.83	14228.48
706.175	14275.03
706.52	14264.41
706.865	14173.79
707.209	14157.98
707.554	14216.28
707.899	14194.13
708.243	14139.9
708.588	14081.82
708.932	13971.09
709.277	13956.4
709.621	14010.18
709.966	13849.51
710.31	13831.88
710.654	13806.35
710.998	13818.78
711.342	13843.63
711.687	13759.34
712.031	13584.43
712.375	13685.22
712.719	13647.71
713.063	13531.1
713.407	13650.64
713.75	13556.41
714.094	13453.59
714.438	13473.93
714.782	13484.77
715.125	13341.27
715.469	13383.08
715.812	13299.47
716.156	13333.59
716.499	13218.79
716.843	13235.29
717.186	13192.12
717.53	13239.81
717.873	13248.62
718.216	13267.38
718.559	13145.8
718.902	13048.63
719.246	13189.64
719.589	13145.57
719.932	13056.08
720.275	13055.41
720.617	13036.42
720.96	12907.39
721.303	13046.82
721.646	12967.05
721.989	12850.21
722.331	12958.46
722.674	12826.48
723.016	12888.63
723.359	12915.75
723.701	12845.69
724.044	12815.64
724.386	12803.21
724.729	12785.58
725.071	12732.02
725.413	12669.2
725.755	12610.45
726.097	12591.69
726.439	12595.98
726.782	12598.02
727.124	12646.6
727.465	12513.72
727.807	12484.12
728.149	12487.96
728.491	12543.33
728.833	12515.76
729.175	12378.13
729.516	12399.38
729.858	12445.93
730.199	12413.16
730.541	12433.5
730.882	12298.59
731.224	12353.73
731.565	12389.43
731.906	12221.98
732.248	12271.25
732.589	12250.45
732.93	12264.69
733.271	12211.81
733.612	12229.89
733.953	12162.77
734.294	12134.07
734.635	12115.99
734.976	12171.36
735.317	12151.47
735.658	12146.5
735.999	12074.41
736.339	12031.25
736.68	12074.64
737.021	12031.48
737.361	11933.85
737.702	12018.37
738.042	11952.38
738.383	11987.41
738.723	12007.98
739.063	11945.6
739.404	11871.93
739.744	11811.82
740.084	11782.44
740.424	11804.59
740.764	11686.63
741.104	11771.15
741.444	11737.25
741.784	11700.86
742.124	11791.71
742.464	11701.77
742.804	11604.82
743.143	11596.69
743.483	11661.77
743.823	11628.55
744.162	11609.12
744.502	11765.04
744.841	11531.6
745.181	11671.26
745.52	11615.44
745.86	11594.43
746.199	11576.57
746.538	11591.94
746.877	11458.84
747.216	11365.05
747.556	11353.76
747.895	11374.09
748.234	11363.7
748.573	11364.6
748.911	11359.63
749.25	11337.26
749.589	11275.79
749.928	11319.63
750.267	11288.45
750.605	11227.43
750.944	11250.93
751.283	11156.47
751.621	11151.5
751.96	11167.77
752.298	11161.44
752.636	11115.8
752.975	11025.63
753.313	11033.31
753.651	11092.75
753.989	10917.61
754.327	11016.14
754.666	10912.18
755.004	10928.91
755.342	10967.55
755.679	10798.74
756.017	10807.33
756.355	10754.9
756.693	10762.81
757.031	10730.72
757.368	10685.07
757.706	10676.71
758.044	10693.43
758.381	10714.68
758.719	10668.12
759.056	10598.07
759.394	10648.24
759.731	10481.01
760.068	10542.93
760.405	10468.58
760.743	10349.26
761.08	10431.75
761.417	10322.82
761.754	10381.58
762.091	10354.69
762.428	10307.45
762.765	10218.19
763.102	10318.75
763.438	10169.61
763.775	10158.08
764.112	10116.05
764.449	10172.09
764.785	10179.32
765.122	10086.67
765.458	10021.59
765.795	10045.99
766.131	10003.73
766.467	9951.76
766.804	9906.11
767.14	9822.95
767.476	9837.41
767.812	9749.5
768.148	9841.7
768.485	9723.06
768.821	9657.3
769.157	9685.78
769.492	9631.09
769.828	9604.65
770.164	9492.79
770.5	9531.2
770.836	9573.91
771.171	9548.15
771.507	9410.08
771.842	9402.85
772.178	9481.71
772.513	9344.77
772.849	9299.12
773.184	9248.5
773.519	9274.04
773.855	9165.11
774.19	9176.41
774.525	9115.17
774.86	9194.72
775.195	9116.3
775.53	9044.44
775.865	9081.27
776.2	8980.94
776.535	8902.29
776.87	8950.43
777.205	8865.46
777.539	8817.32
777.874	8938.45
778.209	8822.75
778.543	8803.54
778.878	8686.71
779.212	8722.64
779.547	8653.71
779.881	8705.46
780.215	8599.7
780.55	8562.42
780.884	8535.52
781.218	8526.94
781.552	8542.3
781.886	8414.85
782.22	8406.26
782.554	8364
782.888	8342.08
783.222	8313.84
783.556	8210.11
783.889	8177.12
784.223	8137.79
784.557	8203.33
784.89	8166.04
785.224	8118.81
785.557	8074.07
785.891	8087.63
786.224	8036.33
786.558	8020.28
786.891	8007.18
787.224	7989.55
787.557	7941.42
787.891	7903
788.224	7946.39
788.557	7901.64
788.89	7871.13
789.223	7930.12
789.556	7858.25
789.888	7846.73
790.221	7798.14
790.554	7769.89
790.887	7663.68
791.219	7667.52
791.552	7678.15
791.884	7599.73
792.217	7565.61
792.549	7463.69
792.882	7457.36
793.214	7424.14
793.546	7471.15
793.879	7442.9
794.211	7472.73
794.543	7353.63
794.875	7397.02
795.207	7350.02
795.539	7333.75
795.871	7294.65
796.203	7282.68
796.535	7198.84
796.867	7234.54
797.198	7197.03
797.53	7170.81
797.862	7107.31
798.193	7102.12
798.525	7083.13
798.856	7117.48
799.188	7030.48
799.519	6955.45
799.85	6999.29
800.182	7011.27
800.513	6964.27
800.844	6923.82
801.175	6935.34
801.506	6979.86
801.837	6911.84
802.168	6904.38
802.499	6917.49
802.83	6811.5
803.161	6801.33
803.491	6741.9
803.822	6752.52
804.153	6739.19
804.483	6695.57
804.814	6611.73
805.145	6693.76
805.475	6708
805.805	6642.92
806.136	6592.07
806.466	6646.31
806.796	6617.38
807.126	6597.04
807.457	6556.82
807.787	6608.8
808.117	6545.75
808.447	6576.03
808.777	6521.11
809.107	6514.33
809.436	6478.18
809.766	6433.66
810.096	6471.17
810.426	6388.01
810.755	6371.51
811.085	6401.34
811.414	6398.63
811.744	6341.68
812.073	6340.78
812.403	6312.76
812.732	6220.1
813.061	6229.37
813.39	6229.37
813.719	6199.77
814.049	6244.96
814.378	6173.33
814.707	6162.03
815.036	6230.27
815.365	6183.04
815.693	6119.32
816.022	6140.33
816.351	6083.16
816.68	6056.95
817.008	6075.48
817.337	6066.44
817.665	5984.63
817.994	6018.08
818.322	6028.92
818.651	6051.97
818.979	6000.68
819.307	6063.05
819.636	5944.18
819.964	5940.56
820.292	5965.65
820.62	5952.99
820.948	5894.92
821.276	5948.47
821.604	5935.59
821.932	5973.33
822.259	5965.65
822.587	5965.2
822.915	5929.94
823.243	5934.24
823.57	5929.27
823.898	5937.4
824.225	5940.79
824.553	5904.41
824.88	5953.22
825.207	5942.37
825.535	5948.25
825.862	5992.99
826.189	5890.17
826.516	5912.32
826.843	5962.94
827.17	5944.18
827.497	5969.72
827.824	5951.64
828.151	5965.42
828.478	5978.08
828.805	5963.39
829.131	5876.61
829.458	5959.09
829.785	5920
830.111	5942.82
830.438	5879.77
830.764	5929.49
831.09	5883.84
831.417	5881.13
831.743	5905.76
832.069	5883.16
832.395	5918.64
832.722	5880.45
833.048	5892.2
833.374	5863.05
833.7	5881.13
834.026	5900.57
834.351	5868.02
834.677	5807.23
835.003	5850.62
835.329	5845.2
835.654	5878.42
835.98	5800.45
836.306	5755.94
836.631	5798.2
836.956	5809.49
837.282	5838.65
837.607	5762.72
837.932	5743.06
838.258	5746.9
838.583	5713.68
838.908	5723.85
839.233	5708.03
839.558	5726.78
839.883	5679.33
840.208	5648.14
840.533	5690.63
840.858	5690.85
841.182	5702.15
841.507	5651.31
841.832	5644.3
842.156	5592.78
842.481	5632.1
842.805	5598.2
843.13	5602.95
843.454	5604.98
843.778	5559.33
844.103	5537.86
844.427	5577.18
844.751	5579.22
845.075	5472.78
845.399	5426.68
845.723	5504.19
846.047	5448.15
846.371	5438.88
846.695	5439.79
847.019	5463.97
847.343	5445.44
847.666	5425.32
847.99	5345.1
848.313	5299.9
848.637	5297.42
848.96	5295.16
849.284	5315.04
849.607	5211.77
849.931	5251.32
850.254	5210.41
850.577	5151.43
850.9	5102.17
851.223	5126.57
851.546	5116.86
851.869	5085.9
852.192	5099
852.515	5035.73
852.838	5027.14
853.161	5073.47
853.483	5018.55
853.806	4948.73
854.129	4980.14
854.451	4983.98
854.774	4920.93
855.096	4934.49
855.419	4919.12
855.741	4874.38
856.063	4896.3
856.385	4955.05
856.708	4856.98
857.03	4863.53
857.352	4852.01
857.674	4805.45
857.996	4806.58
858.318	4775.17
858.64	4754.38
858.961	4797.09
859.283	4760.93
859.605	4739.92
859.926	4761.84
860.248	4769.75
860.57	4719.81
860.891	4670.77
861.212	4687.04
861.534	4658.11
861.855	4657.66
862.176	4702.63
862.498	4658.11
862.819	4680.94
863.14	4612.92
863.461	4654.04
863.782	4607.04
864.103	4584.44
864.424	4595.97
864.745	4615.85
865.065	4570.2
865.386	4606.81
865.707	4638
866.027	4604.1
866.348	4582.18
866.668	4560.26
866.989	4537.66
867.309	4504.9
867.63	4513.93
867.95	4512.58
868.27	4507.38
868.59	4554.16
868.91	4530.43
869.23	4492.69
869.55	4494.73
869.87	4538.34
870.19	4471.9
870.51	4500.6
870.83	4484.11
871.15	4480.72
871.469	4437.55
871.789	4484.11
872.109	4433.49
872.428	4453.15
872.748	4398.46
873.067	4431.9
873.386	4383.77
873.706	4406.59
874.025	4365.01
874.344	4342.41
874.663	4380.15
874.982	4311.91
875.301	4355.3
875.62	4317.1
875.939	4329.53
876.258	4371.57
876.577	4350.78
876.896	4318.69
877.214	4289.08
877.533	4323.88
877.852	4321.17
878.17	4312.36
878.489	4292.92
878.807	4346.48
879.125	4301.51
879.444	4315.07
879.762	4247.73
880.08	4273.04
880.398	4237.33
880.716	4278.23
881.034	4186.49
881.352	4284.79
881.67	4208.41
881.988	4229.65
882.306	4213.83
882.624	4211.57
882.941	4172.48
883.259	4151.68
883.577	4175.86
883.894	4198.69
884.212	4193.94
884.529	4142.87
884.846	4193.49
885.164	4100.84
885.481	4104.45
885.798	4135.41
886.115	4099.26
886.432	4071.69
886.75	4083.66
887.067	4043.21
887.383	4036.89
887.7	4000.95
888.017	3966.15
888.334	4010.22
888.651	3979.26
888.967	4018.13
889.284	3968.19
889.6	3941.07
889.917	3930.9
890.233	4005.47
890.55	3951.01
890.866	3941.52
891.182	3892.48
891.498	3917.11
891.815	3936.78
892.131	3915.76
892.447	3935.65
892.763	3895.65
893.079	3870.34
893.395	3859.49
893.71	3857.23
894.026	3864.23
894.342	3831.69
894.657	3844.35
894.973	3793.95
895.289	3788.3
895.604	3805.03
895.92	3765.25
896.235	3733.62
896.55	3722.09
896.865	3746.27
897.181	3769.1
897.496	3779.27
897.811	3709.44
898.126	3705.14
898.441	3601.19
898.756	3625.37
899.071	3652.49
899.386	3659.95
899.7	3608.87
900.015	3612.26
900.33	3617.69
900.644	3608.87
900.959	3606.84
901.273	3577.01
901.588	3589.67
901.902	3569.33
902.216	3564.58
902.531	3578.59
902.845	3572.94
903.159	3494.07
903.473	3525.03
903.787	3478.71
904.101	3462.21
904.415	3459.95
904.729	3443.68
905.042	3423.34
905.356	3458.82
905.67	3376.56
905.984	3429.22
906.297	3393.29
906.611	3379.95
906.924	3414.08
907.237	3369.11
907.551	3355.77
907.864	3340.41
908.177	3336.34
908.491	3329.79
908.804	3303.8
909.117	3282.33
909.43	3313.51
909.743	3257.24
910.056	3280.3
910.368	3251.14
910.681	3228.09
910.994	3211.37
911.307	3216.57
911.619	3218.15
911.932	3184.03
912.244	3179.73
912.557	3213.63
912.869	3145.16
913.181	3156
913.494	3111.94
913.806	3139.06
914.118	3111.94
914.43	3083.01
914.742	3056.57
915.054	3058.15
915.366	3003.01
915.678	3043.92
915.99	3024.26
916.302	2999.17
916.613	2973.41
916.925	2981.77
917.236	3006.4
917.548	2975.44
917.859	2923.47
918.171	2951.94
918.482	2953.07
918.794	2930.7
919.105	2960.53
919.416	2914.66
919.727	2886.18
920.038	2852.96
920.349	2852.28
920.66	2858.39
920.971	2840.31
921.282	2851.83
921.593	2832.17
921.903	2784.04
922.214	2788.56
922.525	2772.74
922.835	2754.66
923.146	2727.32
923.456	2761.44
923.767	2751.04
924.077	2760.99
924.387	2711.04
924.697	2727.09
925.008	2721.44
925.318	2684.83
925.628	2707.2
925.938	2643.02
926.248	2681.44
926.558	2673.08
926.867	2625.85
927.177	2597.38
927.487	2633.76
927.796	2588.34
928.106	2611.39
928.416	2597.38
928.725	2585.4
929.034	2521.45
929.344	2565.96
929.653	2520.99
929.962	2535.68
930.271	2529.13
930.581	2498.39
930.89	2511.73
931.199	2523.48
931.508	2482.58
931.817	2462.46
932.125	2450.49
932.434	2487.55
932.743	2445.74
933.051	2426.76
933.36	2420.88
933.669	2408.45
933.977	2381.34
934.286	2361.9
934.594	2417.49
934.902	2371.84
935.21	2395.57
935.519	2377.95
935.827	2394.89
936.135	2370.71
936.443	2337.27
936.751	2323.71
937.059	2352.64
937.367	2311.73
937.674	2300.89
937.982	2329.59
938.29	2309.93
938.597	2297.27
938.905	2270.38
939.213	2261.56
939.52	2295.01
939.827	2257.72
940.135	2250.94
940.442	2240.1
940.749	2224.73
941.056	2246.88
941.363	2222.24
941.67	2203.26
941.977	2186.31
942.284	2200.78
942.591	2144.05
942.898	2149.03
943.205	2156.26
943.511	2136.6
943.818	2131.85
944.125	2125.3
944.431	2108.57
944.738	2102.02
945.044	2101.57
945.35	2103.38
945.657	2068.58
945.963	2098.41
946.269	2064.06
946.575	2077.16
946.881	2058.86
947.187	2052.53
947.493	2044.17
947.799	2032.87
948.105	1999.65
948.41	1996.94
948.716	1983.61
949.022	1960.78
949.327	1972.31
949.633	1950.84
949.938	1968.47
950.244	1971.63
950.549	1980.44
950.854	1955.36
951.16	1956.04
951.465	1948.35
951.77	1909.26
952.075	1900.67
952.38	1888.69
952.685	1898.64
952.99	1890.05
953.294	1934.79
953.599	1905.19
953.904	1904.74
954.209	1881.91
954.513	1864.51
954.818	1858.41
955.122	1893.89
955.426	1817.73
955.731	1844.4
956.035	1822.03
956.339	1778.19
956.643	1837.62
956.948	1831.52
957.252	1799.88
957.556	1787.45
957.86	1780
958.163	1789.26
958.467	1779.32
958.771	1786.32
959.075	1793.33
959.378	1747.91
959.682	1722.6
959.985	1738.64
960.289	1731.64
960.592	1728.02
960.896	1715.14
961.199	1705.2
961.502	1763.27
961.805	1742.48
962.108	1673.33
962.411	1710.62
962.714	1674.91
963.017	1657.96
963.32	1689.38
963.623	1702.94
963.926	1687.57
964.228	1668.59
964.531	1641.47
964.833	1646.67
965.136	1632.88
965.438	1646.44
965.741	1611.64
966.043	1624.97
966.345	1612.99
966.648	1567.35
966.95	1583.62
967.252	1598.98
967.554	1589.49
967.856	1535.93
968.158	1575.93
968.46	1546.78
968.761	1551.3
969.063	1549.95
969.365	1523.28
969.666	1521.7
969.968	1537.97
970.269	1553.33
970.571	1494.35
970.872	1547.46
971.174	1503.17
971.475	1526.44
971.776	1489.61
972.077	1495.03
972.378	1485.31
972.679	1479.44
972.98	1478.31
973.281	1448.03
973.582	1460.46
973.883	1490.96
974.183	1463.85
974.484	1454.13
974.785	1427.24
975.085	1454.58
975.386	1433.11
975.686	1439.21
975.986	1415.94
976.287	1403.96
976.587	1408.03
976.887	1427.46
977.187	1431.53
977.487	1405.54
977.787	1390.18
978.087	1369.84
978.387	1388.37
978.687	1382.94
978.987	1387.92
979.286	1362.83
979.586	1351.76
979.885	1349.72
980.185	1354.02
980.484	1350.4
980.784	1362.15
981.083	1345.88
981.382	1316.5
981.682	1330.74
981.981	1323.96
982.28	1320.35
982.579	1305.43
982.878	1300.91
983.177	1318.76
983.475	1286.45
983.774	1276.28
984.073	1296.84
984.372	1285.55
984.67	1277.41
984.969	1282.16
985.267	1269.95
985.566	1283.51
985.864	1297.3
986.162	1278.09
986.461	1259.33
986.759	1246.68
987.057	1246
987.355	1247.58
987.653	1213.46
987.951	1213
988.249	1220.46
988.547	1204.19
988.844	1241.7
989.142	1195.83
989.44	1203.06
989.737	1177.53
990.035	1204.87
990.332	1210.52
990.63	1204.19
990.927	1168.26
991.224	1178.88
991.521	1197.41
991.819	1157.19
992.116	1174.81
992.413	1183.4
992.71	1170.07
993.006	1151.31
993.303	1162.84
993.6	1135.27
993.897	1151.54
994.193	1121.48
994.49	1135.72
994.787	1134.36
995.083	1126
995.379	1123.74
995.676	1143.18
995.972	1099.79
996.268	1083.74
996.565	1105.89
996.861	1097.98
997.157	1114.93
997.453	1092.78
997.749	1076.51
998.044	1090.97
998.34	1060.47
998.636	1069.28
998.932	1061.6
999.227	1069.51
999.523	1057.53
999.818	1078.55
1000.114	1049.39
1000.409	1075.83
1000.704	1028.83
1001	1027.7
1001.295	1030.41
1001.59	1025.44
1001.885	1012.56
1002.18	999
1002.475	1014.59
1002.77	1020.24
1003.065	973.24
1003.359	1007.36
1003.654	1006.91
1003.949	995.61
1004.243	981.82
1004.538	973.01
1004.832	989.96
1005.127	956.29
1005.421	957.19
1005.715	959.9
1006.009	955.38
1006.304	960.13
1006.598	953.35
1006.892	930.75
1007.186	907.02
1007.48	965.78
1007.773	920.36
1008.067	912.67
1008.361	914.48
1008.655	919.45
1008.948	912.45
1009.242	921.04
1009.535	913.35
1009.829	924.2
1010.122	929.4
1010.415	898.21
1010.708	877.42
1011.001	883.97
1011.295	878.32
1011.588	871.54
1011.881	886.23
1012.173	866.57
1012.466	885.33
1012.759	851.21
1013.052	848.04
1013.344	852.56
1013.637	859.79
1013.93	850.75
1014.222	825.67
1014.514	837.2
1014.807	839.46
1015.099	840.59
1015.391	847.59
1015.683	806.91
1015.976	839
1016.268	836.52
1016.56	809.63
1016.851	818.21
1017.143	816.86
1017.435	807.37
1017.727	816.63
1018.018	808.5
1018.31	790.87
1018.602	814.82
1018.893	780.25
1019.185	777.08
1019.476	752
1019.767	765.33
1020.058	762.85
1020.35	779.12
1020.641	738.67
1020.932	772.79
1021.223	755.16
1021.514	743.41
1021.804	720.81
1022.095	769.17
1022.386	742.28
1022.677	747.71
1022.967	728.95
1023.258	705.9
1023.548	709.29
1023.839	709.52
1024.129	727.37
1024.419	707.93
1024.709	705.67
1025	707.71
1025.29	714.26
1025.58	707.93
1025.87	687.37
1026.16	695.05
1026.449	675.39
1026.739	689.18
1027.029	679.69
1027.319	684.21
1027.608	682.4
1027.898	654.6
1028.187	705.45
1028.477	667.93
1028.766	654.15
1029.055	662.74
1029.344	668.84
1029.634	666.35
1029.923	648.95
1030.212	618.22
1030.501	656.41
1030.79	648.95
1031.078	638.78
1031.367	622.06
1031.656	633.59
1031.945	620.48
1032.233	629.07
1032.522	636.97
1032.81	633.13
1033.099	611.89
1033.387	628.16
1033.675	604.89
1033.963	607.37
1034.251	639.23
1034.54	617.31
1034.828	584.32
1035.116	593.36
1035.403	590.87
1035.691	592.46
1035.979	598.78
1036.267	599.91
1036.554	578.45
1036.842	602.4
1037.129	565.34
1037.417	551.1
1037.704	567.6
1037.992	564.43
1038.279	585
1038.566	563.76
1038.853	563.76
1039.14	563.76
