Data from black_metal_pc_casing_FLMS001491_00011.txt Node
Date: Wed Feb 08 14:32:02 GMT 2017
User: dcchb
Spectrometer: FLMS00149
Trigger mode: 0
Integration Time (sec): 2.000000E-2
Scans to average: 10
Electric dark correction enabled: true
Nonlinearity correction enabled: false
Boxcar width: 0
XAxis mode: Wavelengths
Number of Pixels in Spectrum: 2048
>>>>>Begin Spectral Data<<<<<
341.393	-13.12
341.776	-13.12
342.16	-13.12
342.543	-76.62
342.927	-75.94
343.31	-94.7
343.693	-58.09
344.077	-57.64
344.46	-52.44
344.843	-52.67
345.226	-59.22
345.61	-34.36
345.993	-19.9
346.376	2.25
346.759	8.12
347.142	29.59
347.525	38.63
347.908	63.71
348.291	87.44
348.674	83.15
349.057	116.14
349.44	141
349.823	148.68
350.206	136.93
350.588	205.63
350.971	185.07
351.354	199.08
351.737	220.77
352.119	248.11
352.502	250.15
352.884	259.19
353.267	250.37
353.65	285.85
354.032	278.4
354.414	296.25
354.797	304.61
355.179	301.9
355.562	313.42
355.944	320.66
356.326	302.35
356.709	315.91
357.091	316.59
357.473	317.72
357.855	318.4
358.238	342.58
358.62	313.2
359.002	343.03
359.384	329.69
359.766	316.59
360.148	319.3
360.53	339.64
360.912	343.48
361.294	324.95
361.676	303.25
362.057	315.01
362.439	303.93
362.821	334.21
363.203	301.22
363.584	315.91
363.966	298.74
364.348	324.27
364.729	317.27
365.111	305.29
365.493	300.54
365.874	304.16
366.256	270.49
366.637	292.63
367.019	289.7
367.4	312.97
367.781	302.58
368.163	311.16
368.544	298.96
368.925	292.86
369.306	321.11
369.688	300.77
370.069	286.31
370.45	285.18
370.831	323.37
371.212	299.86
371.593	300.77
371.974	282.69
372.355	302.12
372.736	305.06
373.117	314.55
373.498	303.03
373.879	303.48
374.26	316.36
374.641	298.28
375.021	299.86
375.402	331.73
375.783	312.75
376.163	304.16
376.544	312.97
376.925	305.97
377.305	312.52
377.686	317.27
378.066	300.99
378.447	319.3
378.827	308.9
379.208	333.99
379.588	317.27
379.968	323.37
380.349	335.34
380.729	325.85
381.109	307.1
381.489	326.98
381.87	326.3
382.25	338.73
382.63	334.89
383.01	334.67
383.39	333.99
383.77	343.48
384.15	345.74
384.53	337.83
384.91	344.16
385.29	340.32
385.67	337.38
386.049	349.13
386.429	335.34
386.809	351.16
387.189	347.32
387.568	343.48
387.948	342.8
388.328	335.8
388.707	338.51
389.087	321.33
389.466	348
389.846	333.76
390.225	352.97
390.605	338.06
390.984	340.54
391.363	363.59
391.743	365.4
392.122	380.09
392.501	349.58
392.881	372.18
393.26	360.88
393.639	388.22
394.018	366.53
394.397	359.75
394.776	372.41
395.155	377.15
395.534	364.72
395.913	390.48
396.292	358.17
396.671	380.31
397.05	366.53
397.429	387.55
397.808	385.06
398.186	381.67
398.565	401.78
398.944	375.57
399.323	391.39
399.701	385.29
400.08	388.9
400.458	400.2
400.837	395.91
401.215	383.25
401.594	388.45
401.972	407.88
402.351	412.86
402.729	392.97
403.107	401.78
403.486	417.83
403.864	433.87
404.242	410.37
404.62	406.75
404.999	417.38
405.377	416.25
405.755	404.5
406.133	413.76
406.511	417.38
406.889	421.44
407.267	441.56
407.645	425.96
408.023	434.1
408.401	447.21
408.779	453.08
409.156	444.49
409.534	465.28
409.912	452.86
410.29	457.6
410.667	453.08
411.045	454.21
411.422	490.59
411.8	481.78
412.178	482.01
412.555	464.15
412.933	492.4
413.31	469.35
413.687	480.88
414.065	489.46
414.442	483.14
414.819	467.54
415.197	484.72
415.574	486.07
415.951	482.69
416.328	508
416.705	502.8
417.082	507.09
417.46	497.6
417.837	525.62
418.214	512.74
418.591	517.03
418.967	505.28
419.344	536.02
419.721	538.28
420.098	536.69
420.475	535.79
420.852	529.92
421.228	539.86
421.605	522.01
421.982	531.95
422.358	557.49
422.735	551.61
423.111	561.1
423.488	555.23
423.864	566.98
424.241	556.13
424.617	563.36
424.994	554.1
425.37	570.37
425.746	572.17
426.123	589.12
426.499	582.34
426.875	578.5
427.251	614.66
427.627	614.88
428.003	584.38
428.379	623.02
428.756	606.75
429.132	618.5
429.507	630.93
429.883	626.18
430.259	623.02
430.635	620.99
431.011	618.5
431.387	661.89
431.763	637.71
432.138	656.69
432.514	674.77
432.89	652.62
433.265	664.6
433.641	675.9
434.016	656.92
434.392	686.3
434.767	676.35
435.143	681.55
435.518	711.61
435.894	724.94
436.269	710.93
436.644	725.62
437.02	749.34
437.395	722
437.77	744.6
438.145	751.15
438.52	752.06
438.895	742.11
439.271	763.81
439.646	751.15
440.021	772.39
440.395	759.06
440.77	762.68
441.145	772.39
441.52	807.42
441.895	773.98
442.27	788.89
442.645	777.82
443.019	791.83
443.394	783.47
443.769	801.32
444.143	792.51
444.518	818.04
444.892	818.5
445.267	842.45
445.641	841.77
446.016	820.3
446.39	825.27
446.764	818.72
447.139	842.68
447.513	846.52
447.887	860.98
448.262	835.22
448.636	854.43
449.01	842.22
449.384	857.82
449.758	869.57
450.132	870.02
450.506	881.54
450.88	893.75
451.254	875.67
451.628	865.95
452.002	917.02
452.376	901.43
452.75	930.81
453.123	899.85
453.497	924.03
453.871	946.18
454.244	934.2
454.618	955.89
454.992	959.51
455.365	966.06
455.739	1012.84
456.112	1002.67
456.486	1009.45
456.859	1035.21
457.232	1026.17
457.606	1029.56
457.979	1020.75
458.352	1046.06
458.725	1078.15
459.099	1057.81
459.472	1084.93
459.845	1085.83
460.218	1111.6
460.591	1081.09
460.964	1095.32
461.337	1143.01
461.71	1146.17
462.083	1137.58
462.456	1153.4
462.829	1127.87
463.201	1192.04
463.574	1176.23
463.947	1204.93
464.32	1202.89
464.692	1228.43
465.065	1248.99
465.438	1259.61
465.81	1231.82
466.183	1277.24
466.555	1300.29
466.928	1300.06
467.3	1312.49
467.672	1327.41
468.045	1345.49
468.417	1344.58
468.789	1363.34
469.161	1402.43
469.534	1408.99
469.906	1428.65
470.278	1427.97
470.65	1453.96
471.022	1451.47
471.394	1489.89
471.766	1470.46
472.138	1554.52
472.51	1510.91
472.882	1551.81
473.253	1534.63
473.625	1584.35
473.997	1605.14
474.369	1601.98
474.74	1624.35
475.112	1666.38
475.484	1676.78
475.855	1717.45
476.227	1729.88
476.598	1779.37
476.97	1757.91
477.341	1806.94
477.713	1812.14
478.084	1813.5
478.455	1869.09
478.827	1905.7
479.198	1940.95
479.569	1938.01
479.94	1985.24
480.311	2007.16
480.682	2058.46
481.053	2068.18
481.424	2077.22
481.795	2137.56
482.166	2130.55
482.537	2198.8
482.908	2220.72
483.279	2233.83
483.65	2278.57
484.021	2321.28
484.391	2326.03
484.762	2376.42
485.133	2340.94
485.503	2411.45
485.874	2464.33
486.244	2486.25
486.615	2510.43
486.985	2544.55
487.356	2548.62
487.726	2579.13
488.097	2625.45
488.467	2683.53
488.837	2734.15
489.207	2752.68
489.578	2747.48
489.948	2827.48
490.318	2787.26
490.688	2819.35
491.058	2866.8
491.428	2900.93
491.798	2943.86
492.168	3012.11
492.538	3036.74
492.908	3059.57
493.278	3032.45
493.648	3063.41
494.017	3105.21
494.387	3146.8
494.757	3167.81
495.126	3210.97
495.496	3234.7
495.866	3231.09
496.235	3290.29
496.605	3303.18
496.974	3316.06
497.344	3361.93
497.713	3347.47
498.082	3341.59
498.452	3418.88
498.821	3439.9
499.19	3456.17
499.559	3523.28
499.928	3511.98
500.298	3525.09
500.667	3550.4
501.036	3564.19
501.405	3575.03
501.774	3577.74
502.143	3637.86
502.512	3651.87
502.88	3641.92
503.249	3655.93
503.618	3717.18
503.987	3759.44
504.356	3761.47
504.724	3785.42
505.093	3791.07
505.462	3792.65
505.83	3803.73
506.199	3843.27
506.567	3876.95
506.936	3884.4
507.304	3956.27
507.672	4015.25
508.041	3994.68
508.409	4080.56
508.777	4060.44
509.145	4076.04
509.514	4122.14
509.882	4107.67
510.25	4127.33
510.618	4147.22
510.986	4188.8
511.354	4235.81
511.722	4267.22
512.09	4274.68
512.458	4285.3
512.826	4274.22
513.193	4350.15
513.561	4385.41
513.929	4407.33
514.297	4425.41
514.664	4466.08
515.032	4457.5
515.4	4519.64
515.767	4552.63
516.135	4515.57
516.502	4565.74
516.869	4626.3
517.237	4609.13
517.604	4654.78
517.972	4723.7
518.339	4719.18
518.706	4773.87
519.073	4797.37
519.44	4796.7
519.808	4899.07
520.175	4893.42
520.542	4951.49
520.909	4987.65
521.276	4993.3
521.643	4988.56
522.009	5001.66
522.376	5102.9
522.743	5143.58
523.11	5181.77
523.477	5240.3
523.843	5186.06
524.21	5267.87
524.577	5320.98
524.943	5360.3
525.31	5384.25
525.676	5405.49
526.043	5465.38
526.409	5481.65
526.776	5562.55
527.142	5551.03
527.508	5617.24
527.874	5634.64
528.241	5676.9
528.607	5727.07
528.973	5744.02
529.339	5739.04
529.705	5821.75
530.071	5806.39
530.437	5864.46
530.803	5917.12
531.169	5950.34
531.535	5946.95
531.901	5950.56
532.267	6001.41
532.632	6079.15
532.998	6033.95
533.364	6090.45
533.73	6105.59
534.095	6167.28
534.461	6217
534.826	6211.57
535.192	6217.9
535.557	6311.23
535.923	6248.64
536.288	6305.58
536.653	6314.4
537.019	6322.08
537.384	6379.25
537.749	6423.55
538.114	6444.56
538.479	6452.02
538.845	6427.84
539.21	6472.81
539.575	6527.95
539.94	6509.65
540.305	6575.63
540.67	6577.67
541.034	6616.99
541.399	6628.06
541.764	6620.6
542.129	6673.26
542.494	6667.38
542.858	6754.84
543.223	6714.84
543.587	6776.08
543.952	6805.68
544.316	6745.57
544.681	6849.52
545.045	6842.97
545.41	6825.12
545.774	6887.71
546.138	6885.23
546.503	6958.9
546.867	6926.13
547.231	7029.18
547.595	6961.16
547.959	7044.32
548.324	7068.95
548.688	7056.07
549.052	7094.26
549.416	7117.54
549.779	7147.82
550.143	7195.5
550.507	7205.67
550.871	7172.23
551.235	7259.46
551.599	7229.85
551.962	7348.72
552.326	7306.46
552.689	7319.34
553.053	7369.06
553.417	7316.4
553.78	7487.02
554.143	7389.4
554.507	7553.23
554.87	7479.11
555.234	7562.05
555.597	7517.08
555.96	7539.45
556.323	7575.38
556.686	7609.73
557.05	7651.54
557.413	7674.59
557.776	7707.35
558.139	7744.87
558.502	7797.75
558.865	7835.26
559.228	7849.5
559.59	7885.2
559.953	7920
560.316	8061.24
560.679	7980.79
561.041	8076.61
561.404	8129.49
561.767	8132.65
562.129	8151.18
562.492	8195.02
562.854	8177.62
563.217	8181.47
563.579	8255.59
563.941	8284.29
564.304	8333.1
564.666	8416.94
565.028	8463.04
565.39	8434.79
565.753	8519.54
566.115	8439.31
566.477	8555.02
566.839	8562.47
567.201	8634.11
567.563	8568.12
567.925	8701.45
568.287	8647.22
568.648	8687.89
569.01	8715.91
569.372	8843.14
569.734	8775.8
570.095	8872.07
570.457	8873.42
570.819	8865.97
571.18	8943.93
571.542	8960.65
571.903	9024.38
572.265	9027.77
572.626	9029.35
572.987	9053.08
573.349	9065.51
573.71	9107.99
574.071	9171.95
574.432	9169.46
574.794	9227.77
575.155	9277.48
575.516	9176.24
575.877	9218.05
576.238	9239.52
576.599	9301.89
576.96	9263.02
577.32	9347.31
577.681	9371.26
578.042	9312.96
578.403	9339.4
578.763	9382.11
579.124	9396.8
579.485	9399.06
579.845	9425.5
580.206	9397.93
580.566	9430.25
580.927	9427.31
581.287	9538.04
581.648	9509.34
582.008	9532.39
582.368	9542.33
582.728	9559.51
583.089	9500.98
583.449	9546.85
583.809	9487.42
584.169	9579.4
584.529	9510.7
584.889	9594.54
585.249	9488.78
585.609	9565.16
585.969	9580.98
586.329	9558.83
586.688	9615.55
587.048	9536.23
587.408	9512.96
587.768	9545.95
588.127	9556.57
588.487	9523.8
588.846	9606.06
589.206	9538.72
589.565	9565.38
589.925	9566.97
590.284	9570.13
590.643	9573.97
591.003	9620.3
591.362	9647.64
591.721	9613.97
592.08	9520.87
592.44	9650.35
592.799	9636.79
593.158	9661.43
593.517	9646.96
593.876	9703.69
594.235	9672.95
594.593	9682.22
594.952	9663.91
595.311	9650.58
595.67	9652.61
596.029	9596.12
596.387	9712.72
596.746	9717.24
597.104	9683.12
597.463	9674.76
597.822	9787.53
598.18	9678.15
598.538	9643.57
598.897	9765.6
599.255	9736
599.613	9777.13
599.972	9717.7
600.33	9806.73
600.688	9720.63
601.046	9774.19
601.404	9767.19
601.762	9763.34
602.12	9834.08
602.478	9838.82
602.836	9775.1
603.194	9843.57
603.552	9825.49
603.91	9808.54
604.268	9843.12
604.625	9825.72
604.983	9837.69
605.341	9795.43
605.698	9825.04
606.056	9907.07
606.413	9811.25
606.771	9896
607.128	9904.81
607.485	9839.95
607.843	9867.75
608.2	9947.52
608.557	9912.95
608.914	9939.16
609.272	9954.75
609.629	10034.75
609.986	10058.7
610.343	9937.13
610.7	10005.6
611.057	10055.31
611.414	10056.9
611.771	10087.4
612.127	10067.97
612.484	10118.36
612.841	10168.98
613.198	10066.84
613.554	10030.68
613.911	10190.23
614.267	10215.76
614.624	10159.27
614.98	10197.68
615.337	10260.28
615.693	10124.69
616.05	10164.01
616.406	10239.94
616.762	10138.48
617.118	10185.03
617.475	10252.15
617.831	10202.88
618.187	10224.35
618.543	10293.27
618.899	10320.84
619.255	10243.78
619.611	10283.11
619.967	10313.39
620.323	10319.71
620.678	10337.57
621.034	10269.77
621.39	10298.47
621.746	10294.4
622.101	10393.61
622.457	10315.87
622.812	10247.17
623.168	10348.41
623.523	10388.64
623.879	10354.29
624.234	10299.83
624.589	10292.37
624.945	10345.25
625.3	10331.92
625.655	10387.74
626.01	10296.66
626.365	10350.9
626.72	10358.13
627.075	10276.33
627.43	10291.92
627.785	10283.78
628.14	10356.78
628.495	10295.99
628.85	10307.74
629.205	10256.44
629.559	10335.76
629.914	10240.62
630.269	10266.16
630.623	10321.75
630.978	10271.35
631.332	10314.29
631.687	10317
632.041	10231.81
632.396	10273.61
632.75	10241.52
633.104	10258.7
633.459	10155.65
633.813	10248.53
634.167	10180.51
634.521	10179.83
634.875	10196.33
635.229	10117.46
635.583	10151.36
635.937	10099.61
636.291	10143.9
636.645	10158.36
636.999	10092.83
637.352	10121.75
637.706	9990.01
638.06	9996.33
638.413	10033.62
638.767	10063.9
639.121	9955.2
639.474	9997.69
639.828	10036.11
640.181	9945.49
640.534	9945.04
640.888	9995.43
641.241	9945.94
641.594	9983.23
641.947	10028.65
642.301	9958.37
642.654	9965.15
643.007	9931.25
643.36	9908.43
643.713	9917.47
644.066	9914.08
644.419	9862.55
644.771	9795.89
645.124	9688.77
645.477	9673.18
645.83	9542.11
646.182	9507.98
646.535	9513.18
646.888	9582.11
647.24	9506.4
647.593	9485.16
647.945	9564.25
648.298	9482
648.65	9403.13
649.002	9405.84
649.355	9426.86
649.707	9428.66
650.059	9502.79
650.411	9609.22
650.763	9618.49
651.115	9636.57
651.467	9635.66
651.819	9668.88
652.171	9647.42
652.523	9645.38
652.875	9595.44
653.227	9514.76
653.578	9621.2
653.93	9574.42
654.282	9557.25
654.633	9524.93
654.985	9599.51
655.337	9554.54
655.688	9623.46
656.039	9588.89
656.391	9507.31
656.742	9554.31
657.094	9546.85
657.445	9561.54
657.796	9527.64
658.147	9400.64
658.498	9485.84
658.849	9575.33
659.2	9508.21
659.551	9493.75
659.902	9596.12
660.253	9512.28
660.604	9520.41
660.955	9447.2
661.306	9448.55
661.656	9476.12
662.007	9440.19
662.358	9449.23
662.708	9466.18
663.059	9379.63
663.409	9338.5
663.76	9447.2
664.11	9419.63
664.461	9508.44
664.811	9483.58
665.161	9411.72
665.511	9434.31
665.862	9433.18
666.212	9447.65
666.562	9485.61
666.912	9389.57
667.262	9452.17
667.612	9374.2
667.962	9514.76
668.312	9420.76
668.662	9378.5
669.011	9397.7
669.361	9374.2
669.711	9403.81
670.06	9400.19
670.41	9305.96
670.76	9367.42
671.109	9337.14
671.459	9341.66
671.808	9335.11
672.157	9391.83
672.507	9246.52
672.856	9255.11
673.205	9333.98
673.554	9329.23
673.904	9298.95
674.253	9341.89
674.602	9268.22
674.951	9190.25
675.3	9173.3
675.649	9273.87
675.998	9221.21
676.346	9270.02
676.695	9253.08
677.044	9248.1
677.393	9155.9
677.741	9222.57
678.09	9204.72
678.438	9193.64
678.787	9218.5
679.135	9163.59
679.484	9143.93
679.832	9207.88
680.181	9169.69
680.529	9131.5
680.877	9097.6
681.225	9117.03
681.573	9176.69
681.922	9081.1
682.27	9036.58
682.618	9104.61
682.966	9007.21
683.314	9065.74
683.661	9011.05
684.009	8977.83
684.357	8930.82
684.705	8936.02
685.053	8979.41
685.4	8964.95
685.748	8891.5
686.095	8891.73
686.443	8869.36
686.79	8877.04
687.138	8786.65
687.485	8818.51
687.832	8866.87
688.18	8923.37
688.527	8764.5
688.874	8730.38
689.221	8754.56
689.568	8754.78
689.915	8721.11
690.262	8701
690.609	8734.9
690.956	8683.83
691.303	8606.77
691.65	8592.3
691.997	8627.33
692.344	8599.08
692.69	8508.46
693.037	8506.2
693.383	8462.36
693.73	8515.92
694.077	8480.89
694.423	8461.23
694.769	8449.26
695.116	8428.92
695.462	8402.7
695.808	8348.92
696.155	8352.53
696.501	8294.01
696.847	8302.37
697.193	8244.97
697.539	8272.99
697.885	8214.69
698.231	8222.14
698.577	8249.03
698.923	8178.08
699.269	8167.68
699.614	8092.43
699.96	8084.29
700.306	8088.59
700.651	8048.59
700.997	8014.46
701.342	8102.6
701.688	7999.32
702.033	8004.07
702.379	7930.4
702.724	7977.18
703.069	8007.68
703.415	7889.04
703.76	7933.34
704.105	7957.97
704.45	7859.67
704.795	7853.79
705.14	7819.22
705.485	7784.19
705.83	7776.73
706.175	7837.52
706.52	7755.26
706.865	7747.8
707.209	7762.27
707.554	7679.56
707.899	7742.16
708.243	7637.3
708.588	7638.43
708.932	7533.35
709.277	7539.22
709.621	7647.69
709.966	7571.76
710.31	7588.49
710.654	7534.25
710.998	7547.58
711.342	7483.18
711.687	7506.23
712.031	7487.7
712.375	7437.53
712.719	7464.2
713.063	7383.29
713.407	7451.32
713.75	7370.87
714.094	7409.51
714.438	7333.58
714.782	7362.28
715.125	7383.97
715.469	7326.12
715.812	7284.99
716.156	7340.81
716.499	7290.64
716.843	7268.04
717.186	7243.41
717.53	7287.03
717.873	7247.25
718.216	7215.62
718.559	7238.44
718.902	7127.93
719.246	7159.12
719.589	7178.33
719.932	7163.64
720.275	7141.49
720.617	7182.17
720.96	7124.09
721.303	7129.52
721.646	7180.81
721.989	7090.65
722.331	7079.57
722.674	7092.45
723.016	7088.84
723.359	7077.31
723.701	7048.61
724.044	7047.26
724.386	6981.27
724.729	7004.77
725.071	6990.99
725.413	6989.63
725.755	6940.14
726.097	6971.78
726.439	6939.46
726.782	6987.82
727.124	6934.04
727.465	6884.32
727.807	6896.53
728.149	6838.45
728.491	6904.89
728.833	6875.96
729.175	6822.86
729.516	6882.52
729.858	6858.79
730.199	6840.26
730.541	6816.53
730.882	6782.18
731.224	6893.82
731.565	6800.26
731.906	6762.52
732.248	6727.04
732.589	6750.77
732.93	6736.76
733.271	6731.11
733.612	6730.88
733.953	6760.94
734.294	6716.87
734.635	6651.34
734.976	6678.23
735.317	6614.5
735.658	6701.5
735.999	6662.18
736.339	6639.59
736.68	6631.45
737.021	6628.29
737.361	6542.19
737.702	6657.21
738.042	6598.68
738.383	6627.83
738.723	6576.31
739.063	6585.58
739.404	6585.35
739.744	6544.9
740.084	6577.67
740.424	6515.07
740.764	6525.46
741.104	6518.23
741.444	6535.63
741.784	6493.15
742.124	6520.04
742.464	6504.67
742.804	6494.96
743.143	6492.92
743.483	6462.41
743.823	6404.11
744.162	6437.78
744.502	6445.92
744.841	6364.34
745.181	6404.34
745.52	6419.48
745.86	6380.61
746.199	6351.01
746.538	6406.15
746.877	6327.5
747.216	6365.69
747.556	6333.15
747.895	6339.93
748.234	6307.62
748.573	6329.08
748.911	6279.37
749.25	6282.08
749.589	6336.99
749.928	6284.79
750.267	6221.74
750.605	6215.42
750.944	6251.35
751.283	6176.09
751.621	6211.8
751.96	6231.01
752.298	6146.72
752.636	6154.4
752.975	6106.27
753.313	6151.69
753.651	6189.2
753.989	6101.29
754.327	6105.36
754.666	6084.12
755.004	6122.08
755.342	6084.12
755.679	6037.57
756.017	6038.25
756.355	6028.3
756.693	6044.8
757.031	6048.87
757.368	5969.09
757.706	6003.67
758.044	5917.57
758.381	5912.6
758.719	5936.55
759.056	5965.03
759.394	5910.79
759.731	5845.71
760.068	5864.69
760.405	5848.42
760.743	5806.39
761.08	5837.12
761.417	5767.52
761.754	5795.31
762.091	5762.32
762.428	5760.29
762.765	5740.85
763.102	5674.86
763.438	5671.48
763.775	5699.05
764.112	5662.21
764.449	5640.74
764.785	5650.01
765.122	5622.44
765.458	5580.63
765.795	5640.06
766.131	5591.03
766.467	5593.96
766.804	5564.59
767.14	5529.33
767.476	5527.98
767.812	5508.09
768.148	5544.25
768.485	5489.11
768.821	5416.79
769.157	5424.25
769.492	5457.24
769.828	5426.74
770.164	5379.96
770.5	5362.33
770.836	5370.47
771.171	5339.73
771.507	5315.55
771.842	5313.29
772.178	5286.85
772.513	5238.72
772.849	5259.06
773.184	5231.94
773.519	5237.59
773.855	5192.39
774.19	5184.93
774.525	5175.67
774.86	5148.33
775.195	5153.75
775.53	5082.34
775.865	5045.28
776.2	5069.23
776.535	5004.83
776.87	5008.89
777.205	4982.91
777.539	5003.24
777.874	4981.1
778.209	4960.53
778.543	4940.42
778.878	4896.81
779.212	4843.02
779.547	4928.22
779.881	4935
780.215	4843.25
780.55	4844.83
780.884	4813.19
781.218	4770.26
781.552	4780.88
781.886	4759.18
782.22	4779.3
782.554	4783.59
782.888	4730.03
783.222	4700.43
783.556	4683.7
783.889	4678.96
784.223	4677.6
784.557	4621.33
784.89	4648.23
785.224	4617.94
785.557	4590.83
785.891	4554.89
786.224	4611.16
786.558	4571.62
786.891	4522.35
787.224	4482.35
787.557	4511.73
787.891	4475.12
788.224	4491.39
788.557	4500.88
788.89	4476.93
789.223	4477.38
789.556	4446.42
789.888	4423.82
790.221	4390.6
790.554	4382.92
790.887	4381.79
791.219	4383.6
791.552	4362.58
791.884	4308.57
792.217	4295.92
792.549	4313.54
792.882	4258.63
793.214	4274.45
793.546	4253.43
793.879	4222.02
794.211	4192.42
794.543	4217.73
794.875	4199.42
795.207	4238.29
795.539	4167.11
795.871	4221.8
796.203	4184.73
796.535	4146.77
796.867	4116.71
797.198	4120.78
797.53	4135.47
797.862	4109.93
798.193	4121.46
798.525	4070.16
798.856	4092.99
799.188	4052.31
799.519	4028.35
799.85	4012.76
800.182	4020.45
800.513	4043.04
800.844	3971.41
801.175	4007.56
801.506	3992.88
801.837	3969.6
802.168	3935.25
802.499	3965.31
802.83	3911.3
803.161	3922.37
803.491	3924.63
803.822	3903.61
804.153	3843.27
804.483	3880.34
804.814	3848.92
805.145	3886.44
805.475	3839.21
805.805	3855.48
806.136	3869.94
806.466	3786.55
806.796	3807.57
807.126	3780.9
807.457	3750.62
807.787	3759.66
808.117	3723.5
808.447	3747.91
808.777	3722.37
809.107	3728.7
809.436	3715.59
809.766	3713.33
810.096	3686.67
810.426	3752.88
810.755	3692.09
811.085	3659.55
811.414	3711.98
811.744	3669.49
812.073	3655.93
812.403	3646.22
812.732	3675.82
813.061	3610.96
813.39	3653.9
813.719	3608.25
814.049	3592.66
814.378	3618.42
814.707	3599.67
815.036	3557.86
815.365	3534.36
815.693	3534.36
816.022	3552.21
816.351	3517.41
816.68	3547.69
817.008	3544.3
817.337	3502.27
817.665	3483.51
817.994	3506.79
818.322	3463.4
818.651	3487.58
818.979	3490.06
819.307	3440.8
819.636	3470.4
819.964	3459.78
820.292	3408.03
820.62	3440.35
820.948	3417.07
821.276	3421.59
821.604	3413
821.932	3412.78
822.259	3424.53
822.587	3416.85
822.915	3437.86
823.243	3450.52
823.57	3434.7
823.898	3443.29
824.225	3438.31
824.553	3431.99
824.88	3397.86
825.207	3414.13
825.535	3420.46
825.862	3429.5
826.189	3409.16
826.516	3453.45
826.843	3462.04
827.17	3415.94
827.497	3441.48
827.824	3435.6
828.151	3451.87
828.478	3442.61
828.805	3442.38
829.131	3421.59
829.458	3394.92
829.785	3436.51
830.111	3431.99
830.438	3423.4
830.764	3361.93
831.09	3423.17
831.417	3418.65
831.743	3404.64
832.069	3372.33
832.395	3401.7
832.722	3356.51
833.048	3397.41
833.374	3419.56
833.7	3374.81
834.026	3373.46
834.351	3405.55
834.677	3380.01
835.003	3365.1
835.329	3368.26
835.654	3344.3
835.98	3354.02
836.306	3366.68
836.631	3364.64
836.956	3369.39
837.282	3371.65
837.607	3302.95
837.932	3333.68
838.258	3348.37
838.583	3296.85
838.908	3303.18
839.233	3341.14
839.558	3327.13
839.883	3306.34
840.208	3325.32
840.533	3292.78
840.858	3298.66
841.182	3285.78
841.507	3307.47
841.832	3254.36
842.156	3269.28
842.481	3285.1
842.805	3269.5
843.13	3274.7
843.454	3288.26
843.778	3233.35
844.103	3268.15
844.427	3224.76
844.751	3226.79
845.075	3222.05
845.399	3219.56
845.723	3188.38
846.047	3175.72
846.371	3173.24
846.695	3173.69
847.019	3135.27
847.343	3109.06
847.666	3112.67
847.99	3100.92
848.313	3118.77
848.637	3077.19
848.96	3101.83
849.284	3105.21
849.607	3083.97
849.931	3038.32
850.254	3046.23
850.577	3063.86
850.9	3002.39
851.223	3002.62
851.546	3027.02
851.869	2967.82
852.192	2962.62
852.515	2983.64
852.838	2938.21
853.161	2958.78
853.483	2975.5
853.806	2977.31
854.129	2897.31
854.451	2907.48
854.774	2889.4
855.096	2913.36
855.419	2904.09
855.741	2903.19
856.063	2912.9
856.385	2861.83
856.708	2844.2
857.03	2851.21
857.352	2856.63
857.674	2810.53
857.996	2799.69
858.318	2829.97
858.64	2829.52
858.961	2816.86
859.283	2805.11
859.605	2783.64
859.926	2793.81
860.248	2736.41
860.57	2788.16
860.891	2782.06
861.212	2761.5
861.534	2750.87
861.855	2751.33
862.176	2759.01
862.498	2742.74
862.819	2748.16
863.14	2695.96
863.461	2708.84
863.782	2723.76
864.103	2695.73
864.424	2713.81
864.745	2714.72
865.065	2694.6
865.386	2731.67
865.707	2713.59
866.027	2731.21
866.348	2734.83
866.668	2697.99
866.989	2679.24
867.309	2651.67
867.63	2657.54
867.95	2673.81
868.27	2633.36
868.59	2656.87
868.91	2623.19
869.23	2639.24
869.55	2625.91
869.87	2600.6
870.19	2588.62
870.51	2629.52
870.83	2673.81
871.15	2656.87
871.469	2628.62
871.789	2637.66
872.109	2585
872.428	2587.71
872.748	2581.39
873.067	2592.91
873.386	2570.77
873.706	2588.62
874.025	2578
874.344	2550.88
874.663	2579.13
874.982	2594.27
875.301	2580.03
875.62	2568.28
875.939	2558.11
876.258	2530.99
876.577	2573.7
876.896	2559.47
877.214	2550.88
877.533	2560.37
877.852	2572.57
878.17	2534.16
878.489	2549.07
878.807	2544.1
879.125	2539.58
879.444	2548.39
879.762	2519.47
880.08	2527.15
880.398	2496.87
880.716	2504.78
881.034	2511.11
881.352	2536.42
881.67	2480.37
881.988	2498.9
882.306	2477.89
882.624	2507.04
882.941	2487.15
883.259	2484.21
883.577	2461.39
883.894	2461.39
884.212	2420.26
884.529	2463.42
884.846	2409.87
885.164	2424.78
885.481	2446.93
885.798	2455.06
886.115	2434.27
886.432	2448.06
886.75	2420.94
887.067	2366.25
887.383	2421.17
887.7	2440.37
888.017	2408.74
888.334	2385.69
888.651	2360.15
888.967	2387.72
889.284	2387.04
889.6	2380.49
889.917	2356.99
890.233	2366.93
890.55	2326.7
890.866	2355.63
891.182	2320.6
891.498	2351.34
891.815	2350.66
892.131	2314.95
892.447	2330.55
892.763	2323.54
893.079	2313.15
893.395	2292.58
893.71	2270.43
894.026	2304.78
894.342	2294.84
894.657	2310.89
894.973	2316.31
895.289	2285.8
895.604	2319.7
895.92	2266.82
896.235	2258.01
896.55	2202.87
896.865	2242.19
897.181	2187.72
897.496	2241.73
897.811	2234.5
898.126	2231.57
898.441	2202.19
898.756	2200.15
899.071	2185.47
899.386	2160.38
899.7	2141.85
900.015	2144.11
900.33	2175.75
900.644	2131.23
900.959	2122.64
901.273	2139.14
901.588	2121.74
901.902	2115.86
902.216	2137.78
902.531	2142.08
902.845	2133.04
903.159	2104.11
903.473	2097.33
903.787	2074.28
904.101	2055.75
904.415	2069.08
904.729	2077.22
905.042	2060.95
905.356	2050.78
905.67	2077.22
905.984	2064.11
906.297	2017.79
906.611	2041.97
906.924	2047.16
907.237	2013.49
907.551	1992.93
907.864	2009.65
908.177	2021.63
908.491	2016.2
908.804	2000.84
909.117	1975.98
909.43	1986.83
909.743	1979.14
910.056	1916.09
910.368	1949.31
910.681	1937.11
910.994	1914.96
911.307	1955.87
911.619	1915.64
911.932	1951.35
912.244	1902.08
912.557	1878.35
912.869	1881.07
913.181	1892.82
913.494	1909.99
913.806	1855.98
914.118	1847.85
914.43	1885.36
914.742	1846.72
915.054	1833.61
915.366	1832.48
915.678	1839.26
915.99	1820.95
916.302	1819.6
916.613	1830.9
916.925	1822.54
917.236	1829.99
917.548	1788.41
917.859	1802.2
918.171	1789.54
918.482	1800.39
918.794	1785.02
919.105	1781.63
919.416	1742.09
919.727	1753.84
920.038	1757
920.349	1776.66
920.66	1761.52
920.971	1775.08
921.282	1747.06
921.593	1744.8
921.903	1710
922.214	1733.27
922.525	1726.72
922.835	1688.98
923.146	1703.67
923.456	1673.84
923.767	1680.62
924.077	1679.94
924.387	1668.19
924.697	1684.46
925.008	1667.06
925.318	1667.06
925.628	1670.45
925.938	1642.2
926.248	1603.11
926.558	1646.5
926.867	1615.99
927.177	1642.2
927.487	1614.41
927.796	1622.99
928.106	1624.58
928.416	1620.28
928.725	1601.75
929.034	1592.03
929.344	1584.58
929.653	1571.7
929.962	1552.71
930.271	1555.65
930.581	1558.59
930.89	1548.19
931.199	1547.74
931.508	1526.5
931.817	1524.69
932.125	1531.92
932.434	1533.96
932.743	1538.02
933.051	1509.32
933.36	1527.18
933.669	1518.59
933.977	1539.61
934.286	1508.19
934.594	1508.87
934.902	1487.4
935.21	1472.49
935.519	1487.4
935.827	1485.6
936.135	1472.94
936.443	1451.02
936.751	1457.12
937.059	1466.61
937.367	1430.91
937.674	1445.37
937.982	1447.86
938.29	1470.23
938.597	1430
938.905	1394.3
939.213	1419.38
939.52	1407.63
939.827	1423.23
940.135	1393.85
940.442	1411.93
940.749	1417.8
941.056	1401.98
941.363	1394.53
941.67	1371.48
941.977	1381.19
942.284	1370.12
942.591	1378.03
942.898	1340.06
943.205	1366.05
943.511	1352.27
943.818	1346.84
944.125	1314.53
944.431	1341.87
944.738	1360.18
945.044	1293.51
945.35	1329.67
945.657	1316.79
945.963	1337.58
946.269	1300.06
946.575	1325.6
946.881	1294.64
947.187	1288.77
947.493	1306.17
947.799	1284.92
948.105	1282.44
948.41	1271.59
948.716	1267.3
949.022	1254.19
949.327	1237.24
949.633	1270.46
949.938	1261.42
950.244	1248.31
950.549	1229.78
950.854	1228.88
951.16	1235.21
951.465	1248.54
951.77	1231.37
952.075	1217.58
952.38	1226.17
952.685	1214.19
952.99	1217.81
953.294	1245.83
953.599	1208.54
953.904	1195.89
954.209	1179.16
954.513	1192.95
954.818	1199.05
955.122	1168.99
955.426	1180.97
955.731	1179.84
956.035	1172.84
956.339	1186.85
956.643	1171.03
956.948	1163.12
957.252	1177.81
957.556	1162.89
957.86	1159.73
958.163	1188.88
958.467	1137.81
958.771	1127.64
959.075	1145.94
959.378	1121.76
959.682	1110.69
959.985	1142.33
960.289	1137.36
960.592	1120.63
960.896	1121.54
961.199	1117.02
961.502	1106.85
961.805	1110.24
962.108	1084.48
962.411	1086.74
962.714	1075.89
963.017	1088.77
963.32	1098.49
963.623	1084.93
963.926	1082.44
964.228	1063.01
964.531	1090.35
964.833	1064.59
965.136	1048.32
965.438	1030.92
965.741	1050.35
966.043	1032.5
966.345	1042.9
966.648	1040.86
966.95	1030.69
967.252	1041.31
967.554	1025.95
967.856	1020.52
968.158	995.44
968.46	1018.72
968.761	1019.17
969.063	1029.79
969.365	1018.72
969.666	994.54
969.968	1014.2
970.269	1001.09
970.571	991.6
970.872	1005.38
971.174	1006.51
971.475	992.73
971.776	985.5
972.077	986.85
972.378	1013.97
972.679	996.12
972.98	990.47
973.281	979.4
973.582	990.69
973.883	953.41
974.183	941.88
974.484	968.32
974.785	960.64
975.085	947.31
975.386	930.58
975.686	956.34
975.986	962.67
976.287	950.7
976.587	929.45
976.887	929.23
977.187	942.11
977.487	928.1
977.787	913.86
978.087	900.08
978.387	906.18
978.687	920.41
978.987	917.93
979.286	914.54
979.586	910.24
979.885	903.24
980.185	899.85
980.484	898.49
980.784	911.6
981.083	896.46
981.382	893.52
981.682	890.81
981.981	878.83
982.28	839.51
982.579	894.88
982.878	890.13
983.177	863.01
983.475	865.5
983.774	865.5
984.073	877.25
984.372	885.84
984.67	868.66
984.969	873.86
985.267	871.6
985.566	846.74
985.864	858.04
986.162	869.79
986.461	829.12
986.759	840.42
987.057	827.99
987.355	835.44
987.653	817.37
987.951	831.6
988.249	835.67
988.547	818.04
988.844	822.79
989.142	804.48
989.44	836.12
989.737	834.77
990.035	818.5
990.332	815.56
990.63	819.63
990.927	821.66
991.224	819.85
991.521	806.52
991.819	804.26
992.116	787.99
992.413	800.87
992.71	796.8
993.006	792.28
993.303	808.55
993.6	789.34
993.897	785.05
994.193	779.17
994.49	792.28
994.787	779.4
995.083	790.25
995.379	767.2
995.676	809.46
995.972	772.85
996.268	759.51
996.565	755.22
996.861	752.28
997.157	768.55
997.453	761.55
997.749	766.75
998.044	733.07
998.34	741.44
998.636	738.72
998.932	752.28
999.227	732.85
999.523	745.95
999.818	726.29
1000.114	732.4
1000.409	717.26
1000.704	710.48
1001	711.15
1001.295	722.9
1001.59	726.07
1001.885	709.8
1002.18	688.1
1002.475	695.79
1002.77	717.71
1003.065	704.6
1003.359	715.67
1003.654	707.76
1003.949	687.43
1004.243	696.01
1004.538	674.09
1004.832	684.94
1005.127	693.3
1005.421	661.44
1005.715	682.45
1006.009	678.84
1006.304	659.18
1006.598	666.64
1006.892	666.41
1007.186	677.48
1007.48	681.1
1007.773	694.43
1008.067	670.02
1008.361	666.18
1008.655	672.51
1008.948	643.13
1009.242	675.45
1009.535	627.54
1009.829	625.05
1010.122	638.61
1010.415	627.77
1010.708	637.94
1011.001	655.11
1011.295	645.17
1011.588	644.49
1011.881	629.57
1012.173	657.82
1012.466	631.38
1012.759	646.75
1013.052	636.35
1013.344	606.3
1013.637	613.98
1013.93	627.77
1014.222	620.08
1014.514	633.87
1014.807	618.27
1015.099	611.72
1015.391	614.88
1015.683	605.85
1015.976	613.53
1016.268	596.58
1016.56	574.66
1016.851	602.23
1017.143	602.23
1017.435	607.65
1017.727	604.94
1018.018	580.99
1018.31	581.44
1018.602	588.9
1018.893	588.9
1019.185	565.39
1019.476	603.13
1019.767	591.83
1020.058	579.63
1020.35	579.41
1020.641	580.08
1020.932	568.56
1021.223	561.78
1021.514	572.85
1021.804	575.34
1022.095	556.58
1022.386	565.39
1022.677	560.2
1022.967	537.82
1023.258	551.38
1023.548	548.45
1023.839	543.7
1024.129	557.71
1024.419	544.6
1024.709	545.06
1025	532.63
1025.29	529.46
1025.58	531.72
1025.87	549.8
1026.16	547.54
1026.449	522.68
1026.739	530.82
1027.029	531.95
1027.319	518.16
1027.608	520.65
1027.898	520.2
1028.187	531.5
1028.477	539.86
1028.766	502.35
1029.055	509.58
1029.344	501.89
1029.634	502.12
1029.923	506.64
1030.212	519.29
1030.501	516.13
1030.79	500.09
1031.078	499.41
1031.367	525.4
1031.656	495.57
1031.945	476.58
1032.233	495.79
1032.522	494.89
1032.81	481.33
1033.099	491.27
1033.387	482.01
1033.675	497.6
1033.963	482.91
1034.251	487.2
1034.54	492.85
1034.828	482.91
1035.116	466.64
1035.403	492.85
1035.691	463.7
1035.979	482.91
1036.267	479.75
1036.554	476.58
1036.842	483.14
1037.129	474.32
1037.417	475
1037.704	440.43
1037.992	484.04
1038.279	483.36
1038.566	468.45
1038.853	468.45
1039.14	468.45
