Data from black_plastic_tray_FLMS001491_072.txt Node
Date: Tue Feb 07 10:40:34 GMT 2017
User: dcchb
Spectrometer: FLMS00149
Trigger mode: 0
Integration Time (sec): 2.000000E-2
Scans to average: 10
Electric dark correction enabled: true
Nonlinearity correction enabled: false
Boxcar width: 0
XAxis mode: Wavelengths
Number of Pixels in Spectrum: 2048
>>>>>Begin Spectral Data<<<<<
341.393	-8.77
341.776	-8.77
342.16	-8.77
342.543	-53.29
342.927	-51.71
343.31	-54.19
343.693	-79.28
344.077	-78.37
344.46	-53.06
344.843	-61.65
345.226	-37.92
345.61	-13.52
345.993	-25.72
346.376	0.95
346.759	18.57
347.142	5.47
347.525	42.53
347.908	52.92
348.291	79.81
348.674	98.8
349.057	104.67
349.44	123.2
349.823	132.47
350.206	158.23
350.588	187.61
350.971	199.81
351.354	224.67
351.737	219.7
352.119	240.49
352.502	233.48
352.884	253.14
353.267	279.13
353.65	274.39
354.032	270.32
354.414	321.84
354.797	318.9
355.179	298.11
355.562	301.73
355.944	309.41
356.326	317.1
356.709	331.79
357.091	333.59
357.473	331.79
357.855	341.5
358.238	307.38
358.62	317.77
359.002	333.14
359.384	317.55
359.766	358.23
360.148	325.23
360.53	334.72
360.912	325.91
361.294	323.88
361.676	322.29
362.057	312.35
362.439	327.94
362.821	327.27
363.203	312.35
363.584	321.39
363.966	326.36
364.348	320.71
364.729	306.25
365.111	295.63
365.493	318.68
365.874	315.51
366.256	315.51
366.637	308.06
367.019	318.45
367.4	296.53
367.781	307.83
368.163	318.68
368.544	310.54
368.925	303.99
369.306	309.19
369.688	316.64
370.069	292.46
370.45	313.03
370.831	315.74
371.212	307.15
371.593	309.41
371.974	305.57
372.355	315.74
372.736	309.19
373.117	303.76
373.498	302.18
373.879	314.16
374.26	300.6
374.641	298.11
375.021	321.84
375.402	311.9
375.783	307.15
376.163	331.79
376.544	328.17
376.925	342.41
377.305	333.14
377.686	335.63
378.066	310.09
378.447	339.47
378.827	333.59
379.208	322.07
379.588	338.11
379.968	356.87
380.349	339.92
380.729	355.06
381.109	329.07
381.489	321.62
381.87	334.27
382.25	334.27
382.63	344.21
383.01	331.56
383.39	353.71
383.77	349.64
384.15	361.84
384.53	360.48
384.91	352.8
385.29	356.87
385.67	371.33
386.049	362.52
386.429	354.38
386.809	349.64
387.189	362.52
387.568	366.59
387.948	372.69
388.328	391.9
388.707	385.57
389.087	376.98
389.466	354.38
389.846	410.43
390.225	362.29
390.605	390.54
390.984	404.78
391.363	406.59
391.743	398
392.122	379.92
392.501	403.42
392.881	387.6
393.26	418.34
393.639	415.62
394.018	409.3
394.397	401.39
394.776	414.95
395.155	409.75
395.534	410.2
395.913	427.38
396.292	415.17
396.671	406.59
397.05	438.67
397.429	430.31
397.808	426.47
398.186	421.95
398.565	422.18
398.944	445.45
399.323	439.35
399.701	432.8
400.08	432.12
400.458	414.27
400.837	435.51
401.215	443.65
401.594	443.19
401.972	454.04
402.351	470.31
402.729	467.83
403.107	475.06
403.486	485.23
403.864	493.14
404.242	492.68
404.62	498.79
404.999	471.67
405.377	461.27
405.755	499.92
406.133	479.8
406.511	503.76
406.889	491.55
407.267	508.28
407.645	505.79
408.023	508.5
408.401	522.97
408.779	511.67
409.156	522.74
409.534	512.57
409.912	529.97
410.29	574.26
410.667	547.15
411.045	527.03
411.422	545.56
411.8	565.23
412.178	564.77
412.555	567.03
412.933	567.49
413.31	570.42
413.687	562.74
414.065	597.09
414.442	595.05
414.819	608.16
415.197	585.34
415.574	600.03
415.951	608.84
416.328	614.26
416.705	607.94
417.082	605
417.46	601.16
417.837	613.13
418.214	625.56
418.591	645.68
418.967	652.23
419.344	665.34
419.721	645
420.098	629.86
420.475	652.23
420.852	659.01
421.228	688.16
421.605	653.13
421.982	678.44
422.358	686.13
422.735	650.87
423.111	673.02
423.488	689.97
423.864	699.01
424.241	699.23
424.617	702.62
424.994	707.37
425.37	724.09
425.746	734.71
426.123	749.4
426.499	732.68
426.875	763.86
427.251	745.79
427.627	772.23
428.003	776.07
428.379	764.77
428.756	762.28
429.132	794.82
429.507	816.97
429.883	790.76
430.259	816.07
430.635	827.14
431.011	833.24
431.387	869.4
431.763	856.07
432.138	861.49
432.514	848.61
432.89	869.85
433.265	894.03
433.641	890.19
434.016	898.78
434.392	917.31
434.767	904.65
435.143	928.38
435.518	937.19
435.894	961.37
436.269	939.45
436.644	938.1
437.02	954.82
437.395	995.72
437.77	1004.31
438.145	1000.92
438.52	1004.99
438.895	1004.31
439.271	1023.97
439.646	1056.06
440.021	1047.02
440.395	1053.12
440.77	1020.35
441.145	1054.48
441.52	1038.89
441.895	1064.65
442.27	1070.97
442.645	1067.13
443.019	1075.49
443.394	1070.3
443.769	1104.42
444.143	1126.79
444.518	1123.18
444.892	1120.69
445.267	1125.89
445.641	1132.22
446.016	1140.8
446.39	1157.75
446.764	1167.47
447.139	1167.24
447.513	1181.25
447.887	1164.08
448.262	1173.34
448.636	1187.81
449.01	1191.2
449.384	1197.3
449.758	1204.98
450.132	1223.29
450.506	1228.48
450.88	1245.21
451.254	1244.98
451.628	1256.05
452.002	1260.57
452.376	1288.6
452.75	1317.75
453.123	1291.53
453.497	1313.23
453.871	1330.85
454.244	1336.05
454.618	1380.8
454.992	1383.28
455.365	1376.28
455.739	1379.22
456.112	1414.69
456.486	1424.64
456.859	1451.3
457.232	1439.78
457.606	1439.33
457.979	1470.96
458.352	1508.48
458.725	1528.36
459.099	1549.61
459.472	1564.07
459.845	1532.88
460.218	1591.19
460.591	1602.71
460.964	1613.56
461.337	1639.32
461.71	1627.57
462.083	1669.38
462.456	1735.59
462.829	1687.23
463.201	1723.16
463.574	1718.19
463.947	1736.04
464.32	1767.68
464.692	1788.7
465.065	1813.78
465.438	1824.63
465.81	1845.87
466.183	1858.07
466.555	1898.98
466.928	1931.97
467.3	1922.03
467.672	1929.26
468.045	1989.37
468.417	2002.48
468.789	2013.1
469.161	2035.7
469.534	2071.4
469.906	2090.61
470.278	2108.01
470.65	2134
471.022	2175.58
471.394	2228.91
471.766	2246.31
472.138	2240.21
472.51	2297.84
472.882	2323.82
473.253	2370.83
473.625	2409.24
473.997	2424.84
474.369	2451.73
474.74	2466.42
475.112	2532.86
475.484	2531.95
475.855	2623.02
476.227	2556.13
476.598	2685.4
476.97	2683.81
477.341	2761.1
477.713	2781.44
478.084	2808.56
478.455	2855.79
478.827	2923.36
479.198	2956.57
479.569	2999.29
479.94	3051.71
480.311	3080.41
480.682	3153.86
481.053	3208.55
481.424	3258.49
481.795	3288.09
482.166	3350.46
482.537	3417.13
482.908	3455.77
483.279	3461.42
483.65	3509.55
484.021	3576.9
484.391	3617.57
484.762	3641.08
485.133	3726.5
485.503	3763.56
485.874	3815.54
486.244	3844.24
486.615	3931.69
486.985	3985.25
487.356	4032.03
487.726	4079.94
488.097	4144.34
488.467	4187.73
488.837	4218.91
489.207	4289.42
489.578	4340.95
489.948	4415.97
490.318	4430.89
490.688	4472.47
491.058	4542.52
491.428	4554.95
491.798	4603.76
492.168	4710.2
492.538	4701.84
492.908	4786.13
493.278	4831.78
493.648	4863.87
494.017	4864.32
494.387	4939.12
494.757	4999.46
495.126	5048.95
495.496	5081.49
495.866	5110.64
496.235	5140.47
496.605	5238.77
496.974	5260.47
497.344	5316.29
497.713	5244.88
498.082	5323.97
498.452	5380.47
498.821	5380.47
499.19	5460.01
499.559	5491.42
499.928	5595.83
500.298	5544.98
500.667	5626.34
501.036	5624.3
501.405	5638.99
501.774	5728.71
502.143	5776.39
502.512	5750.85
502.88	5812.54
503.249	5856.61
503.618	5897.51
503.987	5912.88
504.356	5913.11
504.724	6029.49
505.093	6015.7
505.462	6048.47
505.83	6090.73
506.199	6126.89
506.567	6190.84
506.936	6220.22
507.304	6275.36
507.672	6351.51
508.041	6351.06
508.409	6361.68
508.777	6449.59
509.145	6471.51
509.514	6516.26
509.882	6568.46
510.25	6613.65
510.618	6612.75
510.986	6611.85
511.354	6765.06
511.722	6766.87
512.09	6779.3
512.458	6864.72
512.826	6919.41
513.193	6995.56
513.561	7029.01
513.929	7002.8
514.297	7106.07
514.664	7139.06
515.032	7178.16
515.4	7236.46
515.767	7310.13
516.135	7366.63
516.502	7314.88
516.869	7404.82
517.237	7474.65
517.604	7514.2
517.972	7643.46
518.339	7612.5
518.706	7705.6
519.073	7727.07
519.44	7727.07
519.808	7844.58
520.175	7834.41
520.542	8012.49
520.909	7980.4
521.276	8016.55
521.643	8149.43
522.009	8103.78
522.376	8266.04
522.743	8271.46
523.11	8399.6
523.477	8438.69
523.843	8454.51
524.21	8590.32
524.577	8619.93
524.943	8685.01
525.31	8702.86
525.676	8778.79
526.043	8842.52
526.409	8945.57
526.776	8927.72
527.142	8939.24
527.508	9102.63
527.874	9101.72
528.241	9136.53
528.607	9191.67
528.973	9335.84
529.339	9324.32
529.705	9422.85
530.071	9510.07
530.437	9541.71
530.803	9614.48
531.169	9619.22
531.535	9667.81
531.901	9650.64
532.267	9753.68
532.632	9764.53
532.998	9808.37
533.364	9948.93
533.73	9936.05
534.095	10089.27
534.461	10051.08
534.826	10068.03
535.192	10134.24
535.557	10241.58
535.923	10221.02
536.288	10259.66
536.653	10337.17
537.019	10309.15
537.384	10369.49
537.749	10492.42
538.114	10480.67
538.479	10527.9
538.845	10553.66
539.21	10532.65
539.575	10588.92
539.94	10634.11
540.305	10687.67
540.67	10750.27
541.034	10738.07
541.399	10812.64
541.764	10829.14
542.129	10826.42
542.494	10883.6
542.858	10964.95
543.223	10917.72
543.587	10972.86
543.952	10955.69
544.316	11068.68
544.681	11090.82
545.045	11115.46
545.41	11222.12
545.774	11156.36
546.138	11184.83
546.503	11253.08
546.867	11302.8
547.231	11356.81
547.595	11392.96
547.959	11416.01
548.324	11463.47
548.688	11492.4
549.052	11486.07
549.416	11537.82
549.779	11592.51
550.143	11657.14
550.507	11722.9
550.871	11781.88
551.235	11764.48
551.599	11810.35
551.962	11854.19
552.326	11926.28
552.689	12006.73
553.053	11893.51
553.417	12005.6
553.78	12168.99
554.143	12149.78
554.507	12225.26
554.87	12218.7
555.234	12373.5
555.597	12284.01
555.96	12340.51
556.323	12345.71
556.686	12357.91
557.05	12523.33
557.413	12591.35
557.776	12575.08
558.139	12717
558.502	12639.71
558.865	12771.91
559.228	12827.28
559.59	12853.49
559.953	12902.08
560.316	13026.37
560.679	13036.54
561.041	13094.16
561.404	13143.2
561.767	13232.91
562.129	13169.19
562.492	13296.19
562.854	13336.41
563.217	13359.47
563.579	13409.63
563.941	13516.52
564.304	13582.06
564.666	13549.06
565.028	13704.54
565.39	13757.87
565.753	13775.5
566.115	13856.4
566.477	13934.37
566.839	13948.6
567.201	14040.58
567.563	13990.86
567.925	14129.16
568.287	14219.78
568.648	14119.22
569.01	14215.49
569.372	14292.1
569.734	14284.41
570.095	14483.5
570.457	14529.83
570.819	14561.69
571.18	14607.79
571.542	14648.47
571.903	14685.31
572.265	14659.09
572.626	14747.23
572.987	14800.78
573.349	14762.37
573.71	14878.52
574.071	14825.64
574.432	14983.15
574.794	15005.07
575.155	15012.98
575.516	14898.86
575.877	14964.62
576.238	15085.75
576.599	15100.89
576.96	15196.7
577.32	15127.55
577.681	15205.52
578.042	15248.23
578.403	15330.49
578.763	15336.14
579.124	15383.37
579.485	15435.12
579.845	15389.02
580.206	15334.33
580.566	15404.84
580.927	15326.19
581.287	15476.7
581.648	15399.86
582.008	15430.82
582.368	15462.69
582.728	15462.46
583.089	15561.67
583.449	15487.09
583.809	15494.32
584.169	15552.4
584.529	15508.11
584.889	15614.1
585.249	15520.54
585.609	15532.29
585.969	15575.9
586.329	15552.85
586.688	15562.8
587.048	15549.24
587.408	15524.61
587.768	15478.73
588.127	15461.78
588.487	15602.12
588.846	15548.33
589.206	15454.78
589.565	15492.29
589.925	15521.89
590.284	15514.89
590.643	15621.78
591.003	15616.81
591.362	15633.76
591.721	15531.84
592.08	15581.1
592.44	15642.57
592.799	15626.07
593.158	15589.24
593.517	15693.64
593.876	15763.7
594.235	15721.66
594.593	15684.15
594.952	15727.76
595.311	15600.54
595.67	15706.07
596.029	15820.64
596.387	15711.27
596.746	15697.03
597.104	15733.87
597.463	15755.33
597.822	15696.8
598.18	15680.76
598.538	15674.21
598.897	15822.23
599.255	15676.24
599.613	15888.66
599.972	15838.95
600.33	15840.98
600.688	15733.87
601.046	15793.75
601.404	15940.64
601.762	15860.87
602.12	15852.96
602.478	15892.28
602.836	15932.28
603.194	15895.44
603.552	15921.88
603.91	15866.74
604.268	15928.89
604.625	15788.78
604.983	15918.04
605.341	15886.18
605.698	15931.83
606.056	15947.19
606.413	15933.18
606.771	16002.79
607.128	15980.87
607.485	15976.57
607.843	15939.74
608.2	16109.45
608.557	16188.09
608.914	16173.4
609.272	16120.75
609.629	16174.76
609.986	16272.38
610.343	16083.91
610.7	16174.31
611.057	16259.28
611.414	16213.4
611.771	16235.32
612.127	16262.44
612.484	16224.25
612.841	16352.15
613.198	16285.72
613.554	16372.04
613.911	16440.29
614.267	16353.28
614.624	16332.49
614.98	16374.3
615.337	16438.25
615.693	16467.86
616.05	16407.75
616.406	16490.23
616.762	16372.27
617.118	16525.48
617.475	16477.35
617.831	16521.42
618.187	16527.52
618.543	16632.15
618.899	16674.18
619.255	16624.24
619.611	16550.34
619.967	16709.43
620.323	16621.75
620.678	16592.15
621.034	16612.03
621.39	16671.92
621.746	16469.44
622.101	16704.24
622.457	16551.02
622.812	16624.46
623.168	16693.16
623.523	16587.63
623.879	16724.8
624.234	16584.24
624.589	16632.37
624.945	16646.84
625.3	16680.28
625.655	16680.06
626.01	16704.69
626.365	16646.84
626.72	16646.61
627.075	16606.84
627.43	16624.92
627.785	16642.09
628.14	16734.97
628.495	16761.18
628.85	16640.06
629.205	16593.73
629.559	16586.27
629.914	16542.66
630.269	16588.53
630.623	16510.57
630.978	16415.43
631.332	16623.11
631.687	16668.3
632.041	16405.26
632.396	16546.27
632.75	16371.14
633.104	16494.07
633.459	16349.89
633.813	16453.62
634.167	16402.55
634.521	16418.82
634.875	16358.48
635.229	16398.26
635.583	16284.13
635.937	16223.34
636.291	16160.07
636.645	16176.79
636.999	16112.61
637.352	16214.53
637.706	16019.96
638.06	16120.75
638.413	16101.77
638.767	16167.75
639.121	16193.97
639.474	16051.82
639.828	16038.04
640.181	16052.28
640.534	16059.28
640.888	15857.25
641.241	15861.77
641.594	15906.97
641.947	15930.47
642.301	15870.36
642.654	15902
643.007	15903.8
643.36	15837.14
643.713	15822.23
644.066	15880.53
644.419	15792.62
644.771	15648.67
645.124	15628.11
645.477	15551.95
645.83	15458.39
646.182	15234.9
646.535	15263.6
646.888	15299.75
647.24	15169.36
647.593	15255.46
647.945	15219.53
648.298	15188.34
648.65	15117.61
649.002	15032.42
649.355	15173.2
649.707	15013.66
650.059	15189.02
650.411	15384.72
650.763	15410.48
651.115	15507.88
651.467	15509.69
651.819	15446.42
652.171	15436.92
652.523	15380.2
652.875	15398.96
653.227	15357.38
653.578	15448.45
653.93	15444.38
654.282	15402.35
654.633	15278.51
654.985	15384.27
655.337	15369.36
655.688	15303.59
656.039	15351.73
656.391	15205.74
656.742	15233.31
657.094	15197.38
657.445	15269.92
657.796	15254.78
658.147	15175.01
658.498	15194.9
658.849	15341.56
659.2	15309.92
659.551	15256.14
659.902	15261.34
660.253	15181.11
660.604	15250.94
660.955	15168.68
661.306	15100.89
661.656	15036.48
662.007	15016.6
662.358	15050.27
662.708	15085.97
663.059	15006.43
663.409	14983.6
663.76	15022.25
664.11	15108.57
664.461	15116.48
664.811	15115.13
665.161	14974.79
665.511	14997.16
665.862	14956.03
666.212	15012.75
666.562	14982.93
666.912	14985.41
667.262	14899.09
667.612	14951.51
667.962	15051.62
668.312	14964.62
668.662	15032.64
669.011	14994.45
669.361	14919.42
669.711	14926.2
670.06	14818.86
670.41	14850.27
670.76	14801.01
671.109	14852.08
671.459	14751.07
671.808	14898.41
672.157	14874.45
672.507	14763.95
672.856	14739.32
673.205	14778.18
673.554	14903.38
673.904	14676.94
674.253	14818.64
674.602	14736.15
674.951	14509.49
675.3	14481.92
675.649	14657.28
675.998	14691.41
676.346	14711.07
676.695	14730.05
677.044	14675.14
677.393	14628.36
677.741	14653.67
678.09	14584.74
678.438	14516.95
678.787	14573.67
679.135	14533.45
679.484	14438.53
679.832	14582.71
680.181	14401.92
680.529	14446.44
680.877	14432.43
681.225	14429.04
681.573	14442.37
681.922	14413.67
682.27	14269.72
682.618	14302.94
682.966	14418.42
683.314	14455.26
683.661	14347.24
684.009	14230.85
684.357	14173.46
684.705	14217.3
685.053	14256.62
685.4	14293.68
685.748	14183.4
686.095	14203.06
686.443	14082.61
686.79	14108.6
687.138	14097.3
687.485	14066.34
687.832	14094.36
688.18	13968.49
688.527	13879.9
688.874	13923.52
689.221	13899.56
689.568	13883.52
689.915	13821.6
690.262	13799
690.609	13832.9
690.956	13670.19
691.303	13666.35
691.65	13544.32
691.997	13527.82
692.344	13461.84
692.69	13469.74
693.037	13577.31
693.383	13390.65
693.73	13445.56
694.077	13511.78
694.423	13501.61
694.769	13412.8
695.116	13293.03
695.462	13364.66
695.808	13279.47
696.155	13296.42
696.501	13182.29
696.847	13142.3
697.193	13090.55
697.539	13074.05
697.885	13046.03
698.231	13013.71
698.577	12959.93
698.923	12949.76
699.269	12913.15
699.614	12829.31
699.96	12833.6
700.306	12827.95
700.651	12748.18
700.997	12664.12
701.342	12748.63
701.688	12622.76
702.033	12596.32
702.379	12695.3
702.724	12592.48
703.069	12655.75
703.415	12528.3
703.76	12482.43
704.105	12490.11
704.45	12475.65
704.795	12371.69
705.14	12368.53
705.485	12357.46
705.83	12286.95
706.175	12308.87
706.52	12247.63
706.865	12273.62
707.209	12201.53
707.554	12170.34
707.899	12213.05
708.243	12137.12
708.588	12134.19
708.932	12018.26
709.277	12069.78
709.621	12046.05
709.966	11960.18
710.31	12019.84
710.654	11881.31
710.998	11932.38
711.342	11834.76
711.687	11975.77
712.031	11836.12
712.375	11682.67
712.719	11698.04
713.063	11723.12
713.407	11729
713.75	11656.01
714.094	11701.2
714.438	11587.08
714.782	11574.88
715.125	11602.68
715.469	11552.06
715.812	11476.35
716.156	11383.02
716.499	11474.32
716.843	11385.73
717.186	11435.45
717.53	11462.79
717.873	11479.97
718.216	11433.41
718.559	11366.52
718.902	11365.62
719.246	11402
719.589	11301.21
719.932	11257.6
720.275	11347.99
720.617	11249.69
720.96	11216.02
721.303	11243.81
721.646	11226.41
721.989	11100.54
722.331	11191.61
722.674	11171.5
723.016	11098.51
723.359	11075.68
723.701	11143.93
724.044	11068.9
724.386	10994.1
724.729	11049.02
725.071	10978.28
725.413	10962.47
725.755	10891.51
726.097	10869.14
726.439	10777.84
726.782	10900.55
727.124	10874.78
727.465	10845.18
727.807	10826.42
728.149	10807.22
728.491	10798.63
728.833	10835.01
729.175	10771.28
729.516	10695.35
729.858	10774.9
730.199	10715.69
730.541	10732.42
730.882	10684.51
731.224	10724.51
731.565	10572.87
731.906	10663.72
732.248	10587.56
732.589	10497.39
732.93	10551.86
733.271	10492.87
733.612	10492.42
733.953	10637.5
734.294	10422.59
734.635	10534.45
734.976	10534.68
735.317	10471.41
735.658	10468.02
735.999	10430.28
736.339	10406.32
736.68	10422.37
737.021	10346.44
737.361	10301.01
737.702	10440.67
738.042	10360.22
738.383	10281.13
738.723	10366.78
739.063	10330.84
739.404	10313.22
739.744	10305.08
740.084	10205.2
740.424	10280
740.764	10220.34
741.104	10232.77
741.444	10176.05
741.784	10181.47
742.124	10159.1
742.464	10123.62
742.804	10111.19
743.143	10117.06
743.483	10141.02
743.823	10065.99
744.162	10040.68
744.502	10063.96
744.841	10095.82
745.181	10108.7
745.52	9996.62
745.86	10022.15
746.199	10002.94
746.538	10002.72
746.877	9979.67
747.216	9946
747.556	9889.73
747.895	9865.09
748.234	9870.07
748.573	9924.08
748.911	9858.09
749.25	9762.27
749.589	9838.65
749.928	9870.74
750.267	9869.61
750.605	9850.4
750.944	9819.45
751.283	9717.53
751.621	9756.4
751.96	9714.59
752.298	9740.58
752.636	9616.06
752.975	9563.41
753.313	9595.04
753.651	9620.81
753.989	9581.26
754.327	9543.07
754.666	9488.38
755.004	9474.37
755.342	9505.78
755.679	9463.97
756.017	9402.51
756.355	9327.25
756.693	9323.64
757.031	9320.7
757.368	9374.03
757.706	9298.78
758.044	9231.66
758.381	9253.58
758.719	9268.5
759.056	9190.08
759.394	9180.14
759.731	9133.14
760.068	9172.68
760.405	9100.82
760.743	9074.38
761.08	9049.3
761.417	8986.92
761.754	9072.12
762.091	9005.23
762.428	8936.3
762.765	8996.42
763.102	8899.02
763.438	8856.53
763.775	8851.56
764.112	8851.79
764.449	8802.3
764.785	8835.52
765.122	8745.8
765.458	8711.45
765.795	8696.31
766.131	8676.2
766.467	8640.04
766.804	8633.94
767.14	8535.86
767.476	8511.01
767.812	8473.94
768.148	8522.53
768.485	8520.27
768.821	8504
769.157	8491.34
769.492	8400.73
769.828	8448.86
770.164	8322.54
770.5	8325.93
770.836	8306.26
771.171	8275.98
771.507	8267.85
771.842	8145.14
772.178	8176.55
772.513	8202.76
772.849	8193.5
773.184	8100.85
773.519	8028.98
773.855	7992.37
774.19	7927.29
774.525	7963.67
774.86	8054.97
775.195	7978.36
775.53	7919.38
775.865	7864.69
776.2	7882.32
776.535	7794.87
776.87	7825.83
777.205	7708.54
777.539	7689.33
777.874	7726.39
778.209	7627.86
778.543	7641.2
778.878	7621.54
779.212	7615.66
779.547	7542.67
779.881	7626.73
780.215	7488.43
780.55	7457.93
780.884	7446.17
781.218	7388.1
781.552	7387.19
781.886	7327.76
782.22	7273.52
782.554	7342.9
782.888	7262.9
783.222	7274.65
783.556	7195.33
783.889	7145.62
784.223	7177.03
784.557	7151.49
784.89	7174.99
785.224	7105.62
785.557	7132.96
785.891	7062.91
786.224	6997.6
786.558	7002.57
786.891	6997.15
787.224	7002.8
787.557	6986.98
787.891	6966.64
788.224	6928.22
788.557	6915.79
788.89	6902.01
789.223	6897.26
789.556	6805.74
789.888	6836.7
790.221	6836.47
790.554	6742.46
790.887	6783.14
791.219	6704.05
791.552	6630.15
791.884	6598.06
792.217	6578.17
792.549	6541.11
792.882	6545.63
793.214	6514.45
793.546	6608.91
793.879	6510.61
794.211	6487.56
794.543	6494.33
794.875	6439.2
795.207	6472.64
795.539	6406.88
795.871	6423.83
796.203	6399.65
796.535	6284.17
796.867	6221.8
797.198	6265.19
797.53	6238.52
797.862	6231.06
798.193	6235.81
798.525	6238.75
798.856	6201.01
799.188	6091.18
799.519	6110.16
799.85	6064.74
800.182	6092.31
800.513	6125.31
800.844	5990.62
801.175	6076.72
801.506	6021.13
801.837	6048.24
802.168	6016.83
802.499	6027.68
802.83	5986.78
803.161	5977.51
803.491	5922.15
803.822	5956.04
804.153	5864.52
804.483	5857.06
804.814	5826.56
805.145	5829.95
805.475	5799.89
805.805	5770.29
806.136	5749.5
806.466	5811.64
806.796	5807.35
807.126	5758.99
807.457	5742.26
807.787	5718.31
808.117	5703.17
808.447	5633.79
808.777	5717.41
809.107	5658.65
809.436	5632.44
809.766	5635.15
810.096	5606
810.426	5592.44
810.755	5582.27
811.085	5603.74
811.414	5532.78
811.744	5535.04
812.073	5519.9
812.403	5510.41
812.732	5446.68
813.061	5501.37
813.39	5411.65
813.719	5466.79
814.049	5422.05
814.378	5446.45
814.707	5390.18
815.036	5453.68
815.365	5328.26
815.693	5319.45
816.022	5323.52
816.351	5297.98
816.68	5326.68
817.008	5338.43
817.337	5271.77
817.665	5285.33
817.994	5262.95
818.322	5239.9
818.651	5257.98
818.979	5227.93
819.307	5276.74
819.636	5230.64
819.964	5240.58
820.292	5196.97
820.62	5147.93
820.948	5189.96
821.276	5195.84
821.604	5162.17
821.932	5206.69
822.259	5212.33
822.587	5203.52
822.915	5165.1
823.243	5170.75
823.57	5129.17
823.898	5167.14
824.225	5154.03
824.553	5134.6
824.88	5171.43
825.207	5187.48
825.535	5200.81
825.862	5211.2
826.189	5165.1
826.516	5156.97
826.843	5139.79
827.17	5191.09
827.497	5189.51
827.824	5134.14
828.151	5136.4
828.478	5160.13
828.805	5156.06
829.131	5141.83
829.458	5114.03
829.785	5086.91
830.111	5107.48
830.438	5192.45
830.764	5162.84
831.09	5133.01
831.417	5136.4
831.743	5160.36
832.069	5127.14
832.395	5141.38
832.722	5128.04
833.048	5112
833.374	5114.03
833.7	5067.25
834.026	5055.05
834.351	5056.18
834.677	5064.54
835.003	5080.59
835.329	5106.12
835.654	5104.77
835.98	4995.17
836.306	5046.92
836.631	5056.41
836.956	5084.88
837.282	5012.57
837.607	5016.41
837.932	4994.94
838.258	5000.14
838.583	4952
838.908	4962.17
839.233	4962.85
839.558	5055.05
839.883	4938.67
840.208	4959.46
840.533	5007.82
840.858	4977.09
841.182	4953.81
841.507	4969.63
841.832	4906.81
842.156	4880.37
842.481	4907.03
842.805	4893.7
843.13	4921.27
843.454	4893.7
843.778	4840.82
844.103	4866.81
844.427	4841.72
844.751	4811.22
845.075	4821.84
845.399	4806.24
845.723	4767.37
846.047	4765.11
846.371	4766.47
846.695	4771.22
847.019	4746.36
847.343	4688.73
847.666	4683.31
847.99	4679.92
848.313	4649.86
848.637	4608.73
848.96	4621.84
849.284	4628.62
849.607	4578.45
849.931	4536.19
850.254	4500.26
850.577	4525.12
850.9	4461.17
851.223	4483.99
851.546	4481.51
851.869	4441.96
852.192	4463.65
852.515	4379.14
852.838	4421.4
853.161	4404.9
853.483	4373.94
853.806	4355.18
854.129	4369.64
854.451	4337.78
854.774	4347.95
855.096	4279.48
855.419	4267.73
855.741	4311.12
856.063	4273.83
856.385	4314.28
856.708	4265.01
857.03	4225.02
857.352	4227.95
857.674	4245.58
857.996	4193.6
858.318	4183.66
858.64	4191.12
858.961	4202.87
859.283	4177.79
859.605	4162.64
859.926	4162.64
860.248	4095.98
860.57	4119.71
860.891	4125.13
861.212	4128.07
861.534	4106.83
861.855	4051.69
862.176	4036.09
862.498	4105.47
862.819	4083.1
863.14	4018.02
863.461	4032.7
863.782	4029.54
864.103	4026.83
864.424	3955.87
864.745	4046.26
865.065	4018.02
865.386	4018.24
865.707	3999.49
866.027	4018.47
866.348	4008.3
866.668	3999.71
866.989	3982.54
867.309	3956.32
867.63	3966.72
867.95	3951.35
868.27	3919.26
868.59	3975.53
868.91	3928.07
869.23	3969.2
869.55	3926.94
869.87	3894.18
870.19	3907.51
870.51	3951.8
870.83	3942.99
871.15	3835.87
871.469	3859.15
871.789	3861.86
872.109	3854.86
872.428	3830.68
872.748	3850.34
873.067	3860.05
873.386	3826.16
873.706	3819.15
874.025	3819.15
874.344	3805.37
874.663	3802.2
874.982	3798.59
875.301	3790.45
875.62	3787.97
875.939	3760.4
876.258	3763.56
876.577	3738.25
876.896	3770.11
877.214	3737.8
877.533	3747.06
877.852	3762.43
878.17	3776.67
878.489	3765.59
878.807	3774.86
879.125	3760.62
879.444	3721.75
879.762	3691.7
880.08	3688.98
880.398	3665.71
880.716	3748.87
881.034	3712.94
881.352	3678.36
881.67	3655.09
881.988	3720.17
882.306	3688.76
882.624	3653.73
882.941	3670.91
883.259	3628.87
883.577	3655.31
883.894	3680.85
884.212	3665.26
884.529	3667.74
884.846	3635.43
885.164	3638.14
885.481	3647.18
885.798	3583.68
886.115	3573.28
886.432	3567.63
886.75	3515.66
887.067	3592.72
887.383	3545.03
887.7	3529.89
888.017	3510.68
888.334	3499.39
888.651	3506.84
888.967	3531.47
889.284	3542.77
889.6	3432.95
889.917	3457.35
890.233	3454.87
890.55	3457.13
890.866	3449.67
891.182	3452.15
891.498	3430.46
891.815	3424.13
892.131	3430.69
892.447	3443.57
892.763	3414.64
893.079	3406.51
893.395	3387.3
893.71	3372.16
894.026	3371.93
894.342	3336.68
894.657	3357.24
894.973	3349.56
895.289	3356.56
895.604	3308.2
895.92	3259.39
896.235	3288.32
896.55	3284.02
896.865	3286.06
897.181	3248.32
897.496	3284.93
897.811	3241.77
898.126	3225.49
898.441	3202.44
898.756	3213.52
899.071	3169.68
899.386	3193.86
899.7	3169.9
900.015	3181.88
900.33	3160.19
900.644	3142.33
900.959	3168.32
901.273	3157.25
901.588	3136.01
901.902	3169.22
902.216	3122.45
902.531	3110.47
902.845	3096.46
903.159	3100.75
903.473	3064.82
903.787	3066.4
904.101	3025.05
904.415	3046.06
904.729	3009
905.042	2999.29
905.356	2989.79
905.67	2966.74
905.984	3011.04
906.297	2968.78
906.611	2960.42
906.924	2944.82
907.237	2970.81
907.551	2947.99
907.864	2909.57
908.177	2943.69
908.491	2919.97
908.804	2906.41
909.117	2875.22
909.43	2842
909.743	2851.27
910.056	2843.13
910.368	2849.01
910.681	2880.42
910.994	2790.93
911.307	2782.34
911.619	2813.75
911.932	2838.61
912.244	2739.86
912.557	2775.11
912.869	2777.6
913.181	2757.94
913.494	2763.59
913.806	2754.32
914.118	2722.23
914.43	2741.21
914.742	2704.83
915.054	2703.47
915.366	2704.83
915.678	2694.43
915.99	2654.89
916.302	2644.94
916.613	2618.5
916.925	2608.11
917.236	2595.23
917.548	2610.6
917.859	2595.23
918.171	2583.93
918.482	2569.47
918.794	2555.46
919.105	2586.42
919.416	2554.1
919.727	2555.23
920.038	2553.42
920.349	2529.69
920.66	2513.87
920.971	2522.69
921.282	2510.71
921.593	2480.88
921.903	2470.94
922.214	2460.99
922.525	2439.07
922.835	2449.7
923.146	2420.32
923.456	2431.84
923.767	2437.49
924.077	2412.41
924.387	2422.58
924.697	2401.34
925.008	2394.33
925.318	2418.74
925.628	2378.51
925.938	2367.44
926.248	2364.5
926.558	2367.89
926.867	2328.79
927.177	2339.19
927.487	2264.84
927.796	2301.22
928.106	2274.11
928.416	2308.91
928.725	2271.17
929.034	2262.36
929.344	2257.61
929.653	2217.16
929.962	2207.22
930.271	2181.45
930.581	2164.73
930.89	2221.45
931.199	2224.62
931.508	2179.65
931.817	2197.72
932.125	2217.39
932.434	2186.2
932.743	2135.13
933.051	2176.03
933.36	2159.99
933.669	2138.29
933.977	2096.94
934.286	2096.03
934.594	2119.53
934.902	2104.62
935.21	2129.7
935.519	2135.58
935.827	2093.77
936.135	2100.78
936.443	2089.48
936.751	2077.5
937.059	2059.65
937.367	2021.91
937.674	2041.57
937.982	2028.01
938.29	2023.27
938.597	2037.05
938.905	2010.61
939.213	2009.93
939.52	2023.49
939.827	2005.41
940.135	1994.79
940.442	1954.12
940.749	1986.2
941.056	1985.53
941.363	1967.45
941.67	1941.46
941.977	1952.08
942.284	1935.81
942.591	1935.58
942.898	1898.98
943.205	1952.31
943.511	1906.66
943.818	1894.91
944.125	1876.15
944.431	1846.77
944.738	1885.87
945.044	1853.33
945.35	1844.29
945.657	1821.92
945.963	1858.07
946.269	1833.89
946.575	1825.98
946.881	1811.52
947.187	1829.6
947.493	1811.52
947.799	1796.15
948.105	1797.96
948.41	1760.67
948.716	1752.09
949.022	1734.91
949.327	1749.37
949.633	1761.8
949.938	1738.3
950.244	1742.6
950.549	1743.5
950.854	1738.3
951.16	1714.8
951.465	1751.63
951.77	1720.22
952.075	1694.01
952.38	1719.32
952.685	1720.68
952.99	1710.05
953.294	1720.9
953.599	1695.59
953.904	1722.48
954.209	1662.15
954.513	1641.36
954.818	1658.53
955.122	1658.76
955.426	1608.14
955.731	1637.97
956.035	1641.36
956.339	1637.51
956.643	1609.49
956.948	1612.43
957.252	1627.12
957.556	1616.95
957.86	1580.57
958.163	1637.74
958.467	1594.8
958.771	1564.52
959.075	1585.09
959.378	1537.4
959.682	1559.78
959.985	1562.04
960.289	1549.38
960.592	1531.75
960.896	1548.7
961.199	1517.97
961.502	1515.48
961.805	1495.6
962.108	1494.24
962.411	1515.93
962.714	1477.52
963.017	1494.47
963.32	1473.22
963.623	1503.96
963.926	1509.83
964.228	1490.62
964.531	1476.16
964.833	1467.57
965.136	1480
965.438	1450.4
965.741	1460.34
966.043	1465.09
966.345	1464.86
966.648	1424.41
966.95	1435.94
967.252	1430.29
967.554	1432.32
967.856	1390.74
968.158	1405.43
968.46	1397.97
968.761	1399.33
969.063	1415.37
969.365	1384.19
969.666	1359.1
969.968	1371.76
970.269	1379.44
970.571	1377.41
970.872	1353.23
971.174	1327.47
971.475	1374.92
971.776	1346.45
972.077	1345.32
972.378	1320.46
972.679	1323.62
972.98	1335.37
973.281	1335.15
973.582	1300.35
973.883	1322.04
974.183	1298.99
974.484	1288.37
974.785	1322.27
975.085	1268.48
975.386	1291.99
975.686	1303.74
975.986	1282.72
976.287	1258.99
976.587	1246.11
976.887	1238.43
977.187	1259.22
977.487	1250.4
977.787	1258.99
978.087	1258.31
978.387	1253.12
978.687	1223.06
978.987	1248.37
979.286	1233.46
979.586	1222.38
979.885	1204.08
980.185	1230.29
980.484	1189.16
980.784	1235.49
981.083	1189.62
981.382	1191.42
981.682	1218.99
981.981	1202.04
982.28	1170.86
982.579	1191.42
982.878	1166.79
983.177	1140.8
983.475	1177.64
983.774	1161.14
984.073	1176.96
984.372	1114.14
984.67	1154.59
984.969	1146
985.267	1173.8
985.566	1137.41
985.864	1144.42
986.162	1101.48
986.461	1124.76
986.759	1112.1
987.057	1082.95
987.355	1110.52
987.653	1066.91
987.951	1121.14
988.249	1094.25
988.547	1091.99
988.844	1083.4
989.142	1101.71
989.44	1092.67
989.737	1063.52
990.035	1078.88
990.332	1076.17
990.63	1041.14
990.927	1075.27
991.224	1046.79
991.521	1063.07
991.819	1047.92
992.116	1032.11
992.413	1036.4
992.71	1037.98
993.006	1043.4
993.303	1022.39
993.6	1032.11
993.897	1010.19
994.193	1028.04
994.49	1029.62
994.787	1003.18
995.083	1019.68
995.379	1000.69
995.676	999.79
995.972	1012.45
996.268	984.65
996.565	997.53
996.861	976.29
997.157	978.1
997.453	973.8
997.749	967.47
998.044	970.86
998.34	931.09
998.636	953.24
998.932	946.68
999.227	958.44
999.523	952.56
999.818	935.39
1000.114	956.63
1000.409	937.42
1000.704	931.09
1001	916.63
1001.295	921.6
1001.59	911.66
1001.885	952.56
1002.18	936.97
1002.475	905.1
1002.77	894.48
1003.065	913.69
1003.359	898.78
1003.654	916.63
1003.949	871.43
1004.243	904.43
1004.538	877.53
1004.832	886.35
1005.127	892.22
1005.421	876.4
1005.715	866.91
1006.009	869.62
1006.304	854.03
1006.598	854.03
1006.892	832.11
1007.186	841.6
1007.48	847.48
1007.773	833.24
1008.067	875.73
1008.361	828.04
1008.655	832.79
1008.948	832.11
1009.242	858.32
1009.535	826.24
1009.829	830.53
1010.122	818.33
1010.415	835.27
1010.708	795.05
1011.001	814.48
1011.295	816.07
1011.588	789.4
1011.881	798.67
1012.173	813.81
1012.466	800.7
1012.759	798.67
1013.052	775.16
1013.344	768.16
1013.637	776.07
1013.93	779.68
1014.222	758.44
1014.514	775.62
1014.807	760.93
1015.099	757.31
1015.391	759.8
1015.683	764.54
1015.976	746.24
1016.268	757.54
1016.56	744.43
1016.851	722.51
1017.143	714.15
1017.435	727.71
1017.727	755.28
1018.018	708.72
1018.31	732.9
1018.602	731.55
1018.893	714.37
1019.185	716.63
1019.476	696.97
1019.767	676.86
1020.058	720.25
1020.35	699.01
1020.641	691.55
1020.932	688.16
1021.223	704.2
1021.514	695.62
1021.804	674.15
1022.095	689.97
1022.386	687.93
1022.677	673.25
1022.967	675.73
1023.258	669.4
1023.548	671.44
1023.839	658.78
1024.129	664.43
1024.419	666.92
1024.709	644.09
1025	665.34
1025.29	654.94
1025.58	633.47
1025.87	654.04
1026.16	652
1026.449	633.47
1026.739	651.32
1027.029	628.27
1027.319	652
1027.608	627.82
1027.898	632.57
1028.187	627.6
1028.477	622.4
1028.766	587.82
1029.055	608.61
1029.344	604.32
1029.634	601.83
1029.923	602.29
1030.212	593.47
1030.501	595.96
1030.79	596.86
1031.078	598.9
1031.367	585.11
1031.656	616.98
1031.945	589.86
1032.233	591.89
1032.522	562.29
1032.81	583.3
1033.099	583.76
1033.387	577.2
1033.675	567.03
1033.963	562.97
1034.251	565
1034.54	562.51
1034.828	574.26
1035.116	566.58
1035.403	575.62
1035.691	558.9
1035.979	543.08
1036.267	543.98
1036.554	547.15
1036.842	546.69
1037.129	540.37
1037.417	548.05
1037.704	554.38
1037.992	549.63
1038.279	520.48
1038.566	516.41
1038.853	516.41
1039.14	516.41
