Data from black_metal_pc_casing_FLMS001491_00074.txt Node
Date: Wed Feb 08 14:33:28 GMT 2017
User: dcchb
Spectrometer: FLMS00149
Trigger mode: 0
Integration Time (sec): 2.000000E-2
Scans to average: 10
Electric dark correction enabled: true
Nonlinearity correction enabled: false
Boxcar width: 0
XAxis mode: Wavelengths
Number of Pixels in Spectrum: 2048
>>>>>Begin Spectral Data<<<<<
341.393	-11.86
341.776	-11.86
342.16	-11.86
342.543	-39.89
342.927	-53.9
343.31	-77.63
343.693	-66.55
344.077	-59.77
344.46	-46.44
344.843	-59.09
345.226	-43.05
345.61	-28.59
345.993	-16.16
346.376	-7.34
346.759	4.41
347.142	27.23
347.525	32.43
347.908	80.79
348.291	65.2
348.674	89.38
349.057	105.19
349.44	137.06
349.823	151.07
350.206	160.79
350.588	190.16
350.971	216.83
351.354	221.58
351.737	228.81
352.119	248.02
352.502	252.99
352.884	279.2
353.267	274
353.65	271.07
354.032	272.65
354.414	308.13
354.797	301.8
355.179	325.75
355.562	322.59
355.944	318.97
356.326	334.34
356.709	319.88
357.091	342.48
357.473	326.66
357.855	330.27
358.238	348.13
358.62	357.84
359.002	347.22
359.384	334.12
359.766	337.28
360.148	328.69
360.53	318.07
360.912	343.15
361.294	328.69
361.676	314.23
362.057	327.56
362.439	326.88
362.821	329.6
363.203	307.22
363.584	325.08
363.966	333.89
364.348	323.95
364.729	321.23
365.111	331.18
365.493	328.92
365.874	329.82
366.256	331.18
366.637	308.81
367.019	308.13
367.4	304.29
367.781	314.91
368.163	330.5
368.544	321.23
368.925	300.22
369.306	325.75
369.688	295.92
370.069	333.21
370.45	304.29
370.831	332.08
371.212	318.52
371.593	317.62
371.974	309.03
372.355	331.4
372.736	305.42
373.117	316.49
373.498	351.97
373.879	326.66
374.26	302.7
374.641	313.1
375.021	325.08
375.402	327.56
375.783	323.72
376.163	333.66
376.544	325.08
376.925	319.65
377.305	326.88
377.686	329.14
378.066	346.09
378.447	336.15
378.827	331.4
379.208	347
379.588	351.74
379.968	350.39
380.349	358.3
380.729	334.12
381.109	337.96
381.489	348.58
381.87	336.83
382.25	329.37
382.63	367.56
383.01	355.58
383.39	357.62
383.77	364.17
384.15	378.41
384.53	364.17
384.91	358.97
385.29	358.3
385.67	372.31
386.049	366.88
386.429	372.08
386.809	383.83
387.189	379.09
387.568	358.3
387.948	372.08
388.328	355.58
388.707	388.13
389.087	379.99
389.466	386.09
389.846	385.19
390.225	399.88
390.605	397.62
390.984	380.89
391.363	387
391.743	396.49
392.122	397.39
392.501	416.83
392.881	421.34
393.26	435.36
393.639	420.44
394.018	398.97
394.397	414.57
394.776	385.19
395.155	436.26
395.534	393.1
395.913	406.88
396.292	415.7
396.671	426.99
397.05	462.25
397.429	420.89
397.808	421.8
398.186	430.38
398.565	429.25
398.944	447.56
399.323	451.17
399.701	439.88
400.08	426.77
400.458	481
400.837	442.81
401.215	459.99
401.594	459.54
401.972	429.25
402.351	472.87
402.729	438.75
403.107	463.15
403.486	470.61
403.864	476.03
404.242	502.02
404.62	473.77
404.999	479.87
405.377	487.33
405.755	481
406.133	495.47
406.511	513.55
406.889	502.7
407.267	496.6
407.645	482.13
408.023	504.96
408.401	513.77
408.779	502.92
409.156	512.64
409.534	523.49
409.912	510.38
410.29	518.74
410.667	536.6
411.045	543.15
411.422	533.66
411.8	538.18
412.178	547.44
412.555	547.22
412.933	559.42
413.31	598.97
413.687	572.75
414.065	573.43
414.442	594.9
414.819	595.58
415.197	548.12
415.574	619.31
415.951	587.22
416.328	600.55
416.705	618.18
417.082	594.22
417.46	591.06
417.837	623.83
418.214	629.25
418.591	603.03
418.967	645.75
419.344	621.11
419.721	628.12
420.098	628.8
420.475	647.78
420.852	626.31
421.228	650.72
421.605	661.11
421.982	659.53
422.358	664.73
422.735	666.08
423.111	688.46
423.488	671.96
423.864	690.94
424.241	683.03
424.617	684.61
424.994	688.91
425.37	695.69
425.746	700.43
426.123	725.07
426.499	727.78
426.875	737.72
427.251	740.43
427.627	738.4
428.003	742.24
428.379	761.67
428.756	759.64
429.132	766.42
429.507	760.77
429.883	799.19
430.259	780.21
430.635	791.28
431.011	788.11
431.387	813.42
431.763	807.1
432.138	806.19
432.514	824.72
432.89	807.1
433.265	847.1
433.641	847.32
434.016	883.03
434.392	889.36
434.767	873.08
435.143	892.29
435.518	898.85
435.894	910.37
436.269	907.89
436.644	929.13
437.02	949.01
437.395	943.82
437.77	944.49
438.145	941.11
438.52	974.1
438.895	966.87
439.271	959.64
439.646	970.93
440.021	972.06
440.395	1015.45
440.77	1001.44
441.145	1015.45
441.52	1003.02
441.895	1000.54
442.27	1029.46
442.645	1032.4
443.019	1033.98
443.394	1031.5
443.769	1074.21
444.143	1037.83
444.518	1043.7
444.892	1048.9
445.267	1069.01
445.641	1086.19
446.016	1086.41
446.39	1094.32
446.764	1070.59
447.139	1074.89
447.513	1095.45
447.887	1099.07
448.262	1103.36
448.636	1100.2
449.01	1143.59
449.384	1144.26
449.758	1156.69
450.132	1157.37
450.506	1162.34
450.88	1162.34
451.254	1173.19
451.628	1188.78
452.002	1179.29
452.376	1215.9
452.75	1223.81
453.123	1208.89
453.497	1246.86
453.871	1221.1
454.244	1280.31
454.618	1259.51
454.992	1278.72
455.365	1291.38
455.739	1304.94
456.112	1318.72
456.486	1338.61
456.859	1357.37
457.232	1383.58
457.606	1367.31
457.979	1379.74
458.352	1403.01
458.725	1408.21
459.099	1443.69
459.472	1449.79
459.845	1473.52
460.218	1474.42
460.591	1516.91
460.964	1491.15
461.337	1515.1
461.71	1544.48
462.083	1563.24
462.456	1559.17
462.829	1554.65
463.201	1602.78
463.574	1633.97
463.947	1629.45
464.32	1661.54
464.692	1688.66
465.065	1685.27
465.438	1718.03
465.81	1717.58
466.183	1701.76
466.555	1744.02
466.928	1792.61
467.3	1748.77
467.672	1788.09
468.045	1847.3
468.417	1838.93
468.789	1823.34
469.161	1894.53
469.534	1914.86
469.906	1979.5
470.278	1947.18
470.65	2003.22
471.022	1996.9
471.394	2040.74
471.766	2059.27
472.138	2074.18
472.51	2111.47
472.882	2162.54
473.253	2161.86
473.625	2195.08
473.997	2243.44
474.369	2228.75
474.74	2252.71
475.112	2317.11
475.484	2358.7
475.855	2390.11
476.227	2408.41
476.598	2440.73
476.97	2474.4
477.341	2491.35
477.713	2555.3
478.084	2576.32
478.455	2649.53
478.827	2647.28
479.198	2708.74
479.569	2737.44
479.94	2846.37
480.311	2817.44
480.682	2935.63
481.053	2952.35
481.424	2951.67
481.795	3023.99
482.166	3077.32
482.537	3118
482.908	3161.16
483.279	3167.71
483.65	3243.87
484.021	3284.77
484.391	3326.35
484.762	3354.6
485.133	3381.27
485.503	3432.79
485.874	3487.93
486.244	3522.73
486.615	3575.39
486.985	3624.88
487.356	3663.07
487.726	3704.42
488.097	3781.26
488.467	3777.64
488.837	3853.57
489.207	3877.53
489.578	3991.65
489.948	4028.48
490.318	4023.51
490.688	4094.24
491.058	4094.02
491.428	4155.26
491.798	4216.05
492.168	4313.22
492.538	4338.3
492.908	4361.35
493.278	4360.22
493.648	4431.18
494.017	4483.38
494.387	4538.98
494.757	4538.3
495.126	4600.9
495.496	4593.89
495.866	4668.01
496.235	4676.83
496.605	4710.95
496.974	4777.16
497.344	4863.94
497.713	4849.25
498.082	4862.13
498.452	4959.3
498.821	4899.65
499.19	4970.6
499.559	5006.08
499.928	5082.92
500.298	5065.97
500.667	5112.07
501.036	5094.67
501.405	5139.19
501.774	5189.58
502.143	5181.67
502.512	5264.16
502.88	5286.53
503.249	5327.66
503.618	5359.52
503.987	5417.6
504.356	5448.78
504.724	5460.53
505.093	5456.69
505.462	5489.91
505.83	5581.66
506.199	5630.93
506.567	5665.73
506.936	5701.66
507.304	5698.72
507.672	5766.74
508.041	5783.46
508.409	5813.52
508.777	5943.01
509.145	5923.35
509.514	5957.24
509.882	5942.1
510.25	5933.97
510.618	6038.82
510.986	6036.56
511.354	6108.2
511.722	6148.88
512.09	6255.54
512.458	6224.36
512.826	6290.12
513.193	6312.26
513.561	6356.78
513.929	6383.45
514.297	6478.59
514.664	6514.97
515.032	6503.44
515.4	6555.65
515.767	6595.19
516.135	6609.88
516.502	6643.33
516.869	6745.92
517.237	6795.87
517.604	6785.7
517.972	6849.42
518.339	6844.23
518.706	6908.41
519.073	6986.37
519.44	7035.86
519.808	7070.21
520.175	7115.86
520.542	7214.61
520.909	7255.52
521.276	7300.26
521.643	7309.98
522.009	7379.81
522.376	7380.48
522.743	7478.56
523.11	7508.62
523.477	7580.93
523.843	7682.62
524.21	7759.46
524.577	7813.47
524.943	7829.96
525.31	7888.27
525.676	7971.2
526.043	8033.12
526.409	8095.49
526.776	8173.46
527.142	8221.59
527.508	8208.03
527.874	8330.06
528.241	8375.49
528.607	8323.06
528.973	8391.53
529.339	8457.97
529.705	8580.9
530.071	8643.73
530.437	8644.86
530.803	8695.25
531.169	8690.73
531.535	8712.2
531.901	8749.26
532.267	8754.91
532.632	8884.4
532.998	8872.42
533.364	8939.76
533.73	9014.79
534.095	9087.78
534.461	9053.89
534.826	9120.78
535.192	9243.49
535.557	9273.32
535.923	9236.03
536.288	9302.02
536.653	9349.47
537.019	9336.59
537.384	9420.43
537.749	9476.93
538.114	9480.32
538.479	9552.86
538.845	9502.91
539.21	9545.85
539.575	9608.67
539.94	9623.36
540.305	9691.84
540.67	9649.35
541.034	9735
541.399	9764.6
541.764	9767.54
542.129	9807.76
542.494	9739.97
542.858	9890.93
543.223	9845.28
543.587	9977.7
543.952	10010.92
544.316	10069
544.681	9991.26
545.045	10088.44
545.41	10149.68
545.774	10180.41
546.138	10218.38
546.503	10220.64
546.867	10167.53
547.231	10319.62
547.595	10349.22
547.959	10337.92
548.324	10386.05
548.688	10367.52
549.052	10489.55
549.416	10477.8
549.779	10530.01
550.143	10555.09
550.507	10621.3
550.871	10610.68
551.235	10674.41
551.599	10731.81
551.962	10746.5
552.326	10872.37
552.689	10881.41
553.053	10835.53
553.417	10859.49
553.78	11014.51
554.143	10939.49
554.507	11050.9
554.87	11116.66
555.234	11161.18
555.597	11125.24
555.96	11170.67
556.323	11220.83
556.686	11223.77
557.05	11356.2
557.413	11445.91
557.776	11440.26
558.139	11464.44
558.502	11482.75
558.865	11554.61
559.228	11642.07
559.59	11648.62
559.953	11668.05
560.316	11781.27
560.679	11826.92
561.041	11885.68
561.404	11937.43
561.767	11984.88
562.129	11929.06
562.492	12051.32
562.854	12162.28
563.217	12111.88
563.579	12231.2
563.941	12274.14
564.304	12337.19
564.666	12402.27
565.028	12490.63
565.39	12521.14
565.753	12546.9
566.115	12578.77
566.477	12696.73
566.839	12676.16
567.201	12730.4
567.563	12807.23
567.925	12917.06
568.287	12757.97
568.648	12860.79
569.01	12962.03
569.372	13106.66
569.734	12939.89
570.095	13090.16
570.457	13177.39
570.819	13171.74
571.18	13120.22
571.542	13251.97
571.903	13193.89
572.265	13342.14
572.626	13434.34
572.987	13433.66
573.349	13465.75
573.71	13494.22
574.071	13577.38
574.432	13498.97
574.794	13593.65
575.155	13601.56
575.516	13602.02
575.877	13675.01
576.238	13805.17
576.599	13727.21
576.96	13803.14
577.32	13787.77
577.681	13838.17
578.042	13887.21
578.403	13870.93
578.763	13817.38
579.124	13923.81
579.485	14004.49
579.845	14010.82
580.206	14041.1
580.566	14110.48
580.927	14044.04
581.287	14026.86
581.648	14050.37
582.008	14108.89
582.368	14008.78
582.728	14105.73
583.089	14077.93
583.449	14041.1
583.809	14072.74
584.169	14095.11
584.529	14102.57
584.889	14181.44
585.249	14114.09
585.609	14094.21
585.969	14187.54
586.329	14132.4
586.688	14131.49
587.048	14168.1
587.408	14170.14
587.768	14173.98
588.127	14092.85
588.487	14142.11
588.846	14245.61
589.206	14116.8
589.565	14231.83
589.925	14249.68
590.284	14103.92
590.643	14211.72
591.003	14181.89
591.362	14271.38
591.721	14287.87
592.08	14185.73
592.44	14233.19
592.799	14227.54
593.158	14154.54
593.517	14237.48
593.876	14220.76
594.235	14240.19
594.593	14297.14
594.952	14342.56
595.311	14298.49
595.67	14270.7
596.029	14403.8
596.387	14404.93
596.746	14293.97
597.104	14299.17
597.463	14290.36
597.822	14366.97
598.18	14386.63
598.538	14328.32
598.897	14468.21
599.255	14345.95
599.613	14607.64
599.972	14426.85
600.33	14475.21
600.688	14424.14
601.046	14512.05
601.404	14585.49
601.762	14436.12
602.12	14472.5
602.478	14574.42
602.836	14556.57
603.194	14437.02
603.552	14548.43
603.91	14536.23
604.268	14656
604.625	14559.73
604.983	14649.22
605.341	14588.2
605.698	14620.75
606.056	14704.36
606.413	14611.48
606.771	14694.19
607.128	14712.72
607.485	14605.6
607.843	14753.62
608.2	14738.03
608.557	14816.22
608.914	14741.42
609.272	14849.67
609.629	14856.67
609.986	14844.92
610.343	14766.73
610.7	14966.5
611.057	14887.41
611.414	14935.77
611.771	14912.49
612.127	14949.78
612.484	14941.87
612.841	14973.96
613.198	14917.01
613.554	14988.87
613.911	14971.7
614.267	15013.05
614.624	15035.2
614.98	15057.8
615.337	15110.45
615.693	15079.94
616.05	15107.74
616.406	15124.46
616.762	14993.84
617.118	15063.9
617.475	15146.83
617.831	15196.32
618.187	15173.5
618.543	15156.55
618.899	15224.8
619.255	15247.85
619.611	15196.55
619.967	15203.56
620.323	15290.11
620.678	15180.5
621.034	15273.84
621.39	15181.41
621.746	15157.45
622.101	15399.93
622.457	15263.89
622.812	15233.61
623.168	15283.78
623.523	15261.41
623.879	15319.03
624.234	15222.99
624.589	15305.47
624.945	15358.58
625.3	15346.6
625.655	15290.33
626.01	15218.24
626.365	15379.6
626.72	15331.91
627.075	15270.22
627.43	15248.98
627.785	15161.52
628.14	15239.49
628.495	15244.46
628.85	15260.28
629.205	15156.32
629.559	15272.71
629.914	15237.45
630.269	15234.97
630.623	15114.29
630.978	15086.5
631.332	15204.23
631.687	15178.7
632.041	15238.13
632.396	15158.58
632.75	15187.96
633.104	15077.23
633.459	15048.76
633.813	15035.2
634.167	15027.29
634.521	15024.12
634.875	15029.55
635.229	15037.68
635.583	14916.1
635.937	15007.85
636.291	15027.74
636.645	14974.63
636.999	14926.05
637.352	14995.88
637.706	14888.31
638.06	14874.07
638.413	14891.92
638.767	14862.77
639.121	14853.28
639.474	14724.7
639.828	14781.19
640.181	14733.96
640.534	14857.12
640.888	14771.93
641.241	14681.08
641.594	14756.11
641.947	14778.48
642.301	14691.25
642.654	14711.14
643.007	14682.44
643.36	14644.47
643.713	14571.71
644.066	14702.33
644.419	14570.58
644.771	14458.26
645.124	14276.8
645.477	14319.06
645.83	14140.98
646.182	14090.82
646.535	14032.29
646.888	14088.1
647.24	13932.63
647.593	14046.3
647.945	14132.85
648.298	13967.88
648.65	13909.35
649.002	13990.03
649.355	14006.52
649.707	13956.36
650.059	14031.83
650.411	14227.08
650.763	14196.8
651.115	14285.39
651.467	14346.4
651.819	14286.07
652.171	14251.94
652.523	14203.81
652.875	14206.29
653.227	14135.79
653.578	14259.4
653.93	14198.61
654.282	14220.76
654.633	14068.67
654.985	14155
655.337	14202
655.688	14157.25
656.039	14174.88
656.391	14037.48
656.742	14079.06
657.094	14076.13
657.445	14169.91
657.796	14052.17
658.147	14009.01
658.498	13961.55
658.849	14094.43
659.2	14099.4
659.551	14065.73
659.902	13983.7
660.253	13994.32
660.604	14007.88
660.955	13924.49
661.306	13987.32
661.656	13869.8
662.007	13914.55
662.358	13891.05
662.708	14011.95
663.059	13920.2
663.409	13893.31
663.76	13929.01
664.11	13921.33
664.461	13910.48
664.811	13911.16
665.161	13933.53
665.511	13845.62
665.862	13863.25
666.212	13935.34
666.562	13928.79
666.912	13830.48
667.262	13915.23
667.612	13869.35
667.962	13847.43
668.312	13813.31
668.662	13930.37
669.011	13856.02
669.361	13791.84
669.711	13815.12
670.06	13838.17
670.41	13752.97
670.76	13836.59
671.109	13838.62
671.459	13859.64
671.808	13731.73
672.157	13762.69
672.507	13668.45
672.856	13770.37
673.205	13718.62
673.554	13769.92
673.904	13795.68
674.253	13784.38
674.602	13722.24
674.951	13566.76
675.3	13379.2
675.649	13681.56
675.998	13669.36
676.346	13651.51
676.695	13655.12
677.044	13603.82
677.393	13591.85
677.741	13639.98
678.09	13578.74
678.438	13561.34
678.787	13583.26
679.135	13582.81
679.484	13491.96
679.832	13555.69
680.181	13457.61
680.529	13480.44
680.877	13407.67
681.225	13446.99
681.573	13520.89
681.922	13390.04
682.27	13336.26
682.618	13418.52
682.966	13372.42
683.314	13336.94
683.661	13374
684.009	13291.97
684.357	13200.22
684.705	13237.51
685.053	13222.14
685.4	13180.33
685.748	13113.44
686.095	13202.48
686.443	13072.76
686.79	13045.42
687.138	13075.48
687.485	13043.16
687.832	13003.84
688.18	12967.46
688.527	12947.57
688.874	12910.06
689.221	12924.07
689.568	12853.33
689.915	12851.07
690.262	12839.1
690.609	12841.13
690.956	12728.37
691.303	12740.57
691.65	12760.23
691.997	12625.77
692.344	12547.35
692.69	12647.01
693.037	12678.88
693.383	12461.71
693.73	12592.78
694.077	12477.75
694.423	12413.8
694.769	12456.06
695.116	12455.83
695.462	12394.59
695.808	12257.64
696.155	12345.55
696.501	12231.2
696.847	12318.21
697.193	12121.83
697.539	12224.88
697.885	12148.27
698.231	12093.58
698.577	12041.83
698.923	11997.76
699.269	11939.01
699.614	11954.37
699.96	11849.29
700.306	11928.39
700.651	11825.79
700.997	11898.11
701.342	11780.82
701.688	11779.46
702.033	11739.24
702.379	11704.21
702.724	11672.12
703.069	11719.58
703.415	11570.66
703.76	11636.19
704.105	11672.57
704.45	11602.29
704.795	11522.3
705.14	11503.77
705.485	11440.49
705.83	11417.21
706.175	11388.06
706.52	11380.38
706.865	11343.77
707.209	11359.81
707.554	11327.72
707.899	11335.86
708.243	11206.6
708.588	11263.77
708.932	11216.54
709.277	11169.99
709.621	11213.83
709.966	11075.53
710.31	11109.43
710.654	11008.64
710.998	11024.91
711.342	11086.38
711.687	11095.19
712.031	10981.29
712.375	10984.46
712.719	10951.24
713.063	10945.14
713.407	10993.72
713.75	10899.49
714.094	10883.22
714.438	10775.42
714.782	10850.45
715.125	10805.25
715.469	10841.41
715.812	10750.34
716.156	10755.08
716.499	10717.8
716.843	10727.29
717.186	10624.92
717.53	10645.48
717.873	10651.36
718.216	10590.34
718.559	10550.57
718.902	10578.14
719.246	10573.39
719.589	10597.8
719.932	10487.07
720.275	10489.33
720.617	10490.91
720.96	10444.58
721.303	10473.06
721.646	10400.07
721.989	10396.9
722.331	10458.6
722.674	10403.91
723.016	10325.04
723.359	10313.97
723.701	10372.04
724.044	10277.81
724.386	10209.34
724.729	10331.37
725.071	10334.53
725.413	10309.22
725.755	10261.99
726.097	10212.5
726.439	10170.92
726.782	10166.63
727.124	10107.42
727.465	10186.06
727.807	10195.33
728.149	10144.93
728.491	10145.16
728.833	10132.05
729.175	10064.26
729.516	10076.23
729.858	9989.68
730.199	10044.59
730.541	10057.48
730.882	9930.02
731.224	10046.85
731.565	9921.66
731.906	9973.64
732.248	9908.33
732.589	9913.52
732.93	9918.27
733.271	9893.19
733.612	9912.85
733.953	9883.02
734.294	9900.19
734.635	9824.94
734.976	9829.46
735.317	9768.9
735.658	9790.36
735.999	9791.04
736.339	9759.63
736.68	9819.52
737.021	9720.99
737.361	9723.93
737.702	9804.6
738.042	9663.59
738.383	9622.23
738.723	9650.25
739.063	9649.12
739.404	9639.63
739.744	9683.02
740.084	9616.81
740.424	9687.99
740.764	9536.13
741.104	9632.4
741.444	9529.58
741.784	9510.37
742.124	9498.62
742.464	9495.46
742.804	9525.74
743.143	9415.46
743.483	9544.95
743.823	9349.02
744.162	9415.46
744.502	9394.89
744.841	9405.74
745.181	9461.33
745.52	9393.09
745.86	9374.56
746.199	9356.25
746.538	9383.6
746.877	9330.94
747.216	9352.18
747.556	9346.31
747.895	9336.14
748.234	9287.78
748.573	9302.92
748.911	9247.78
749.25	9290.94
749.589	9201.45
749.928	9186.76
750.267	9186.09
750.605	9131.85
750.944	9153.32
751.283	9102.02
751.621	9088.01
751.96	9093.43
752.298	9060.67
752.636	9025.41
752.975	8977.73
753.313	8947
753.651	9009.14
753.989	8942.48
754.327	8922.36
754.666	8824.06
755.004	8909.71
755.342	8855.47
755.679	8920.56
756.017	8813.21
756.355	8829.26
756.693	8777.51
757.031	8850.5
757.368	8754.46
757.706	8738.64
758.044	8729.15
758.381	8680.79
758.719	8678.98
759.056	8711.52
759.394	8657.96
759.731	8569.38
760.068	8584.75
760.405	8553.33
760.743	8552.66
761.08	8539.78
761.417	8508.59
761.754	8497.97
762.091	8456.39
762.428	8437.41
762.765	8450.74
763.102	8400.34
763.438	8359.22
763.775	8335.04
764.112	8274.7
764.449	8260.69
764.785	8288.26
765.122	8282.61
765.458	8163.06
765.795	8211.2
766.131	8169.62
766.467	8203.97
766.804	8098.43
767.14	8059.56
767.476	8076.74
767.812	8035.61
768.148	8090.97
768.485	8000.35
768.821	7951.77
769.157	7948.6
769.492	7912.22
769.828	7898.21
770.164	7834.94
770.5	7828.38
770.836	7778.21
771.171	7737.54
771.507	7749.29
771.842	7756.97
772.178	7665.45
772.513	7653.25
772.849	7648.05
773.184	7645.11
773.519	7586.13
773.855	7566.47
774.19	7568.73
774.525	7495.96
774.86	7556.52
775.195	7462.29
775.53	7446.24
775.865	7367.38
776.2	7368.51
776.535	7266.14
776.87	7308.17
777.205	7281.28
777.539	7242.41
777.874	7275.4
778.209	7246.48
778.543	7155.18
778.878	7104.78
779.212	7175.74
779.547	7138.46
779.881	7071.57
780.215	7086.25
780.55	7033.37
780.884	6993.83
781.218	6969.42
781.552	7038.35
781.886	7009.19
782.22	6926.71
782.554	6861.85
782.888	6884.23
783.222	6847.84
783.556	6776.43
783.889	6833.38
784.223	6763.1
784.557	6737.34
784.89	6728.98
785.224	6701.86
785.557	6697.11
785.891	6656.89
786.224	6642.65
786.558	6615.53
786.891	6585.48
787.224	6606.94
787.557	6539.83
787.891	6541.86
788.224	6489.21
788.557	6559.94
788.89	6434.97
789.223	6505.48
789.556	6422.99
789.888	6464.58
790.221	6362.43
790.554	6385.48
790.887	6375.76
791.219	6300.96
791.552	6331.7
791.884	6272.94
792.217	6265.03
792.549	6254.41
792.882	6175.09
793.214	6219.16
793.546	6223.9
793.879	6185.71
794.211	6169.22
794.543	6157.92
794.875	6092.16
795.207	6139.61
795.539	6067.75
795.871	6128.77
796.203	6029.33
796.535	6024.14
796.867	5987.07
797.198	6017.58
797.53	5937.13
797.862	5912.05
798.193	5888.77
798.525	5889
798.856	5883.57
799.188	5895.55
799.519	5816.91
799.85	5814.88
800.182	5802.9
800.513	5820.07
800.844	5807.42
801.175	5783.46
801.506	5748.66
801.837	5752.5
802.168	5705.95
802.499	5660.98
802.83	5667.76
803.161	5616.91
803.491	5628.67
803.822	5620.3
804.153	5606.75
804.483	5555
804.814	5550.25
805.145	5558.61
805.475	5559.51
805.805	5590.93
806.136	5564.49
806.466	5490.36
806.796	5500.08
807.126	5453.75
807.457	5472.29
807.787	5456.01
808.117	5464.83
808.447	5385.96
808.777	5424.38
809.107	5366.3
809.436	5362.23
809.766	5374.21
810.096	5317.94
810.426	5313.65
810.755	5324.72
811.085	5297.83
811.414	5272.29
811.744	5276.13
812.073	5298.73
812.403	5281.33
812.732	5232.74
813.061	5216.47
813.39	5221.44
813.719	5201.11
814.049	5250.82
814.378	5165.85
814.707	5126.98
815.036	5190.94
815.365	5142.58
815.693	5079.98
816.022	5090.83
816.351	5049.25
816.68	5021.9
817.008	5086.76
817.337	5077.72
817.665	5001.56
817.994	5079.3
818.322	5058.96
818.651	5021.45
818.979	5027.78
819.307	4972.41
819.636	4965.18
819.964	4956.59
820.292	4975.12
820.62	5018.29
820.948	4961.11
821.276	5012.64
821.604	4979.19
821.932	4947.1
822.259	4961.79
822.587	4978.51
822.915	4912.75
823.243	4965.41
823.57	4913.43
823.898	4914.79
824.225	4917.72
824.553	4929.47
824.88	4960.21
825.207	4940.55
825.535	4924.28
825.862	4924.5
826.189	4957.95
826.516	4977.16
826.843	4918.4
827.17	4952.75
827.497	4960.21
827.824	4962.69
828.151	4929.93
828.478	4923.15
828.805	4950.94
829.131	4935.8
829.458	4913.43
829.785	4882.7
830.111	4895.13
830.438	4886.54
830.764	4909.14
831.09	4935.12
831.417	4876.37
831.743	4922.92
832.069	4916.59
832.395	4913.88
832.722	4946.42
833.048	4912.75
833.374	4908.01
833.7	4828.23
834.026	4878.63
834.351	4846.99
834.677	4891.74
835.003	4889.7
835.329	4865.97
835.654	4802.02
835.98	4815.58
836.306	4835.92
836.631	4848.35
836.956	4828.69
837.282	4863.49
837.607	4818.97
837.932	4785.07
838.258	4801.34
838.583	4847.44
838.908	4762.47
839.233	4792.08
839.558	4798.86
839.883	4717.96
840.208	4746.2
840.533	4748.24
840.858	4732.64
841.182	4722.7
841.507	4748.24
841.832	4718.18
842.156	4724.06
842.481	4702.59
842.805	4680.22
843.13	4657.39
843.454	4642.7
843.778	4641.35
844.103	4637.96
844.427	4612.65
844.751	4655.13
845.075	4605.64
845.399	4563.16
845.723	4616.26
846.047	4595.02
846.371	4513.44
846.695	4515.25
847.019	4540.56
847.343	4489.94
847.666	4434.12
847.99	4419.88
848.313	4434.57
848.637	4423.27
848.96	4401.13
849.284	4393.9
849.607	4403.84
849.931	4379.43
850.254	4333.11
850.577	4260.79
850.9	4319.77
851.223	4309.83
851.546	4268.48
851.869	4229.61
852.192	4273.9
852.515	4202.04
852.838	4215.37
853.161	4248.14
853.483	4192.77
853.806	4201.58
854.129	4163.62
854.451	4115.94
854.774	4144.64
855.096	4135.37
855.419	4149.61
855.741	4126.78
856.063	4115.71
856.385	4059.44
856.708	4077.52
857.03	4044.98
857.352	4074.58
857.674	4056.96
857.996	4044.98
858.318	4028.03
858.64	3988.93
858.961	4022.61
859.283	4009.95
859.605	3949.61
859.926	4003.62
860.248	3981.25
860.57	3953
860.891	3983.74
861.212	3905.32
861.534	3952.33
861.855	3947.81
862.176	3964.75
862.498	3934.02
862.819	3929.95
863.14	3887.47
863.461	3854.93
863.782	3847.92
864.103	3868.94
864.424	3888.37
864.745	3883.85
865.065	3878.66
865.386	3847.92
865.707	3842.72
866.027	3820.13
866.348	3836.62
866.668	3801.82
866.989	3823.52
867.309	3805.66
867.63	3805.21
867.95	3795.95
868.27	3816.28
868.59	3825.1
868.91	3768.6
869.23	3763.63
869.55	3750.97
869.87	3759.11
870.19	3705.1
870.51	3760.69
870.83	3739.22
871.15	3743.52
871.469	3710.52
871.789	3715.72
872.109	3693.12
872.428	3712.11
872.748	3674.82
873.067	3712.11
873.386	3699.68
873.706	3711.2
874.025	3678.21
874.344	3676.85
874.663	3693.58
874.982	3649.96
875.301	3652.9
875.62	3671.2
875.939	3646.57
876.258	3647.93
876.577	3646.34
876.896	3631.88
877.214	3628.04
877.533	3640.24
877.852	3582.17
878.17	3619.68
878.489	3608.38
878.807	3610.64
879.125	3595.05
879.444	3597.31
879.762	3582.39
880.08	3627.36
880.398	3571.54
880.716	3595.95
881.034	3552.79
881.352	3551.21
881.67	3527.48
881.988	3576.06
882.306	3541.49
882.624	3532.68
882.941	3535.84
883.259	3521.15
883.577	3506.24
883.894	3483.86
884.212	3480.93
884.529	3475.73
884.846	3499.91
885.164	3461.72
885.481	3488.38
885.798	3492.22
886.115	3445.9
886.432	3431.89
886.75	3433.24
887.067	3459.46
887.383	3412.68
887.7	3389.18
888.017	3411.32
888.334	3415.84
888.651	3407.48
888.967	3390.76
889.284	3396.63
889.6	3354.15
889.917	3367.48
890.233	3389.18
890.55	3369.52
890.866	3332.23
891.182	3292.91
891.498	3339.69
891.815	3343.75
892.131	3291.78
892.447	3301.95
892.763	3300.14
893.079	3293.36
893.395	3306.92
893.71	3255.17
894.026	3252.23
894.342	3245.23
894.657	3219.01
894.973	3200.03
895.289	3212.01
895.604	3229.41
895.92	3215.85
896.235	3186.02
896.55	3205.68
896.865	3181.95
897.181	3170.65
897.496	3143.76
897.811	3155.51
898.126	3123.42
898.441	3104.44
898.756	3105.12
899.071	3128.17
899.386	3103.31
899.7	3053.14
900.015	3022.41
900.33	3001.39
900.644	3002.07
900.959	3055.17
901.273	3061.73
901.588	3028.51
901.902	3010.2
902.216	3007.04
902.531	3025.34
902.845	2972.92
903.159	2979.92
903.473	2946.02
903.787	2915.06
904.101	2925.91
904.415	2962.52
904.729	2900.83
905.042	2909.87
905.356	2898.79
905.67	2903.99
905.984	2909.87
906.297	2898.12
906.611	2869.87
906.924	2816.99
907.237	2855.18
907.551	2831
907.864	2838.91
908.177	2811.34
908.491	2823.54
908.804	2802.75
909.117	2796.65
909.43	2748.74
909.743	2759.36
910.056	2753.26
910.368	2745.8
910.681	2727.05
910.994	2726.82
911.307	2721.85
911.619	2680.27
911.932	2681.62
912.244	2647.5
912.557	2672.36
912.869	2661.51
913.181	2677.1
913.494	2654.05
913.806	2604.79
914.118	2619.03
914.43	2590.1
914.742	2578.58
915.054	2580.16
915.366	2595.75
915.678	2576.99
915.99	2562.76
916.302	2539.26
916.613	2518.24
916.925	2520.05
917.236	2520.27
917.548	2530.67
917.859	2503.1
918.171	2509.65
918.482	2479.6
918.794	2501.52
919.105	2507.17
919.416	2479.14
919.727	2440.73
920.038	2451.57
920.349	2410.45
920.66	2442.08
920.971	2409.99
921.282	2420.84
921.593	2381.75
921.903	2385.81
922.214	2383.78
922.525	2376.55
922.835	2373.38
923.146	2312.59
923.456	2342.88
923.767	2326.83
924.077	2336.55
924.387	2339.03
924.697	2330
925.008	2284.35
925.318	2282.31
925.628	2274.86
925.938	2252.71
926.248	2275.99
926.558	2253.16
926.867	2248.87
927.177	2241.18
927.487	2219.49
927.796	2244.8
928.106	2195.54
928.416	2231.01
928.725	2187.63
929.034	2193.28
929.344	2185.37
929.653	2181.75
929.962	2168.64
930.271	2135.2
930.581	2180.62
930.89	2153.95
931.199	2105.82
931.508	2128.64
931.817	2125.71
932.125	2142.88
932.434	2108.31
932.743	2099.72
933.051	2094.3
933.36	2085.26
933.669	2088.65
933.977	2073.5
934.286	2050.23
934.594	2061.3
934.902	2035.54
935.21	2024.01
935.519	1978.37
935.827	2018.37
936.135	1994.41
936.443	2003.9
936.751	2028.53
937.059	1985.37
937.367	1968.42
937.674	1974.3
937.982	1962.77
938.29	1964.13
938.597	1966.61
938.905	1929.33
939.213	1891.81
939.52	1928.65
939.827	1915.54
940.135	1890.46
940.442	1917.35
940.749	1922.1
941.056	1905.15
941.363	1868.09
941.67	1889.55
941.977	1879.61
942.284	1875.77
942.591	1868.76
942.898	1874.87
943.205	1829.67
943.511	1845.49
943.818	1839.39
944.125	1840.06
944.431	1811.36
944.738	1836.22
945.044	1803
945.35	1792.38
945.657	1784.7
945.963	1790.12
946.269	1775.66
946.575	1780.41
946.881	1775.66
947.187	1798.26
947.493	1758.26
947.799	1727.07
948.105	1730.91
948.41	1712.38
948.716	1746.06
949.022	1701.09
949.327	1684.36
949.633	1716.68
949.938	1723.23
950.244	1692.72
950.549	1660.18
950.854	1665.83
951.16	1643.01
951.465	1645.49
951.77	1682.1
952.075	1631.48
952.38	1651.37
952.685	1655.21
952.99	1629.67
953.294	1633.06
953.599	1619.73
953.904	1612.95
954.209	1600.75
954.513	1601.43
954.818	1589.9
955.122	1555.78
955.426	1584.03
955.731	1633.29
956.035	1601.2
956.339	1566.85
956.643	1565.04
956.948	1540.86
957.252	1562.78
957.556	1533.41
957.86	1532.5
958.163	1540.86
958.467	1547.87
958.771	1525.5
959.075	1518.49
959.378	1532.28
959.682	1538.38
959.985	1494.76
960.289	1513.29
960.592	1484.14
960.896	1484.82
961.199	1479.85
961.502	1470.13
961.805	1475.78
962.108	1455.44
962.411	1457.48
962.714	1455.44
963.017	1449.34
963.32	1448.44
963.623	1463.58
963.926	1428.1
964.228	1433.97
964.531	1431.94
964.833	1423.8
965.136	1422.67
965.438	1436.91
965.741	1394.88
966.043	1394.43
966.345	1379.06
966.648	1414.77
966.95	1387.87
967.252	1385.61
967.554	1386.97
967.856	1395.56
968.158	1385.61
968.46	1353.98
968.761	1330.02
969.063	1381.55
969.365	1341.77
969.666	1330.7
969.968	1339.96
970.269	1307.88
970.571	1335.45
970.872	1304.71
971.174	1299.29
971.475	1331.15
971.776	1317.37
972.077	1337.25
972.378	1299.29
972.679	1310.36
972.98	1295.67
973.281	1276.24
973.582	1281.89
973.883	1276.01
974.183	1270.14
974.484	1298.38
974.785	1237.37
975.085	1281.66
975.386	1266.75
975.686	1256.8
975.986	1260.87
976.287	1228.1
976.587	1192.17
976.887	1244.15
977.187	1243.92
977.487	1229.23
977.787	1253.64
978.087	1187.43
978.387	1200.76
978.687	1203.92
978.987	1211.38
979.286	1211.38
979.586	1216.13
979.885	1203.02
980.185	1156.92
980.484	1177.03
980.784	1168.44
981.083	1177.94
981.382	1191.95
981.682	1175.22
981.981	1155.11
982.28	1146.07
982.579	1135.68
982.878	1175.22
983.177	1127.54
983.475	1125.73
983.774	1149.69
984.073	1137.03
984.372	1132.06
984.67	1128.44
984.969	1127.09
985.267	1098.62
985.566	1131.61
985.864	1103.36
986.162	1079.63
986.461	1084.83
986.759	1110.14
987.057	1101.55
987.355	1063.59
987.653	1052.29
987.951	1081.44
988.249	1078.28
988.547	1076.24
988.844	1057.26
989.142	1074.44
989.44	1046.41
989.737	1032.18
990.035	1055.68
990.332	1051.38
990.63	1050.71
990.927	1024.49
991.224	1032.63
991.521	1022.68
991.819	1028.56
992.116	1026.3
992.413	1047.32
992.71	1026.75
993.006	1021.56
993.303	997.83
993.6	1012.52
993.897	1010.93
994.193	999.63
994.49	1011.16
994.787	1000.31
995.083	998.73
995.379	974.55
995.676	1000.76
995.972	962.57
996.268	973.19
996.565	1003.48
996.861	953.99
997.157	984.72
997.453	963.48
997.749	977.71
998.044	954.89
998.34	958.96
998.636	952.63
998.932	959.18
999.227	960.31
999.523	925.74
999.818	951.95
1000.114	928.9
1000.409	919.41
1000.704	906.98
1001	891.61
1001.295	929.35
1001.59	908.79
1001.885	913.76
1002.18	905.17
1002.475	882.58
1002.77	878.06
1003.065	891.61
1003.359	876.7
1003.654	879.64
1003.949	881.45
1004.243	859.75
1004.538	854.1
1004.832	866.76
1005.127	862.46
1005.421	855.23
1005.715	863.59
1006.009	872.41
1006.304	869.02
1006.598	843.93
1006.892	864.5
1007.186	842.12
1007.48	842.12
1007.773	826.98
1008.067	815.23
1008.361	839.19
1008.655	841.22
1008.948	817.04
1009.242	822.46
1009.535	808.45
1009.829	789.47
1010.122	815.91
1010.415	803.26
1010.708	796.02
1011.001	806.42
1011.295	787.44
1011.588	792.63
1011.881	800.09
1012.173	792.18
1012.466	789.02
1012.759	773.43
1013.052	804.16
1013.344	776.59
1013.637	759.42
1013.93	765.52
1014.222	751.96
1014.514	749.92
1014.807	758.06
1015.099	752.18
1015.391	757.83
1015.683	738.85
1015.976	738.17
1016.268	719.87
1016.56	724.16
1016.851	721.9
1017.143	733.65
1017.435	724.84
1017.727	724.84
1018.018	730.94
1018.31	735.23
1018.602	704.28
1018.893	709.47
1019.185	706.31
1019.476	721.45
1019.767	696.14
1020.058	678.29
1020.35	691.62
1020.641	701.11
1020.932	690.49
1021.223	673.54
1021.514	666.76
1021.804	695.24
1022.095	685.29
1022.386	677.84
1022.677	701.34
1022.967	681.68
1023.258	685.52
1023.548	653.2
1023.839	661.34
1024.129	672.64
1024.419	673.77
1024.709	663.82
1025	630.15
1025.29	641.9
1025.58	625.41
1025.87	634.9
1026.16	638.74
1026.449	641.68
1026.739	635.8
1027.029	639.42
1027.319	627.67
1027.608	633.09
1027.898	617.72
1028.187	614.33
1028.477	611.85
1028.766	612.53
1029.055	605.75
1029.344	614.11
1029.634	598.29
1029.923	588.12
1030.212	599.19
1030.501	587.67
1030.79	589.93
1031.078	586.31
1031.367	591.96
1031.656	575.01
1031.945	590.61
1032.233	588.57
1032.522	577.5
1032.81	592.87
1033.099	577.5
1033.387	554.67
1033.675	593.77
1033.963	556.71
1034.251	566.2
1034.54	559.65
1034.828	557.16
1035.116	554.67
1035.403	530.04
1035.691	561.23
1035.979	543.83
1036.267	549.03
1036.554	547.22
1036.842	538.86
1037.129	542.25
1037.417	553.77
1037.704	563.26
1037.992	552.64
1038.279	533.88
1038.566	530.27
1038.853	530.27
1039.14	530.27
