Data from black_metal_pc_casing_FLMS001491_00026.txt Node
Date: Wed Feb 08 14:32:15 GMT 2017
User: dcchb
Spectrometer: FLMS00149
Trigger mode: 0
Integration Time (sec): 2.000000E-2
Scans to average: 10
Electric dark correction enabled: true
Nonlinearity correction enabled: false
Boxcar width: 0
XAxis mode: Wavelengths
Number of Pixels in Spectrum: 2048
>>>>>Begin Spectral Data<<<<<
341.393	-10.9
341.776	-10.9
342.16	-10.9
342.543	-60.62
342.927	-45.48
343.31	-57.46
343.693	-86.83
344.077	-66.72
344.46	-68.76
344.843	-42.77
345.226	-28.76
345.61	-49.77
345.993	-13.39
346.376	-0.06
346.759	16.21
347.142	27.29
347.525	37.46
347.908	48.3
348.291	80.85
348.674	92.37
349.057	112.03
349.44	120.39
349.823	124.69
350.206	160.39
350.588	185.48
350.971	198.58
351.354	210.79
351.737	244.23
352.119	236.55
352.502	253.27
352.884	268.19
353.267	275.64
353.65	316.09
354.032	309.31
354.414	306.6
354.797	300.95
355.179	312.03
355.562	319.71
355.944	325.58
356.326	304.79
356.709	333.04
357.091	333.04
357.473	329.65
357.855	330.33
358.238	332.14
358.62	321.07
359.002	324.23
359.384	336.66
359.766	336.66
360.148	322.87
360.53	337.79
360.912	330.1
361.294	329.65
361.676	306.83
362.057	325.58
362.439	331.91
362.821	335.75
363.203	336.21
363.584	307.96
363.966	326.94
364.348	321.29
364.729	315.64
365.111	318.13
365.493	305.02
365.874	302.53
366.256	325.13
366.637	316.09
367.019	299.37
367.4	322.65
367.781	320.61
368.163	322.65
368.544	336.43
368.925	314.51
369.306	329.88
369.688	300.27
370.069	316.77
370.45	315.64
370.831	322.87
371.212	307.96
371.593	331.23
371.974	312.48
372.355	330.78
372.736	324.68
373.117	326.49
373.498	304.12
373.879	334.62
374.26	315.64
374.641	322.19
375.021	314.96
375.402	330.56
375.783	324.45
376.163	336.88
376.544	322.65
376.925	340.73
377.305	313.16
377.686	317.9
378.066	319.71
378.447	334.17
378.827	328.52
379.208	333.72
379.588	326.71
379.968	338.92
380.349	355.41
380.729	340.27
381.109	338.01
381.489	327.39
381.87	345.92
382.25	353.15
382.63	346.83
383.01	361.74
383.39	343.44
383.77	346.38
384.15	354.06
384.53	340.73
384.91	329.43
385.29	368.97
385.67	352.93
386.049	352.48
386.429	353.38
386.809	346.15
387.189	353.83
387.568	368.07
387.948	375.53
388.328	362.65
388.707	345.47
389.087	356.77
389.466	382.08
389.846	382.53
390.225	372.82
390.605	376.88
390.984	397
391.363	380.72
391.743	400.38
392.122	392.48
392.501	395.64
392.881	406.03
393.26	408.97
393.639	394.74
394.018	384.79
394.397	415.53
394.776	412.59
395.155	421.4
395.534	397.9
395.913	402.64
396.292	422.76
396.671	415.75
397.05	409.65
397.429	413.49
397.808	416.43
398.186	427.73
398.565	427.05
398.944	393.61
399.323	425.92
399.701	424.79
400.08	421.85
400.458	437.67
400.837	422.31
401.215	426.6
401.594	436.99
401.972	428.63
402.351	450.33
402.729	451.91
403.107	471.34
403.486	448.52
403.864	426.37
404.242	443.55
404.62	440.38
404.999	456.43
405.377	469.99
405.755	447.39
406.133	438.8
406.511	461.63
406.889	479.7
407.267	477.67
407.645	483.77
408.023	507.73
408.401	502.98
408.779	483.32
409.156	484.45
409.534	491.68
409.912	502.98
410.29	475.64
410.667	503.43
411.045	495.98
411.422	509.76
411.8	513.15
412.178	548.18
412.555	540.95
412.933	536.65
413.31	541.4
413.687	529.65
414.065	544.11
414.442	561.96
414.819	540.04
415.197	552.25
415.574	568.74
415.951	559.25
416.328	565.13
416.705	556.09
417.082	548.86
417.46	574.84
417.837	568.29
418.214	572.13
418.591	568.06
418.967	595.86
419.344	585.69
419.721	606.93
420.098	591.11
420.475	591.11
420.852	594.05
421.228	612.13
421.605	607.61
421.982	624.79
422.358	623.66
422.735	598.35
423.111	632.92
423.488	649.19
423.864	652.81
424.241	636.31
424.617	629.08
424.994	634.73
425.37	657.33
425.746	665.24
426.123	659.59
426.499	657.1
426.875	667.72
427.251	688.51
427.627	692.13
428.003	670.89
428.379	696.42
428.756	704.78
429.132	704.56
429.507	699.13
429.883	705.01
430.259	723.31
430.635	724.44
431.011	731.68
431.387	732.81
431.763	766.48
432.138	749.3
432.514	781.84
432.89	762.86
433.265	771.22
433.641	756.08
434.016	783.88
434.392	795.63
434.767	812.13
435.143	818
435.518	849.86
435.894	840.15
436.269	829.98
436.644	841.96
437.02	854.38
437.395	831.11
437.77	870.66
438.145	857.32
438.52	883.08
438.895	875.63
439.271	873.82
439.646	912.69
440.021	926.25
440.395	914.5
440.77	907.49
441.145	920.82
441.52	929.64
441.895	932.57
442.27	930.99
442.645	941.16
443.019	950.65
443.394	919.69
443.769	955.17
444.143	921.28
444.518	973.03
444.892	973.48
445.267	987.49
445.641	965.79
446.016	977.09
446.39	1004.21
446.764	1003.98
447.139	991.33
447.513	1020.48
447.887	1007.37
448.262	1018
448.636	1008.05
449.01	1019.58
449.384	1029.29
449.758	1040.37
450.132	1071.1
450.506	1055.73
450.88	1046.7
451.254	1099.8
451.628	1048.28
452.002	1097.99
452.376	1094.83
452.75	1115.17
453.123	1091.44
453.497	1142.06
453.871	1127.82
454.244	1148.61
454.618	1167.14
454.992	1159.69
455.365	1174.15
455.739	1176.18
456.112	1201.72
456.486	1182.96
456.859	1227.48
457.232	1250.76
457.606	1265.22
457.979	1265.9
458.352	1264.32
458.725	1281.72
459.099	1313.13
459.472	1337.76
459.845	1321.49
460.218	1365.33
460.591	1364.2
460.964	1375.5
461.337	1370.75
461.71	1405.56
462.083	1427.02
462.456	1414.6
462.829	1437.19
463.201	1426.8
463.574	1452.56
463.947	1473.13
464.32	1504.31
464.692	1509.96
465.065	1523.52
465.438	1539.34
465.81	1544.08
466.183	1576.17
466.555	1597.42
466.928	1611.65
467.3	1609.84
467.672	1640.13
468.045	1662.95
468.417	1679
468.789	1669.05
469.161	1696.62
469.534	1712.67
469.906	1754.02
470.278	1753.34
470.65	1803.06
471.022	1810.29
471.394	1846.67
471.766	1862.72
472.138	1888.71
472.51	1932.55
472.882	1943.62
473.253	1972.77
473.625	1987.69
473.997	2019.33
474.369	2036.05
474.74	2063.17
475.112	2099.78
475.484	2094.8
475.855	2129.61
476.227	2183.84
476.598	2211.18
476.97	2236.95
477.341	2280.11
477.713	2306.32
478.084	2362.14
478.455	2355.59
478.827	2356.72
479.198	2463.16
479.569	2471.29
479.94	2523.04
480.311	2543.61
480.682	2580.89
481.053	2620.21
481.424	2633.32
481.795	2649.14
482.166	2743.83
482.537	2788.8
482.908	2825.41
483.279	2844.84
483.65	2899.98
484.021	2938.4
484.391	2979.07
484.762	3018.62
485.133	2999.19
485.503	3083.48
485.874	3143.36
486.244	3162.12
486.615	3228.11
486.985	3236.02
487.356	3309.24
487.726	3335.22
488.097	3403.92
488.467	3400.76
488.837	3474.2
489.207	3521.43
489.578	3547.87
489.948	3596.01
490.318	3669.9
490.688	3660.64
491.058	3729.34
491.428	3745.83
491.798	3787.64
492.168	3859.05
492.538	3851.82
492.908	3919.84
493.278	3971.36
493.648	3962.1
494.017	4032.61
494.387	4055.43
494.757	4085.94
495.126	4099.95
495.496	4117.8
495.866	4183.11
496.235	4201.41
496.605	4271.92
496.974	4262.43
497.344	4292.49
497.713	4313.05
498.082	4403.9
498.452	4431.92
498.821	4427.4
499.19	4463.78
499.559	4492.25
499.928	4582.2
500.298	4582.2
500.667	4570.22
501.036	4602.31
501.405	4657
501.774	4642.76
502.143	4753.72
502.512	4697.9
502.88	4697.9
503.249	4793.26
503.618	4788.74
503.987	4810.44
504.356	4902.41
504.724	4916.2
505.093	4907.84
505.462	4995.52
505.83	5005.69
506.199	5022.41
506.567	5088.62
506.936	5121.39
507.304	5158.23
507.672	5160.03
508.041	5174.04
508.409	5196.42
508.777	5268.96
509.145	5325
509.514	5328.16
509.882	5385.11
510.25	5425.11
510.618	5456.52
510.986	5412
511.354	5510.31
511.722	5536.3
512.09	5604.54
512.458	5570.87
512.826	5658.78
513.193	5635.95
513.561	5621.26
513.929	5749.17
514.297	5818.1
514.664	5860.81
515.032	5828.26
515.4	5915.27
515.767	5906
516.135	6002.95
516.502	5941.03
516.869	6069.16
517.237	6058.77
517.604	6082.5
517.972	6193
518.339	6196.84
518.706	6242.72
519.073	6217.18
519.44	6330.62
519.808	6384.86
520.175	6376.5
520.542	6400.91
520.909	6478.64
521.276	6499.21
521.643	6562.03
522.009	6620.11
522.376	6646.77
522.743	6637.28
523.11	6785.98
523.477	6840.67
523.843	6863.27
524.21	6945.75
524.577	6997.5
524.943	6978.97
525.31	7103.49
525.676	7139.87
526.043	7164.27
526.409	7145.97
526.776	7289.24
527.142	7327.66
527.508	7327.43
527.874	7386.87
528.241	7396.36
528.607	7520.65
528.973	7505.73
529.339	7498.5
529.705	7592.06
530.071	7704.37
530.437	7747.08
530.803	7734.88
531.169	7794.31
531.535	7768.55
531.901	7813.75
532.267	7876.35
532.632	8018.49
532.998	7978.72
533.364	8015.78
533.73	8019.85
534.095	8114.31
534.461	8182.1
534.826	8196.79
535.192	8281.76
535.557	8272.72
535.923	8272.49
536.288	8361.98
536.653	8369.44
537.019	8384.13
537.384	8462.32
537.749	8390.91
538.114	8439.04
538.479	8478.14
538.845	8488.53
539.21	8549.55
539.575	8524.01
539.94	8594.52
540.305	8693.05
540.67	8657.12
541.034	8689.66
541.399	8734.18
541.764	8758.81
542.129	8789.54
542.494	8825.7
542.858	8802.42
543.223	8854.4
543.587	8977.79
543.952	8910.44
544.316	8972.81
544.681	9020.05
545.045	8966.71
545.41	9074.73
545.774	9091.23
546.138	9114.73
546.503	9149.76
546.867	9167.39
547.231	9234.05
547.595	9211.9
547.959	9220.94
548.324	9229.08
548.688	9253.49
549.052	9314.95
549.416	9342.3
549.779	9342.75
550.143	9420.94
550.507	9482.63
550.871	9507.94
551.235	9559.92
551.599	9608.73
551.962	9646.92
552.326	9639.24
552.689	9703.19
553.053	9557.21
553.417	9700.03
553.78	9866.8
554.143	9780.93
554.507	9839.01
554.87	9877.2
555.234	10049.62
555.597	9891.21
555.96	9975.73
556.323	9981.38
556.686	10021.6
557.05	10100.69
557.413	10107.25
557.776	10152.44
558.139	10237.87
558.502	10257.3
558.865	10274.02
559.228	10349.5
559.59	10320.8
559.953	10420.01
560.316	10453
560.679	10462.72
561.041	10586.33
561.404	10551.08
561.767	10669.27
562.129	10673.34
562.492	10792.88
562.854	10747.01
563.217	10697.97
563.579	10834.01
563.941	10974.34
564.304	10939.99
564.666	10978.19
565.028	11055.92
565.39	11062.25
565.753	11139.09
566.115	11196.94
566.477	11247.33
566.839	11223.38
567.201	11264.51
567.563	11310.83
567.925	11414.11
568.287	11422.69
568.648	11468.34
569.01	11502.69
569.372	11562.35
569.734	11503.14
570.095	11634.44
570.457	11681.22
570.819	11681.67
571.18	11727.09
571.542	11805.06
571.903	11754.44
572.265	11888.9
572.626	11877.82
572.987	11856.81
573.349	11940.42
573.71	12006.18
574.071	12013.41
574.432	12075.56
574.794	12160.98
575.155	12130.25
575.516	12150.13
575.877	12146.74
576.238	12124.14
576.599	12184.48
576.96	12158.95
577.32	12269.68
577.681	12341.09
578.042	12428.54
578.403	12288.66
578.763	12296.8
579.124	12393.06
579.485	12418.83
579.845	12401.2
580.206	12463.12
580.566	12411.14
580.927	12384.25
581.287	12453.18
581.648	12387.64
582.008	12598.03
582.368	12529.56
582.728	12510.8
583.089	12523.46
583.449	12517.81
583.809	12505.83
584.169	12566.84
584.529	12483.01
584.889	12647.07
585.249	12448.2
585.609	12522.55
585.969	12547.86
586.329	12598.26
586.688	12581.99
587.048	12521.65
587.408	12571.59
587.768	12536.79
588.127	12585.6
588.487	12582.44
588.846	12632.38
589.206	12474.42
589.565	12497.47
589.925	12614.98
590.284	12513.74
590.643	12549.22
591.003	12685.94
591.362	12605.04
591.721	12564.81
592.08	12619.5
592.44	12657.46
592.799	12540.18
593.158	12571.82
593.517	12588.99
593.876	12709.21
594.235	12632.15
594.593	12590.35
594.952	12694.52
595.311	12680.06
595.67	12668.76
596.029	12759.38
596.387	12729.78
596.746	12767.07
597.104	12691.81
597.463	12653.85
597.822	12778.36
598.18	12660.63
598.538	12738.59
598.897	12772.72
599.255	12639.39
599.613	12869.66
599.972	12737.46
600.33	12814.75
600.688	12739.95
601.046	12786.5
601.404	12859.27
601.762	12781.3
602.12	12904.46
602.478	12913.73
602.836	12866.05
603.194	12938.59
603.552	12934.29
603.91	12846.61
604.268	12974.29
604.625	12834.41
604.983	12913.95
605.341	12868.98
605.698	12928.64
606.056	12993.27
606.413	12993.5
606.771	12997.57
607.128	12996.44
607.485	12948.98
607.843	13014.97
608.2	13007.74
608.557	13077.79
608.914	13080.73
609.272	13135.42
609.629	13112.37
609.986	13181.29
610.343	13089.77
610.7	13244.79
611.057	13181.97
611.414	13145.81
611.771	13198.92
612.127	13208.41
612.484	13221.06
612.841	13303.77
613.198	13209.77
613.554	13228.52
613.911	13367.73
614.267	13254.74
614.624	13307.62
614.98	13266.26
615.337	13391.68
615.693	13385.81
616.05	13350.78
616.406	13359.37
616.762	13376.31
617.118	13345.13
617.475	13384
617.831	13475.3
618.187	13457.89
618.543	13558.68
618.899	13595.07
619.255	13507.61
619.611	13507.84
619.967	13490.21
620.323	13525.01
620.678	13457.89
621.034	13420.83
621.39	13529.53
621.746	13437.78
622.101	13648.85
622.457	13489.08
622.812	13557.1
623.168	13501.74
623.523	13522.53
623.879	13577.21
624.234	13491.11
624.589	13485.92
624.945	13524.11
625.3	13555.75
625.655	13610.21
626.01	13513.26
626.365	13606.37
626.72	13573.15
627.075	13566.37
627.43	13525.92
627.785	13476.43
628.14	13515.97
628.495	13487.05
628.85	13574.28
629.205	13513.49
629.559	13543.09
629.914	13469.87
630.269	13410.21
630.623	13450.21
630.978	13429.65
631.332	13396.43
631.687	13430.55
632.041	13381.74
632.396	13433.04
632.75	13406.14
633.104	13411.34
633.459	13342.64
633.813	13388.29
634.167	13294.28
634.521	13319.14
634.875	13285.92
635.229	13338.58
635.583	13233.27
635.937	13319.37
636.291	13316.88
636.645	13261.97
636.999	13259.71
637.352	13256.32
637.706	13139.26
638.06	13227.62
638.413	13200.05
638.767	13087.28
639.121	13182.87
639.474	13093.38
639.828	13117.56
640.181	13105.81
640.534	13106.72
640.888	13029.21
641.241	13001.86
641.594	13095.64
641.947	13024.46
642.301	13009.09
642.654	13010.67
643.007	13074.63
643.36	12892.94
643.713	12986.49
644.066	13010.45
644.419	12964.57
644.771	12747.4
645.124	12671.93
645.477	12717.8
645.83	12607.75
646.182	12575.43
646.535	12523.23
646.888	12560.29
647.24	12437.36
647.593	12562.55
647.945	12400.97
648.298	12358.94
648.65	12385.61
649.002	12365.49
649.355	12457.02
649.707	12484.59
650.059	12487.07
650.411	12567.07
650.763	12572.95
651.115	12782.66
651.467	12667.18
651.819	12656.11
652.171	12615.66
652.523	12557.58
652.875	12576.56
653.227	12556.68
653.578	12730.23
653.93	12599.84
654.282	12565.94
654.633	12449.11
654.985	12577.69
655.337	12588.77
655.688	12513.51
656.039	12560.97
656.391	12405.04
656.742	12502.67
657.094	12503.8
657.445	12440.07
657.796	12491.14
658.147	12528.88
658.498	12475.1
658.849	12455.44
659.2	12462.89
659.551	12390.35
659.902	12417.7
660.253	12401.43
660.604	12445.49
660.955	12328.66
661.306	12397.58
661.656	12421.76
662.007	12324.14
662.358	12357.81
662.708	12384.02
663.059	12370.24
663.409	12396.45
663.76	12401.65
664.11	12417.7
664.461	12363.69
664.811	12433.06
665.161	12338.6
665.511	12359.84
665.862	12326.85
666.212	12337.7
666.562	12293.18
666.912	12293.18
667.262	12297.47
667.612	12346.29
667.962	12307.19
668.312	12193.75
668.662	12320.75
669.011	12248.66
669.361	12303.35
669.711	12276
670.06	12266.51
670.41	12210.24
670.76	12215.89
671.109	12283.01
671.459	12219.51
671.808	12167.99
672.157	12287.53
672.507	12171.37
672.856	12170.7
673.205	12183.58
673.554	12206.85
673.904	12206.4
674.253	12216.57
674.602	12191.26
674.951	11920.76
675.3	11989.23
675.649	12200.53
675.998	12130.25
676.346	12102.68
676.695	12117.14
677.044	12071.94
677.393	12068.55
677.741	12125.73
678.09	12063.58
678.438	12062.23
678.787	12078.27
679.135	12029.91
679.484	11973.64
679.832	12027.88
680.181	11897.94
680.529	12003.47
680.877	11867.43
681.225	11931.83
681.573	11971.83
681.922	11875.11
682.27	11824.72
682.618	11824.94
682.966	11868.33
683.314	11851.84
683.661	11810.71
684.009	11757.15
684.357	11669.24
684.705	11733.19
685.053	11694.1
685.4	11692.52
685.748	11618.62
686.095	11662.69
686.443	11599.41
686.79	11546.76
687.138	11626.98
687.485	11657.49
687.832	11505.86
688.18	11545.18
688.527	11506.31
688.874	11512.18
689.221	11407.33
689.568	11438.06
689.915	11351.28
690.262	11404.16
690.609	11342.24
690.956	11238.74
691.303	11230.38
691.65	11219.76
691.997	11295.69
692.344	11196.03
692.69	11148.58
693.037	11124.17
693.383	11005.3
693.73	11160.33
694.077	11055.25
694.423	11111.29
694.769	10978.86
695.116	10985.42
695.462	11013.89
695.808	10972.99
696.155	10978.19
696.501	10855.03
696.847	10838.3
697.193	10780
697.539	10879.43
697.885	10794.46
698.231	10716.27
698.577	10721.24
698.923	10736.84
699.269	10673.34
699.614	10596.5
699.96	10614.58
700.306	10613.45
700.651	10551.98
700.997	10563.51
701.342	10520.12
701.688	10505.88
702.033	10423.17
702.379	10445.32
702.724	10373.46
703.069	10464.75
703.415	10334.36
703.76	10333.46
704.105	10359.9
704.45	10294.59
704.795	10273.57
705.14	10193.8
705.485	10229.51
705.83	10181.14
706.175	10142.73
706.52	10130.75
706.865	9993.13
707.209	10099.79
707.554	10007.82
707.899	10089.17
708.243	10054.82
708.588	10021.15
708.932	9963.52
709.277	9928.04
709.621	9915.61
709.966	9850.08
710.31	9922.17
710.654	9763.08
710.998	9804.88
711.342	9807.6
711.687	9837.65
712.031	9765.34
712.375	9747.94
712.719	9729.86
713.063	9691.21
713.407	9719.91
713.75	9689.41
714.094	9676.07
714.438	9624.78
714.782	9706.58
715.125	9637.88
715.469	9644.44
715.812	9513.37
716.156	9556.75
716.499	9525.79
716.843	9559.01
717.186	9461.84
717.53	9472.46
717.873	9474.27
718.216	9487.15
718.559	9425.91
718.902	9438.34
719.246	9398.34
719.589	9376.87
719.932	9349.08
720.275	9321.28
720.617	9302.52
720.96	9300.72
721.303	9275.63
721.646	9284.22
721.989	9239.47
722.331	9201.28
722.674	9213.71
723.016	9209.64
723.359	9208.29
723.701	9209.64
724.044	9169.87
724.386	9157.89
724.729	9145.69
725.071	9115.41
725.413	9150.89
725.755	9100.95
726.097	9054.85
726.439	9033.83
726.782	8978.24
727.124	9078.57
727.465	8961.52
727.807	8982.76
728.149	8936.21
728.491	8932.36
728.833	8956.32
729.175	8902.31
729.516	8860.28
729.858	8899.14
730.199	8948.63
730.541	8838.36
730.882	8871.57
731.224	8850.11
731.565	8777.34
731.906	8800.16
732.248	8869.31
732.589	8802.88
732.93	8822.31
733.271	8792.25
733.612	8771.01
733.953	8859.15
734.294	8772.59
734.635	8731.01
734.976	8752.48
735.317	8774.63
735.658	8667.06
735.999	8708.87
736.339	8674.52
736.68	8728.53
737.021	8612.15
737.361	8628.87
737.702	8662.77
738.042	8622.54
738.383	8638.13
738.723	8588.87
739.063	8580.73
739.404	8596.1
739.744	8532.15
740.084	8527.18
740.424	8569.44
740.764	8502.32
741.104	8512.71
741.444	8431.81
741.784	8458.48
742.124	8475.65
742.464	8472.72
742.804	8404.24
743.143	8399.27
743.483	8427.74
743.823	8353.17
744.162	8394.53
744.502	8382.32
744.841	8326.28
745.181	8371.7
745.52	8286.96
745.86	8351.81
746.199	8298.48
746.538	8304.36
746.877	8292.83
747.216	8354.53
747.556	8324.24
747.895	8220.52
748.234	8186.62
748.573	8226.39
748.911	8244.25
749.25	8175.32
749.589	8181.65
749.928	8176.45
750.267	8177.58
750.605	8209.67
750.944	8068.43
751.283	8114.76
751.621	8107.3
751.96	8013.29
752.298	8004.25
752.636	8050.81
752.975	8008.09
753.313	7952.28
753.651	8041.99
753.989	7947.76
754.327	7983.46
754.666	7897.81
755.004	7863.47
755.342	7906.4
755.679	7908.89
756.017	7800.87
756.355	7929.23
756.693	7807.42
757.031	7811.49
757.368	7808.33
757.706	7716.12
758.044	7721.55
758.381	7773.52
758.719	7712.06
759.056	7682.45
759.394	7634.77
759.731	7619.63
760.068	7632.51
760.405	7564.49
760.743	7586.41
761.08	7545.06
761.417	7545.06
761.754	7472.06
762.091	7473.87
762.428	7452.4
762.765	7421.67
763.102	7475.45
763.438	7404.49
763.775	7386.87
764.112	7371.5
764.449	7371.05
764.785	7341.67
765.122	7287.21
765.458	7244.27
765.795	7232.97
766.131	7241.56
766.467	7253.99
766.804	7175.12
767.14	7125.63
767.476	7144.61
767.812	7093.54
768.148	7108.91
768.485	7014.45
768.821	6998.86
769.157	7014.67
769.492	6989.59
769.828	6972.19
770.164	6960.66
770.5	6880.67
770.836	6863.27
771.171	6896.26
771.507	6841.57
771.842	6820.33
772.178	6807.67
772.513	6770.39
772.849	6784.85
773.184	6737.85
773.519	6728.13
773.855	6661.01
774.19	6713.67
774.525	6664.63
774.86	6689.71
775.195	6619.43
775.53	6628.7
775.865	6599.32
776.2	6579.66
776.535	6543.5
776.87	6496.72
777.205	6468.25
777.539	6471.64
777.874	6487.23
778.209	6344.86
778.543	6401.58
778.878	6312.09
779.212	6339.44
779.547	6311.42
779.881	6326.1
780.215	6228.48
780.55	6279.55
780.884	6236.62
781.218	6242.27
781.552	6283.17
781.886	6224.86
782.22	6159.33
782.554	6153.91
782.888	6051.31
783.222	6091.31
783.556	6049.28
783.889	6056.73
784.223	5986
784.557	5979.9
784.89	6021.71
785.224	5986
785.557	5881.6
785.891	5932.67
786.224	5954.14
786.558	5919.56
786.891	5839.79
787.224	5815.16
787.557	5803.63
787.891	5834.82
788.224	5811.54
788.557	5796.4
788.89	5744.65
789.223	5793.46
789.556	5707.36
789.888	5713.47
790.221	5694.48
790.554	5639.12
790.887	5674.37
791.219	5674.6
791.552	5582.85
791.884	5637.31
792.217	5588.95
792.549	5604.09
792.882	5499.46
793.214	5504.21
793.546	5509.86
793.879	5474.38
794.211	5429.86
794.543	5460.14
794.875	5447.94
795.207	5470.76
795.539	5415.17
795.871	5393.47
796.203	5357.09
796.535	5352.8
796.867	5334.27
797.198	5308.05
797.53	5289.52
797.862	5278.22
798.193	5305.11
798.525	5225.79
798.856	5230.54
799.188	5170.2
799.519	5167.27
799.85	5169.3
800.182	5193.71
800.513	5200.71
800.844	5160.49
801.175	5152.35
801.506	5089.53
801.837	5129.53
802.168	5104.44
802.499	5038.91
802.83	5062.86
803.161	5023.09
803.491	5019.92
803.822	5009.3
804.153	4976.76
804.483	4982.41
804.814	4958.68
805.145	4968.17
805.475	4949.87
805.805	4956.88
806.136	4916.42
806.466	4888.85
806.796	4888.85
807.126	4864.45
807.457	4872.81
807.787	4816.31
808.117	4825.58
808.447	4838.69
808.777	4802.76
809.107	4810.21
809.436	4788.74
809.766	4798.69
810.096	4769.54
810.426	4762.53
810.755	4751.23
811.085	4694.96
811.414	4713.94
811.744	4665.81
812.073	4713.27
812.403	4631.46
812.732	4665.36
813.061	4627.84
813.39	4628.07
813.719	4631.91
814.049	4673.72
814.378	4607.51
814.707	4611.35
815.036	4619.48
815.365	4556.43
815.693	4563.44
816.022	4572.7
816.351	4516.66
816.68	4519.6
817.008	4565.47
817.337	4507.62
817.665	4483.22
817.994	4462.88
818.322	4470.11
818.651	4475.31
818.979	4413.16
819.307	4462.2
819.636	4501.52
819.964	4401.41
820.292	4423.1
820.62	4437.34
820.948	4457
821.276	4404.35
821.604	4450
821.932	4431.47
822.259	4438.92
822.587	4404.57
822.915	4455.19
823.243	4427.85
823.57	4390.56
823.898	4434.4
824.225	4384.24
824.553	4395.08
824.88	4403.44
825.207	4425.36
825.535	4414.52
825.862	4358.25
826.189	4372.03
826.516	4429.66
826.843	4422.2
827.17	4400.51
827.497	4413.39
827.824	4353.05
828.151	4410.9
828.478	4351.47
828.805	4400.51
829.131	4379.49
829.458	4390.79
829.785	4337
830.111	4379.04
830.438	4370.45
830.764	4416.78
831.09	4377.46
831.417	4328.42
831.743	4391.01
832.069	4392.6
832.395	4361.64
832.722	4377
833.048	4334.52
833.374	4386.95
833.7	4296.33
834.026	4301.75
834.351	4346.27
834.677	4325.93
835.003	4348.08
835.329	4311.47
835.654	4294.29
835.98	4299.27
836.306	4317.12
836.631	4276.67
836.956	4332.94
837.282	4308.3
837.607	4289.32
837.932	4334.29
838.258	4260.62
838.583	4251.81
838.908	4235.99
839.233	4235.31
839.558	4248.42
839.883	4188.08
840.208	4223.56
840.533	4223.79
840.858	4224.92
841.182	4232.6
841.507	4183.11
841.832	4211.81
842.156	4179.72
842.481	4191.7
842.805	4191.25
843.13	4122.1
843.454	4172.04
843.778	4155.99
844.103	4092.49
844.427	4069.89
844.751	4120.74
845.075	4106.73
845.399	4100.17
845.723	4095.88
846.047	4106.5
846.371	3993.28
846.695	4042.32
847.019	4026.73
847.343	3996
847.666	3965.94
847.99	3976.79
848.313	3967.97
848.637	3973.4
848.96	3936.79
849.284	3963
849.607	3908.32
849.931	3866.96
850.254	3867.86
850.577	3847.98
850.9	3859.05
851.223	3811.82
851.546	3877.58
851.869	3778.6
852.192	3798.26
852.515	3780.86
852.838	3763.23
853.161	3771.6
853.483	3720.98
853.806	3723.24
854.129	3719.17
854.451	3713.52
854.774	3715.78
855.096	3670.81
855.419	3666.97
855.741	3668.1
856.063	3623.8
856.385	3614.09
856.708	3603.69
857.03	3614.31
857.352	3609.34
857.674	3650.02
857.996	3609.34
858.318	3538.61
858.64	3604.37
858.961	3590.58
859.283	3553.52
859.605	3544.94
859.926	3516.46
860.248	3515.11
860.57	3550.13
860.891	3512.62
861.212	3516.91
861.534	3496.35
861.855	3463.81
862.176	3447.76
862.498	3508.33
862.819	3502.68
863.14	3470.81
863.461	3443.69
863.782	3471.94
864.103	3468.1
864.424	3441.66
864.745	3450.25
865.065	3372.74
865.386	3449.8
865.707	3394.88
866.027	3411.83
866.348	3407.09
866.668	3425.84
866.989	3413.87
867.309	3346.07
867.63	3374.77
867.95	3380.65
868.27	3377.26
868.59	3413.41
868.91	3358.27
869.23	3366.86
869.55	3351.72
869.87	3367.76
870.19	3368.22
870.51	3334.77
870.83	3333.87
871.15	3308.11
871.469	3297.03
871.789	3360.53
872.109	3352.85
872.428	3316.24
872.748	3308.78
873.067	3323.7
873.386	3301.1
873.706	3303.36
874.025	3303.36
874.344	3266.52
874.663	3295
874.982	3265.39
875.301	3286.86
875.62	3273.53
875.939	3218.84
876.258	3262.46
876.577	3248.22
876.896	3261.1
877.214	3238.05
877.533	3258.61
877.852	3216.36
878.17	3233.53
878.489	3240.54
878.807	3243.93
879.125	3223.59
879.444	3240.54
879.762	3185.4
880.08	3179.52
880.398	3175.91
880.716	3165.74
881.034	3178.39
881.352	3208.9
881.67	3175.91
881.988	3182.01
882.306	3173.87
882.624	3168.67
882.941	3152.63
883.259	3134.55
883.577	3139.07
883.894	3123.48
884.212	3094.33
884.529	3116.47
884.846	3082.12
885.164	3075.34
885.481	3105.17
885.798	3070.37
886.115	3095.68
886.432	3077.15
886.75	3060.65
887.067	3060.2
887.383	3048.22
887.7	3062.91
888.017	3053.87
888.334	3040.54
888.651	3033.08
888.967	3024.27
889.284	3015.01
889.6	2996.25
889.917	2971.39
890.233	2989.92
890.55	2995.57
890.866	2995.12
891.182	2959.19
891.498	2967.32
891.815	2957.61
892.131	3005.29
892.447	2941.11
892.763	2981.79
893.079	2936.14
893.395	2923.93
893.71	2912.86
894.026	2929.13
894.342	2913.54
894.657	2867.44
894.973	2858.85
895.289	2853.88
895.604	2858.4
895.92	2840.55
896.235	2864.95
896.55	2815.69
896.865	2804.16
897.181	2788.57
897.496	2807.55
897.811	2828.34
898.126	2797.84
898.441	2762.36
898.756	2801.45
899.071	2762.13
899.386	2750.38
899.7	2722.58
900.015	2716.48
900.33	2708.8
900.644	2713.54
900.959	2692.3
901.273	2675.81
901.588	2689.59
901.902	2676.94
902.216	2668.57
902.531	2665.41
902.845	2676.94
903.159	2641.23
903.473	2628.57
903.787	2615.92
904.101	2619.31
904.415	2593.55
904.729	2603.72
905.042	2588.35
905.356	2586.77
905.67	2596.03
905.984	2605.75
906.297	2554.45
906.611	2594.68
906.924	2563.72
907.237	2578.18
907.551	2524.85
907.864	2513.32
908.177	2553.77
908.491	2540.67
908.804	2533.44
909.117	2483.72
909.43	2486.66
909.743	2471.97
910.056	2502.48
910.368	2483.04
910.681	2459.31
910.994	2434.68
911.307	2424.74
911.619	2426.32
911.932	2441.01
912.244	2401.91
912.557	2398.75
912.869	2363.72
913.181	2368.69
913.494	2349.03
913.806	2367.11
914.118	2383.61
914.43	2329.37
914.742	2326.21
915.054	2326.44
915.366	2328.24
915.678	2307.68
915.99	2314.23
916.302	2298.64
916.613	2276.27
916.925	2279.66
917.236	2279.88
917.548	2250.96
917.859	2256.38
918.171	2245.53
918.482	2240.56
918.794	2238.75
919.105	2210.51
919.416	2212.99
919.727	2202.6
920.038	2197.4
920.349	2159.21
920.66	2171.64
920.971	2193.56
921.282	2168.02
921.593	2139.55
921.903	2148.59
922.214	2129.61
922.525	2124.41
922.835	2130.73
923.146	2104.29
923.456	2120.57
923.767	2096.61
924.077	2119.21
924.387	2061.13
924.697	2106.1
925.008	2090.51
925.318	2051.19
925.628	2037.18
925.938	2071.75
926.248	2026.78
926.558	2037.63
926.867	2041.7
927.177	2019.55
927.487	1993.11
927.796	1962.38
928.106	1984.07
928.416	1971.64
928.725	1969.16
929.034	1938.65
929.344	1994.02
929.653	1964.64
929.962	1944.07
930.271	1944.75
930.581	1941.59
930.89	1921.47
931.199	1920.8
931.508	1937.29
931.817	1908.14
932.125	1898.88
932.434	1879.22
932.743	1876.05
933.051	1900.68
933.36	1861.82
933.669	1864.3
933.977	1850.97
934.286	1854.36
934.594	1842.15
934.902	1840.8
935.21	1855.26
935.519	1854.58
935.827	1860.23
936.135	1837.64
936.443	1803.51
936.751	1784.08
937.059	1785.89
937.367	1805.32
937.674	1793.57
937.982	1798.99
938.29	1799.22
938.597	1781.59
938.905	1753.12
939.213	1760.35
939.52	1756.06
939.827	1725.32
940.135	1747.69
940.442	1708.6
940.749	1719.9
941.056	1725.1
941.363	1724.42
941.67	1706.57
941.977	1713.12
942.284	1673.12
942.591	1669.73
942.898	1678.77
943.205	1682.39
943.511	1680.8
943.818	1670.41
944.125	1659.33
944.431	1671.99
944.738	1688.26
945.044	1615.27
945.35	1621.6
945.657	1614.36
945.963	1624.53
946.269	1607.13
946.575	1594.93
946.881	1601.03
947.187	1605.55
947.493	1611.43
947.799	1608.26
948.105	1561.71
948.41	1577.76
948.716	1558.77
949.022	1575.04
949.327	1569.62
949.633	1564.42
949.938	1561.48
950.244	1564.2
950.549	1538.43
950.854	1522.84
951.16	1503.63
951.465	1550.19
951.77	1505.44
952.075	1504.54
952.38	1509.96
952.685	1523.07
952.99	1498.89
953.294	1479.45
953.599	1500.7
953.904	1480.58
954.209	1456.63
954.513	1460.92
954.818	1441.04
955.122	1453.92
955.426	1451.66
955.731	1464.76
956.035	1430.64
956.339	1435.39
956.643	1426.57
956.948	1417.08
957.252	1413.69
957.556	1421.83
957.86	1427.48
958.163	1419.34
958.467	1393.35
958.771	1372.79
959.075	1371.43
959.378	1376.4
959.682	1427.7
959.985	1352.22
960.289	1379.79
960.592	1353.13
960.896	1363.52
961.199	1359.23
961.502	1368.95
961.805	1324.43
962.108	1332.79
962.411	1337.31
962.714	1315.16
963.017	1317.2
963.32	1334.6
963.623	1317.2
963.926	1321.26
964.228	1308.38
964.531	1287.37
964.833	1310.19
965.136	1298.21
965.438	1321.26
965.741	1290.08
966.043	1297.99
966.345	1315.62
966.648	1279.46
966.95	1267.71
967.252	1264.77
967.554	1255.28
967.856	1261.38
968.158	1220.48
968.46	1236.97
968.761	1270.87
969.063	1249.4
969.365	1217.54
969.666	1238.33
969.968	1233.13
970.269	1214.37
970.571	1217.31
970.872	1219.57
971.174	1220.93
971.475	1180.03
971.776	1205.34
972.077	1183.42
972.378	1176.86
972.679	1178.67
972.98	1159.24
973.281	1176.41
973.582	1159.91
973.883	1186.8
974.183	1154.26
974.484	1168.5
974.785	1162.62
975.085	1187.71
975.386	1135.05
975.686	1134.15
975.986	1158.56
976.287	1158.56
976.587	1123.76
976.887	1126.92
977.187	1123.08
977.487	1112.46
977.787	1133.47
978.087	1109.97
978.387	1111.33
978.687	1108.39
978.987	1102.06
979.286	1105.68
979.586	1109.52
979.885	1101.16
980.185	1092.34
980.484	1105.23
980.784	1102.97
981.083	1098.9
981.382	1102.74
981.682	1070.42
981.981	1067.71
982.28	1076.75
982.579	1071.55
982.878	1061.38
983.177	1066.81
983.475	1070.88
983.774	1045.34
984.073	1044.66
984.372	1047.6
984.67	1051.44
984.969	1043.08
985.267	1030.42
985.566	1005.11
985.864	1008.73
986.162	1029.97
986.461	1005.79
986.759	1020.03
987.057	978.9
987.355	983.19
987.653	970.77
987.951	983.42
988.249	1003.98
988.547	972.8
988.844	996.08
989.142	997.88
989.44	971.9
989.737	948.39
990.035	966.7
990.332	947.26
990.63	956.53
990.927	976.19
991.224	966.25
991.521	956.3
991.819	931.67
992.116	961.73
992.413	947.94
992.71	932.57
993.006	936.87
993.303	942.07
993.6	951.1
993.897	936.64
994.193	919.92
994.49	930.77
994.787	917.66
995.083	932.8
995.379	907.72
995.676	919.24
995.972	917.21
996.268	916.98
996.565	901.39
996.861	907.49
997.157	902.29
997.453	894.61
997.749	876.98
998.044	886.7
998.34	898.45
998.636	884.21
998.932	898
999.227	867.94
999.523	896.42
999.818	858
1000.114	853.93
1000.409	875.85
1000.704	868.85
1001	851.22
1001.295	849.41
1001.59	869.07
1001.885	857.1
1002.18	841.05
1002.475	859.13
1002.77	837.44
1003.065	831.11
1003.359	830.2
1003.654	828.85
1003.949	829.53
1004.243	832.46
1004.538	827.94
1004.832	806.7
1005.127	821.39
1005.421	801.5
1005.715	791.79
1006.009	816.42
1006.304	810.77
1006.598	787.04
1006.892	803.99
1007.186	799.7
1007.48	793.37
1007.773	785.01
1008.067	775.52
1008.361	769.87
1008.655	768.74
1008.948	772.13
1009.242	743.88
1009.535	775.29
1009.829	747.72
1010.122	773.93
1010.415	754.27
1010.708	753.6
1011.001	764.9
1011.295	756.08
1011.588	733.94
1011.881	749.3
1012.173	735.07
1012.466	722.86
1012.759	714.5
1013.052	742.07
1013.344	731.22
1013.637	764.22
1013.93	698
1014.222	735.52
1014.514	690.55
1014.807	700.72
1015.099	716.53
1015.391	701.39
1015.683	695.97
1015.976	675.18
1016.268	683.99
1016.56	693.26
1016.851	687.84
1017.143	711.11
1017.435	672.24
1017.727	688.96
1018.018	668.4
1018.31	680.6
1018.602	691
1018.893	669.3
1019.185	665.91
1019.476	662.52
1019.767	667.95
1020.058	661.4
1020.35	642.19
1020.641	682.41
1020.932	673.15
1021.223	657.78
1021.514	620.27
1021.804	642.41
1022.095	660.27
1022.386	626.82
1022.677	636.31
1022.967	635.63
1023.258	625.69
1023.548	643.77
1023.839	621.4
1024.129	628.18
1024.419	601.96
1024.709	642.19
1025	635.41
1025.29	604.9
1025.58	617.33
1025.87	610.32
1026.16	591.79
1026.449	583.66
1026.739	589.53
1027.029	618.01
1027.319	604.9
1027.608	578.91
1027.898	578.01
1028.187	603.54
1028.477	583.88
1028.766	584.33
1029.055	553.6
1029.344	564.9
1029.634	579.36
1029.923	569.42
1030.212	573.94
1030.501	567.61
1030.79	566.26
1031.078	576.43
1031.367	563.77
1031.656	556.31
1031.945	556.99
1032.233	573.04
1032.522	533.04
1032.81	560.38
1033.099	565.13
1033.387	576.88
1033.675	556.09
1033.963	538.69
1034.251	546.82
1034.54	534.84
1034.828	555.64
1035.116	547.5
1035.403	536.88
1035.691	524.9
1035.979	540.27
1036.267	525.81
1036.554	529.42
1036.842	519.93
1037.129	528.52
1037.417	513.83
1037.704	516.09
1037.992	525.35
1038.279	505.47
1038.566	525.13
1038.853	525.13
1039.14	525.13
