Data from black_plastic_tray_FLMS001491_074.txt Node
Date: Tue Feb 07 10:40:35 GMT 2017
User: dcchb
Spectrometer: FLMS00149
Trigger mode: 0
Integration Time (sec): 2.000000E-2
Scans to average: 10
Electric dark correction enabled: true
Nonlinearity correction enabled: false
Boxcar width: 0
XAxis mode: Wavelengths
Number of Pixels in Spectrum: 2048
>>>>>Begin Spectral Data<<<<<
341.393	-6.4
341.776	-6.4
342.16	-6.4
342.543	-54.98
342.927	-53.63
343.31	-81.88
343.693	-64.48
344.077	-59.05
344.46	-82.55
344.843	-49.56
345.226	-67.41
345.61	-27.19
345.993	-19.05
346.376	-5.72
346.759	14.17
347.142	28.86
347.525	41.74
347.908	69.76
348.291	82.41
348.674	104.79
349.057	115.18
349.44	126.71
349.823	138.23
350.206	171.68
350.588	185.91
350.971	200.83
351.354	212.58
351.737	218.45
352.119	229.98
352.502	233.14
352.884	260.04
353.267	287.83
353.65	278.57
354.032	294.84
354.414	269.98
354.797	302.52
355.179	321.05
355.562	336.64
355.944	301.84
356.326	318.57
356.709	321.95
357.091	326.02
357.473	342.75
357.855	324.89
358.238	343.88
358.62	323.99
359.002	344.33
359.384	323.31
359.766	320.15
360.148	319.47
360.53	317.89
360.912	319.69
361.294	326.7
361.676	317.66
362.057	328.28
362.439	335.29
362.821	341.39
363.203	292.35
363.584	327.6
363.966	330.99
364.348	325.57
364.729	321.95
365.111	307.49
365.493	298.45
365.874	310.66
366.256	313.82
366.637	326.02
367.019	309.3
367.4	320.37
367.781	293.48
368.163	300.71
368.544	312.24
368.925	315.85
369.306	328.06
369.688	328.96
370.069	302.52
370.45	307.27
370.831	314.5
371.212	326.47
371.593	312.92
371.974	307.72
372.355	324.89
372.736	327.83
373.117	299.36
373.498	323.54
373.879	319.92
374.26	302.75
374.641	328.96
375.021	314.5
375.402	299.58
375.783	326.47
376.163	332.58
376.544	329.86
376.925	348.85
377.305	354.95
377.686	341.84
378.066	362.86
378.447	343.65
378.827	349.3
379.208	347.94
379.588	338
379.968	339.58
380.349	350.2
380.729	324.67
381.109	359.69
381.489	364.44
381.87	330.77
382.25	377.09
382.63	360.82
383.01	341.16
383.39	359.24
383.77	342.97
384.15	358.56
384.53	378.22
384.91	344.33
385.29	378
385.67	368.96
386.049	379.81
386.429	380.03
386.809	363.76
387.189	358.11
387.568	381.84
387.948	384.78
388.328	385.68
388.707	362.41
389.087	363.99
389.466	362.63
389.846	378
390.225	369.41
390.605	405.57
390.984	383.2
391.363	403.53
391.743	387.94
392.122	396.53
392.501	401.95
392.881	399.92
393.26	387.26
393.639	423.87
394.018	406.02
394.397	431.78
394.776	425.91
395.155	427.71
395.534	419.81
395.913	437.88
396.292	439.47
396.671	427.04
397.05	414.83
397.429	434.27
397.808	414.38
398.186	441.27
398.565	427.49
398.944	436.08
399.323	445.34
399.701	464.32
400.08	452.8
400.458	473.82
400.837	455.74
401.215	470.2
401.594	452.57
401.972	472.46
402.351	459.35
402.729	462.97
403.107	489.18
403.486	488.05
403.864	469.75
404.242	473.82
404.62	458.67
404.999	495.28
405.377	500.71
405.755	481.5
406.133	470.88
406.511	514.94
406.889	510.65
407.267	508.39
407.645	524.21
408.023	520.82
408.401	512.01
408.779	505.23
409.156	514.27
409.534	540.71
409.912	559.01
410.29	563.98
410.667	552.68
411.045	532.8
411.422	564.89
411.8	561.5
412.178	552.68
412.555	545.9
412.933	575.28
413.31	587.71
413.687	567.37
414.065	546.58
414.442	609.18
414.819	603.08
415.197	599.01
415.574	614.6
415.951	602.63
416.328	614.83
416.705	595.17
417.082	628.61
417.46	604.43
417.837	641.49
418.214	666.13
418.591	639.91
418.967	655.05
419.344	636.3
419.721	642.62
420.098	650.53
420.475	652.12
420.852	669.74
421.228	655.51
421.605	657.31
421.982	682.62
422.358	697.54
422.735	685.79
423.111	698.22
423.488	685.56
423.864	722.17
424.241	697.76
424.617	726.69
424.994	721.72
425.37	736.86
425.746	743.86
426.123	731.44
426.499	761.94
426.875	740.93
427.251	759.23
427.627	774.15
428.003	788.61
428.379	792.68
428.756	762.85
429.132	811.66
429.507	816.18
429.883	807.82
430.259	807.37
430.635	835.61
431.011	828.83
431.387	854.37
431.763	868.38
432.138	872.9
432.514	879
432.89	865.44
433.265	886.23
433.641	903.18
434.016	916.06
434.392	925.33
434.767	937.98
435.143	946.57
435.518	959.23
435.894	951.32
436.269	945.22
436.644	969.4
437.02	986.12
437.395	974.82
437.77	988.38
438.145	984.54
438.52	1022.95
438.895	1009.62
439.271	1009.39
439.646	1026.8
440.021	1064.08
440.395	1056.85
440.77	1062.73
441.145	1062.27
441.52	1079.9
441.895	1073.12
442.27	1084.19
442.645	1085.78
443.019	1086
443.394	1067.7
443.769	1095.49
444.143	1102.05
444.518	1105.44
444.892	1113.35
445.267	1097.3
445.641	1124.65
446.016	1166.45
446.39	1146.34
446.764	1176.62
447.139	1150.63
447.513	1135.27
447.887	1172.55
448.262	1164.42
448.636	1164.64
449.01	1233.12
449.384	1214.81
449.758	1223.4
450.132	1241.48
450.506	1222.72
450.88	1245.09
451.254	1233.57
451.628	1251.2
452.002	1286
452.376	1314.02
452.75	1298.65
453.123	1300.91
453.497	1316.73
453.871	1335.71
454.244	1342.49
454.618	1381.81
454.992	1378.42
455.365	1367.58
455.739	1398.99
456.112	1417.29
456.486	1440.57
456.859	1454.35
457.232	1488.25
457.606	1482.15
457.979	1477.86
458.352	1513.79
458.725	1513.79
459.099	1528.93
459.472	1563.96
459.845	1574.58
460.218	1610.51
460.591	1581.81
460.964	1623.84
461.337	1655.03
461.71	1661.35
462.083	1683.5
462.456	1671.3
462.829	1704.29
463.201	1706.33
463.574	1715.82
463.947	1736.83
464.32	1764.85
464.692	1774.57
465.065	1798.53
465.438	1835.36
465.81	1873.33
466.183	1876.94
466.555	1907
466.928	1911.29
467.3	1905.42
467.672	1962.36
468.045	1990.61
468.417	2010.05
468.789	2043.49
469.161	2039.65
469.534	2095.92
469.906	2116.03
470.278	2135.47
470.65	2121.91
471.022	2169.82
471.394	2213.88
471.766	2251.85
472.138	2253.88
472.51	2317.83
472.882	2354.22
473.253	2372.52
473.625	2381.34
473.997	2433.99
474.369	2456.59
474.74	2473.76
475.112	2522.8
475.484	2576.13
475.855	2575.45
476.227	2622.01
476.598	2683.02
476.97	2712.85
477.341	2749.91
477.713	2799.86
478.084	2829.91
478.455	2881.66
478.827	2938.84
479.198	2972.51
479.569	3034.65
479.94	3050.02
480.311	3081.88
480.682	3149.23
481.053	3197.36
481.424	3290.01
481.795	3279.62
482.166	3347.86
482.537	3417.24
482.908	3460.4
483.279	3508.76
483.65	3572.94
484.021	3601.19
484.391	3674.64
484.762	3653.84
485.133	3691.58
485.503	3779.27
485.874	3836.44
486.244	3901.75
486.615	3924.12
486.985	3989.2
487.356	4014.06
487.726	4057
488.097	4124.11
488.467	4162.53
488.837	4268.07
489.207	4315.3
489.578	4367.5
489.948	4385.58
490.318	4434.62
490.688	4454.73
491.058	4521.84
491.428	4567.04
491.798	4577.21
492.168	4707.38
492.538	4740.6
492.908	4793.02
493.278	4859.46
493.648	4827.15
494.017	4917.31
494.387	4953.47
494.757	4977.65
495.126	5062.85
495.496	5108.72
495.866	5123.86
496.235	5206.8
496.605	5207.25
496.974	5275.72
497.344	5306.46
497.713	5323.86
498.082	5341.26
498.452	5395.95
498.821	5409.05
499.19	5487.92
499.559	5552.33
499.928	5555.04
500.298	5614.92
500.667	5673
501.036	5617.18
501.405	5724.3
501.774	5706.22
502.143	5781.02
502.512	5802.26
502.88	5866.89
503.249	5821.25
503.618	5863.5
503.987	5918.19
504.356	5957.96
504.724	6007.91
505.093	6074.8
505.462	6040.22
505.83	6109.6
506.199	6208.58
506.567	6260.1
506.936	6234.12
507.304	6295.58
507.672	6405.18
508.041	6378.97
508.409	6414.22
508.777	6491.96
509.145	6506.2
509.514	6491.06
509.882	6582.58
510.25	6622.35
510.618	6639.53
510.986	6678.4
511.354	6765.85
511.722	6804.5
512.09	6867.77
512.458	6911.16
512.826	6918.39
513.193	6971.27
513.561	6973.31
513.929	7075.45
514.297	7127.88
514.664	7163.36
515.032	7239.29
515.4	7272.28
515.767	7291.04
516.135	7331.94
516.502	7285.84
516.869	7412.16
517.237	7464.37
517.604	7459.17
517.972	7580.97
518.339	7640.86
518.706	7696.22
519.073	7671.14
519.44	7758.14
519.808	7849.21
520.175	7864.13
520.542	7912.72
520.909	8027.74
521.276	8020.06
521.643	8117
522.009	8171.24
522.376	8159.94
522.743	8245.81
523.11	8387.73
523.477	8383.21
523.843	8508.86
524.21	8518.58
524.577	8562.42
524.943	8673.6
525.31	8725.12
525.676	8825.23
526.043	8860.94
526.409	8890.77
526.776	9003.31
527.142	9009.64
527.508	9012.8
527.874	9127.6
528.241	9183.42
528.607	9184.77
528.973	9311.77
529.339	9329.85
529.705	9411.21
530.071	9499.11
530.437	9496.4
530.803	9615.95
531.169	9672.44
531.535	9672.44
531.901	9748.37
532.267	9781.59
532.632	9732.33
532.998	9810.07
533.364	9911.08
533.73	9915.83
534.095	10030.63
534.461	10054.13
534.826	10169.61
535.192	10114.92
535.557	10230.17
535.923	10216.16
536.288	10309.49
536.653	10368.24
537.019	10315.36
537.384	10398.3
537.749	10450.28
538.114	10476.72
538.479	10577.05
538.845	10520.78
539.21	10521.01
539.575	10597.84
539.94	10631.97
540.305	10639.88
540.67	10709.93
541.034	10747.44
541.399	10788.12
541.764	10787.44
542.129	10910.38
542.494	10884.84
542.858	10915.12
543.223	10995.57
543.587	10941.79
543.952	10989.92
544.316	11071.5
544.681	11076.93
545.045	11168.22
545.41	11196.25
545.774	11136.13
546.138	11231.72
546.503	11289.35
546.867	11235.79
547.231	11440.08
547.595	11435.11
547.959	11496.12
548.324	11474.88
548.688	11523.24
549.052	11575.44
549.416	11595.1
549.779	11526.63
550.143	11631.49
550.507	11678.27
550.871	11777.02
551.235	11782.9
551.599	11851.37
551.962	11966.39
552.326	11967.07
552.689	11975.21
553.053	11905.38
553.417	12067.41
553.78	12141.53
554.143	12167.97
554.507	12215.2
554.87	12214.07
555.234	12402.77
555.597	12281.41
555.96	12352.15
556.323	12439.83
556.686	12426.27
557.05	12535.87
557.413	12585.81
557.776	12579.26
558.139	12720.05
558.502	12690.22
558.865	12771.57
559.228	12819.48
559.59	12888.63
559.953	12904
560.316	13023.54
560.679	12995.29
561.041	13153.03
561.404	13073.03
561.767	13229.41
562.129	13137.21
562.492	13379.01
562.854	13359.35
563.217	13421.27
563.579	13461.5
563.941	13521.61
564.304	13600.93
564.666	13672.56
565.028	13718.66
565.39	13778.1
565.753	13807.7
566.115	13760.7
566.477	13950.3
566.839	13944.65
567.201	14070.52
567.563	14030.29
567.925	14150.07
568.287	14144.87
568.648	14161.36
569.01	14249.5
569.372	14289.95
569.734	14341.7
570.095	14500.34
570.457	14494.01
570.819	14576.95
571.18	14571.52
571.542	14733.33
571.903	14602.94
572.265	14715.25
572.626	14728.13
572.987	14724.51
573.349	14751.63
573.71	14875.47
574.071	14851.06
574.432	14957.28
574.794	15045.41
575.155	15012.64
575.516	14999.31
575.877	15025.75
576.238	15081.34
576.599	15028.23
576.96	15121.79
577.32	15162.02
577.681	15162.02
578.042	15352.75
578.403	15333.54
578.763	15352.97
579.124	15392.29
579.485	15465.51
579.845	15486.3
580.206	15414.67
580.566	15308.68
580.927	15289.47
581.287	15355.68
581.648	15324.72
582.008	15472.52
582.368	15461.22
582.728	15537.6
583.089	15447.43
583.449	15444.04
583.809	15521.1
584.169	15487.43
584.529	15481.56
584.889	15648.56
585.249	15582.12
585.609	15464.38
585.969	15572.85
586.329	15539.63
586.688	15573.98
587.048	15474.55
587.408	15499.18
587.768	15570.14
588.127	15580.76
588.487	15442.24
588.846	15569.92
589.206	15481.33
589.565	15492.18
589.925	15583.7
590.284	15527.88
590.643	15503.25
591.003	15640.87
591.362	15609.46
591.721	15590.25
592.08	15577.15
592.44	15655.56
592.799	15661.44
593.158	15628.22
593.517	15645.62
593.876	15633.64
594.235	15723.36
594.593	15754.32
594.952	15734.88
595.311	15699.63
595.67	15651.72
596.029	15798.38
596.387	15699.4
596.746	15805.84
597.104	15746.41
597.463	15635.9
597.822	15774.66
598.18	15720.65
598.538	15627.77
598.897	15757.03
599.255	15692.4
599.613	15874.99
599.972	15804.26
600.33	15895.1
600.688	15744.83
601.046	15831.83
601.404	15843.13
601.762	15830.7
602.12	15898.95
602.478	15959.06
602.836	15938.49
603.194	15908.89
603.552	15965.16
603.91	15925.61
604.268	15957.7
604.625	15908.21
604.983	15982.79
605.341	15922
605.698	15869.34
606.056	15941.66
606.413	15950.7
606.771	16071.82
607.128	16008.32
607.485	15945.27
607.843	15981.66
608.2	16110.47
608.557	16160.86
608.914	16110.24
609.272	16183.01
609.629	16192.05
609.986	16143.91
610.343	16068.43
610.7	16327.41
611.057	16230.46
611.414	16199.05
611.771	16313.4
612.127	16290.57
612.484	16266.62
612.841	16392.49
613.198	16303.23
613.554	16389.55
613.911	16329.9
614.267	16369.44
614.624	16290.12
614.98	16331.03
615.337	16375.09
615.693	16268.2
616.05	16392.72
616.406	16509.33
616.762	16464.36
617.118	16483.79
617.475	16388.65
617.831	16443.11
618.187	16518.14
618.543	16522.66
618.899	16647.85
619.255	16644.46
619.611	16597.01
619.967	16744.8
620.323	16671.81
620.678	16556.33
621.034	16661.19
621.39	16475.43
621.746	16566.95
622.101	16740.05
622.457	16659.83
622.812	16617.12
623.168	16721.52
623.523	16663.67
623.879	16718.36
624.234	16580.74
624.589	16620.51
624.945	16624.8
625.3	16691.47
625.655	16664.35
626.01	16774.63
626.365	16601.75
626.72	16643.56
627.075	16614.41
627.43	16631.13
627.785	16550.23
628.14	16573.28
628.495	16694.63
628.85	16633.62
629.205	16546.16
629.559	16699.83
629.914	16574.63
630.269	16507.07
630.623	16488.54
630.978	16438.37
631.332	16615.76
631.687	16611.02
632.041	16506.39
632.396	16615.31
632.75	16506.61
633.104	16512.94
633.459	16453.73
633.813	16414.64
634.167	16341.42
634.521	16371.02
634.875	16393.85
635.229	16345.26
635.583	16219.84
635.937	16276.56
636.291	16104.14
636.645	16200.41
636.999	16094.42
637.352	16182.33
637.706	16039.96
638.06	16166.96
638.413	16088.77
638.767	16060.3
639.121	16137.13
639.474	16021.66
639.828	15984.82
640.181	16134.65
640.534	16049.68
640.888	15944.14
641.241	15882.68
641.594	15953.63
641.947	15996.57
642.301	15876.12
642.654	15883.35
643.007	15886.74
643.36	15799.97
643.713	15786.41
644.066	15897.59
644.419	15854.43
644.771	15756.8
645.124	15542.12
645.477	15457.15
645.83	15432.07
646.182	15387.1
646.535	15243.37
646.888	15340.99
647.24	15164.5
647.593	15345.97
647.945	15229.59
648.298	15160.21
648.65	15044.96
649.002	15029.36
649.355	15166.76
649.707	15043.6
650.059	15185.29
650.411	15366.98
650.763	15362.24
651.115	15597.94
651.467	15505.74
651.819	15479.3
652.171	15431.16
652.523	15352.07
652.875	15330.37
653.227	15370.37
653.578	15429.81
653.93	15367.21
654.282	15390.26
654.633	15296.48
654.985	15332.18
655.337	15386.19
655.688	15349.81
656.039	15370.6
656.391	15094.67
656.742	15326.08
657.094	15182.58
657.445	15331.5
657.796	15194.56
658.147	15192.3
658.498	15258.74
658.849	15300.32
659.2	15252.86
659.551	15239.3
659.902	15263.71
660.253	15176.48
660.604	15239.98
660.955	15082.7
661.306	15181
661.656	15070.04
662.007	15129.93
662.358	15135.8
662.708	15095.35
663.059	15112.3
663.409	14977.16
663.76	15027.78
664.11	15145.29
664.461	15052.41
664.811	15022.81
665.161	15061.23
665.511	14968.58
665.862	14981.91
666.212	15026.43
666.562	15001.12
666.912	14883.61
667.262	14957.73
667.612	15008.35
667.962	15047.67
668.312	14950.72
668.662	14995.92
669.011	14932.87
669.361	14923.38
669.711	14905.07
670.06	14911.63
670.41	14742.59
670.76	14862.82
671.109	14854.68
671.459	14816.49
671.808	14834.34
672.157	14862.59
672.507	14746.66
672.856	14799.54
673.205	14788.02
673.554	14880.67
673.904	14776.49
674.253	14914.34
674.602	14736.94
674.951	14501.69
675.3	14370.17
675.649	14691.07
675.998	14677.74
676.346	14745.53
676.695	14769.26
677.044	14692.65
677.393	14696.49
677.741	14618.3
678.09	14638.64
678.438	14593.67
678.787	14471.41
679.135	14639.32
679.484	14429.83
679.832	14543.95
680.181	14453.56
680.529	14561.81
680.877	14360.23
681.225	14404.75
681.573	14582.6
681.922	14450.4
682.27	14404.97
682.618	14313.68
682.966	14436.16
683.314	14407.46
683.661	14372.21
684.009	14240.23
684.357	14255.37
684.705	14261.25
685.053	14223.06
685.4	14266.67
685.748	14257.41
686.095	14162.95
686.443	14057.41
686.79	14066.68
687.138	14059.45
687.485	14082.5
687.832	14014.93
688.18	13956.62
688.527	13924.76
688.874	13868.49
689.221	13902.39
689.568	13866.46
689.915	13897.64
690.262	13880.24
690.609	13720.02
690.956	13717.76
691.303	13668.95
691.65	13560.02
691.997	13662.17
692.344	13470.54
692.69	13393.02
693.037	13473.02
693.383	13474.6
693.73	13598.67
694.077	13463.53
694.423	13535.39
694.769	13456.75
695.116	13411.78
695.462	13396.87
695.808	13330.88
696.155	13313.48
696.501	13229.86
696.847	13233.48
697.193	13153.48
697.539	13178.57
697.885	12975.86
698.231	13022.41
698.577	13017.89
698.923	12932.7
699.269	12875.98
699.614	12882.3
699.96	12824.9
700.306	12793.94
700.651	12855.86
700.997	12715.53
701.342	12687.51
701.688	12709.2
702.033	12680.95
702.379	12664
702.724	12600.95
703.069	12687.28
703.415	12517.34
703.76	12520.05
704.105	12484.35
704.45	12448.64
704.795	12354.86
705.14	12355.54
705.485	12329.1
705.83	12308.31
706.175	12308.08
706.52	12275.54
706.865	12235.54
707.209	12211.59
707.554	12147.18
707.899	12213.17
708.243	12089.33
708.588	12115.32
708.932	12044.58
709.277	12049.1
709.621	12120.06
709.966	12019.5
710.31	12003.46
710.654	11920.97
710.998	11949.67
711.342	11873.52
711.687	11921.88
712.031	11811.6
712.375	11766.17
712.719	11795.78
713.063	11730.92
713.407	11789.9
713.75	11689.57
714.094	11601.21
714.438	11588.33
714.782	11680.75
715.125	11577.03
715.469	11518.5
715.812	11494.09
716.156	11471.94
716.499	11518.72
716.843	11396.24
717.186	11490.47
717.53	11416.35
717.873	11518.72
718.216	11359.86
718.559	11362.57
718.902	11273.08
719.246	11365.05
719.589	11288.9
719.932	11274.44
720.275	11248.45
720.617	11287.09
720.96	11191.73
721.303	11271.95
721.646	11183.36
721.989	11116.02
722.331	11196.25
722.674	11101.78
723.016	11144.27
723.359	11131.84
723.701	11140.2
724.044	11097.26
724.386	11022.24
724.729	11052.29
725.071	10985.18
725.413	10967.78
725.755	10907.67
726.097	10913.99
726.439	10868.12
726.782	10792.64
727.124	10922.58
727.465	10842.58
727.807	10833.54
728.149	10853.43
728.491	10811.4
728.833	10828.12
729.175	10783.6
729.516	10711.74
729.858	10752.42
730.199	10709.03
730.541	10738.86
730.882	10786.31
731.224	10748.57
731.565	10653.66
731.906	10580.22
732.248	10666.09
732.589	10560.1
732.93	10499.31
733.271	10574.11
733.612	10604.62
733.953	10522.36
734.294	10464.06
734.635	10448.47
734.976	10571.63
735.317	10483.95
735.658	10467
735.999	10517.17
736.339	10431.29
736.68	10388.13
737.021	10370.5
737.361	10292.77
737.702	10453.89
738.042	10313.78
738.383	10393.78
738.723	10345.19
739.063	10338.87
739.404	10285.31
739.744	10253.45
740.084	10225.2
740.424	10270.85
740.764	10268.81
741.104	10285.08
741.444	10202.6
741.784	10094.81
742.124	10092.09
742.464	10155.14
742.804	10150.62
743.143	10078.31
743.483	10135.48
743.823	10054.13
744.162	10107.01
744.502	10115.6
744.841	10024.75
745.181	10135.48
745.52	10050.51
745.86	10001.7
746.199	9984.53
746.538	9972.77
746.877	9944.98
747.216	9953.57
747.556	9874.7
747.895	9998.31
748.234	9833.8
748.573	9881.48
748.911	9822.95
749.25	9810.74
749.589	9761.03
749.928	9827.02
750.267	9909.5
750.605	9835.38
750.944	9777.98
751.283	9709.73
751.621	9759.45
751.96	9722.61
752.298	9762.38
752.636	9683.74
752.975	9591.09
753.313	9636.29
753.651	9650.75
753.989	9564.88
754.327	9515.84
754.666	9492.34
755.004	9501.15
755.342	9443.75
755.679	9458.66
756.017	9266.58
756.355	9410.3
756.693	9352.45
757.031	9382.51
757.368	9315.84
757.706	9399.68
758.044	9301.61
758.381	9338.21
758.719	9294.6
759.056	9314.94
759.394	9199.46
759.731	9184.55
760.068	9185
760.405	9082.63
760.743	9056.41
761.08	9028.84
761.417	8981.39
761.754	8997.43
762.091	9021.84
762.428	8947.04
762.765	8968.06
763.102	8912.46
763.438	8886.48
763.775	8828.62
764.112	8848.06
764.449	8854.61
764.785	8811.45
765.122	8714.5
765.458	8756.76
765.795	8695.52
766.131	8662.53
766.467	8562.64
766.804	8558.8
767.14	8590.21
767.476	8566.26
767.812	8525.13
768.148	8490.33
768.485	8482.64
768.821	8538.91
769.157	8432.48
769.492	8445.13
769.828	8417.79
770.164	8257.79
770.5	8301.18
770.836	8342.31
771.171	8307.73
771.507	8263.89
771.842	8130.56
772.178	8232.48
772.513	8185.7
772.849	8166.27
773.184	8100.73
773.519	8080.17
773.855	8038.36
774.19	7983.67
774.525	7985.71
774.86	8015.09
775.195	7985.48
775.53	7974.41
775.865	7929.21
776.2	7819.61
776.535	7820.29
776.87	7835.66
777.205	7785.04
777.539	7769.89
777.874	7723.34
778.209	7632.27
778.543	7648.77
778.878	7627.98
779.212	7599.96
779.547	7601.76
779.881	7589.33
780.215	7537.81
780.55	7443.58
780.884	7495.1
781.218	7393.63
781.552	7399.96
781.886	7320.41
782.22	7327.42
782.554	7261.66
782.888	7164.49
783.222	7217.82
783.556	7225.05
783.889	7228.67
784.223	7142.34
784.557	7169.68
784.89	7183.24
785.224	7129.91
785.557	7118.39
785.891	7073.64
786.224	7051.04
786.558	7058.95
786.891	6988.67
787.224	6931.05
787.557	6899.86
787.891	6905.06
788.224	6919.75
788.557	6904.61
788.89	6955.9
789.223	6895.34
789.556	6858.73
789.888	6818.28
790.221	6780.77
790.554	6703.26
790.887	6687.21
791.219	6730.6
791.552	6678.62
791.884	6636.37
792.217	6606.54
792.549	6533.32
792.882	6558.63
793.214	6527.89
793.546	6552.75
793.879	6555.46
794.211	6436.37
794.543	6470.95
794.875	6462.13
795.207	6470.27
795.539	6458.06
795.871	6470.04
796.203	6320.44
796.535	6312.98
796.867	6271.63
797.198	6258.52
797.53	6238.64
797.862	6246.54
798.193	6219.43
798.525	6195.02
798.856	6179.88
799.188	6136.94
799.519	6151.86
799.85	6131.52
800.182	6105.98
800.513	6089.26
800.844	6062.14
801.175	6080.67
801.506	6076.83
801.837	6060.34
802.168	6032.99
802.499	6012.88
802.83	5964.74
803.161	5975.14
803.491	5945.31
803.822	5899.44
804.153	5886.33
804.483	5820.34
804.814	5790.74
805.145	5832.32
805.475	5778.53
805.805	5800.23
806.136	5733.79
806.466	5802.94
806.796	5819.66
807.126	5740.34
807.457	5763.17
807.787	5748.25
808.117	5664.19
808.447	5679.33
808.777	5676.39
809.107	5702.38
809.436	5684.98
809.766	5656.96
810.096	5633
810.426	5556.39
810.755	5602.72
811.085	5605.88
811.414	5603.17
811.744	5541.25
812.073	5494.25
812.403	5599.56
812.732	5472.55
813.061	5512.55
813.39	5444.76
813.719	5398.21
814.049	5504.42
814.378	5439.56
814.707	5375.16
815.036	5395.04
815.365	5384.87
815.693	5295.38
816.022	5391.43
816.351	5344.2
816.68	5304.42
817.008	5298.32
817.337	5276.4
817.665	5264.2
817.994	5255.84
818.322	5237.31
818.651	5195.05
818.979	5193.47
819.307	5225.1
819.636	5170.41
819.964	5190.3
820.292	5214.48
820.62	5181.94
820.948	5167.03
821.276	5184.88
821.604	5182.39
821.932	5192.56
822.259	5186.23
822.587	5187.14
822.915	5137.65
823.243	5201.15
823.57	5138.78
823.898	5179.45
824.225	5167.7
824.553	5181.26
824.88	5202.96
825.207	5214.26
825.535	5214.48
825.862	5178.55
826.189	5209.28
826.516	5125.22
826.843	5170.64
827.17	5168.61
827.497	5122.73
827.824	5126.8
828.151	5153.47
828.478	5162.96
828.805	5184.43
829.131	5144.88
829.458	5170.41
829.785	5146.23
830.111	5168.38
830.438	5159.57
830.764	5125.67
831.09	5160.7
831.417	5146.01
831.743	5146.01
832.069	5149.62
832.395	5117.08
832.722	5116.41
833.048	5068.72
833.374	5129.74
833.7	5050.42
834.026	5101.49
834.351	5081.83
834.677	5044.99
835.003	5070.08
835.329	5077.08
835.654	5098.55
835.98	5043.64
836.306	5075.5
836.631	5058.55
836.956	5090.64
837.282	5065.11
837.607	5036.18
837.932	4995.28
838.258	5024.88
838.583	4995.96
838.908	4982.85
839.233	4966.8
839.558	4990.08
839.883	4950.53
840.208	4958.9
840.533	4953.92
840.858	4973.81
841.182	4965.9
841.507	5007.26
841.832	4943.53
842.156	4919.35
842.481	4932.46
842.805	4905.34
843.13	4894.49
843.454	4879.58
843.778	4837.54
844.103	4831.44
844.427	4786.24
844.751	4891.78
845.075	4845.45
845.399	4819.69
845.723	4750.99
846.047	4817.2
846.371	4777.88
846.695	4764.55
847.019	4732.69
847.343	4716.42
847.666	4690.88
847.99	4680.26
848.313	4701.05
848.637	4635.29
848.96	4640.26
849.284	4642.52
849.607	4618.79
849.931	4555.06
850.254	4534.05
850.577	4544.89
850.9	4485.69
851.223	4507.16
851.546	4462.86
851.869	4459.02
852.192	4516.87
852.515	4452.69
852.838	4400.04
853.161	4394.62
853.483	4395.52
853.806	4372.24
854.129	4351.91
854.451	4342.87
854.774	4326.6
855.096	4327.05
855.419	4306.26
855.741	4286.37
856.063	4300.16
856.385	4292.02
856.708	4244.56
857.03	4238.24
857.352	4250.67
857.674	4227.39
857.996	4185.81
858.318	4175.86
858.64	4197.56
858.961	4154.85
859.283	4130.22
859.605	4179.03
859.926	4127.96
860.248	4165.47
860.57	4116.66
860.891	4092.7
861.212	4113.95
861.534	4118.47
861.855	4096.54
862.176	4086.6
862.498	4070.78
862.819	4092.03
863.14	4044.79
863.461	4055.19
863.782	4025.81
864.103	4024.23
864.424	3986.49
864.745	4050.44
865.065	4039.15
865.386	3996.43
865.707	4039.15
866.027	4039.37
866.348	4033.72
866.668	3994.4
866.989	3960.28
867.309	3935.65
867.63	3931.58
867.95	3941.07
868.27	3920.28
868.59	3962.31
868.91	3949.88
869.23	3953.5
869.55	3913.72
869.87	3971.35
870.19	3908.3
870.51	3916.44
870.83	3939.49
871.15	3894.74
871.469	3811.81
871.789	3872.14
872.109	3859.71
872.428	3851.58
872.748	3839.83
873.067	3857.68
873.386	3892.48
873.706	3861.97
874.025	3877.79
874.344	3862.43
874.663	3832.15
874.982	3798.47
875.301	3795.99
875.62	3792.82
875.939	3788.53
876.258	3803.9
876.577	3773.16
876.896	3752.37
877.214	3724.13
877.533	3793.28
877.852	3725.71
878.17	3811.81
878.489	3779.04
878.807	3766.16
879.125	3739.72
879.444	3742.2
879.762	3727.06
880.08	3726.61
880.398	3705.82
880.716	3732.71
881.034	3695.88
881.352	3693.17
881.67	3708.76
881.988	3706.72
882.306	3647.29
882.624	3695.2
882.941	3646.39
883.259	3652.04
883.577	3639.38
883.894	3640.51
884.212	3685.03
884.529	3626.27
884.846	3633.73
885.164	3632.38
885.481	3649.78
885.798	3605.94
886.115	3587.41
886.432	3569.33
886.75	3592.38
887.067	3551.02
887.383	3498.37
887.7	3548.54
888.017	3513.96
888.334	3532.94
888.651	3543.34
888.967	3491.81
889.284	3511.02
889.6	3490.46
889.917	3461.31
890.233	3457.69
890.55	3487.07
890.866	3485.04
891.182	3461.53
891.498	3465.6
891.815	3427.18
892.131	3446.84
892.447	3431.25
892.763	3456.79
893.079	3393.51
893.395	3405.04
893.71	3403.23
894.026	3382.21
894.342	3347.64
894.657	3369.33
894.973	3359.84
895.289	3312.16
895.604	3333.85
895.92	3271.71
896.235	3304.02
896.55	3283.91
896.865	3303.57
897.181	3306.96
897.496	3276.91
897.811	3227.19
898.126	3254.31
898.441	3218.15
898.756	3206.17
899.071	3222.67
899.386	3204.36
899.7	3184.25
900.015	3160.52
900.33	3160.07
900.644	3175.67
900.959	3172.73
901.273	3150.13
901.588	3133.41
901.902	3121.43
902.216	3124.59
902.531	3111.94
902.845	3106.29
903.159	3089.11
903.473	3059.06
903.787	3051.83
904.101	3048.21
904.415	3018.38
904.729	3005.5
905.042	3009.79
905.356	3027.65
905.67	3021.54
905.984	2983.35
906.297	2988.55
906.611	2939.74
906.924	2975.44
907.237	2941.32
907.551	2973.41
907.864	2920.98
908.177	2938.61
908.491	2930.25
908.804	2858.39
909.117	2860.65
909.43	2882.79
909.743	2871.04
910.056	2805.05
910.368	2843.24
910.681	2837.59
910.994	2830.82
911.307	2791.27
911.619	2766.18
911.932	2788.1
912.244	2821.78
912.557	2768.44
912.869	2796.47
913.181	2765.28
913.494	2800.76
913.806	2744.04
914.118	2734.55
914.43	2734.55
914.742	2741.33
915.054	2693.64
915.366	2673.53
915.678	2686.19
915.99	2644.61
916.302	2635.34
916.613	2657.49
916.925	2652.52
917.236	2603.02
917.548	2623.14
917.859	2649.35
918.171	2618.17
918.482	2589.69
918.794	2563.25
919.105	2581.78
919.416	2547.21
919.727	2530.71
920.038	2582.91
920.349	2518.06
920.66	2534.55
920.971	2536.81
921.282	2515.34
921.593	2482.12
921.903	2507.66
922.214	2454.1
922.525	2477.6
922.835	2487.32
923.146	2481.9
923.456	2467.89
923.767	2430.37
924.077	2442.13
924.387	2407.55
924.697	2408
925.008	2404.16
925.318	2373.65
925.628	2362.58
925.938	2370.71
926.248	2358.29
926.558	2351.05
926.867	2340.88
927.177	2330.04
927.487	2290.72
927.796	2347.89
928.106	2351.51
928.416	2273.77
928.725	2304.73
929.034	2283.03
929.344	2274.22
929.653	2278.74
929.962	2252.3
930.271	2207.1
930.581	2212.3
930.89	2217.72
931.199	2196.26
931.508	2212.98
931.817	2189.25
932.125	2191.96
932.434	2178.63
932.743	2138.63
933.051	2173.88
933.36	2170.04
933.669	2117.84
933.977	2116.71
934.286	2112.19
934.594	2123.04
934.902	2143.83
935.21	2127.56
935.519	2120.33
935.827	2096.82
936.135	2105.18
936.443	2106.77
936.751	2091.17
937.059	2084.17
937.367	2047.79
937.674	2067.45
937.982	2061.34
938.29	2038.97
938.597	2041.91
938.905	2011.85
939.213	2026.99
939.52	2049.14
939.827	2010.27
940.135	1978.18
940.442	1975.02
940.749	1988.8
941.056	1985.87
941.363	1973.44
941.67	1942.48
941.977	1915.36
942.284	1937.96
942.591	1890.05
942.898	1910.61
943.205	1916.26
943.511	1901.12
943.818	1915.59
944.125	1879.88
944.431	1872.2
944.738	1884.85
945.044	1851.86
945.35	1847.34
945.657	1836.94
945.963	1840.56
946.269	1849.37
946.575	1831.07
946.881	1830.39
947.187	1809.6
947.493	1789.49
947.799	1815.47
948.105	1807.11
948.41	1815.25
948.716	1783.39
949.022	1763.27
949.327	1782.48
949.633	1735.25
949.938	1747.23
950.244	1762.82
950.549	1754.46
950.854	1760.11
951.16	1758.08
951.465	1755.36
951.77	1714.69
952.075	1703.84
952.38	1697.96
952.685	1704.29
952.99	1688.25
953.294	1702.03
953.599	1709.49
953.904	1669.49
954.209	1685.31
954.513	1666.78
954.818	1657.51
955.122	1613.9
955.426	1629.27
955.731	1644.18
956.035	1637.63
956.339	1618.64
956.643	1626.78
956.948	1596.05
957.252	1605.54
957.556	1624.07
957.86	1645.76
958.163	1602.6
958.467	1587.46
958.771	1573.67
959.075	1569.15
959.378	1569.61
959.682	1588.81
959.985	1560.11
960.289	1551.75
960.592	1546.78
960.896	1518.53
961.199	1521.47
961.502	1542.26
961.805	1518.08
962.108	1503.62
962.411	1500.68
962.714	1484.41
963.017	1471.3
963.32	1515.6
963.623	1506.78
963.926	1500.45
964.228	1485.99
964.531	1461.13
964.833	1484.86
965.136	1477.86
965.438	1435.6
965.741	1445.77
966.043	1443.28
966.345	1444.19
966.648	1448.93
966.95	1422.94
967.252	1408.71
967.554	1409.16
967.856	1405.99
968.158	1415.03
968.46	1415.94
968.761	1421.13
969.063	1396.05
969.365	1402.6
969.666	1383.17
969.968	1369.84
970.269	1366.45
970.571	1396.73
970.872	1356.05
971.174	1358.09
971.475	1351.98
971.776	1364.41
972.077	1370.51
972.378	1365.54
972.679	1337.97
972.98	1327.35
973.281	1336.39
973.582	1339.1
973.883	1309.05
974.183	1271.76
974.484	1322.61
974.785	1284.87
975.085	1288.48
975.386	1280.57
975.686	1292.55
975.986	1284.19
976.287	1274.92
976.587	1291.65
976.887	1260.91
977.187	1280.8
977.487	1276.05
977.787	1247.13
978.087	1250.97
978.387	1221.37
978.687	1246.68
978.987	1224.3
979.286	1201.48
979.586	1218.65
979.885	1216.39
980.185	1238.54
980.484	1230.41
980.784	1221.59
981.083	1220.91
981.382	1227.24
981.682	1168.26
981.981	1198.99
982.28	1175.49
982.579	1168.03
982.878	1189.73
983.177	1190.41
983.475	1162.61
983.774	1171.42
984.073	1147.24
984.372	1149.96
984.67	1118.09
984.969	1122.16
985.267	1153.8
985.566	1129.84
985.864	1133.01
986.162	1127.13
986.461	1113.35
986.759	1109.05
987.057	1122.16
987.355	1110.63
987.653	1117.19
987.951	1102.73
988.249	1081.93
988.547	1121.03
988.844	1082.61
989.142	1088.49
989.44	1083.06
989.737	1061.6
990.035	1072.9
990.332	1053.69
990.63	1056.85
990.927	1064.76
991.224	1064.31
991.521	1074.03
991.819	1064.53
992.116	1036.29
992.413	1053.01
992.71	1066.12
993.006	1055.95
993.303	1010.98
993.6	1034.93
993.897	1031.77
994.193	1040.35
994.49	1016.4
994.787	1030.18
995.083	1013.46
995.379	1007.59
995.676	1004.42
995.972	1015.95
996.268	1004.42
996.565	1003.97
996.861	1002.84
997.157	1016.17
997.453	981.15
997.749	970.07
998.044	986.12
998.34	982.28
998.636	967.59
998.932	977.76
999.227	963.75
999.523	962.39
999.818	949.51
1000.114	945.89
1000.409	947.93
1000.704	957.64
1001	967.59
1001.295	939.79
1001.59	954.25
1001.885	939.34
1002.18	910.64
1002.475	915.84
1002.77	901.15
1003.065	919.23
1003.359	923.75
1003.654	908.83
1003.949	890.53
1004.243	887.82
1004.538	861.15
1004.832	898.21
1005.127	883.75
1005.421	872
1005.715	892.56
1006.009	891.88
1006.304	867.48
1006.598	865.22
1006.892	863.18
1007.186	860.47
1007.48	839.68
1007.773	840.59
1008.067	836.74
1008.361	834.48
1008.655	864.31
1008.948	862.28
1009.242	856.63
1009.535	843.3
1009.829	828.16
1010.122	825.67
1010.415	833.58
1010.708	820.02
1011.001	819.12
1011.295	788.61
1011.588	818.89
1011.881	805.33
1012.173	808.72
1012.466	803.98
1012.759	792.68
1013.052	814.6
1013.344	785.22
1013.637	787.93
1013.93	774.37
1014.222	773.24
1014.514	778.44
1014.807	773.47
1015.099	760.81
1015.391	765.33
1015.683	763.75
1015.976	764.43
1016.268	753.58
1016.56	744.09
1016.851	733.7
1017.143	774.15
1017.435	756.75
1017.727	726.46
1018.018	734.15
1018.31	733.7
1018.602	732.34
1018.893	739.8
1019.185	745.22
1019.476	709.97
1019.767	718.78
1020.058	714.71
1020.35	690.98
1020.641	717.88
1020.932	697.31
1021.223	704.54
1021.514	724.66
1021.804	705
1022.095	709.74
1022.386	689.63
1022.677	685.56
1022.967	641.49
1023.258	670.65
1023.548	683.98
1023.839	666.13
1024.129	675.17
1024.419	656.41
1024.709	666.58
1025	666.58
1025.29	651.89
1025.58	655.51
1025.87	652.34
1026.16	652.79
1026.449	663.19
1026.739	649.86
1027.029	633.13
1027.319	623.87
1027.608	635.84
1027.898	619.12
1028.187	623.64
1028.477	617.09
1028.766	631.55
1029.055	614.15
1029.344	611.44
1029.634	620.03
1029.923	599.01
1030.212	615.28
1030.501	606.92
1030.79	613.25
1031.078	614.6
1031.367	574.83
1031.656	608.27
1031.945	593.59
1032.233	589.07
1032.522	594.72
1032.81	588.39
1033.099	586.35
1033.387	572.34
1033.675	568.5
1033.963	581.61
1034.251	565.34
1034.54	537.99
1034.828	580.93
1035.116	581.83
1035.403	546.81
1035.691	561.95
1035.979	562.4
1036.267	560.14
1036.554	553.36
1036.842	561.27
1037.129	528.05
1037.417	536.64
1037.704	550.42
1037.992	545
1038.279	556.52
1038.566	537.09
1038.853	537.09
1039.14	537.09
