Data from black_metal_pc_casing_FLMS001491_00041.txt Node
Date: Wed Feb 08 14:32:45 GMT 2017
User: dcchb
Spectrometer: FLMS00149
Trigger mode: 0
Integration Time (sec): 2.000000E-2
Scans to average: 10
Electric dark correction enabled: true
Nonlinearity correction enabled: false
Boxcar width: 0
XAxis mode: Wavelengths
Number of Pixels in Spectrum: 2048
>>>>>Begin Spectral Data<<<<<
341.393	-21.09
341.776	-21.09
342.16	-21.09
342.543	-40.75
342.927	-45.49
343.31	-66.06
343.693	-72.61
344.077	-62.89
344.46	-61.99
344.843	-54.53
345.226	-65.38
345.61	-4.82
345.993	-22.89
346.376	-8.43
346.759	-4.59
347.142	19.36
347.525	39.02
347.908	61.17
348.291	85.12
348.674	126.71
349.057	92.81
349.44	129.64
349.823	127.38
350.206	166.03
350.588	169.64
350.971	192.24
351.354	211.68
351.737	228.17
352.119	238.34
352.502	251
352.884	247.61
353.267	276.98
353.65	262.3
354.032	282.18
354.414	297.32
354.797	306.81
355.179	290.32
355.562	297.55
355.944	310.43
356.326	312.01
356.709	302.52
357.091	341.62
357.473	342.07
357.855	322.86
358.238	327.83
358.62	328.96
359.002	339.13
359.384	338.68
359.766	322.18
360.148	324.21
360.53	325.8
360.912	312.69
361.294	328.06
361.676	318.79
362.057	322.18
362.439	338.23
362.821	317.21
363.203	314.72
363.584	310.88
363.966	334.61
364.348	322.18
364.729	308.17
365.111	317.66
365.493	308.62
365.874	324.67
366.256	317.66
366.637	307.04
367.019	287.83
367.4	312.24
367.781	303.65
368.163	309.07
368.544	319.92
368.925	302.07
369.306	292.8
369.688	309.3
370.069	312.01
370.45	317.21
370.831	303.88
371.212	291.67
371.593	311.56
371.974	287.15
372.355	314.72
372.736	305.23
373.117	299.58
373.498	331.9
373.879	322.63
374.26	317.44
374.641	307.27
375.021	322.41
375.402	306.14
375.783	311.79
376.163	327.83
376.544	304.1
376.925	320.37
377.305	284.44
377.686	332.58
378.066	323.76
378.447	310.88
378.827	314.95
379.208	311.79
379.588	328.96
379.968	327.83
380.349	320.37
380.729	314.95
381.109	322.18
381.489	319.24
381.87	338.45
382.25	325.57
382.63	321.05
383.01	344.1
383.39	332.35
383.77	334.38
384.15	329.41
384.53	338.45
384.91	333.71
385.29	346.59
385.67	330.77
386.049	338.45
386.429	315.63
386.809	356.76
387.189	352.01
387.568	346.81
387.948	342.07
388.328	368.51
388.707	337.55
389.087	370.54
389.466	362.18
389.846	354.5
390.225	324.44
390.605	350.88
390.984	357.89
391.363	359.47
391.743	343.42
392.122	343.65
392.501	349.98
392.881	373.93
393.26	354.04
393.639	360.6
394.018	369.19
394.397	358.56
394.776	367.15
395.155	373.03
395.534	363.76
395.913	368.28
396.292	352.69
396.671	396.53
397.05	391.11
397.429	385.46
397.808	389.98
398.186	375.74
398.565	383.2
398.944	378.22
399.323	376.64
399.701	408.28
400.08	382.52
400.458	399.69
400.837	404.89
401.215	390.65
401.594	414.38
401.972	378
402.351	404.21
402.729	395.4
403.107	409.18
403.486	418.22
403.864	395.17
404.242	388.85
404.62	421.16
404.999	452.57
405.377	426.81
405.755	416.87
406.133	410.54
406.511	436.53
406.889	439.69
407.267	434.27
407.645	413.03
408.023	423.2
408.401	432.23
408.779	450.99
409.156	435.4
409.534	441.5
409.912	432.69
410.29	454.83
410.667	460.93
411.045	444.21
411.422	440.14
411.8	455.51
412.178	467.94
412.555	482.18
412.933	477.88
413.31	458.22
413.687	497.09
414.065	491.44
414.442	469.52
414.819	481.95
415.197	492.35
415.574	507.26
415.951	489.86
416.328	510.42
416.705	502.29
417.082	507.03
417.46	520.14
417.837	502.29
418.214	522.63
418.591	498
418.967	500.26
419.344	524.44
419.721	525.34
420.098	517.43
420.475	519.01
420.852	532.8
421.228	536.19
421.605	550.65
421.982	529.63
422.358	562.63
422.735	523.76
423.111	543.87
423.488	529.63
423.864	528.96
424.241	554.27
424.617	570.31
424.994	553.59
425.37	560.37
425.746	554.27
426.123	567.6
426.499	584.09
426.875	569.86
427.251	596.75
427.627	596.52
428.003	602.63
428.379	569.86
428.756	607.82
429.132	594.49
429.507	606.69
429.883	642.62
430.259	623.64
430.635	626.58
431.011	627.48
431.387	616.18
431.763	648.5
432.138	631.55
432.514	644.88
432.89	637.2
433.265	677.65
433.641	652.34
434.016	658.22
434.392	666.58
434.767	686.69
435.143	687.59
435.518	670.42
435.894	673.58
436.269	688.5
436.644	694.37
437.02	715.39
437.395	717.65
437.77	735.96
438.145	725.79
438.52	737.76
438.895	735.28
439.271	735.05
439.646	741.38
440.021	747.25
440.395	776.86
440.77	764.88
441.145	766.01
441.52	766.01
441.895	751.32
442.27	756.75
442.645	780.7
443.019	795.84
443.394	781.38
443.769	792
444.143	806.69
444.518	825.67
444.892	790.87
445.267	788.84
445.641	768.5
446.016	794.03
446.39	806.69
446.764	814.15
447.139	809.17
447.513	822.28
447.887	824.31
448.262	822.73
448.636	823.64
449.01	836.07
449.384	842.62
449.758	852.79
450.132	827.93
450.506	841.72
450.88	875.61
451.254	878.78
451.628	881.04
452.002	875.84
452.376	906.12
452.75	916.52
453.123	924.42
453.497	920.36
453.871	925.33
454.244	941.83
454.618	945.67
454.992	940.92
455.365	950.19
455.739	991.32
456.112	974.14
456.486	977.53
456.859	999.68
457.232	1020.47
457.606	1006.91
457.979	994.03
458.352	1003.74
458.725	1011.88
459.099	1024.76
459.472	1068.6
459.845	1065.66
460.218	1078.09
460.591	1083.52
460.964	1077.19
461.337	1103.86
461.71	1117.87
462.083	1127.36
462.456	1086.68
462.829	1146.57
463.201	1157.64
463.574	1136.85
463.947	1170.97
464.32	1223.63
464.692	1199.22
465.065	1177.53
465.438	1221.37
465.81	1207.58
466.183	1231.76
466.555	1289.39
466.928	1281.7
467.3	1254.13
467.672	1289.16
468.045	1317.41
468.417	1298.88
468.789	1336.84
469.161	1340.69
469.534	1349.95
469.906	1390.63
470.278	1381.59
470.65	1396.05
471.022	1411.64
471.394	1450.29
471.766	1452.09
472.138	1432.21
472.51	1462.49
472.882	1502.26
473.253	1543.17
473.625	1528.02
473.997	1587.01
474.369	1565.99
474.74	1604.63
475.112	1627.46
475.484	1618.64
475.855	1676.5
476.227	1657.74
476.598	1734.57
476.97	1757.85
477.341	1756.04
477.713	1760.34
478.084	1780.67
478.455	1814.34
478.827	1816.38
479.198	1876.26
479.569	1895.92
479.94	1938.41
480.311	1939.09
480.682	1975.47
481.053	2013.89
481.424	2046.66
481.795	2062.25
482.166	2111.29
482.537	2113.09
482.908	2160.1
483.279	2155.58
483.65	2210.27
484.021	2221.34
484.391	2268.34
484.762	2249.59
485.133	2292.3
485.503	2314.67
485.874	2346.08
486.244	2407.78
486.615	2465.4
486.985	2476.7
487.356	2503.59
487.726	2494.55
488.097	2542.69
488.467	2605.51
488.837	2626.75
489.207	2658.84
489.578	2688.67
489.948	2684.15
490.318	2697.03
490.688	2765.05
491.058	2794.21
491.428	2784.94
491.798	2855
492.168	2856.13
492.538	2907.2
492.908	2902.45
493.278	2972.05
493.648	2973.18
494.017	2994.88
494.387	3053.18
494.757	3063.58
495.126	3078.72
495.496	3133.86
495.866	3185.16
496.235	3169.11
496.605	3182.9
496.974	3197.81
497.344	3259.5
497.713	3237.36
498.082	3292.95
498.452	3336.11
498.821	3311.03
499.19	3319.39
499.559	3361.87
499.928	3388.77
500.298	3413.17
500.667	3424.25
501.036	3417.24
501.405	3468.09
501.774	3477.8
502.143	3489.78
502.512	3520.97
502.88	3574.07
503.249	3618.14
503.618	3582.43
503.987	3592.6
504.356	3626.95
504.724	3621.76
505.093	3714.18
505.462	3701.53
505.83	3696.33
506.199	3735.2
506.567	3779.49
506.936	3762.99
507.304	3826.5
507.672	3841.18
508.041	3835.76
508.409	3887.96
508.777	3897.68
509.145	3956.89
509.514	3932.71
509.882	3967.51
510.25	3984.68
510.618	3976.32
510.986	4020.61
511.354	4049.99
511.722	4101.06
512.09	4134.51
512.458	4106.71
512.826	4167.96
513.193	4227.61
513.561	4210.44
513.929	4251.57
514.297	4305.13
514.664	4336.76
515.032	4299.7
515.4	4368.63
515.767	4418.57
516.135	4455.86
516.502	4388.51
516.869	4451.34
517.237	4518.23
517.604	4450.89
517.972	4610.66
518.339	4601.16
518.706	4625.12
519.073	4568.17
519.44	4656.3
519.808	4708.96
520.175	4727.04
520.542	4729.07
520.909	4782.18
521.276	4818.79
521.643	4872.8
522.009	4893.81
522.376	4874.15
522.743	4932.91
523.11	4966.35
523.477	5007.03
523.843	5025.79
524.21	5095.61
524.577	5091.32
524.943	5179.68
525.31	5140.13
525.676	5254.48
526.043	5284.08
526.409	5290.86
526.776	5353.23
527.142	5379.22
527.508	5376.06
527.874	5417.87
528.241	5500.12
528.607	5536.96
528.973	5552.78
529.339	5558.2
529.705	5597.52
530.071	5627.35
530.437	5707.58
530.803	5681.14
531.169	5756.39
531.535	5754.81
531.901	5709.84
532.267	5826.22
532.632	5811.53
532.998	5863.5
533.364	5903.28
533.73	5874.13
534.095	5952.32
534.461	5957.96
534.826	5979.66
535.192	6001.35
535.557	6063.72
535.923	6093.78
536.288	6030.73
536.653	6056.72
537.019	6096.27
537.384	6164.51
537.749	6205.42
538.114	6120.9
538.479	6210.16
538.845	6199.09
539.21	6223.27
539.575	6272.53
539.94	6240.44
540.305	6294.68
540.67	6318.18
541.034	6328.35
541.399	6388.24
541.764	6396.37
542.129	6400.89
542.494	6388.01
542.858	6450.61
543.223	6496.71
543.587	6460.78
543.952	6556.37
544.316	6491.51
544.681	6564.5
545.045	6578.97
545.41	6657.38
545.774	6574.22
546.138	6614.22
546.503	6667.78
546.867	6703.93
547.231	6686.08
547.595	6788
547.959	6743.93
548.324	6796.59
548.688	6788.9
549.052	6828.9
549.416	6812.86
549.779	6823.7
550.143	6879.07
550.507	6898.96
550.871	6912.74
551.235	6958.84
551.599	7034.32
551.962	7008.11
552.326	7053.98
552.689	7037.26
553.053	7062.34
553.417	7111.15
553.78	7129.91
554.143	7169.91
554.507	7163.13
554.87	7180.76
555.234	7232.73
555.597	7251.26
555.96	7251.94
556.323	7331.49
556.686	7314.54
557.05	7377.81
557.413	7395.44
557.776	7390.02
558.139	7460.07
558.502	7482.9
558.865	7518.83
559.228	7519.05
559.59	7589.56
559.953	7549.11
560.316	7694.87
560.679	7673.17
561.041	7789.1
561.404	7747.75
561.767	7871.36
562.129	7820.29
562.492	7899.83
562.854	7847.18
563.217	7878.59
563.579	7929.21
563.941	7952.49
564.304	7977.35
564.666	8024.13
565.028	8098.47
565.39	8125.14
565.753	8124.46
566.115	8158.81
566.477	8246.27
566.839	8176.44
567.201	8247.62
567.563	8300.73
567.925	8276.77
568.287	8337.34
568.648	8371.69
569.01	8380.73
569.372	8418.69
569.734	8437.45
570.095	8444.45
570.457	8563.55
570.819	8554.96
571.18	8501.4
571.542	8582.75
571.903	8602.19
572.265	8599.25
572.626	8674.05
572.987	8698.01
573.349	8718.8
573.71	8767.16
574.071	8752.02
574.432	8750.89
574.794	8873.37
575.155	8861.84
575.516	8840.15
575.877	8890.09
576.238	8827.04
576.599	8872.01
576.96	8872.92
577.32	8970.09
577.681	8954.5
578.042	8970.09
578.403	8986.59
578.763	9012.12
579.124	8985.46
579.485	9002.4
579.845	9095.06
580.206	9052.57
580.566	9056.87
580.927	9029.75
581.287	9069.3
581.648	9043.31
582.008	9067.94
582.368	9102.51
582.728	9133.25
583.089	9121.95
583.449	9106.81
583.809	9177.09
584.169	9106.58
584.529	9115.85
584.889	9168.05
585.249	9092.8
585.609	9047.15
585.969	9173.02
586.329	9149.75
586.688	9138.45
587.048	9090.31
587.408	9148.16
587.768	9182.29
588.127	9137.54
588.487	9109.52
588.846	9191.78
589.206	9191.1
589.565	9188.39
589.925	9161.5
590.284	9166.47
590.643	9116.07
591.003	9215.73
591.362	9188.61
591.721	9181.16
592.08	9182.96
592.44	9164.43
592.799	9203.3
593.158	9189.97
593.517	9275.17
593.876	9237.65
594.235	9224.55
594.593	9253.92
594.952	9193.81
595.311	9165.11
595.67	9274.26
596.029	9261.83
596.387	9251.44
596.746	9337.54
597.104	9287.59
597.463	9297.54
597.822	9245.34
598.18	9295.28
598.538	9246.69
598.897	9281.49
599.255	9271.55
599.613	9323.98
599.972	9307.48
600.33	9401.04
600.688	9340.25
601.046	9307.48
601.404	9319.01
601.762	9312.23
602.12	9375.73
602.478	9441.94
602.836	9314.03
603.194	9374.37
603.552	9408.95
603.91	9361.27
604.268	9366.46
604.625	9367.82
604.983	9387.71
605.341	9352
605.698	9403.07
606.056	9425.67
606.413	9477.87
606.771	9473.58
607.128	9420.02
607.485	9406.69
607.843	9398.33
608.2	9509.51
608.557	9550.86
608.914	9493.47
609.272	9550.19
609.629	9670.64
609.986	9608.72
610.343	9571.66
610.7	9630.41
611.057	9566.68
611.414	9595.16
611.771	9576.85
612.127	9627.02
612.484	9634.03
612.841	9655.95
613.198	9659.79
613.554	9681.03
613.911	9699.11
614.267	9731.88
614.624	9647.13
614.98	9697.53
615.337	9755.38
615.693	9771.65
616.05	9746.57
616.406	9756.96
616.762	9714.25
617.118	9724.42
617.475	9710.41
617.831	9775.94
618.187	9728.26
618.543	9810.29
618.899	9841.03
619.255	9806.68
619.611	9742.72
619.967	9870.18
620.323	9864.53
620.678	9771.88
621.034	9790.63
621.39	9779.56
621.746	9842.16
622.101	9888.26
622.457	9884.87
622.812	9861.14
623.168	9836.51
623.523	9829.05
623.879	9881.93
624.234	9784.76
624.589	9822.04
624.945	9815.26
625.3	9858.2
625.655	9797.86
626.01	9881.03
626.365	9842.38
626.72	9856.39
627.075	9845.77
627.43	9859.33
627.785	9827.69
628.14	9851.42
628.495	9818.2
628.85	9722.16
629.205	9768.71
629.559	9807.36
629.914	9759.67
630.269	9771.88
630.623	9748.37
630.978	9746.34
631.332	9847.13
631.687	9817.52
632.041	9737.3
632.396	9768.49
632.75	9749.96
633.104	9738.2
633.459	9663.63
633.813	9707.92
634.167	9634.03
634.521	9679.45
634.875	9623.18
635.229	9622.5
635.583	9634.7
635.937	9613.01
636.291	9597.87
636.645	9601.26
636.999	9576.63
637.352	9628.6
637.706	9566.23
638.06	9602.84
638.413	9552.45
638.767	9531.2
639.121	9628.83
639.474	9486.23
639.828	9541.37
640.181	9518.78
640.534	9521.26
640.888	9508.83
641.241	9480.81
641.594	9428.83
641.947	9486.46
642.301	9495.27
642.654	9412.34
643.007	9467.48
643.36	9476.29
643.713	9436.29
644.066	9502.73
644.419	9368.27
644.771	9344.09
645.124	9269.74
645.477	9255.05
645.83	9133.25
646.182	9146.13
646.535	9108.62
646.888	9065.68
647.24	9042.18
647.593	9149.75
647.945	9020.94
648.298	9015.51
648.65	9044.66
649.002	9023.87
649.355	9013.25
649.707	8962.63
650.059	9041.5
650.411	9170.99
650.763	9134.6
651.115	9306.8
651.467	9316.29
651.819	9202.4
652.171	9196.52
652.523	9166.69
652.875	9152.46
653.227	9157.88
653.578	9141.16
653.93	9194.49
654.282	9085.34
654.633	9095.96
654.985	9162.17
655.337	9135.06
655.688	9095.74
656.039	9123.31
656.391	9090.54
656.742	9119.46
657.094	9080.37
657.445	9044.44
657.796	9074.04
658.147	9061.84
658.498	9034.04
658.849	9055.06
659.2	9036.3
659.551	9040.6
659.902	9056.87
660.253	9097.09
660.604	9082.85
660.955	8998.79
661.306	9038.56
661.656	9011.67
662.007	8970.31
662.358	8974.61
662.708	9017.32
663.059	9019.35
663.409	8901.62
663.76	9042.86
664.11	9047.15
664.461	8995.17
664.811	9015.74
665.161	8947.49
665.511	8897.1
665.862	8977.32
666.212	9045.57
666.562	9033.82
666.912	8973.03
667.262	8971.22
667.612	8954.27
667.962	9001.05
668.312	8920.6
668.662	8961.73
669.011	8968.06
669.361	8914.72
669.711	8942.07
670.06	8910.2
670.41	8863.65
670.76	8900.26
671.109	8929.19
671.459	8905.68
671.808	8860.94
672.157	8894.61
672.507	8840.83
672.856	8853.71
673.205	8840.83
673.554	8803.31
673.904	8852.13
674.253	8840.15
674.602	8857.78
674.951	8690.1
675.3	8697.55
675.649	8819.13
675.998	8822.3
676.346	8795.86
676.695	8913.59
677.044	8773.03
677.393	8752.02
677.741	8761.73
678.09	8715.18
678.438	8766.03
678.787	8794.27
679.135	8769.42
679.484	8715.18
679.832	8757.89
680.181	8695.97
680.529	8712.47
680.877	8717.44
681.225	8706.14
681.573	8707.72
681.922	8656.65
682.27	8599.25
682.618	8592.47
682.966	8640.83
683.314	8597.44
683.661	8621.4
684.009	8569.42
684.357	8528.52
684.705	8585.01
685.053	8520.84
685.4	8490.55
685.748	8481.06
686.095	8425.02
686.443	8405.58
686.79	8407.84
687.138	8403.55
687.485	8446.03
687.832	8431.12
688.18	8381.18
688.527	8324.46
688.874	8346.6
689.221	8281.97
689.568	8253.05
689.915	8262.09
690.262	8217.57
690.609	8258.7
690.956	8234.74
691.303	8218.47
691.65	8177.79
691.997	8201.07
692.344	8156.78
692.69	8060.06
693.037	8159.71
693.383	8121.3
693.73	8090.11
694.077	8077.01
694.423	8026.84
694.769	8035.65
695.116	8027.06
695.462	8025.26
695.808	7985.48
696.155	7977.12
696.501	7970.34
696.847	7947.97
697.193	7890.8
697.539	7931.47
697.885	7801.08
698.231	7729.67
698.577	7813.28
698.923	7829.78
699.269	7755.21
699.614	7699.84
699.96	7689.9
700.306	7728.31
700.651	7691.25
700.997	7632.95
701.342	7627.98
701.688	7634.98
702.033	7597.47
702.379	7635.21
702.724	7599.96
703.069	7600.86
703.415	7503.46
703.76	7519.05
704.105	7534.42
704.45	7502.11
704.795	7451.03
705.14	7465.5
705.485	7410.81
705.83	7397.93
706.175	7334.65
706.52	7373.52
706.865	7336.46
707.209	7277.93
707.554	7245.16
707.899	7287.2
708.243	7275.22
708.588	7294.65
708.932	7227.76
709.277	7225.28
709.621	7232.06
709.966	7240.87
710.31	7209.91
710.654	7172.4
710.998	7156.58
711.342	7140.53
711.687	7182.11
712.031	7083.13
712.375	7045.85
712.719	7073.42
713.063	7107.09
713.407	7132.17
713.75	7112.28
714.094	7072.96
714.438	7037.48
714.782	6971.72
715.125	7056.92
715.469	7009.91
715.812	7061.44
716.156	6977.6
716.499	6989.35
716.843	6969.92
717.186	6865.51
717.53	6961.55
717.873	6924.49
718.216	6924.95
718.559	6953.19
718.902	6833.87
719.246	6822.12
719.589	6790.03
719.932	6809.47
720.275	6827.55
720.617	6835.46
720.96	6806.98
721.303	6792.07
721.646	6800.43
721.989	6810.37
722.331	6764.5
722.674	6783.25
723.016	6741
723.359	6755.68
723.701	6738.96
724.044	6677.04
724.386	6626.42
724.729	6705.74
725.071	6665.29
725.413	6638.17
725.755	6674.33
726.097	6632.75
726.439	6595.24
726.782	6543.71
727.124	6623.94
727.465	6577.84
727.807	6600.89
728.149	6505.75
728.491	6532.41
728.833	6514.79
729.175	6516.59
729.516	6521.11
729.858	6528.12
730.199	6513.66
730.541	6479.53
730.882	6520.66
731.224	6519.98
731.565	6460.1
731.906	6464.84
732.248	6477.73
732.589	6454.45
732.93	6365.86
733.271	6448.35
733.612	6431.85
733.953	6425.07
734.294	6352.3
734.635	6357.05
734.976	6374.68
735.317	6354.34
735.658	6326.32
735.999	6348.01
736.339	6313.66
736.68	6404.73
737.021	6357.28
737.361	6312.76
737.702	6315.02
738.042	6323.83
738.383	6269.82
738.723	6294.45
739.063	6305.3
739.404	6291.97
739.744	6282.48
740.084	6235.92
740.424	6265.53
740.764	6208.58
741.104	6272.76
741.444	6169.71
741.784	6164.06
742.124	6187.11
742.464	6182.59
742.804	6208.81
743.143	6164.29
743.483	6159.77
743.823	6168.81
744.162	6150.05
744.502	6154.12
744.841	6096.49
745.181	6127.9
745.52	6077.51
745.86	6103.27
746.199	6072.76
746.538	6105.98
746.877	6111.41
747.216	6137.85
747.556	6079.09
747.895	6093.55
748.234	6097.62
748.573	6010.39
748.911	5999.77
749.25	6028.02
749.589	5983.27
749.928	6006.33
750.267	5958.19
750.605	5981.02
750.944	5941.24
751.283	5970.62
751.621	5925.88
751.96	5912.77
752.298	5913.45
752.636	5850.17
752.975	5874.8
753.313	5842.94
753.651	5880
753.989	5800
754.327	5814.47
754.666	5779.66
755.004	5868.93
755.342	5820.12
755.679	5773.34
756.017	5759.78
756.355	5722.49
756.693	5689.72
757.031	5704.19
757.368	5727.46
757.706	5722.04
758.044	5693.79
758.381	5711.87
758.719	5641.59
759.056	5687.46
759.394	5590.29
759.731	5597.75
760.068	5608.6
760.405	5570.4
760.743	5537.86
761.08	5574.47
761.417	5512.78
761.754	5568.6
762.091	5516.17
762.428	5483.85
762.765	5471.65
763.102	5472.33
763.438	5460.8
763.775	5437.53
764.112	5438.88
764.449	5421.71
764.785	5420.35
765.122	5393.01
765.458	5367.02
765.795	5376.29
766.131	5338.55
766.467	5317.3
766.804	5330.41
767.14	5304.65
767.476	5214.03
767.812	5233.24
768.148	5280.92
768.485	5237.53
768.821	5260.58
769.157	5219.68
769.492	5228.27
769.828	5178.1
770.164	5201.37
770.5	5137.87
770.836	5134.71
771.171	5082.96
771.507	5078.67
771.842	5013.81
772.178	5037.99
772.513	5062.62
772.849	5000.93
773.184	4991.66
773.519	5026.01
773.855	4937.2
774.19	4941.95
774.525	4923.64
774.86	4905.79
775.195	4906.02
775.53	4901.27
775.865	4876.64
776.2	4861.95
776.535	4837.09
776.87	4863.3
777.205	4815.85
777.539	4813.59
777.874	4758.67
778.209	4786.24
778.543	4720.26
778.878	4732.46
779.212	4683.87
779.547	4668.06
779.881	4724.55
780.215	4646.81
780.55	4670.32
780.884	4623.54
781.218	4614.95
781.552	4621.28
781.886	4616.53
782.22	4569.98
782.554	4546.93
782.888	4532.92
783.222	4574.5
783.556	4509.87
783.889	4493.37
784.223	4458.34
784.557	4439.59
784.89	4439.59
785.224	4442.52
785.557	4410.43
785.891	4386.03
786.224	4341.96
786.558	4390.55
786.891	4360.72
787.224	4325.47
787.557	4331.11
787.891	4334.73
788.224	4301.96
788.557	4251.79
788.89	4284.79
789.223	4288.86
789.556	4296.99
789.888	4255.41
790.221	4212.25
790.554	4162.98
790.887	4202.76
791.219	4176.77
791.552	4120.95
791.884	4095.41
792.217	4176.09
792.549	4106.49
792.882	4100.84
793.214	4101.29
793.546	4114.4
793.879	4072.14
794.211	4068.07
794.543	4072.36
794.875	4028.07
795.207	4036.21
795.539	4002.08
795.871	4020.39
796.203	3992.82
796.535	3970.45
796.867	3930.22
797.198	3981.75
797.53	3986.04
797.862	3919.15
798.193	3933.16
798.525	3900.17
798.856	3921.63
799.188	3904.69
799.519	3866.72
799.85	3858.81
800.182	3823.56
800.513	3844.57
800.844	3813.39
801.175	3839.15
801.506	3807.06
801.837	3772.94
802.168	3804.35
802.499	3762.32
802.83	3707.63
803.161	3743.11
803.491	3772.49
803.822	3789.21
804.153	3696.78
804.483	3707.18
804.814	3675.99
805.145	3699.04
805.475	3692.71
805.805	3644.13
806.136	3675.99
806.466	3674.41
806.796	3685.26
807.126	3598.03
807.457	3596.9
807.787	3620.17
808.117	3642.55
808.447	3636.22
808.777	3624.69
809.107	3578.82
809.436	3598.03
809.766	3589.89
810.096	3577.91
810.426	3579.72
810.755	3561.64
811.085	3534.07
811.414	3552.6
811.744	3520.06
812.073	3510.57
812.403	3523.45
812.732	3490.91
813.061	3479.84
813.39	3471.02
813.719	3497.46
814.049	3517.58
814.378	3448.2
814.707	3443.23
815.036	3426.28
815.365	3450.01
815.693	3438.94
816.022	3436.22
816.351	3411.82
816.68	3412.95
817.008	3414.98
817.337	3371.59
817.665	3341.99
817.994	3383.12
818.322	3351.25
818.651	3359.39
818.979	3321.88
819.307	3357.13
819.636	3332.5
819.964	3316.23
820.292	3330.46
820.62	3322.33
820.948	3278.71
821.276	3347.86
821.604	3342.44
821.932	3303.35
822.259	3305.15
822.587	3297.47
822.915	3331.14
823.243	3292.05
823.57	3294.53
823.898	3316.68
824.225	3311.48
824.553	3293.85
824.88	3282.55
825.207	3306.28
825.535	3308.32
825.862	3299.05
826.189	3315.32
826.516	3346.73
826.843	3312.61
827.17	3293.18
827.497	3327.75
827.824	3299.5
828.151	3323.23
828.478	3277.36
828.805	3336.11
829.131	3286.85
829.458	3294.98
829.785	3251.14
830.111	3262.44
830.438	3297.47
830.764	3276
831.09	3272.61
831.417	3269
831.743	3269.22
832.069	3238.04
832.395	3268.32
832.722	3300.18
833.048	3229
833.374	3287.98
833.7	3285.27
834.026	3234.65
834.351	3250.92
834.677	3243.69
835.003	3257.7
835.329	3257.47
835.654	3228.09
835.98	3259.5
836.306	3261.99
836.631	3254.08
836.956	3238.26
837.282	3228.32
837.607	3228.55
837.932	3226.06
838.258	3194.2
838.583	3204.36
838.908	3200.75
839.233	3189.68
839.558	3173.86
839.883	3154.42
840.208	3194.42
840.533	3150.81
840.858	3219.73
841.182	3170.24
841.507	3146.06
841.832	3180.86
842.156	3160.98
842.481	3148.55
842.805	3144.48
843.13	3137.02
843.454	3138.83
843.778	3122.79
844.103	3110.81
844.427	3113.29
844.751	3099.73
845.075	3083.24
845.399	3065.39
845.723	3070.36
846.047	3042.11
846.371	3024.48
846.695	3036.01
847.019	3047.31
847.343	3036.01
847.666	2995.56
847.99	3017.03
848.313	3007.99
848.637	2981.77
848.96	2985.61
849.284	3009.79
849.607	2927.99
849.931	2938.38
850.254	2934.09
850.577	2915.33
850.9	2906.07
851.223	2893.86
851.546	2840.31
851.869	2873.98
852.192	2866.29
852.515	2855.45
852.838	2832.4
853.161	2819.74
853.483	2836.24
853.806	2819.29
854.129	2800.08
854.451	2840.31
854.774	2819.97
855.096	2782.68
855.419	2791.72
855.741	2797.82
856.063	2789.23
856.385	2776.35
856.708	2749.24
857.03	2719.63
857.352	2741.78
857.674	2713.53
857.996	2714.66
858.318	2691.84
858.64	2745.62
858.961	2672.4
859.283	2701.78
859.605	2690.25
859.926	2690.93
860.248	2709.01
860.57	2639.18
860.891	2669.24
861.212	2670.37
861.534	2631.27
861.855	2655.9
862.176	2643.25
862.498	2639.63
862.819	2644.83
863.14	2685.28
863.461	2610.03
863.782	2598.96
864.103	2657.94
864.424	2610.71
864.745	2600.99
865.065	2616.36
865.386	2618.39
865.707	2583.36
866.027	2599.41
866.348	2600.99
866.668	2594.89
866.989	2534.1
867.309	2569.81
867.63	2529.13
867.95	2548.56
868.27	2560.54
868.59	2561.9
868.91	2542.01
869.23	2548.11
869.55	2546.98
869.87	2528.9
870.19	2530.03
870.51	2548.79
870.83	2570.48
871.15	2528
871.469	2488.23
871.789	2491.84
872.109	2519.64
872.428	2494.78
872.748	2502.91
873.067	2524.83
873.386	2556.92
873.706	2514.44
874.025	2480.99
874.344	2474.44
874.663	2468.79
874.982	2498.85
875.301	2474.21
875.62	2493.65
875.939	2459.3
876.258	2432.63
876.577	2455.91
876.896	2464.95
877.214	2481.22
877.533	2472.63
877.852	2438.74
878.17	2461.11
878.489	2488
878.807	2458.17
879.125	2465.63
879.444	2476.02
879.762	2446.19
880.08	2445.29
880.398	2467.89
880.716	2446.19
881.034	2428.34
881.352	2441.67
881.67	2405.29
881.988	2424.5
882.306	2441.67
882.624	2409.36
882.941	2408.23
883.259	2402.58
883.577	2386.53
883.894	2419.98
884.212	2377.95
884.529	2359.19
884.846	2368.68
885.164	2355.35
885.481	2363.71
885.798	2358.74
886.115	2356.03
886.432	2360.77
886.75	2343.14
887.067	2337.5
887.383	2321.68
887.7	2296.82
888.017	2316.03
888.334	2302.24
888.651	2299.76
888.967	2307.89
889.284	2314.9
889.6	2306.76
889.917	2285.07
890.233	2268.12
890.55	2270.83
890.866	2298.63
891.182	2290.72
891.498	2259.08
891.815	2279.42
892.131	2245.29
892.447	2242.58
892.763	2232.19
893.079	2205.3
893.395	2223.37
893.71	2234.22
894.026	2219.53
894.342	2252.75
894.657	2183.6
894.973	2220.21
895.289	2177.95
895.604	2194
895.92	2197.84
896.235	2186.54
896.55	2208.46
896.865	2157.84
897.181	2151.06
897.496	2193.09
897.811	2137.73
898.126	2124.62
898.441	2125.52
898.756	2135.24
899.071	2128.01
899.386	2110.83
899.7	2095.92
900.015	2104.05
900.33	2091.85
900.644	2100.89
900.959	2084.17
901.273	2109.25
901.588	2077.16
901.902	2054.34
902.216	2062.02
902.531	2037.84
902.845	2049.82
903.159	2008.92
903.473	2022.93
903.787	2021.8
904.101	2010.95
904.415	1989.93
904.729	2027.22
905.042	2019.54
905.356	2017.73
905.67	1992.42
905.984	1996.04
906.297	1990.16
906.611	1979.54
906.924	1966.43
907.237	1922.59
907.551	1944.29
907.864	1927.56
908.177	1935.47
908.491	1939.54
908.804	1932.99
909.117	1938.64
909.43	1903.16
909.743	1922.14
910.056	1888.02
910.368	1909.03
910.681	1930.73
910.994	1864.97
911.307	1901.35
911.619	1856.15
911.932	1873.78
912.244	1847.79
912.557	1848.47
912.869	1842.14
913.181	1802.37
913.494	1851.41
913.806	1826.55
914.118	1827
914.43	1808.24
914.742	1842.59
915.054	1825.64
915.366	1822.03
915.678	1784.29
915.99	1763.5
916.302	1778.19
916.613	1743.61
916.925	1764.85
917.236	1770.73
917.548	1757.17
917.859	1756.72
918.171	1767.57
918.482	1755.82
918.794	1728.92
919.105	1737.06
919.416	1707
919.727	1705.2
920.038	1751.07
920.349	1690.05
920.66	1710.84
920.971	1673.78
921.282	1712.2
921.593	1667.46
921.903	1641.47
922.214	1641.69
922.525	1678.53
922.835	1661.13
923.146	1633.78
923.456	1636.04
923.767	1681.24
924.077	1643.5
924.387	1637.4
924.697	1641.47
925.008	1625.65
925.318	1631.98
925.628	1618.19
925.938	1599.66
926.248	1607.12
926.558	1611.41
926.867	1609.83
927.177	1576.16
927.487	1579.32
927.796	1557.4
928.106	1562.83
928.416	1569.15
928.725	1535.48
929.034	1540.23
929.344	1518.31
929.653	1519.66
929.962	1526.89
930.271	1524.41
930.581	1531.87
930.89	1544.52
931.199	1531.64
931.508	1495.94
931.817	1500.68
932.125	1506.78
932.434	1518.31
932.743	1468.59
933.051	1476.95
933.36	1489.16
933.669	1470.4
933.977	1474.01
934.286	1457.97
934.594	1458.42
934.902	1439.67
935.21	1447.35
935.519	1455.94
935.827	1430.85
936.135	1407.12
936.443	1432.21
936.751	1403.51
937.059	1421.13
937.367	1411.87
937.674	1423.17
937.982	1438.54
938.29	1405.77
938.597	1384.3
938.905	1383.85
939.213	1407.58
939.52	1372.1
939.827	1358.54
940.135	1369.61
940.442	1357.18
940.749	1345.66
941.056	1379.78
941.363	1347.92
941.67	1322.83
941.977	1356.05
942.284	1325.32
942.591	1335.26
942.898	1336.39
943.205	1324.87
943.511	1314.02
943.818	1321.48
944.125	1307.47
944.431	1318.99
944.738	1297.75
945.044	1300.01
945.35	1314.7
945.657	1263.17
945.963	1309.73
946.269	1275.38
946.575	1289.39
946.881	1265.88
947.187	1272.21
947.493	1263.4
947.799	1278.77
948.105	1258.43
948.41	1247.13
948.716	1242.61
949.022	1229.28
949.327	1201.48
949.633	1235.38
949.938	1207.58
950.244	1221.59
950.549	1207.13
950.854	1215.94
951.16	1176.85
951.465	1171.65
951.77	1201.48
952.075	1179.79
952.38	1220.91
952.685	1218.65
952.99	1199.45
953.294	1189.05
953.599	1189.95
953.904	1174.14
954.209	1182.5
954.513	1179.79
954.818	1160.8
955.122	1147.92
955.426	1147.02
955.731	1146.34
956.035	1159.22
956.339	1144.76
956.643	1161.03
956.948	1141.37
957.252	1137.3
957.556	1131.88
957.86	1100.47
958.163	1116.96
958.467	1117.64
958.771	1140.01
959.075	1100.01
959.378	1107.7
959.682	1123.74
959.985	1113.8
960.289	1093.91
960.592	1074.25
960.896	1072.67
961.199	1071.77
961.502	1105.21
961.805	1091.2
962.108	1049.17
962.411	1046.68
962.714	1052.11
963.017	1067.47
963.32	1077.19
963.623	1056.85
963.926	1086.68
964.228	1082.61
964.531	1054.14
964.833	1048.49
965.136	1054.14
965.438	1041.03
965.741	1033.8
966.043	1053.46
966.345	1014.14
966.648	1005.78
966.95	1037.42
967.252	1022.5
967.554	1029.05
967.856	1029.05
968.158	1009.85
968.46	1010.98
968.761	1023.63
969.063	1012.56
969.365	970.98
969.666	1002.16
969.968	978.21
970.269	1006.68
970.571	984.54
970.872	959.9
971.174	957.19
971.475	959.23
971.776	975.72
972.077	964.42
972.378	983.18
972.679	949.28
972.98	958.32
973.281	977.98
973.582	966.91
973.883	969.62
974.183	948.83
974.484	942.5
974.785	955.38
975.085	925.55
975.386	953.12
975.686	927.81
975.986	942.5
976.287	938.44
976.587	939.11
976.887	896.18
977.187	913.8
977.487	919
977.787	905.44
978.087	906.57
978.387	915.16
978.687	909.74
978.987	903.86
979.286	896.4
979.586	919.45
979.885	902.28
980.185	886.23
980.484	882.17
980.784	866.57
981.083	897.98
981.382	863.41
981.682	886.46
981.981	861.6
982.28	871.77
982.579	867.93
982.878	884.65
983.177	848.27
983.475	877.87
983.774	856.63
984.073	852.56
984.372	863.41
984.67	850.53
984.969	863.41
985.267	858.89
985.566	868.61
985.864	834.94
986.162	829.51
986.461	862.96
986.759	848.49
987.057	845.33
987.355	843.75
987.653	809.4
987.951	813.24
988.249	821.15
988.547	828.16
988.844	840.81
989.142	794.03
989.44	826.57
989.737	816.63
990.035	817.99
990.332	806.24
990.63	803.75
990.927	788.16
991.224	785.67
991.521	786.35
991.819	803.52
992.116	784.99
992.413	784.54
992.71	786.35
993.006	797.87
993.303	771.43
993.6	785.45
993.897	797.42
994.193	779.8
994.49	779.12
994.787	776.41
995.083	757.2
995.379	743.86
995.676	754.71
995.972	764.43
996.268	762.62
996.565	732.11
996.861	747.48
997.157	750.42
997.453	755.62
997.749	742.28
998.044	755.84
998.34	755.62
998.636	750.87
998.932	749.74
999.227	742.06
999.523	727.82
999.818	761.94
1000.114	716.75
1000.409	717.65
1000.704	698.89
1001	713.13
1001.295	716.97
1001.59	718.55
1001.885	711.78
1002.18	705
1002.475	736.63
1002.77	709.29
1003.065	671.55
1003.359	702.96
1003.654	722.17
1003.949	715.39
1004.243	696.63
1004.538	686.01
1004.832	685.56
1005.127	711.78
1005.421	684.88
1005.715	678.78
1006.009	679.23
1006.304	657.54
1006.598	673.36
1006.892	661.83
1007.186	678.1
1007.48	669.74
1007.773	659.12
1008.067	674.94
1008.361	640.82
1008.655	661.38
1008.948	651.21
1009.242	671.78
1009.535	657.99
1009.829	650.53
1010.122	632
1010.415	639.46
1010.708	641.27
1011.001	648.05
1011.295	629.97
1011.588	633.81
1011.881	607.6
1012.173	609.63
1012.466	625.9
1012.759	629.74
1013.052	612.34
1013.344	624.32
1013.637	618.9
1013.93	608.73
1014.222	635.84
1014.514	619.57
1014.807	607.82
1015.099	616.86
1015.391	615.73
1015.683	608.95
1015.976	596.3
1016.268	578.22
1016.56	585.22
1016.851	592.46
1017.143	605.79
1017.435	593.13
1017.727	587.94
1018.018	589.97
1018.31	613.47
1018.602	572.57
1018.893	571.44
1019.185	562.17
1019.476	578.9
1019.767	561.5
1020.058	608.27
1020.35	584.32
1020.641	580.03
1020.932	562.4
1021.223	566.24
1021.514	557.2
1021.804	568.73
1022.095	575.06
1022.386	563.3
1022.677	565.34
1022.967	545.68
1023.258	567.37
1023.548	546.81
1023.839	549.75
1024.129	566.24
1024.419	547.26
1024.709	520.14
1025	549.07
1025.29	524.21
1025.58	541.61
1025.87	542.74
1026.16	541.84
1026.449	525.11
1026.739	534.15
1027.029	541.38
1027.319	514.49
1027.608	519.24
1027.898	506.36
1028.187	516.53
1028.477	502.74
1028.766	524.89
1029.055	540.25
1029.344	498.45
1029.634	499.8
1029.923	524.66
1030.212	500.26
1030.501	503.19
1030.79	491.22
1031.078	482.4
1031.367	502.52
1031.656	488.96
1031.945	499.58
1032.233	511.55
1032.522	508.39
1032.81	494.61
1033.099	489.86
1033.387	483.98
1033.675	472.91
1033.963	490.31
1034.251	487.83
1034.54	482.85
1034.828	474.27
1035.116	486.7
1035.403	464.78
1035.691	474.27
1035.979	468.39
1036.267	461.61
1036.554	463.19
1036.842	466.13
1037.129	449.18
1037.417	471.56
1037.704	469.75
1037.992	459.58
1038.279	465.45
1038.566	452.8
1038.853	452.8
1039.14	452.8
