Data from black_plastic_tray_FLMS001491_013.txt Node
Date: Tue Feb 07 10:39:21 GMT 2017
User: dcchb
Spectrometer: FLMS00149
Trigger mode: 0
Integration Time (sec): 2.000000E-2
Scans to average: 10
Electric dark correction enabled: true
Nonlinearity correction enabled: false
Boxcar width: 0
XAxis mode: Wavelengths
Number of Pixels in Spectrum: 2048
>>>>>Begin Spectral Data<<<<<
341.393	-18.54
341.776	-18.54
342.16	-18.54
342.543	-61.93
342.927	-64.42
343.31	-67.36
343.693	-57.87
344.077	-64.42
344.46	-61.26
344.843	-28.49
345.226	-41.37
345.61	-41.14
345.993	-20.13
346.376	-17.64
346.759	-7.25
347.142	26.43
347.525	70.27
347.908	47.44
348.291	85.86
348.674	78.85
349.057	98.06
349.44	134.9
349.823	155.69
350.206	149.81
350.588	178.74
350.971	192.75
351.354	210.6
351.737	228
352.119	216.7
352.502	230.71
352.884	262.13
353.267	272.75
353.65	289.92
354.032	275.23
354.414	282.46
354.797	300.54
355.179	305.74
355.562	300.32
355.944	307.32
356.326	310.71
356.709	316.36
357.091	304.84
357.473	312.07
357.855	329.02
358.238	323.37
358.62	321.33
359.002	313.42
359.384	302.12
359.766	321.79
360.148	309.81
360.53	306.64
360.912	328.11
361.294	334.89
361.676	326.53
362.057	304.38
362.439	323.37
362.821	318.62
363.203	305.51
363.584	302.8
363.966	305.51
364.348	289.92
364.729	305.29
365.111	325.4
365.493	293.31
365.874	303.48
366.256	301.67
366.637	311.62
367.019	282.01
367.4	281.56
367.781	310.71
368.163	289.47
368.544	273.65
368.925	275.91
369.306	299.86
369.688	292.86
370.069	293.09
370.45	299.64
370.831	274.33
371.212	298.28
371.593	290.6
371.974	293.76
372.355	305.74
372.736	306.87
373.117	304.61
373.498	303.03
373.879	310.94
374.26	301.67
374.641	274.78
375.021	286.98
375.402	314.1
375.783	312.29
376.163	298.06
376.544	322.69
376.925	319.98
377.305	330.6
377.686	308
378.066	313.65
378.447	335.12
378.827	309.58
379.208	300.77
379.588	295.57
379.968	313.42
380.349	314.78
380.729	333.54
381.109	320.2
381.489	334.21
381.87	312.52
382.25	340.99
382.63	326.3
383.01	329.92
383.39	340.54
383.77	329.02
384.15	332.41
384.53	328.56
384.91	329.69
385.29	336.02
385.67	341.9
386.049	350.26
386.429	309.81
386.809	340.54
387.189	330.82
387.568	334.89
387.948	352.97
388.328	332.18
388.707	326.98
389.087	353.65
389.466	364.95
389.846	341.45
390.225	358.39
390.605	353.2
390.984	364.27
391.363	336.25
391.743	347.77
392.122	348.23
392.501	353.42
392.881	370.15
393.26	366.53
393.639	362.69
394.018	355.68
394.397	363.82
394.776	364.95
395.155	365.85
395.534	377.6
395.913	377.83
396.292	365.17
396.671	375.8
397.05	377.38
397.429	363.82
397.808	374.21
398.186	364.5
398.565	378.73
398.944	388
399.323	380.99
399.701	379.41
400.08	386.19
400.458	395.91
400.837	405.17
401.215	396.36
401.594	403.14
401.972	398.62
402.351	384.38
402.729	413.31
403.107	422.35
403.486	399.07
403.864	404.5
404.242	408.56
404.62	402.69
404.999	407.88
405.377	416.47
405.755	406.53
406.133	406.3
406.511	453.76
406.889	422.8
407.267	430.71
407.645	408.56
408.023	447.88
408.401	450.37
408.779	428.68
409.156	441.33
409.534	455.12
409.912	438.62
410.29	454.66
410.667	468.22
411.045	458.73
411.422	465.51
411.8	454.66
412.178	469.58
412.555	451.05
412.933	468.45
413.31	494.89
413.687	511.16
414.065	459.63
414.442	478.17
414.819	476.81
415.197	486.98
415.574	497.83
415.951	506.87
416.328	484.94
416.705	509.35
417.082	508
417.46	520.65
417.837	502.12
418.214	506.87
418.591	510.25
418.967	519.52
419.344	535.11
419.721	545.28
420.098	515
420.475	538.05
420.852	535.79
421.228	534.66
421.605	552.06
421.982	536.24
422.358	563.59
422.735	528.11
423.111	554.77
423.488	570.82
423.864	560.42
424.241	569.01
424.617	560.88
424.994	578.5
425.37	555
425.746	583.7
426.123	620.76
426.499	586.64
426.875	580.54
427.251	607.88
427.627	610.14
428.003	618.73
428.379	617.6
428.756	632.74
429.132	636.58
429.507	625.05
429.883	625.73
430.259	627.54
430.635	633.42
431.011	633.42
431.387	679.97
431.763	662.79
432.138	676.13
432.514	673.41
432.89	669.12
433.265	687.65
433.641	689.91
434.016	685.62
434.392	697.37
434.767	721.55
435.143	729.68
435.518	729.46
435.894	721.1
436.269	741.21
436.644	757.03
437.02	723.81
437.395	731.27
437.77	734.88
438.145	764.71
438.52	776.69
438.895	788.67
439.271	767.65
439.646	757.25
440.021	791.15
440.395	792.73
440.77	775.56
441.145	793.41
441.52	784.6
441.895	799.96
442.27	809.91
442.645	820.76
443.019	806.52
443.394	811.26
443.769	834.99
444.143	805.61
444.518	813.98
444.892	812.85
445.267	866.63
445.641	836.8
446.016	836.35
446.39	844.26
446.764	833.86
447.139	881.54
447.513	879.96
447.887	882.9
448.262	869.57
448.636	880.87
449.01	883.58
449.384	909.11
449.758	900.08
450.132	931.26
450.506	917.48
450.88	929.9
451.254	917.93
451.628	923.13
452.002	914.31
452.376	931.71
452.75	937.59
453.123	959.28
453.497	960.19
453.871	991.15
454.244	984.14
454.618	985.27
454.992	989.79
455.365	994.08
455.739	996.8
456.112	1041.31
456.486	1044.03
456.859	1047.42
457.232	1060.3
457.606	1062.1
457.979	1104.59
458.352	1086.51
458.725	1105.04
459.099	1109.79
459.472	1107.75
459.845	1133.97
460.218	1137.58
460.591	1142.55
460.964	1151.37
461.337	1182.78
461.71	1189.33
462.083	1200.86
462.456	1207.86
462.829	1237.02
463.201	1231.37
463.574	1262.55
463.947	1237.92
464.32	1253.06
464.692	1282.21
465.065	1289.67
465.438	1311.36
465.81	1332.15
466.183	1305.26
466.555	1360.63
466.928	1364.24
467.3	1363.57
467.672	1394.53
468.045	1417.58
468.417	1430
468.789	1404.02
469.161	1443.11
469.534	1479.49
469.906	1482.43
470.278	1479.27
470.65	1505.03
471.022	1543
471.394	1575.99
471.766	1576.22
472.138	1607.4
472.51	1625.48
472.882	1661.86
473.253	1642.88
473.625	1658.02
473.997	1708.42
474.369	1728.3
474.74	1751.13
475.112	1757.45
475.484	1788.19
475.855	1784.12
476.227	1831.12
476.598	1856.43
476.97	1882.2
477.341	1897.79
477.713	1946.6
478.084	1943.89
478.455	2002.42
478.827	2011.68
479.198	2044.45
479.569	2077.9
479.94	2103.89
480.311	2104.79
480.682	2168.52
481.053	2174.39
481.424	2241.73
481.795	2261.85
482.166	2274.95
482.537	2316.54
482.908	2380.26
483.279	2359.7
483.65	2427.04
484.021	2485.57
484.391	2465.23
484.762	2538.9
485.133	2557.88
485.503	2535.96
485.874	2652.12
486.244	2666.13
486.615	2665.23
486.985	2708.84
487.356	2788.61
487.726	2791.55
488.097	2871.55
488.467	2846.92
488.837	2896.18
489.207	2928.95
489.578	2947.03
489.948	3008.72
490.318	3062.05
490.688	3059.34
491.058	3069.96
491.428	3131.2
491.798	3142.5
492.168	3212.78
492.538	3217.98
492.908	3256.4
493.278	3296.4
493.648	3330.52
494.017	3344.53
494.387	3375.72
494.757	3370.52
495.126	3410.97
495.496	3446.9
495.866	3525.32
496.235	3507.01
496.605	3532.77
496.974	3533
497.344	3589.27
497.713	3561.47
498.082	3663.84
498.452	3645.09
498.821	3661.81
499.19	3711.07
499.559	3697.29
499.928	3754.69
500.298	3749.72
500.667	3826.1
501.036	3817.96
501.405	3879.43
501.774	3879.88
502.143	3881.69
502.512	3914.91
502.88	3946.1
503.249	3968.92
503.618	3996.26
503.987	4008.47
504.356	4025.19
504.724	4067.45
505.093	4106.77
505.462	4070.16
505.83	4150.84
506.199	4160.33
506.567	4236.26
506.936	4227.45
507.304	4232.19
507.672	4253.89
508.041	4333.43
508.409	4333.88
508.777	4329.14
509.145	4330.04
509.514	4361.23
509.882	4390.15
510.25	4476.93
510.618	4506.99
510.986	4482.13
511.354	4529.36
511.722	4579.98
512.09	4598.06
512.458	4616.36
512.826	4660.2
513.193	4680.09
513.561	4689.13
513.929	4774.1
514.297	4794.44
514.664	4793.98
515.032	4831.95
515.4	4913.98
515.767	4871.5
516.135	4965.73
516.502	4899.07
516.869	5056.12
517.237	5037.59
517.604	5051.15
517.972	5101.55
518.339	5118.27
518.706	5136.12
519.073	5170.02
519.44	5199.17
519.808	5275.78
520.175	5259.51
520.542	5373.4
520.909	5322.78
521.276	5367.08
521.643	5473.97
522.009	5522.78
522.376	5510.12
522.743	5603.68
523.11	5609.56
523.477	5645.49
523.843	5701.53
524.21	5713.06
524.577	5793.96
524.943	5793.28
525.31	5789.89
525.676	5925.25
526.043	5967.29
526.409	5951.92
526.776	6007.29
527.142	6032.82
527.508	6055.19
527.874	6139.26
528.241	6202.08
528.607	6249.31
528.973	6270.78
529.339	6241.4
529.705	6352.36
530.071	6352.81
530.437	6388.07
530.803	6427.61
531.169	6486.82
531.535	6455.41
531.901	6462.64
532.267	6526.59
532.632	6539.47
532.998	6573.15
533.364	6634.61
533.73	6700.37
534.095	6766.14
534.461	6762.75
534.826	6830.99
535.192	6810.88
535.557	6844.55
535.923	6804.55
536.288	6902.86
536.653	6924.1
537.019	6831.22
537.384	6995.73
537.749	6985.34
538.114	7023.08
538.479	6985.56
538.845	7037.54
539.21	7038.44
539.575	7096.52
539.94	7080.03
540.305	7124.54
540.67	7148.95
541.034	7207.03
541.399	7208.61
541.764	7298.55
542.129	7262.85
542.494	7310.53
542.858	7307.14
543.223	7329.28
543.587	7412.45
543.952	7324.54
544.316	7398.66
544.681	7408.38
545.045	7441.82
545.41	7397.31
545.774	7506.23
546.138	7500.35
546.503	7611.09
546.867	7599.79
547.231	7640.69
547.595	7589.84
547.959	7703.06
548.324	7670.74
548.688	7700.35
549.052	7729.73
549.416	7747.8
549.779	7785.32
550.143	7796.84
550.507	7853.79
550.871	7920.91
551.235	7844.53
551.599	7924.3
551.962	7971.75
552.326	7928.36
552.689	8026.22
553.053	8054.92
553.417	8003.17
553.78	8148.02
554.143	8140.79
554.507	8132.88
554.87	8162.71
555.234	8235.7
555.597	8236.38
555.96	8285.87
556.323	8290.39
556.686	8294.46
557.05	8372.42
557.413	8506.43
557.776	8431.63
558.139	8520.44
558.502	8512.3
558.865	8497.62
559.228	8640.66
559.59	8682.47
559.953	8644.28
560.316	8684.5
560.679	8739.64
561.041	8758.85
561.404	8783.03
561.767	8921.33
562.129	8834.33
562.492	8927.89
562.854	8951.61
563.217	8968.11
563.579	9022.35
563.941	9031.16
564.304	9150.71
564.666	9121.1
565.028	9201.1
565.39	9182.8
565.753	9216.47
566.115	9273.87
566.477	9256.92
566.839	9321.1
567.201	9366.29
567.563	9430.25
567.925	9459.17
568.287	9465.73
568.648	9520.19
569.01	9511.15
569.372	9564.71
569.734	9584.14
570.095	9643.35
570.457	9684.25
570.819	9713.85
571.18	9751.82
571.542	9793.4
571.903	9884.7
572.265	9856.22
572.626	9888.09
572.987	9832.72
573.349	9865.72
573.71	9910.91
574.071	9994.07
574.432	10014.41
574.794	10083.79
575.155	10021.87
575.516	10065.26
575.877	10068.87
576.238	10073.17
576.599	10141.41
576.96	10098.93
577.32	10136.44
577.681	10204.46
578.042	10202.2
578.403	10195.42
578.763	10201.98
579.124	10294.18
579.485	10270
579.845	10304.12
580.206	10274.29
580.566	10312.94
580.927	10314.52
581.287	10293.73
581.648	10292.14
582.008	10305.03
582.368	10342.09
582.728	10296.21
583.089	10351.35
583.449	10382.54
583.809	10313.16
584.169	10358.13
584.529	10427.28
584.889	10437.23
585.249	10412.14
585.609	10313.84
585.969	10368.98
586.329	10376.21
586.688	10406.94
587.048	10406.04
587.408	10305.03
587.768	10322.2
588.127	10310.9
588.487	10347.51
588.846	10399.94
589.206	10338.92
589.565	10357.91
589.925	10422.08
590.284	10387.28
590.643	10331.69
591.003	10435.42
591.362	10449.88
591.721	10411.01
592.08	10435.64
592.44	10415.76
592.799	10404.68
593.158	10431.35
593.517	10513.38
593.876	10495.3
594.235	10444.91
594.593	10459.6
594.952	10468.19
595.311	10455.76
595.67	10433.16
596.029	10540.73
596.387	10508.41
596.746	10535.98
597.104	10437.45
597.463	10484
597.822	10522.42
598.18	10507.96
598.538	10456.43
598.897	10563.32
599.255	10470.67
599.613	10476.09
599.972	10515.87
600.33	10551.57
600.688	10531.01
601.046	10561.52
601.404	10611.46
601.762	10620.72
602.12	10693.26
602.478	10691.46
602.836	10717.67
603.194	10627.73
603.552	10658.24
603.91	10601.74
604.268	10674.51
604.625	10644.68
604.983	10705.69
605.341	10647.16
605.698	10679.71
606.056	10725.35
606.413	10681.06
606.771	10693.04
607.128	10716.54
607.485	10706.15
607.843	10721.29
608.2	10851.45
608.557	10797.89
608.914	10733.04
609.272	10817.78
609.629	10773.94
609.986	10839.93
610.343	10785.92
610.7	10806.48
611.057	10837.44
611.414	10812.81
611.771	10877.89
612.127	10868.85
612.484	10952.69
612.841	10938.23
613.198	10857.1
613.554	10903.65
613.911	11005.8
614.267	10890.77
614.624	10933.94
614.98	10986.36
615.337	10978.23
615.693	10930.32
616.05	10906.82
616.406	11066.14
616.762	10978.91
617.118	11040.6
617.475	11048.06
617.831	11032.92
618.187	11041.5
618.543	11063.88
618.899	11135.96
619.255	11104.33
619.611	11082.41
619.967	11121.95
620.323	11216.41
620.678	11121.5
621.034	11132.12
621.39	11186.13
621.746	11044.67
622.101	11221.39
622.457	11087.83
622.812	11076.08
623.168	11090.77
623.523	11138.45
623.879	11127.15
624.234	11061.84
624.589	11062.29
624.945	11199.92
625.3	11116.3
625.655	11118.34
626.01	11164.66
626.365	11197.21
626.72	11101.39
627.075	11098.68
627.43	11052.58
627.785	11080.15
628.14	11162.86
628.495	11108.85
628.85	11072.69
629.205	11075.17
629.559	11091.9
629.914	11015.29
630.269	10993.14
630.623	11047.83
630.978	10953.6
631.332	11039.47
631.687	11073.82
632.041	11011.9
632.396	11076.3
632.75	11038.11
633.104	10944.33
633.459	10940.04
633.813	10951.79
634.167	10929.19
634.521	10954.73
634.875	10931
635.229	10905.69
635.583	10921.51
635.937	10920.6
636.291	10842.19
636.645	10841.28
636.999	10848.29
637.352	10889.64
637.706	10779.59
638.06	10815.97
638.413	10783.88
638.767	10715.18
639.121	10725.13
639.474	10726.03
639.828	10714.05
640.181	10740.49
640.534	10736.2
640.888	10622.98
641.241	10618.01
641.594	10667.95
641.947	10651.01
642.301	10651.91
642.654	10627.28
643.007	10627.73
643.36	10620.27
643.713	10555.87
644.066	10599.93
644.419	10581.85
644.771	10539.14
645.124	10403.1
645.477	10371.69
645.83	10276.78
646.182	10281.07
646.535	10225.71
646.888	10290.56
647.24	10173.05
647.593	10246.95
647.945	10114.75
648.298	10075.2
648.65	10130.79
649.002	10072.72
649.355	10060.06
649.707	10185.25
650.059	10212.82
650.411	10299.6
650.763	10344.12
651.115	10484.46
651.467	10468.19
651.819	10368.07
652.171	10337.57
652.523	10311.81
652.875	10273.16
653.227	10262.99
653.578	10312.94
653.93	10345.25
654.282	10222.32
654.633	10219.38
654.985	10228.19
655.337	10234.52
655.688	10222.77
656.039	10296.21
656.391	10192.03
656.742	10154.52
657.094	10180.06
657.445	10218.02
657.796	10220.51
658.147	10153.62
658.498	10156.1
658.849	10233.62
659.2	10099.38
659.551	10184.8
659.902	10162.2
660.253	10160.85
660.604	10181.19
660.955	10167.63
661.306	10113.62
661.656	10119.49
662.007	10107.52
662.358	10004.02
662.708	10079.95
663.059	10050.57
663.409	9964.92
663.76	10110.45
664.11	10020.74
664.461	10115.65
664.811	10024.81
665.161	10105.03
665.511	10067.29
665.862	10060.29
666.212	10073.17
666.562	10015.77
666.912	10112.49
667.262	10113.17
667.612	10125.14
667.962	10068.65
668.312	10022.55
668.662	10057.35
669.011	10039.95
669.361	9993.4
669.711	9999.5
670.06	9946.39
670.41	9942.78
670.76	9903.23
671.109	10067.52
671.459	9957.69
671.808	9938.93
672.157	9985.26
672.507	9912.95
672.856	9905.26
673.205	9883.34
673.554	9939.16
673.904	9851.03
674.253	9985.49
674.602	9830.69
674.951	9729.9
675.3	9681.77
675.649	9894.64
675.998	9884.02
676.346	9864.36
676.695	9907.07
677.044	9888.09
677.393	9858.94
677.741	9794.76
678.09	9766.73
678.438	9793.4
678.787	9839.95
679.135	9846.28
679.484	9770.8
679.832	9776.68
680.181	9762.67
680.529	9729.9
680.877	9749.79
681.225	9693.06
681.573	9727.41
681.922	9689
682.27	9590.92
682.618	9598.6
682.966	9563.35
683.314	9647.64
683.661	9557.02
684.009	9580.98
684.357	9560.41
684.705	9464.82
685.053	9547.98
685.4	9532.39
685.748	9482.22
686.095	9476.12
686.443	9452.62
686.79	9378.5
687.138	9373.98
687.485	9396.57
687.832	9372.62
688.18	9461.88
688.527	9288.78
688.874	9314.77
689.221	9223.25
689.568	9256.69
689.915	9270.93
690.262	9276.8
690.609	9226.18
690.956	9164.49
691.303	9162
691.65	9147.09
691.997	9117.71
692.344	9087.88
692.69	9063.48
693.037	9076.13
693.383	8989.58
693.73	9050.82
694.077	9001.33
694.423	9065.06
694.769	8962.69
695.116	9012.86
695.462	8884.05
695.808	8932.18
696.155	8925.4
696.501	8781
696.847	8837.49
697.193	8774.67
697.539	8793.2
697.885	8759.53
698.231	8698.97
698.577	8664.16
698.923	8719.53
699.269	8605.18
699.614	8582.36
699.96	8613.77
700.306	8545.07
700.651	8523.83
700.997	8518.18
701.342	8545.52
701.688	8524.06
702.033	8448.8
702.379	8482.25
702.724	8411.97
703.069	8432.76
703.415	8333.78
703.76	8335.59
704.105	8316.38
704.45	8317.51
704.795	8305.76
705.14	8257.17
705.485	8308.02
705.83	8238.87
706.175	8257.4
706.52	8196.83
706.865	8215.82
707.209	8221.46
707.554	8133.33
707.899	8193.44
708.243	8110.06
708.588	8092.88
708.932	8038.42
709.277	8018.76
709.621	8075.71
709.966	7995.03
710.31	7972.43
710.654	7965.88
710.998	8009.27
711.342	7936.27
711.687	7913.45
712.031	7970.62
712.375	7878.87
712.719	7906.9
713.063	7924.52
713.407	7934.47
713.75	7842.04
714.094	7793.45
714.438	7813.79
714.782	7796.39
715.125	7761.59
715.469	7795.49
715.812	7706.45
716.156	7700.12
716.499	7682.72
716.843	7648.82
717.186	7621.71
717.53	7668.26
717.873	7671.2
718.216	7684.53
718.559	7620.12
718.902	7580.58
719.246	7602.27
719.589	7594.81
719.932	7537.19
720.275	7567.24
720.617	7611.31
720.96	7547.58
721.303	7589.39
721.646	7508.71
721.989	7482.95
722.331	7463.52
722.674	7429.85
723.016	7462.84
723.359	7499.22
723.701	7448.15
724.044	7376.06
724.386	7408.6
724.729	7424.88
725.071	7385.78
725.413	7293.81
725.755	7319.79
726.097	7305.1
726.439	7282.96
726.782	7226.69
727.124	7264.2
727.465	7219.91
727.807	7273.92
728.149	7222.85
728.491	7201.38
728.833	7261.04
729.175	7204.09
729.516	7134.04
729.858	7179.01
730.199	7155.5
730.541	7141.94
730.882	7125
731.224	7117.09
731.565	7091.55
731.906	7065.11
732.248	7117.99
732.589	7147.82
732.93	7080.25
733.271	7067.82
733.612	7090.87
733.953	7050.87
734.294	7002.51
734.635	7028.95
734.976	7009.07
735.317	7004.1
735.658	7009.07
735.999	6979.01
736.339	6961.16
736.68	6978.33
737.021	6988.95
737.361	6862.18
737.702	6926.36
738.042	6946.7
738.383	6904.21
738.723	6920.71
739.063	6866.7
739.404	6930.43
739.744	6887.26
740.084	6860.82
740.424	6842.74
740.764	6897.21
741.104	6902.63
741.444	6771.11
741.784	6836.42
742.124	6849.3
742.464	6795.29
742.804	6767.27
743.143	6792.35
743.483	6746.48
743.823	6741.73
744.162	6753.03
744.502	6694.73
744.841	6682.07
745.181	6741.73
745.52	6755.06
745.86	6678
746.199	6660.6
746.538	6699.24
746.877	6668.06
747.216	6603.43
747.556	6613.82
747.895	6600.72
748.234	6616.08
748.573	6579.7
748.911	6588.29
749.25	6562.98
749.589	6522.07
749.928	6568.85
750.267	6544.22
750.605	6542.86
750.944	6550.1
751.283	6454.96
751.621	6522.53
751.96	6502.87
752.298	6497.22
752.636	6435.75
752.975	6451.34
753.313	6436.65
753.651	6471.68
753.989	6410.66
754.327	6378.35
754.666	6341.97
755.004	6340.84
755.342	6372.47
755.679	6309.2
756.017	6289.99
756.355	6291.35
756.693	6233.95
757.031	6289.54
757.368	6245.47
757.706	6245.7
758.044	6203.44
758.381	6250.67
758.719	6152.59
759.056	6183.1
759.394	6180.16
759.731	6163.89
760.068	6110.33
760.405	6060.62
760.743	6042.54
761.08	6095.64
761.417	6061.52
761.754	6097.68
762.091	5977.91
762.428	6011.58
762.765	5934.52
763.102	5991.24
763.438	5925.71
763.775	5924.35
764.112	5879.15
764.449	5922.77
764.785	5870.11
765.122	5842.32
765.458	5786.5
765.795	5828.53
766.131	5858.59
766.467	5825.6
766.804	5747.41
767.14	5775.88
767.476	5785.82
767.812	5716.9
768.148	5693.4
768.485	5744.92
768.821	5666.05
769.157	5696.79
769.492	5660.85
769.828	5639.61
770.164	5587.41
770.5	5563.68
770.836	5611.82
771.171	5543.79
771.507	5550.35
771.842	5500.86
772.178	5489.33
772.513	5469.22
772.849	5453.4
773.184	5458.15
773.519	5473.06
773.855	5394.19
774.19	5381.09
774.525	5323.46
774.86	5331.15
775.195	5324.59
775.53	5337.7
775.865	5292.05
776.2	5259.51
776.535	5219.28
776.87	5210.92
777.205	5206.63
777.539	5192.39
777.874	5190.13
778.209	5157.36
778.543	5189.45
778.878	5138.38
779.212	5104.03
779.547	5108.55
779.881	5131.6
780.215	5037.82
780.55	5025.16
780.884	5047.99
781.218	4991.27
781.552	5033.53
781.886	4956.92
782.22	4992.4
782.554	4959.63
782.888	4916.47
783.222	4843.25
783.556	4874.66
783.889	4924.83
784.223	4847.77
784.557	4842.12
784.89	4862.68
785.224	4829.46
785.557	4804.61
785.891	4782.23
786.224	4741.56
786.558	4771.16
786.891	4743.59
787.224	4694.33
787.557	4682.8
787.891	4725.74
788.224	4733.65
788.557	4656.81
788.89	4683.25
789.223	4643.03
789.556	4604.61
789.888	4626.76
790.221	4629.02
790.554	4576.81
790.887	4570.04
791.219	4547.66
791.552	4607.55
791.884	4542.01
792.217	4497.49
792.549	4499.3
792.882	4436.25
793.214	4446.2
793.546	4433.32
793.879	4422.24
794.211	4429.7
794.543	4366.88
794.875	4350.15
795.207	4343.37
795.539	4404.16
795.871	4355.58
796.203	4348.57
796.535	4322.13
796.867	4305.41
797.198	4236.48
797.53	4286.2
797.862	4236.26
798.193	4285.07
798.525	4229.71
798.856	4247.33
799.188	4181.8
799.519	4179.54
799.85	4149.03
800.182	4157.39
800.513	4179.31
800.844	4107.67
801.175	4197.16
801.506	4161.68
801.837	4161.46
802.168	4092.08
802.499	4091.4
802.83	4092.99
803.161	4058.86
803.491	4062.7
803.822	4021.12
804.153	4076.94
804.483	4020.9
804.814	3989.94
805.145	3996.04
805.475	4029.26
805.805	3971.18
806.136	3960.11
806.466	3974.57
806.796	4005.98
807.126	3959.66
807.457	3952.2
807.787	3952.88
808.117	3911.75
808.447	3904.29
808.777	3923.72
809.107	3888.92
809.436	3932.99
809.766	3879.66
810.096	3795.14
810.426	3829.49
810.755	3847.12
811.085	3869.49
811.414	3845.99
811.744	3830.85
812.073	3795.37
812.403	3785.42
812.732	3750.85
813.061	3769.83
813.39	3744.52
813.719	3705.88
814.049	3749.27
814.378	3737.51
814.707	3732.77
815.036	3730.06
815.365	3695.48
815.693	3694.58
816.022	3662.26
816.351	3678.53
816.68	3668.14
817.008	3669.95
817.337	3637.4
817.665	3618.65
817.994	3647.57
818.322	3616.16
818.651	3628.82
818.979	3615.94
819.307	3561.25
819.636	3596.05
819.964	3572.55
820.292	3611.64
820.62	3547.01
820.948	3587.69
821.276	3593.11
821.604	3569.16
821.932	3553.79
822.259	3567.35
822.587	3577.07
822.915	3567.8
823.243	3570.74
823.57	3561.47
823.898	3540.68
824.225	3558.54
824.553	3590.17
824.88	3570.51
825.207	3569.61
825.535	3572.1
825.862	3565.54
826.189	3564.86
826.516	3569.16
826.843	3588.14
827.17	3560.34
827.497	3654.13
827.824	3575.94
828.151	3580
828.478	3518.76
828.805	3563.51
829.131	3536.84
829.458	3556.28
829.785	3511.76
830.111	3547.24
830.438	3513.57
830.764	3551.98
831.09	3589.72
831.417	3535.03
831.743	3569.61
832.069	3558.08
832.395	3522.15
832.722	3498.42
833.048	3506.11
833.374	3510.85
833.7	3486
834.026	3544.07
834.351	3540.46
834.677	3543.17
835.003	3486.67
835.329	3512.21
835.654	3468.37
835.98	3478.31
836.306	3467.92
836.631	3463.62
836.956	3473.79
837.282	3488.93
837.607	3452.55
837.932	3439.67
838.258	3459.1
838.583	3442.16
838.908	3450.06
839.233	3400.8
839.558	3427.24
839.883	3443.06
840.208	3412.55
840.533	3442.83
840.858	3429.95
841.182	3386.34
841.507	3370.74
841.832	3399.22
842.156	3355.6
842.481	3362.16
842.805	3374.36
843.13	3376.17
843.454	3345.66
843.778	3344.98
844.103	3347.02
844.427	3338.66
844.751	3304.76
845.075	3281.26
845.399	3312.22
845.723	3321.71
846.047	3269.73
846.371	3295.94
846.695	3303.63
847.019	3271.76
847.343	3286.91
847.666	3212.56
847.99	3276.51
848.313	3243.97
848.637	3213.01
848.96	3210.52
849.284	3212.78
849.607	3185.21
849.931	3164.42
850.254	3099.57
850.577	3134.82
850.9	3114.25
851.223	3111.32
851.546	3078.32
851.869	3056.85
852.192	3080.13
852.515	3052.56
852.838	3052.11
853.161	3034.48
853.483	3022.05
853.806	3015.27
854.129	3033.13
854.451	3003.52
854.774	2999.23
855.096	2941.38
855.419	2936.63
855.741	2960.13
856.063	2964.65
856.385	2942.06
856.708	2958.1
857.03	2919.91
857.352	2919.68
857.674	2934.15
857.996	2925.33
858.318	2888.72
858.64	2905.9
858.961	2901.38
859.283	2874.71
859.605	2897.31
859.926	2887.14
860.248	2887.82
860.57	2870.87
860.891	2869.51
861.212	2876.07
861.534	2848.05
861.855	2830.65
862.176	2849.4
862.498	2863.41
862.819	2820.7
863.14	2818.44
863.461	2806.01
863.782	2801.27
864.103	2842.17
864.424	2781.38
864.745	2820.93
865.065	2787.03
865.386	2817.09
865.707	2839.23
866.027	2777.54
866.348	2727.82
866.668	2731.44
866.989	2769.63
867.309	2740.93
867.63	2775.96
867.95	2747.71
868.27	2744.55
868.59	2735.28
868.91	2730.08
869.23	2738.67
869.55	2699.8
869.87	2753.59
870.19	2748.84
870.51	2741.38
870.83	2711.1
871.15	2717.65
871.469	2688.73
871.789	2746.13
872.109	2700.25
872.428	2679.01
872.748	2699.58
873.067	2669.07
873.386	2663.42
873.706	2705
874.025	2649.41
874.344	2676.75
874.663	2707.71
874.982	2670.2
875.301	2672.23
875.62	2637.43
875.939	2671.33
876.258	2617.09
876.577	2629.52
876.896	2613.02
877.214	2598.34
877.533	2667.26
877.852	2595.85
878.17	2639.69
878.489	2628.62
878.807	2609.63
879.125	2618.67
879.444	2619.13
879.762	2577.77
880.08	2625.68
880.398	2637.2
880.716	2597.21
881.034	2582.52
881.352	2569.86
881.67	2593.14
881.988	2588.17
882.306	2606.25
882.624	2526.47
882.941	2550.88
883.259	2585.45
883.577	2556.3
883.894	2528.51
884.212	2568.96
884.529	2549.52
884.846	2519.02
885.164	2528.73
885.481	2543.65
885.798	2512.46
886.115	2531.44
886.432	2502.29
886.75	2504.33
887.067	2474.95
887.383	2485.57
887.7	2500.94
888.017	2468.62
888.334	2467.49
888.651	2475.18
888.967	2478.56
889.284	2471.33
889.6	2440.6
889.917	2420.71
890.233	2437.21
890.55	2450.77
890.866	2386.82
891.182	2398.11
891.498	2403.76
891.815	2414.16
892.131	2427.27
892.447	2404.22
892.763	2374.16
893.079	2409.19
893.395	2380.49
893.71	2387.04
894.026	2368.06
894.342	2382.52
894.657	2365.57
894.973	2349.08
895.289	2338.68
895.604	2320.6
895.92	2328.29
896.235	2294.16
896.55	2328.96
896.865	2311.56
897.181	2300.49
897.496	2314.95
897.811	2302.52
898.126	2253.94
898.441	2233.83
898.756	2238.12
899.071	2238.57
899.386	2265.01
899.7	2258.46
900.015	2228.85
900.33	2248.97
900.644	2237.22
900.959	2201.74
901.273	2211.91
901.588	2194.28
901.902	2192.24
902.216	2199.02
902.531	2201.96
902.845	2174.62
903.159	2201.96
903.473	2147.27
903.787	2165.13
904.101	2135.3
904.415	2161.96
904.729	2125.81
905.042	2125.35
905.356	2161.74
905.67	2123.77
905.984	2119.93
906.297	2090.55
906.611	2074.73
906.924	2081.29
907.237	2085.81
907.551	2045.81
907.864	2086.48
908.177	2074.28
908.491	2047.62
908.804	2061.63
909.117	2003.55
909.43	2016.43
909.743	2032.25
910.056	2017.56
910.368	1992.02
910.681	1999.71
910.994	2018.01
911.307	1992.7
911.619	1967.17
911.932	1973.49
912.244	1958.35
912.557	1964.23
912.869	1975.3
913.181	1966.04
913.494	1947.51
913.806	1957.45
914.118	1962.87
914.43	1936.43
914.742	1896.89
915.054	1930.78
915.366	1892.59
915.678	1898.47
915.99	1889.2
916.302	1866.38
916.613	1903.44
916.925	1869.99
917.236	1856.89
917.548	1846.04
917.859	1869.54
918.171	1848.98
918.482	1837
918.794	1839.94
919.105	1843.33
919.416	1803.33
919.727	1814.4
920.038	1804.01
920.349	1799.03
920.66	1782.99
920.971	1791.35
921.282	1779.83
921.593	1757.91
921.903	1784.57
922.214	1747.06
922.525	1771.69
922.835	1750.67
923.146	1766.95
923.456	1708.64
923.767	1754.52
924.077	1706.83
924.387	1732.14
924.697	1726.72
925.008	1723.78
925.318	1718.58
925.628	1710.22
925.938	1723.78
926.248	1667.29
926.558	1649.66
926.867	1641.3
927.177	1664.12
927.487	1660.96
927.796	1672.48
928.106	1637.46
928.416	1647.85
928.725	1644.91
929.034	1616.21
929.344	1653.28
929.653	1623.22
929.962	1603.33
930.271	1625.25
930.581	1595.88
930.89	1610.11
931.199	1575.31
931.508	1583.67
931.817	1554.75
932.125	1556.33
932.434	1545.26
932.743	1558.59
933.051	1527.63
933.36	1553.17
933.669	1557.46
933.977	1533.73
934.286	1509.78
934.594	1531.02
934.902	1528.76
935.21	1502.55
935.519	1529.66
935.827	1510.68
936.135	1471.36
936.443	1495.31
936.751	1490.57
937.059	1502.09
937.367	1480.17
937.674	1464.13
937.982	1451.25
938.29	1477.69
938.597	1468.87
938.905	1487.18
939.213	1478.59
939.52	1465.71
939.827	1441.76
940.135	1454.86
940.442	1439.95
940.749	1408.76
941.056	1426.16
941.363	1405.6
941.67	1407.18
941.977	1419.84
942.284	1430.23
942.591	1370.57
942.898	1395.43
943.205	1371.93
943.511	1364.47
943.818	1389.55
944.125	1367.18
944.431	1350.01
944.738	1367.63
945.044	1341.42
945.35	1321.08
945.657	1307.52
945.963	1365.6
946.269	1339.39
946.575	1319.27
946.881	1355.88
947.187	1335.77
947.493	1310.01
947.799	1334.64
948.105	1294.64
948.41	1291.7
948.716	1320.86
949.022	1299.39
949.327	1312.27
949.633	1275.21
949.938	1295.55
950.244	1293.06
950.549	1284.25
950.854	1252.38
951.16	1278.37
951.465	1280.4
951.77	1234.98
952.075	1253.06
952.38	1254.87
952.685	1243.79
952.99	1255.55
953.294	1219.61
953.599	1241.08
953.904	1208.77
954.209	1232.95
954.513	1219.16
954.818	1211.93
955.122	1211.25
955.426	1197.24
955.731	1199.95
956.035	1212.16
956.339	1211.48
956.643	1186.85
956.948	1189.11
957.252	1177.13
957.556	1160.63
957.86	1194.53
958.163	1194.08
958.467	1190.01
958.771	1180.29
959.075	1145.72
959.378	1163.8
959.682	1142.55
959.985	1153.63
960.289	1159.05
960.592	1113.63
960.896	1139.39
961.199	1129.45
961.502	1121.99
961.805	1095.78
962.108	1113.18
962.411	1111.37
962.714	1103.46
963.017	1120.86
963.32	1119.28
963.623	1097.13
963.926	1115.66
964.228	1084.93
964.531	1107.53
964.833	1075.21
965.136	1071.37
965.438	1080.64
965.741	1085.38
966.043	1057.36
966.345	1061.2
966.648	1073.4
966.95	1077.47
967.252	1079.51
967.554	1037.7
967.856	1046.29
968.158	1052.16
968.46	1032.73
968.761	1065.95
969.063	1046.74
969.365	1046.06
969.666	1053.74
969.968	1029.11
970.269	1036.12
970.571	1029.56
970.872	1008.55
971.174	1032.95
971.475	1030.92
971.776	996.34
972.077	1003.8
972.378	1011.48
972.679	998.15
972.98	993.18
973.281	1005.16
973.582	1007.87
973.883	974.42
974.183	980.07
974.484	979.62
974.785	967.64
975.085	981.43
975.386	969.9
975.686	950.7
975.986	943.69
976.287	949.34
976.587	969.23
976.887	949.79
977.187	971.71
977.487	932.84
977.787	942.56
978.087	925.84
978.387	938.94
978.687	930.13
978.987	930.36
979.286	938.94
979.586	912.05
979.885	914.54
980.185	900.3
980.484	909.79
980.784	941.43
981.083	899.4
981.382	910.02
981.682	906.85
981.981	908.44
982.28	883.58
982.579	915.22
982.878	899.4
983.177	894.2
983.475	923.35
983.774	883.13
984.073	888.55
984.372	857.59
984.67	850.58
984.969	862.79
985.267	879.06
985.566	890.13
985.864	866.63
986.162	879.28
986.461	839.51
986.759	859.62
987.057	832.73
987.355	863.69
987.653	845.84
987.951	865.5
988.249	851.49
988.547	847.65
988.844	846.52
989.142	852.84
989.44	815.11
989.737	810.81
990.035	816.91
990.332	806.07
990.63	822.56
990.927	819.4
991.224	810.59
991.521	825.5
991.819	819.85
992.116	816.69
992.413	815.33
992.71	828.44
993.006	815.11
993.303	801.32
993.6	803.81
993.897	804.48
994.193	796.8
994.49	771.94
994.787	787.99
995.083	800.64
995.379	792.06
995.676	790.7
995.972	773.07
996.268	775.78
996.565	759.74
996.861	764.03
997.157	772.17
997.453	774.2
997.749	754.54
998.044	758.84
998.34	745.95
998.636	773.75
998.932	754.32
999.227	773.98
999.523	752.06
999.818	765.84
1000.114	741.21
1000.409	745.28
1000.704	752.28
1001	729.01
1001.295	734.88
1001.59	734.43
1001.885	723.58
1002.18	719.29
1002.475	730.14
1002.77	713.41
1003.065	722.68
1003.359	704.83
1003.654	705.73
1003.949	708.89
1004.243	712.96
1004.538	711.83
1004.832	718.61
1005.127	692.85
1005.421	713.87
1005.715	697.59
1006.009	692.62
1006.304	691.95
1006.598	687.43
1006.892	680.42
1007.186	679.97
1007.48	680.87
1007.773	673.19
1008.067	677.48
1008.361	675.45
1008.655	647.65
1008.948	639.97
1009.242	640.42
1009.535	671.61
1009.829	651.04
1010.122	666.41
1010.415	648.56
1010.708	652.85
1011.001	638.61
1011.295	655.34
1011.588	639.97
1011.881	655.34
1012.173	638.61
1012.466	626.41
1012.759	637.26
1013.052	639.07
1013.344	638.39
1013.637	618.73
1013.93	627.77
1014.222	626.64
1014.514	620.53
1014.807	619.86
1015.099	604.72
1015.391	618.5
1015.683	606.98
1015.976	609.01
1016.268	613.3
1016.56	594.77
1016.851	602.23
1017.143	608.56
1017.435	585.28
1017.727	604.49
1018.018	598.39
1018.31	591.83
1018.602	581.44
1018.893	594.55
1019.185	576.02
1019.476	584.15
1019.767	571.72
1020.058	565.62
1020.35	578.73
1020.641	585.51
1020.932	580.54
1021.223	573.98
1021.514	568.11
1021.804	558.16
1022.095	570.82
1022.386	589.35
1022.677	584.38
1022.967	566.07
1023.258	554.32
1023.548	545.96
1023.839	552.97
1024.129	558.39
1024.419	556.36
1024.709	545.96
1025	554.77
1025.29	548.22
1025.58	530.82
1025.87	541.67
1026.16	550.93
1026.449	550.71
1026.739	505.96
1027.029	521.55
1027.319	513.64
1027.608	535.11
1027.898	541.44
1028.187	524.72
1028.477	517.71
1028.766	522.68
1029.055	508.67
1029.344	515.68
1029.634	522.46
1029.923	505.51
1030.212	526.75
1030.501	480.2
1030.79	497.37
1031.078	500.31
1031.367	500.99
1031.656	493.31
1031.945	499.41
1032.233	498.28
1032.522	496.02
1032.81	493.76
1033.099	471.16
1033.387	483.81
1033.675	469.35
1033.963	475
1034.251	497.83
1034.54	492.63
1034.828	495.34
1035.116	493.08
1035.403	470.48
1035.691	474.55
1035.979	493.98
1036.267	479.3
1036.554	484.94
1036.842	475
1037.129	449.92
1037.417	476.36
1037.704	450.37
1037.992	486.53
1038.279	487.43
1038.566	474.78
1038.853	474.78
1039.14	474.78
