Data from black_metal_pc_casing_FLMS001491_00072.txt Node
Date: Wed Feb 08 14:33:28 GMT 2017
User: dcchb
Spectrometer: FLMS00149
Trigger mode: 0
Integration Time (sec): 2.000000E-2
Scans to average: 10
Electric dark correction enabled: true
Nonlinearity correction enabled: false
Boxcar width: 0
XAxis mode: Wavelengths
Number of Pixels in Spectrum: 2048
>>>>>Begin Spectral Data<<<<<
341.393	-0.06
341.776	-0.06
342.16	-0.06
342.543	-56.55
342.927	-41.19
343.31	-57.91
343.693	-75.53
344.077	-50.68
344.46	-55.87
344.843	-71.69
345.226	-50.45
345.61	-19.72
345.993	-35.08
346.376	1.98
346.759	22.54
347.142	45.14
347.525	28.87
347.908	41.3
348.291	63.22
348.674	93.5
349.057	120.39
349.44	109.32
349.823	145.02
350.206	174.4
350.588	164.91
350.971	195.87
351.354	215.98
351.737	234.97
352.119	238.81
352.502	274.06
352.884	273.38
353.267	282.87
353.65	282.42
354.032	277.22
354.414	309.31
354.797	303.44
355.179	321.74
355.562	324.91
355.944	322.65
356.326	314.96
356.709	320.16
357.091	318.81
357.473	339.14
357.855	346.83
358.238	336.43
358.62	358.35
359.002	359.48
359.384	343.89
359.766	349.99
360.148	333.27
360.53	335.53
360.912	325.81
361.294	331.01
361.676	338.92
362.057	352.02
362.439	354.28
362.821	333.95
363.203	332.14
363.584	318.58
363.966	342.08
364.348	317.68
364.729	330.56
365.111	336.66
365.493	322.19
365.874	327.62
366.256	306.6
366.637	326.94
367.019	328.52
367.4	316.09
367.781	305.47
368.163	333.95
368.544	326.94
368.925	321.74
369.306	325.81
369.688	326.04
370.069	326.71
370.45	332.82
370.831	328.52
371.212	325.13
371.593	346.83
371.974	306.15
372.355	342.76
372.736	330.56
373.117	322.65
373.498	324.23
373.879	329.2
374.26	331.69
374.641	331.69
375.021	341.18
375.402	325.58
375.783	334.62
376.163	360.16
376.544	352.7
376.925	334.62
377.305	345.02
377.686	338.24
378.066	331.46
378.447	349.54
378.827	319.03
379.208	352.48
379.588	332.14
379.968	346.38
380.349	339.37
380.729	353.61
381.109	349.54
381.489	356.09
381.87	354.06
382.25	355.41
382.63	346.83
383.01	356.54
383.39	361.52
383.77	375.07
384.15	349.31
384.53	364.91
384.91	374.4
385.29	382.98
385.67	365.58
386.049	398.35
386.429	380.27
386.809	383.44
387.189	388.18
387.568	376.43
387.948	378.69
388.328	379.59
388.707	366.26
389.087	395.87
389.466	384.79
389.846	380.72
390.225	381.18
390.605	407.84
390.984	399.93
391.363	397.67
391.743	391.8
392.122	411.23
392.501	403.77
392.881	386.83
393.26	403.55
393.639	416.2
394.018	420.72
394.397	409.65
394.776	418.24
395.155	431.12
395.534	411.23
395.913	418.92
396.292	416.66
396.671	457.56
397.05	433.83
397.429	439.48
397.808	429.31
398.186	425.92
398.565	429.76
398.944	450.78
399.323	427.5
399.701	460.95
400.08	461.85
400.458	461.17
400.837	454.17
401.215	476.99
401.594	458.91
401.972	459.59
402.351	462.08
402.729	457.33
403.107	460.95
403.486	471.57
403.864	458.69
404.242	487.16
404.62	487.39
404.999	482.19
405.377	503.66
405.755	477.67
406.133	489.87
406.511	485.81
406.889	493.94
407.267	518.8
407.645	502.08
408.023	500.5
408.401	519.25
408.779	518.8
409.156	516.31
409.534	524.68
409.912	536.2
410.29	521.29
410.667	526.71
411.045	561.28
411.422	547.05
411.8	561.96
412.178	566.48
412.555	535.3
412.933	556.99
413.31	573.26
413.687	575.75
414.065	583.88
414.442	583.21
414.819	590.21
415.197	590.44
415.574	601.74
415.951	585.46
416.328	601.51
416.705	599.48
417.082	594.5
417.46	589.53
417.837	612.13
418.214	626.37
418.591	635.63
418.967	624.56
419.344	627.27
419.721	646.48
420.098	637.89
420.475	643.99
420.852	664.11
421.228	654.62
421.605	669.08
421.982	662.07
422.358	679.25
422.735	667.27
423.111	688.06
423.488	691.45
423.864	702.07
424.241	695.52
424.617	719.92
424.994	713.37
425.37	684.9
425.746	717.21
426.123	699.36
426.499	718.12
426.875	716.08
427.251	725.8
427.627	741.84
428.003	731.45
428.379	743.43
428.756	775.29
429.132	753.6
429.507	756.76
429.883	788.62
430.259	798.57
430.635	778.68
431.011	815.52
431.387	827.04
431.763	829.53
432.138	815.97
432.514	832.46
432.89	831.33
433.265	870.66
433.641	849.64
434.016	872.01
434.392	885.57
434.767	908.39
435.143	873.14
435.518	904.78
435.894	912.91
436.269	916.76
436.644	941.16
437.02	921.28
437.395	940.71
437.77	944.55
438.145	952.69
438.52	935.96
438.895	977.54
439.271	971.67
439.646	988.17
440.021	978.45
440.395	997.21
440.77	986.81
441.145	1001.27
441.52	1005.79
441.895	1039.24
442.27	1011.67
442.645	1032.91
443.019	1046.47
443.394	1039.92
443.769	1071.1
444.143	1057.77
444.518	1077.88
444.892	1055.28
445.267	1072.46
445.641	1083.08
446.016	1090.54
446.39	1092.34
446.764	1094.6
447.139	1099.8
447.513	1130.08
447.887	1133.92
448.262	1136.41
448.636	1095.51
449.01	1148.16
449.384	1161.04
449.758	1167.6
450.132	1162.62
450.506	1153.13
450.88	1162.17
451.254	1163.53
451.628	1189.97
452.002	1192.23
452.376	1209.18
452.75	1220.93
453.123	1219.12
453.497	1242.85
453.871	1237.43
454.244	1267.48
454.618	1284.2
454.992	1316.52
455.365	1293.92
455.739	1319.68
456.112	1314.94
456.486	1346.57
456.859	1382.05
457.232	1366.24
457.606	1380.7
457.979	1381.6
458.352	1398.55
458.725	1450.3
459.099	1422.96
459.472	1474.48
459.845	1455.72
460.218	1463.86
460.591	1507.93
460.964	1499.57
461.337	1525.78
461.71	1544.31
462.083	1550.19
462.456	1563.97
462.829	1577.76
463.201	1597.42
463.574	1571.88
463.947	1668.6
464.32	1646.45
464.692	1645.55
465.065	1681.03
465.438	1703.4
465.81	1739.11
466.183	1730.75
466.555	1784.76
466.928	1782.72
467.3	1779.78
467.672	1822.04
468.045	1841.93
468.417	1861.59
468.789	1858.2
469.161	1871.31
469.534	1917.86
469.906	1950.17
470.278	1985.65
470.65	1971.87
471.022	2010.06
471.394	2044.18
471.766	2077.63
472.138	2072.88
472.51	2118.31
472.882	2171.41
473.253	2206.89
473.625	2206.21
473.997	2234.69
474.369	2229.26
474.74	2295.25
475.112	2311.75
475.484	2364.18
475.855	2399.43
476.227	2423.16
476.598	2442.59
476.97	2501.35
477.341	2531.18
477.713	2537.28
478.084	2618.18
478.455	2610.27
478.827	2676.94
479.198	2753.32
479.569	2749.25
479.94	2829.02
480.311	2808.68
480.682	2870.6
481.053	2960.77
481.424	2987.89
481.795	3028.11
482.166	3111.05
482.537	3110.37
482.908	3124.61
483.279	3148.79
483.65	3199.41
484.021	3284.83
484.391	3332.29
484.762	3362.11
485.133	3368.89
485.503	3436.92
485.874	3532.05
486.244	3503.58
486.615	3567.08
486.985	3649.34
487.356	3646.63
487.726	3743.57
488.097	3765.72
488.467	3785.61
488.837	3849.33
489.207	3878.71
489.578	3939.27
489.948	3985.38
490.318	4035.09
490.688	4072.83
491.058	4113.28
491.428	4174.75
491.798	4216.56
492.168	4296.78
492.538	4299.27
492.908	4358.47
493.278	4407.74
493.648	4420.17
494.017	4477.79
494.387	4494.51
494.757	4512.59
495.126	4617.68
495.496	4652.02
495.866	4619.94
496.235	4691.8
496.605	4708.52
496.974	4784.22
497.344	4828.52
497.713	4818.12
498.082	4884.11
498.452	4918.91
498.821	4934.95
499.19	4989.87
499.559	4988.96
499.928	5021.51
500.298	5075.29
500.667	5108.51
501.036	5120.94
501.405	5186.25
501.774	5204.78
502.143	5211.33
502.512	5265.12
502.88	5322.29
503.249	5308.28
503.618	5342.18
503.987	5381.95
504.356	5488.84
504.724	5440.48
505.093	5498.56
505.462	5552.79
505.83	5521.15
506.199	5571.55
506.567	5638.89
506.936	5643.18
507.304	5701.26
507.672	5741.49
508.041	5784.2
508.409	5782.16
508.777	5855.16
509.145	5945.32
509.514	5929.73
509.882	5995.94
510.25	5981.93
510.618	5995.72
510.986	6042.5
511.354	6144.41
511.722	6176.5
512.09	6259.44
512.458	6206.79
512.826	6229.38
513.193	6312.32
513.561	6368.14
513.929	6395.26
514.297	6466.67
514.664	6502.82
515.032	6539.66
515.4	6587.57
515.767	6567.23
516.135	6687
516.502	6607.91
516.869	6794.34
517.237	6783.04
517.604	6778.52
517.972	6886.54
518.339	6908.46
518.706	6985.3
519.073	6969.48
519.44	7042.92
519.808	7121.79
520.175	7025.07
520.542	7166.08
520.909	7201.79
521.276	7224.84
521.643	7311.62
522.009	7380.31
522.376	7400.88
522.743	7483.81
523.11	7581.67
523.477	7582.57
523.843	7657.6
524.21	7755.9
524.577	7764.49
524.943	7896.23
525.31	7857.82
525.676	8016.46
526.043	8022.11
526.409	8030.47
526.776	8107.75
527.142	8187.75
527.508	8187.75
527.874	8310.91
528.241	8277.47
528.607	8308.88
528.973	8436.56
529.339	8502.54
529.705	8525.6
530.071	8555.88
530.437	8618.02
530.803	8677
531.169	8649.66
531.535	8688.3
531.901	8708.87
532.267	8832.25
532.632	8826.38
532.998	8903.44
533.364	9004.45
533.73	8984.57
534.095	9029.76
534.461	9089.65
534.826	9159.25
535.192	9121.06
535.557	9301.17
535.923	9196.99
536.288	9304.56
536.653	9386.59
537.019	9346.36
537.384	9349.98
537.749	9491.22
538.114	9476.53
538.479	9493.93
538.845	9494.16
539.21	9552.23
539.575	9611.44
539.94	9653.47
540.305	9675.85
540.67	9657.09
541.034	9728.5
541.399	9772.12
541.764	9793.81
542.129	9813.47
542.494	9799.01
542.858	9904.32
543.223	9937.99
543.587	9949.74
543.952	9975.27
544.316	10041.04
544.681	10030.19
545.045	10107.7
545.41	10183.63
545.774	10151.54
546.138	10209.17
546.503	10276.74
546.867	10251.43
547.231	10274.02
547.595	10338.88
547.959	10387.92
548.324	10340.91
548.688	10388.14
549.052	10423.85
549.416	10482.61
549.779	10537.07
550.143	10534.58
550.507	10628.36
550.871	10652.32
551.235	10653.22
551.599	10728.25
551.962	10815.7
552.326	10805.31
552.689	10889.37
553.053	10814.35
553.417	10847.57
553.78	11000.78
554.143	10949.26
554.507	11033.1
554.87	11114.45
555.234	11240.33
555.597	11094.34
555.96	11217.95
556.323	11231.96
556.686	11215.24
557.05	11269.7
557.413	11374.11
557.776	11328.01
558.139	11581.33
558.502	11405.29
558.865	11531.17
559.228	11667.43
559.59	11622.01
559.953	11632.63
560.316	11801.22
560.679	11815.23
561.041	11852.97
561.404	11922.79
561.767	12010.48
562.129	11944.04
562.492	12148.32
562.854	12134.77
563.217	12078.04
563.579	12201.66
563.941	12257.47
564.304	12370.69
564.666	12396.91
565.028	12442.1
565.39	12478.26
565.753	12559.16
566.115	12594.41
566.477	12607.75
566.839	12663.11
567.201	12766.61
567.563	12748.99
567.925	12868.31
568.287	12812.04
568.648	12901.75
569.01	12943.33
569.372	13140.16
569.734	13043.89
570.095	13082.99
570.457	13177.22
570.819	13122.08
571.18	13144
571.542	13229.2
571.903	13294.06
572.265	13377.22
572.626	13357.56
572.987	13424.22
573.349	13465.13
573.71	13491.34
574.071	13536.08
574.432	13554.84
574.794	13637.33
575.155	13684.33
575.516	13576.99
575.877	13672.13
576.238	13710.77
576.599	13788.28
576.96	13770.2
577.32	13827.6
577.681	13924.55
578.042	13812.69
578.403	13796.87
578.763	13894.95
579.124	13993.02
579.485	14002.06
579.845	13988.73
580.206	13954.6
580.566	14008.84
580.927	14040.48
581.287	14109.4
581.648	14097.88
582.008	14078.67
582.368	14145.11
582.728	14130.42
583.089	14143.98
583.449	14110.53
583.809	14143.98
584.169	14117.99
584.529	14075.05
584.889	14167.03
585.249	14081.38
585.609	14058.33
585.969	14247.03
586.329	14130.87
586.688	14127.93
587.048	14180.14
587.408	14202.28
587.768	14164.54
588.127	14161.15
588.487	14148.95
588.846	14316.4
589.206	14138.33
589.565	14199.12
589.925	14250.42
590.284	14206.35
590.643	14174.26
591.003	14183.53
591.362	14230.53
591.721	14235.28
592.08	14255.84
592.44	14197.54
592.799	14145.33
593.158	14245.67
593.517	14153.47
593.876	14264.65
594.235	14256.74
594.593	14340.58
594.952	14323.41
595.311	14342.39
595.67	14373.12
596.029	14418.77
596.387	14383.52
596.746	14415.61
597.104	14338.1
597.463	14305.33
597.822	14314.82
598.18	14311.88
598.538	14399.34
598.897	14466.23
599.255	14253.58
599.613	14513.69
599.972	14562.95
600.33	14498.77
600.688	14345.1
601.046	14514.82
601.404	14543.74
601.762	14500.58
602.12	14591.65
602.478	14581.93
602.836	14612.67
603.194	14577.19
603.552	14631.2
603.91	14492.44
604.268	14567.02
604.625	14611.31
604.983	14590.29
605.341	14549.84
605.698	14640.24
606.056	14725.21
606.413	14681.82
606.771	14693.57
607.128	14675.94
607.485	14643.4
607.843	14674.59
608.2	14766.11
608.557	14768.59
608.914	14680.69
609.272	14748.93
609.629	14781.25
609.986	14871.64
610.343	14749.39
610.7	14854.02
611.057	14850.4
611.414	14872.09
611.771	14864.86
612.127	14960
612.484	14816.96
612.841	14931.53
613.198	14948.93
613.554	14923.17
613.911	15063.95
614.267	15004.52
614.624	15039.77
614.98	15030.28
615.337	15151.86
615.693	15089.94
616.05	15049.49
616.406	15121.58
616.762	15179.21
617.118	15075.48
617.475	15231.41
617.831	15071.64
618.187	15180.79
618.543	15223.27
618.899	15232.31
619.255	15104.63
619.611	15288.81
619.967	15220.79
620.323	15313.67
620.678	15194.12
621.034	15152.09
621.39	15202.93
621.746	15214.23
622.101	15327.22
622.457	15212.42
622.812	15253.78
623.168	15360.22
623.523	15230.5
623.879	15365.87
624.234	15204.29
624.589	15312.99
624.945	15226.21
625.3	15274.34
625.655	15272.99
626.01	15287
626.365	15267.11
626.72	15287.23
627.075	15294.46
627.43	15240.9
627.785	15236.15
628.14	15188.7
628.495	15292.2
628.85	15222.37
629.205	15191.18
629.559	15253.78
629.914	15179.66
630.269	15208.36
630.623	15156.61
630.978	15082.71
631.332	15211.52
631.687	15228.24
632.041	15157.74
632.396	15185.98
632.75	15084.07
633.104	15008.59
633.459	15023.28
633.813	15071.64
634.167	15122.94
634.521	15020.57
634.875	15084.74
635.229	15000
635.583	14902.38
635.937	14896.05
636.291	14980.34
636.645	14991.64
636.999	14936.5
637.352	14956.61
637.706	14895.37
638.06	14940.79
638.413	14907.35
638.767	14795.49
639.121	14839.1
639.474	14750.29
639.828	14795.71
640.181	14832.1
640.534	14783.96
640.888	14692.66
641.241	14658.32
641.594	14653.57
641.947	14702.61
642.301	14674.59
642.654	14742.83
643.007	14731.99
643.36	14663.51
643.713	14620.58
644.066	14616.51
644.419	14578.09
644.771	14494.48
645.124	14277.08
645.477	14334.71
645.83	14236.41
646.182	14112.79
646.535	14089.74
646.888	14121.38
647.24	14024.43
647.593	14128.84
647.945	14070.53
648.298	13969.75
648.65	13919.35
649.002	13920.93
649.355	14037.99
649.707	13957.32
650.059	13982.63
650.411	14216.97
650.763	14167.48
651.115	14299.68
651.467	14301.04
651.819	14233.69
652.171	14210.87
652.523	14211.32
652.875	14246.57
653.227	14181.27
653.578	14247.93
653.93	14246.35
654.282	14137.65
654.633	14091.78
654.985	14163.19
655.337	14186.24
655.688	14099.91
656.039	14220.81
656.391	13941.72
656.742	14056.3
657.094	14099.69
657.445	14153.02
657.796	14062.4
658.147	14063.98
658.498	13950.09
658.849	14020.82
659.2	13998.9
659.551	13971.1
659.902	14098.1
660.253	13915.96
660.604	14052.91
660.955	13922.29
661.306	13976.75
661.656	13918.67
662.007	13978.33
662.358	13959.35
662.708	13985.34
663.059	13929.97
663.409	13883.19
663.76	13951.67
664.11	13876.41
664.461	13939.46
664.811	13923.87
665.161	13934.94
665.511	13932.23
665.862	13885.91
666.212	13872.35
666.562	13934.27
666.912	13891.78
667.262	13886.13
667.612	13811.78
667.962	13860.82
668.312	13889.07
668.662	14014.72
669.011	13923.65
669.361	13898.56
669.711	13858.79
670.06	13789.86
670.41	13867.6
670.76	13816.76
671.109	13836.42
671.459	13833.7
671.808	13739.24
672.157	13804.33
672.507	13708.06
672.856	13755.97
673.205	13761.62
673.554	13848.84
673.904	13713.03
674.253	13741.05
674.602	13743.08
674.951	13493.37
675.3	13455.63
675.649	13718.45
675.998	13681.84
676.346	13611.11
676.695	13788.73
677.044	13623.31
677.393	13608.4
677.741	13585.35
678.09	13603.2
678.438	13626.03
678.787	13558.68
679.135	13535.63
679.484	13469.42
679.832	13481.85
680.181	13416.77
680.529	13496.31
680.877	13402.53
681.225	13418.35
681.573	13546.48
681.922	13410.66
682.27	13371.12
682.618	13286.15
682.966	13337.9
683.314	13334.28
683.661	13320.95
684.009	13310.55
684.357	13264.23
684.705	13239.37
685.053	13287.05
685.4	13208.41
685.748	13177
686.095	13146.04
686.443	13068.75
686.79	13094.29
687.138	13090.67
687.485	13030.79
687.832	13037.57
688.18	13025.59
688.527	12877.35
688.874	12983.56
689.221	12896.55
689.568	12902.43
689.915	12866.05
690.262	12844.58
690.609	12793.96
690.956	12809.55
691.303	12669.67
691.65	12716.45
691.997	12684.13
692.344	12663.11
692.69	12544.47
693.037	12612.04
693.383	12492.95
693.73	12537.69
694.077	12512.83
694.423	12433.29
694.769	12435.32
695.116	12463.57
695.462	12343.57
695.808	12292.28
696.155	12386.06
696.501	12273.07
696.847	12371.14
697.193	12141.09
697.539	12205.5
697.885	12101.09
698.231	12052.73
698.577	12026.97
698.923	12083.47
699.269	11951.72
699.614	11976.58
699.96	11904.26
700.306	11963.92
700.651	11897.94
700.997	11840.08
701.342	11786.07
701.688	11827.88
702.033	11709.69
702.379	11723.48
702.724	11717.83
703.069	11690.03
703.415	11641.22
703.76	11561.67
704.105	11609.81
704.45	11610.49
704.795	11456.59
705.14	11482.13
705.485	11496.59
705.83	11422.92
706.175	11393.32
706.52	11329.14
706.865	11318.97
707.209	11313.09
707.554	11328.01
707.899	11347.22
708.243	11301.12
708.588	11233.77
708.932	11173.89
709.277	11152.42
709.621	11134.11
709.966	11095.7
710.31	11114.23
710.654	11073.1
710.998	11029.03
711.342	11081.69
711.687	10995.36
712.031	11013.21
712.375	10992.65
712.719	10946.1
713.063	10916.04
713.407	11041.46
713.75	10958.75
714.094	10839.88
714.438	10799.89
714.782	10845.76
715.125	10843.05
715.469	10757.17
715.812	10725.09
716.156	10748.14
716.499	10771.19
716.843	10736.61
717.186	10641.47
717.53	10636.27
717.873	10688.93
718.216	10653.9
718.559	10611.19
718.902	10541.81
719.246	10549.04
719.589	10461.36
719.932	10441.48
720.275	10462.27
720.617	10480.35
720.96	10498.42
721.303	10462.27
721.646	10491.42
721.989	10369.84
722.331	10408.48
722.674	10443.74
723.016	10369.84
723.359	10378.65
723.701	10370.97
724.044	10235.83
724.386	10258.2
724.729	10343.4
725.071	10255.95
725.413	10254.14
725.755	10236.51
726.097	10218.43
726.439	10184.08
726.782	10096.63
727.124	10167.81
727.465	10094.82
727.807	10166.68
728.149	10128.72
728.491	10166.23
728.833	10115.61
729.175	10067.02
729.516	10089.17
729.858	10056.4
730.199	9980.7
730.541	9959.23
730.882	9955.61
731.224	9980.47
731.565	9911.55
731.906	9992
732.248	9984.54
732.589	9927.37
732.93	9824.09
733.271	9886.69
733.612	9896.86
733.953	9867.48
734.294	9880.36
734.635	9755.85
734.976	9843.75
735.317	9769.4
735.658	9724.43
735.999	9797.88
736.339	9727.37
736.68	9776.41
737.021	9750.2
737.361	9720.14
737.702	9750.87
738.042	9625.45
738.383	9622.52
738.723	9705.45
739.063	9568.51
739.404	9627.71
739.744	9653.7
740.084	9636.07
740.424	9650.76
740.764	9538.68
741.104	9644.44
741.444	9528.96
741.784	9466.14
742.124	9512.24
742.464	9491.22
742.804	9517.89
743.143	9487.6
743.483	9483.99
743.823	9398.34
744.162	9420.49
744.502	9397.21
744.841	9457.55
745.181	9445.57
745.52	9382.52
745.86	9396.98
746.199	9314.05
746.538	9328.74
746.877	9380.49
747.216	9330.77
747.556	9279.25
747.895	9287.16
748.234	9308.17
748.573	9296.87
748.911	9273.37
749.25	9272.47
749.589	9132.81
749.928	9259.81
750.267	9281.06
750.605	9158.12
750.944	9191.79
751.283	9109.76
751.621	9132.81
751.96	9039.93
752.298	9044.9
752.636	9072.25
752.975	9044.23
753.313	8919.26
753.651	8991.12
753.989	8947.28
754.327	8951.57
754.666	8869.54
755.004	8937.11
755.342	8901.86
755.679	8908.41
756.017	8842.42
756.355	8872.03
756.693	8846.94
757.031	8841.07
757.368	8748.41
757.706	8719.49
758.044	8745.7
758.381	8722.88
758.719	8688.75
759.056	8684.23
759.394	8628.64
759.731	8556.1
760.068	8558.14
760.405	8562.88
760.743	8544.58
761.08	8541.19
761.417	8545.26
761.754	8460.29
762.091	8437.91
762.428	8454.86
762.765	8413.96
763.102	8394.53
763.438	8381.19
763.775	8300.06
764.112	8324.02
764.449	8304.13
764.785	8298.48
765.122	8203.8
765.458	8155.89
765.795	8159.73
766.131	8217.81
766.467	8157.7
766.804	8096
767.14	8110.92
767.476	8067.3
767.812	7992.95
768.148	8009.22
768.485	7994.76
768.821	8017.59
769.157	7942.79
769.492	7937.36
769.828	7994.99
770.164	7801.77
770.5	7760.42
770.836	7801.09
771.171	7730.59
771.507	7765.84
771.842	7715.9
772.178	7759.29
772.513	7725.16
772.849	7671.83
773.184	7637.48
773.519	7628.9
773.855	7547.99
774.19	7522.23
774.525	7564.04
774.86	7556.58
775.195	7517.71
775.53	7515.9
775.865	7405.85
776.2	7401.33
776.535	7407.43
776.87	7364.95
777.205	7305.74
777.539	7324.72
777.874	7216.48
778.209	7222.58
778.543	7197.04
778.878	7190.04
779.212	7134.67
779.547	7089.47
779.881	7110.04
780.215	7000.89
780.55	7093.99
780.884	7073.88
781.218	6991.62
781.552	7055.35
781.886	6925.41
782.22	6903.49
782.554	6950.95
782.888	6859.42
783.222	6882.02
783.556	6856.71
783.889	6717.28
784.223	6784.4
784.557	6730.61
784.89	6755.7
785.224	6709.37
785.557	6646.77
785.891	6617.17
786.224	6688.58
786.558	6687.68
786.891	6608.81
787.224	6583.05
787.557	6569.94
787.891	6509.83
788.224	6503.95
788.557	6545.31
788.89	6473.9
789.223	6475.25
789.556	6422.15
789.888	6374.24
790.221	6423.05
790.554	6335.14
790.887	6378.53
791.219	6333.34
791.552	6310.06
791.884	6248.14
792.217	6265.32
792.549	6229.61
792.882	6213.11
793.214	6191.42
793.546	6165.43
793.879	6179.22
794.211	6155.71
794.543	6150.29
794.875	6120.91
795.207	6146.9
795.539	6087.24
795.871	6079.78
796.203	6017.41
796.535	5980.35
796.867	5988.94
797.198	5954.59
797.53	5984.87
797.862	5906.68
798.193	5957.75
798.525	5825.78
798.856	5898.55
799.188	5879.56
799.519	5848.38
799.85	5811.09
800.182	5867.81
800.513	5806.8
800.844	5755.5
801.175	5794.82
801.506	5715.27
801.837	5770.64
802.168	5750.98
802.499	5706.46
802.83	5671.66
803.161	5680.92
803.491	5652.22
803.822	5624.65
804.153	5619
804.483	5570.64
804.814	5592.34
805.145	5542.62
805.475	5549.85
805.805	5512.79
806.136	5559.8
806.466	5534.94
806.796	5434.6
807.126	5474.6
807.457	5470.31
807.787	5492.45
808.117	5454.94
808.447	5454.26
808.777	5469.18
809.107	5432.57
809.436	5390.31
809.766	5385.11
810.096	5369.52
810.426	5336.98
810.755	5328.39
811.085	5335.62
811.414	5318
811.744	5232.35
812.073	5235.51
812.403	5236.19
812.732	5237.09
813.061	5246.13
813.39	5206.36
813.719	5207.26
814.049	5219.92
814.378	5182.18
814.707	5144.44
815.036	5185.57
815.365	5103.99
815.693	5099.47
816.022	5079.13
816.351	5080.49
816.68	5058.79
817.008	5096.08
817.337	5088.17
817.665	5010.66
817.994	5057.44
818.322	5029.64
818.651	4999.81
818.979	4992.35
819.307	5019.47
819.636	4988.06
819.964	4915.52
820.292	5002.3
820.62	4937.44
820.948	4936.99
821.276	4975.41
821.604	4985.58
821.932	4960.94
822.259	4962.3
822.587	4940.6
822.915	4918.23
823.243	4929.08
823.57	4938.34
823.898	4967.27
824.225	4939.02
824.553	4917.55
824.88	4924.56
825.207	4926.82
825.535	4939.47
825.862	4950.1
826.189	4911.68
826.516	4936.76
826.843	4951.9
827.17	4920.27
827.497	4961.39
827.824	4980.83
828.151	4913.26
828.478	4951.68
828.805	4941.73
829.131	4862.87
829.458	4957.33
829.785	4893.83
830.111	4901.51
830.438	4908.29
830.764	4879.14
831.09	4871.23
831.417	4858.8
831.743	4900.38
832.069	4932.7
832.395	4880.04
832.722	4935.41
833.048	4922.75
833.374	4900.61
833.7	4836.65
834.026	4918.46
834.351	4847.05
834.677	4857.67
835.003	4880.49
835.329	4834.62
835.654	4850.89
835.98	4844.11
836.306	4806.14
836.631	4793.04
836.956	4871
837.282	4864.9
837.607	4798.91
837.932	4784.9
838.258	4799.59
838.583	4789.42
838.908	4814.96
839.233	4748.07
839.558	4797.33
839.883	4736.54
840.208	4771.12
840.533	4775.41
840.858	4795.75
841.182	4724.79
841.507	4765.47
841.832	4709.42
842.156	4749.42
842.481	4735.64
842.805	4692.48
843.13	4692.7
843.454	4648.18
843.778	4621.97
844.103	4654.74
844.427	4641.4
844.751	4652.7
845.075	4617.68
845.399	4645.25
845.723	4642.31
846.047	4543.1
846.371	4553.27
846.695	4539.49
847.019	4500.16
847.343	4501.29
847.666	4468.98
847.99	4439.37
848.313	4486.15
848.637	4435.76
848.96	4415.42
849.284	4439.6
849.607	4376.1
849.931	4362.77
850.254	4356.44
850.577	4311.24
850.9	4266.27
851.223	4301.53
851.546	4265.82
851.869	4209.32
852.192	4252.26
852.515	4226.73
852.838	4222.88
853.161	4200.74
853.483	4214.52
853.806	4185.14
854.129	4201.19
854.451	4160.06
854.774	4143.34
855.096	4160.74
855.419	4129.55
855.741	4100.17
856.063	4090.01
856.385	4124.35
856.708	4102.21
857.03	4081.19
857.352	4087.75
857.674	4068.54
857.996	4068.09
858.318	4046.84
858.64	4013.85
858.961	4025.37
859.283	3985.6
859.605	3995.77
859.926	4026.73
860.248	3934.53
860.57	4007.75
860.891	3963.23
861.212	3951.7
861.534	3950.12
861.855	3918.48
862.176	3900.41
862.498	3903.12
862.819	3899.05
863.14	3904.47
863.461	3907.19
863.782	3890.91
864.103	3891.37
864.424	3884.81
864.745	3901.76
865.065	3868.09
865.386	3873.29
865.707	3800.3
866.027	3842.1
866.348	3806.4
866.668	3816.57
866.989	3823.8
867.309	3779.51
867.63	3839.39
867.95	3771.14
868.27	3795.32
868.59	3819.5
868.91	3752.84
869.23	3781.99
869.55	3743.35
869.87	3752.84
870.19	3747.87
870.51	3727.98
870.83	3768.21
871.15	3727.08
871.469	3772.5
871.789	3736.12
872.109	3723.24
872.428	3662.67
872.748	3669.45
873.067	3687.08
873.386	3695.89
873.706	3744.7
874.025	3716.46
874.344	3639.17
874.663	3697.47
874.982	3675.33
875.301	3692.73
875.62	3717.13
875.939	3641.88
876.258	3701.54
876.577	3641.88
876.896	3657.93
877.214	3668.55
877.533	3633.97
877.852	3639.85
878.17	3673.75
878.489	3658.15
878.807	3649.34
879.125	3605.27
879.444	3567.99
879.762	3608.89
880.08	3627.19
880.398	3578.15
880.716	3564.14
881.034	3588.78
881.352	3591.71
881.67	3553.75
881.988	3552.62
882.306	3570.02
882.624	3531.6
882.941	3473.07
883.259	3502.22
883.577	3504.03
883.894	3495.9
884.212	3466.75
884.529	3504.94
884.846	3500.19
885.164	3448.44
885.481	3458.38
885.798	3495.67
886.115	3415.9
886.432	3472.39
886.75	3467.87
887.067	3442.56
887.383	3447.54
887.7	3424.26
888.017	3401.21
888.334	3402.57
888.651	3426.52
888.967	3395.33
889.284	3374.09
889.6	3381.32
889.917	3381.32
890.233	3349.69
890.55	3370.48
890.866	3364.83
891.182	3370.7
891.498	3356.01
891.815	3327.77
892.131	3312.4
892.447	3313.53
892.763	3298.16
893.079	3285.51
893.395	3273.3
893.71	3250.03
894.026	3253.42
894.342	3213.19
894.657	3226.98
894.973	3221.55
895.289	3229.69
895.604	3197.37
895.92	3167.09
896.235	3200.99
896.55	3186.07
896.865	3209.58
897.181	3159.86
897.496	3119.64
897.811	3149.24
898.126	3137.04
898.441	3113.76
898.756	3111.5
899.071	3090.26
899.386	3088
899.7	3081.44
900.015	3089.58
900.33	3041.45
900.644	3057.49
900.959	3045.06
901.273	3040.99
901.588	3001.22
901.902	3000.09
902.216	2981.56
902.531	3010.49
902.845	2982.92
903.159	2956.25
903.473	2957.83
903.787	2979.53
904.101	2929.81
904.415	2929.36
904.729	2909.7
905.042	2933.65
905.356	2908.12
905.67	2889.36
905.984	2902.47
906.297	2861.11
906.611	2834.22
906.924	2899.75
907.237	2878.29
907.551	2862.47
907.864	2831.96
908.177	2838.06
908.491	2811.17
908.804	2836.03
909.117	2762.81
909.43	2816.14
909.743	2763.49
910.056	2777.5
910.368	2759.64
910.681	2727.56
910.994	2746.99
911.307	2750.83
911.619	2706.76
911.932	2694.11
912.244	2677.16
912.557	2689.36
912.869	2664.05
913.181	2679.42
913.494	2626.99
913.806	2616.6
914.118	2591.29
914.43	2552.19
914.742	2614.79
915.054	2598.97
915.366	2592.42
915.678	2579.99
915.99	2593.32
916.302	2540.22
916.613	2519.2
916.925	2525.98
917.236	2517.17
917.548	2524.62
917.859	2499.31
918.171	2469.48
918.482	2477.39
918.794	2466.55
919.105	2484.17
919.416	2446.88
919.727	2454.57
920.038	2460.67
920.349	2432.65
920.66	2401.91
920.971	2422.7
921.282	2427
921.593	2401.01
921.903	2401.46
922.214	2363.05
922.525	2383.84
922.835	2370.5
923.146	2367.34
923.456	2339.32
923.767	2341.35
924.077	2320.11
924.387	2323.27
924.697	2299.77
925.008	2309.94
925.318	2320.33
925.628	2276.95
925.938	2274.69
926.248	2251.64
926.558	2246.66
926.867	2255.93
927.177	2247.57
927.487	2247.12
927.796	2247.79
928.106	2222.71
928.416	2240.11
928.725	2206.21
929.034	2201.92
929.344	2231.52
929.653	2172.99
929.962	2188.81
930.271	2187
930.581	2160.34
930.89	2160.79
931.199	2135.93
931.508	2112.66
931.817	2122.37
932.125	2111.07
932.434	2119.66
932.743	2117.63
933.051	2061.13
933.36	2074.24
933.669	2079.89
933.977	2050.74
934.286	2062.94
934.594	2054.35
934.902	2015.03
935.21	2026.1
935.519	2034.47
935.827	2041.7
936.135	2001.92
936.443	2003.51
936.751	2012.32
937.059	2026.1
937.367	1994.69
937.674	2004.18
937.982	1967.58
938.29	1956.95
938.597	1968.93
938.905	1940.01
939.213	1918.54
939.52	1922.15
939.827	1925.77
940.135	1884.19
940.442	1958.76
940.749	1893.91
941.056	1895.26
941.363	1895.49
941.67	1924.64
941.977	1873.79
942.284	1880.35
942.591	1841.03
942.898	1843.96
943.205	1857.97
943.511	1856.84
943.818	1843.51
944.125	1806.45
944.431	1836.51
944.738	1809.16
945.044	1808.71
945.35	1819.33
945.657	1793.12
945.963	1762.84
946.269	1757.19
946.575	1792.44
946.881	1775.04
947.187	1773.23
947.493	1742.72
947.799	1735.49
948.105	1728.03
948.41	1736.62
948.716	1740.46
949.022	1726.45
949.327	1731.65
949.633	1701.82
949.938	1688.94
950.244	1678.32
950.549	1701.37
950.854	1678.77
951.16	1666.57
951.465	1643.52
951.77	1664.31
952.075	1647.58
952.38	1655.04
952.685	1638.32
952.99	1646
953.294	1636.51
953.599	1656.17
953.904	1649.62
954.209	1613.23
954.513	1588.15
954.818	1610.97
955.122	1566.46
955.426	1574.37
955.731	1595.83
956.035	1598.77
956.339	1596.29
956.643	1604.2
956.948	1575.72
957.252	1555.83
957.556	1547.02
957.86	1531.43
958.163	1546.8
958.467	1543.63
958.771	1561.26
959.075	1551.99
959.378	1534.82
959.682	1556.96
959.985	1517.87
960.289	1509.06
960.592	1508.38
960.896	1477.87
961.199	1469.28
961.502	1504.54
961.805	1478.32
962.108	1441.26
962.411	1484.2
962.714	1472.45
963.017	1459.79
963.32	1455.72
963.623	1456.4
963.926	1436.74
964.228	1410.98
964.531	1421.6
964.833	1455.05
965.136	1417.76
965.438	1431.54
965.741	1390.19
966.043	1402.39
966.345	1400.58
966.648	1398.32
966.95	1386.35
967.252	1393.81
967.554	1386.12
967.856	1387.7
968.158	1357.2
968.46	1386.35
968.761	1375.95
969.063	1347.48
969.365	1339.34
969.666	1334.37
969.968	1334.82
970.269	1329.17
970.571	1330.3
970.872	1347.48
971.174	1309.51
971.475	1306.12
971.776	1299.57
972.077	1296.86
972.378	1297.54
972.679	1316.29
972.98	1293.02
973.281	1300.47
973.582	1275.84
973.883	1273.81
974.183	1284.66
974.484	1291.89
974.785	1257.09
975.085	1260.48
975.386	1257.09
975.686	1269.51
975.986	1234.04
976.287	1240.36
976.587	1228.16
976.887	1218.44
977.187	1228.61
977.487	1268.84
977.787	1222.06
978.087	1224.32
978.387	1198.33
978.687	1212.79
978.987	1196.52
979.286	1195.62
979.586	1211.66
979.885	1211.66
980.185	1204.43
980.484	1187.71
980.784	1167.6
981.083	1177.77
981.382	1186.58
981.682	1168.73
981.981	1165.79
982.28	1166.47
982.579	1143.42
982.878	1155.85
983.177	1160.14
983.475	1142.06
983.774	1129.18
984.073	1126.92
984.372	1129.18
984.67	1125.34
984.969	1142.29
985.267	1119.46
985.566	1115.85
985.864	1097.99
986.162	1112.68
986.461	1108.16
986.759	1104.55
987.057	1087.6
987.355	1076.07
987.653	1088.05
987.951	1073.81
988.249	1065.68
988.547	1084.21
988.844	1048.05
989.142	1063.64
989.44	1085.79
989.737	1062.74
990.035	1049.18
990.332	1050.54
990.63	1064.32
990.927	1052.57
991.224	1023.65
991.521	1016.19
991.819	1009.18
992.116	1025.23
992.413	1006.7
992.71	1024.32
993.006	1011.22
993.303	1015.06
993.6	1009.63
993.897	1033.36
994.193	997.88
994.49	992.91
994.787	1001.27
995.083	1000.6
995.379	994.95
995.676	978.9
995.972	977.54
996.268	1013.7
996.565	988.17
996.861	980.48
997.157	955.4
997.453	978
997.749	947.72
998.044	960.82
998.34	954.72
998.636	959.01
998.932	945.23
999.227	940.94
999.523	947.94
999.818	956.75
1000.114	926.92
1000.409	930.31
1000.704	922.63
1001	909.98
1001.295	916.76
1001.59	903.65
1001.885	918.34
1002.18	912.01
1002.475	898.68
1002.77	900.26
1003.065	879.92
1003.359	880.82
1003.654	878.79
1003.949	876.3
1004.243	874.04
1004.538	863.88
1004.832	860.03
1005.127	869.75
1005.421	840.6
1005.715	869.53
1006.009	838.34
1006.304	871.33
1006.598	846.7
1006.892	824.55
1007.186	860.94
1007.48	831.56
1007.773	830.43
1008.067	839.02
1008.361	826.59
1008.655	803.09
1008.948	812.8
1009.242	833.14
1009.535	829.07
1009.829	794.95
1010.122	803.54
1010.415	790.21
1010.708	778.45
1011.001	805.57
1011.295	789.75
1011.588	804.89
1011.881	775.97
1012.173	786.14
1012.466	788.62
1012.759	795.18
1013.052	772.8
1013.344	771
1013.637	771.67
1013.93	770.54
1014.222	777.1
1014.514	770.54
1014.807	762.18
1015.099	770.09
1015.391	774.84
1015.683	752.92
1015.976	746.14
1016.268	738
1016.56	755.63
1016.851	739.13
1017.143	751.11
1017.435	735.29
1017.727	752.69
1018.018	727.61
1018.31	723.99
1018.602	720.15
1018.893	706.59
1019.185	701.85
1019.476	697.33
1019.767	696.2
1020.058	693.03
1020.35	691.22
1020.641	679.7
1020.932	699.59
1021.223	692.81
1021.514	672.92
1021.804	660.72
1022.095	689.19
1022.386	711.11
1022.677	683.77
1022.967	660.94
1023.258	678.34
1023.548	670.89
1023.839	645.12
1024.129	646.03
1024.419	665.91
1024.709	656.88
1025	641.06
1025.29	654.84
1025.58	626.14
1025.87	643.54
1026.16	633.83
1026.449	632.24
1026.739	629.08
1027.029	606.03
1027.319	622.3
1027.608	625.46
1027.898	605.8
1028.187	620.27
1028.477	617.1
1028.766	626.82
1029.055	614.39
1029.344	606.93
1029.634	605.13
1029.923	615.52
1030.212	610.32
1030.501	617.78
1030.79	609.42
1031.078	575.97
1031.367	584.56
1031.656	609.64
1031.945	571.45
1032.233	584.79
1032.522	584.33
1032.81	577.1
1033.099	589.98
1033.387	567.61
1033.675	574.62
1033.963	580.95
1034.251	576.65
1034.54	583.88
1034.828	570.78
1035.116	566.71
1035.403	563.32
1035.691	563.54
1035.979	557.44
1036.267	568.52
1036.554	534.62
1036.842	524.9
1037.129	537.33
1037.417	555.18
1037.704	550.89
1037.992	552.25
1038.279	552.02
1038.566	527.39
1038.853	527.39
1039.14	527.39
