Data from black_metal_pc_casing_FLMS001491_00051.txt Node
Date: Wed Feb 08 14:33:03 GMT 2017
User: dcchb
Spectrometer: FLMS00149
Trigger mode: 0
Integration Time (sec): 2.000000E-2
Scans to average: 10
Electric dark correction enabled: true
Nonlinearity correction enabled: false
Boxcar width: 0
XAxis mode: Wavelengths
Number of Pixels in Spectrum: 2048
>>>>>Begin Spectral Data<<<<<
341.393	9.87
341.776	9.87
342.16	9.87
342.543	-48.66
342.927	-64.25
343.31	-63.8
343.693	-62.22
344.077	-64.48
344.46	-45.95
344.843	-42.56
345.226	-47.53
345.61	-31.71
345.993	-21.54
346.376	-9.34
346.759	-9.79
347.142	22.53
347.525	39.93
347.908	65.69
348.291	62.3
348.674	100.72
349.057	107.72
349.44	95.97
349.823	121.51
350.206	155.41
350.588	199.92
350.971	190.88
351.354	217.1
351.737	227.04
352.119	238.57
352.502	246.02
352.884	255.06
353.267	290.77
353.65	281.28
354.032	302.07
354.414	295.74
354.797	295.74
355.179	313.37
355.562	316.08
355.944	338.45
356.326	332.12
356.709	300.03
357.091	328.28
357.473	329.41
357.855	338.23
358.238	333.03
358.62	345.46
359.002	316.76
359.384	321.05
359.766	326.02
360.148	321.73
360.53	318.79
360.912	333.93
361.294	308.62
361.676	340.03
362.057	323.99
362.439	318.11
362.821	338.45
363.203	302.75
363.584	306.81
363.966	309.53
364.348	307.94
364.729	318.34
365.111	316.53
365.493	298
365.874	324.44
366.256	291.67
366.637	315.18
367.019	300.71
367.4	319.24
367.781	295.29
368.163	313.14
368.544	325.8
368.925	308.62
369.306	327.38
369.688	321.73
370.069	321.28
370.45	326.7
370.831	311.79
371.212	304.33
371.593	338
371.974	317.21
372.355	319.92
372.736	306.14
373.117	313.82
373.498	312.46
373.879	315.85
374.26	327.38
374.641	300.03
375.021	313.59
375.402	298.9
375.783	341.62
376.163	327.15
376.544	341.84
376.925	337.32
377.305	331.45
377.686	328.28
378.066	328.06
378.447	331.67
378.827	341.84
379.208	318.57
379.588	338.68
379.968	330.32
380.349	352.46
380.729	339.13
381.109	355.85
381.489	359.47
381.87	342.75
382.25	336.87
382.63	328.96
383.01	336.87
383.39	350.2
383.77	360.6
384.15	359.24
384.53	356.53
384.91	348.85
385.29	373.03
385.67	354.5
386.049	329.86
386.429	362.63
386.809	370.32
387.189	357.89
387.568	374.16
387.948	354.95
388.328	388.85
388.707	393.14
389.087	369.19
389.466	392.01
389.846	374.83
390.225	364.67
390.605	372.35
390.984	383.87
391.363	384.55
391.743	409.64
392.122	406.25
392.501	392.91
392.881	386.36
393.26	401.27
393.639	392.91
394.018	393.82
394.397	389.52
394.776	400.82
395.155	405.79
395.534	418.45
395.913	403.76
396.292	427.04
396.671	413.25
397.05	418
397.429	410.54
397.808	415.74
398.186	424.55
398.565	427.04
398.944	450.31
399.323	450.54
399.701	414.38
400.08	411.9
400.458	423.65
400.837	437.66
401.215	453.02
401.594	442.86
401.972	444.21
402.351	460.26
402.729	446.47
403.107	453.02
403.486	441.73
403.864	440.6
404.242	465.68
404.62	454.15
404.999	472.46
405.377	464.32
405.755	486.47
406.133	480.14
406.511	476.98
406.889	484.66
407.267	482.85
407.645	473.82
408.023	485.34
408.401	480.82
408.779	484.21
409.156	520.37
409.534	513.81
409.912	525.79
410.29	511.78
410.667	536.41
411.045	545
411.422	511.33
411.8	522.85
412.178	544.55
412.555	526.92
412.933	529.86
413.31	556.52
413.687	573.47
414.065	537.09
414.442	540.93
414.819	584.77
415.197	548.62
415.574	554.49
415.951	554.94
416.328	586.35
416.705	571.89
417.082	602.4
417.46	591.78
417.837	602.4
418.214	584.77
418.591	601.95
418.967	577.54
419.344	607.15
419.721	624.55
420.098	613.25
420.475	610.53
420.852	631.1
421.228	627.48
421.605	628.84
421.982	658.9
422.358	640.36
422.735	618.44
423.111	662.06
423.488	650.08
423.864	661.61
424.241	667.48
424.617	674.94
424.994	659.12
425.37	681.49
425.746	677.88
426.123	696.18
426.499	689.18
426.875	703.87
427.251	692.79
427.627	728.72
428.003	709.97
428.379	723.53
428.756	737.76
429.132	721.04
429.507	744.09
429.883	752.23
430.259	758.1
430.635	759.01
431.011	764.66
431.387	794.94
431.763	796.97
432.138	797.42
432.514	797.65
432.89	812.56
433.265	818.66
433.641	799.46
434.016	827.25
434.392	845.56
434.767	840.13
435.143	875.16
435.518	855.27
435.894	864.31
436.269	864.77
436.644	887.14
437.02	907.93
437.395	871.54
437.77	908.61
438.145	930.53
438.52	916.06
438.895	907.48
439.271	942.96
439.646	912.22
440.021	954.03
440.395	978.21
440.77	919.68
441.145	945.67
441.52	980.24
441.895	953.12
442.27	974.14
442.645	981.37
443.019	954.03
443.394	996.51
443.769	1007.13
444.143	980.92
444.518	1003.29
444.892	997.19
445.267	1014.82
445.641	1005.55
446.016	1015.72
446.39	1028.6
446.764	1022.05
447.139	1038.32
447.513	1056.85
447.887	1060.47
448.262	1040.81
448.636	1053.91
449.01	1089.84
449.384	1053.24
449.758	1093.91
450.132	1099.56
450.506	1120.35
450.88	1084.42
451.254	1118.09
451.628	1124.65
452.002	1157.87
452.376	1140.01
452.75	1142.05
453.123	1157.87
453.497	1181.82
453.871	1176.85
454.244	1203.51
454.618	1235.38
454.992	1202.84
455.365	1227.92
455.739	1250.29
456.112	1279.9
456.486	1254.81
456.859	1231.76
457.232	1293
457.606	1302.72
457.979	1314.47
458.352	1327.13
458.725	1361.02
459.099	1337.3
459.472	1394.69
459.845	1393.11
460.218	1424.3
460.591	1409.84
460.964	1383.17
461.337	1440.8
461.71	1449.61
462.083	1472.89
462.456	1492.32
462.829	1493
463.201	1514.24
463.574	1515.82
463.947	1539.78
464.32	1544.97
464.692	1600.57
465.065	1561.02
465.438	1617.97
465.81	1650.06
466.183	1644.63
466.555	1657.51
466.928	1655.93
467.3	1662.94
467.672	1683.27
468.045	1749.94
468.417	1753.78
468.789	1742.03
469.161	1793.33
469.534	1789.03
469.906	1814.57
470.278	1822.03
470.65	1890.05
471.022	1903.61
471.394	1905.19
471.766	1930.73
472.138	1966.21
472.51	1972.31
472.882	2021.8
473.253	2056.37
473.625	2073.32
473.997	2118.07
474.369	2131.85
474.74	2132.08
475.112	2143.15
475.484	2197.61
475.855	2210.04
476.227	2239.87
476.598	2319.87
476.97	2338.4
477.341	2374.1
477.713	2407.55
478.084	2417.27
478.455	2469.69
478.827	2537.94
479.198	2556.25
479.569	2536.81
479.94	2628.56
480.311	2647.32
480.682	2712.4
481.053	2727.77
481.424	2761.66
481.795	2803.7
482.166	2837.82
482.537	2873.53
482.908	2953.52
483.279	2957.82
483.65	2984.94
484.021	3056.35
484.391	3111.71
484.762	3146.29
485.133	3144.25
485.503	3208.88
485.874	3257.24
486.244	3303.57
486.615	3364.13
486.985	3397.13
487.356	3459.5
487.726	3478.93
488.097	3515.09
488.467	3540.85
488.837	3633.51
489.207	3634.86
489.578	3723.22
489.948	3763.45
490.318	3755.08
490.688	3763.67
491.058	3870.79
491.428	3907.4
491.798	3903.78
492.168	3990.56
492.538	4046.6
492.908	4039.6
493.278	4129.76
493.648	4081.18
494.017	4148.75
494.387	4207.05
494.757	4234.62
495.126	4245.02
495.496	4289.08
495.866	4349.19
496.235	4404.79
496.605	4351.91
496.974	4475.74
497.344	4489.3
497.713	4570.88
498.082	4567.27
498.452	4609.98
498.821	4611.11
499.19	4641.84
499.559	4700.82
499.928	4717.55
500.298	4695.4
500.667	4766.81
501.036	4723.2
501.405	4809.75
501.774	4799.58
502.143	4841.61
502.512	4902.4
502.88	4939.69
503.249	4951.21
503.618	4990.31
503.987	5026.46
504.356	5063.98
504.724	5074.6
505.093	5098.55
505.462	5105.33
505.83	5153.47
506.199	5141.26
506.567	5287.47
506.936	5228.72
507.304	5325.44
507.672	5325.89
508.041	5404.31
508.409	5426.91
508.777	5498.99
509.145	5485.21
509.514	5530.18
509.882	5534.47
510.25	5530.18
510.618	5590.74
510.986	5639.1
511.354	5670.51
511.722	5744.64
512.09	5793.22
512.458	5815.6
512.826	5802.04
513.193	5835.48
513.561	5947.57
513.929	5957.06
514.297	6037.51
514.664	6025.99
515.032	6019.43
515.4	6103.5
515.767	6138.53
516.135	6164.06
516.502	6159.54
516.869	6280.89
517.237	6266.43
517.604	6301.46
517.972	6373.77
518.339	6390.5
518.706	6377.61
519.073	6494.45
519.44	6538.74
519.808	6547.78
520.175	6565.18
520.542	6668.68
520.909	6660.09
521.276	6710.04
521.643	6777.15
522.009	6834.1
522.376	6904.61
522.743	6870.94
523.11	7045.17
523.477	7029.35
523.843	7146.41
524.21	7182.57
524.577	7259.85
524.943	7313.64
525.31	7296.69
525.676	7422.56
526.043	7398.38
526.409	7442.67
526.776	7511.82
527.142	7586.62
527.508	7620.97
527.874	7662.78
528.241	7758.14
528.607	7762.66
528.973	7860.29
529.339	7847.18
529.705	7903
530.071	8004.24
530.437	8024.8
530.803	8068.64
531.169	8103.67
531.535	8098.25
531.901	8172.14
532.267	8187.74
532.632	8292.14
532.998	8298.47
533.364	8349.77
533.73	8339.6
534.095	8450.1
534.461	8409.2
534.826	8527.84
535.192	8605.13
535.557	8610.55
535.923	8604.45
536.288	8670.66
536.653	8755.18
537.019	8678.57
537.384	8812.35
537.749	8778.23
538.114	8764.67
538.479	8765.8
538.845	8812.58
539.21	8787.49
539.575	8893.03
539.94	8960.6
540.305	9057.77
540.67	9024.78
541.034	9043.53
541.399	9105.45
541.764	9152.23
542.129	9112.68
542.494	9212.12
542.858	9226.13
543.223	9292.79
543.587	9258.67
543.952	9251.89
544.316	9390.42
544.681	9376.41
545.045	9371.89
545.41	9447.59
545.774	9449.17
546.138	9396.97
546.503	9520.13
546.867	9527.36
547.231	9549.73
547.595	9642.84
547.959	9711.54
548.324	9669.73
548.688	9705.21
549.052	9719.67
549.416	9785.21
549.779	9759.67
550.143	9801.25
550.507	9888.93
550.871	9949.27
551.235	9909.95
551.599	9965.77
551.962	10000.12
552.326	10027.69
552.689	10078.08
553.053	10012.55
553.417	10058.65
553.78	10245.99
554.143	10221.81
554.507	10282.82
554.87	10264.52
555.234	10457.51
555.597	10323.05
555.96	10408.47
556.323	10415.7
556.686	10452.54
557.05	10540.22
557.413	10626.32
557.776	10597.39
558.139	10677.84
558.502	10757.39
558.865	10707.22
559.228	10775.47
559.59	10892.75
559.953	10836.03
560.316	11041.22
560.679	10949.02
561.041	11123.03
561.404	11076.02
561.767	11186.3
562.129	11133.2
562.492	11264.72
562.854	11240.76
563.217	11297.94
563.579	11330.25
563.941	11428.56
564.304	11457.03
564.666	11631.94
565.028	11558.27
565.39	11596.46
565.753	11660.41
566.115	11745.84
566.477	11821.99
566.839	11817.02
567.201	11834.19
567.563	11912.16
567.925	11979.28
568.287	11994.64
568.648	11999.84
569.01	12114.41
569.372	12229.66
569.734	12072.83
570.095	12299.94
570.457	12191.02
570.819	12283.22
571.18	12420.62
571.542	12397.34
571.903	12404.35
572.265	12398.7
572.626	12501.52
572.987	12494.52
573.349	12572.03
573.71	12515.76
574.071	12659.94
574.432	12709.65
574.794	12748.75
575.155	12763.21
575.516	12726.6
575.877	12779.25
576.238	12690.22
576.599	12837.11
576.96	12889.53
577.32	12838.01
577.681	12956.2
578.042	12938.12
578.403	12928.63
578.763	13017.67
579.124	12976.31
579.485	13047.04
579.845	13012.92
580.206	13014.95
580.566	13060.6
580.927	13050.66
581.287	13113.03
581.648	13068.29
582.008	13121.39
582.368	13139.7
582.728	13165.91
583.089	13190.77
583.449	13119.36
583.809	13165.46
584.169	13163.2
584.529	13120.71
584.889	13240.71
585.249	13155.29
585.609	13149.64
585.969	13271.67
586.329	13263.99
586.688	13242.07
587.048	13205.23
587.408	13165.23
587.768	13107.61
588.127	13173.14
588.487	13217.21
588.846	13298.34
589.206	13246.13
589.565	13188.28
589.925	13240.03
590.284	13252.01
590.643	13262.41
591.003	13294.72
591.362	13241.62
591.721	13263.31
592.08	13293.59
592.44	13327.49
592.799	13314.61
593.158	13219.69
593.517	13240.26
593.876	13301.5
594.235	13308.28
594.593	13257.66
594.952	13318.45
595.311	13264.89
595.67	13240.94
596.029	13401.61
596.387	13404.77
596.746	13445
597.104	13333.59
597.463	13316.19
597.822	13396.19
598.18	13299.01
598.538	13332.91
598.897	13438.67
599.255	13273.7
599.613	13478.9
599.972	13461.95
600.33	13500.14
600.688	13473.25
601.046	13588.5
601.404	13543.98
601.762	13511.89
602.12	13669.63
602.478	13536.97
602.836	13557.31
603.194	13500.59
603.552	13543.08
603.91	13445
604.268	13534.26
604.625	13593.92
604.983	13624.66
605.341	13597.31
605.698	13593.24
606.056	13696.97
606.413	13569.74
606.771	13645.22
607.128	13634.83
607.485	13647.48
607.843	13625.56
608.2	13732.45
608.557	13858.32
608.914	13717.99
609.272	13812.9
609.629	13829.85
609.986	13875.04
610.343	13835.72
610.7	13903.07
611.057	13891.54
611.414	13870.07
611.771	13892.67
612.127	13955.49
612.484	13876.4
612.841	14020.58
613.198	13936.96
613.554	13909.85
613.911	13975.61
614.267	14027.13
614.624	14056.96
614.98	14052.67
615.337	13997.3
615.693	14035.04
616.05	14017.64
616.406	14192.78
616.762	14039.56
617.118	14029.84
617.475	13987.36
617.831	14143.96
618.187	14120.91
618.543	14069.16
618.899	14124.98
619.255	14231.42
619.611	14197.97
619.967	14105.1
620.323	14189.84
620.678	14280.23
621.034	14222.38
621.39	14132.89
621.746	14168.82
622.101	14337.86
622.457	14180.57
622.812	14301.25
623.168	14233.68
623.523	14284.07
623.879	14231.19
624.234	14164.3
624.589	14297.86
624.945	14236.39
625.3	14201.36
625.655	14205.21
626.01	14153.91
626.365	14221.48
626.72	14275.26
627.075	14235.71
627.43	14255.83
627.785	14157.75
628.14	14183.06
628.495	14285.2
628.85	14234.81
629.205	14186.22
629.559	14286.33
629.914	14127.24
630.269	14152.55
630.623	14150.97
630.978	14137.18
631.332	14186.68
631.687	14141.48
632.041	14099.67
632.396	14125.89
632.75	14124.98
633.104	14175.38
633.459	14064.19
633.813	14104.64
634.167	14071.65
634.521	14056.06
634.875	14047.47
635.229	14044.31
635.583	14047.47
635.937	13973.12
636.291	13943.07
636.645	13960.92
636.999	13958.43
637.352	13986.23
637.706	13818.32
638.06	13917.98
638.413	13844.76
638.767	13824.65
639.121	13823.52
639.474	13792.11
639.828	13776.74
640.181	13829.85
640.534	13789.17
640.888	13747.59
641.241	13673.92
641.594	13684.09
641.947	13690.19
642.301	13667.82
642.654	13707.37
643.007	13767.93
643.36	13645.22
643.713	13594.37
644.066	13655.16
644.419	13615.16
644.771	13485.45
645.124	13367.04
645.477	13340.37
645.83	13286.59
646.182	13264.21
646.535	13110.09
646.888	13295.4
647.24	13133.37
647.593	13252.01
647.945	13205.46
648.298	13134.27
648.65	13040.72
649.002	12988.97
649.355	13074.61
649.707	13110.09
650.059	13080.04
650.411	13324.55
650.763	13356.87
651.115	13364.1
651.467	13340.14
651.819	13382.4
652.171	13370.65
652.523	13294.95
652.875	13342.18
653.227	13253.82
653.578	13293.59
653.93	13282.07
654.282	13238.23
654.633	13225.12
654.985	13269.86
655.337	13210.43
655.688	13230.77
656.039	13246.13
656.391	13043.88
656.742	13106.48
657.094	13208.62
657.445	13196.64
657.796	13146.48
658.147	13116.42
658.498	13072.13
658.849	13125.69
659.2	13114.84
659.551	13073.26
659.902	13077.33
660.253	12986.71
660.604	13080.26
660.955	13031.23
661.306	13022.86
661.656	13004.79
662.007	13074.16
662.358	13054.28
662.708	13077.55
663.059	13052.02
663.409	13002.75
663.76	13038
664.11	13038.46
664.461	13024.22
664.811	13035.07
665.161	12980.83
665.511	12860.83
665.862	12918.91
666.212	13039.81
666.562	12986.71
666.912	13011.34
667.262	12897.44
667.612	12944.67
667.962	12931.34
668.312	12931.34
668.662	13048.63
669.011	13034.16
669.361	12953.26
669.711	12927.05
670.06	12967.05
670.41	12878.69
670.76	12833.49
671.109	12928.85
671.459	12888.86
671.808	12827.61
672.157	12899.25
672.507	12783.1
672.856	12794.4
673.205	12824.22
673.554	12826.26
673.904	12735.64
674.253	12826.03
674.602	12852.7
674.951	12631.46
675.3	12599.82
675.649	12808.18
675.998	12717.34
676.346	12717.34
676.695	12807.95
677.044	12655.64
677.393	12775.64
677.741	12722.53
678.09	12684.79
678.438	12629.2
678.787	12732.02
679.135	12656.09
679.484	12619.71
679.832	12561.18
680.181	12580.84
680.529	12587.85
680.877	12628.3
681.225	12530
681.573	12591.24
681.922	12459.26
682.27	12451.35
682.618	12481.64
682.966	12448.19
683.314	12475.76
683.661	12433.05
684.009	12381.98
684.357	12377.68
684.705	12370
685.053	12379.72
685.4	12350.79
685.748	12278.25
686.095	12354.41
686.443	12311.47
686.79	12255.65
687.138	12237.8
687.485	12195.77
687.832	12073.96
688.18	12150.8
688.527	12139.05
688.874	12102.89
689.221	12106.96
689.568	12063.79
689.915	12044.81
690.262	12015.21
690.609	11920.75
690.956	11926.85
691.303	11868.32
691.65	11866.51
691.997	11928.66
692.344	11828.09
692.69	11806.62
693.037	11792.84
693.383	11697.7
693.73	11672.39
694.077	11689.57
694.423	11626.29
694.769	11561.66
695.116	11597.82
695.462	11565.73
695.808	11529.8
696.155	11503.13
696.501	11455.45
696.847	11456.8
697.193	11407.31
697.539	11381.1
697.885	11317.6
698.231	11325.96
698.577	11256.13
698.923	11311.72
699.269	11252.06
699.614	11153.53
699.96	11120.54
700.306	11143.82
700.651	11175.45
700.997	11051.62
701.342	11053.2
701.688	10982.01
702.033	10948.79
702.379	10984.95
702.724	10933.43
703.069	11027.89
703.415	10840.1
703.76	10907.89
704.105	10907.67
704.45	10861.34
704.795	10823.15
705.14	10768.69
705.485	10748.12
705.83	10629.25
706.175	10678.74
706.52	10665.41
706.865	10562.59
707.209	10605.3
707.554	10510.39
707.899	10599.2
708.243	10536.38
708.588	10553.55
708.932	10495.25
709.277	10415.93
709.621	10464.51
709.966	10396.49
710.31	10352.43
710.654	10358.53
710.998	10275.14
711.342	10335.25
711.687	10341.8
712.031	10333.67
712.375	10218.64
712.719	10246.21
713.063	10211.86
713.407	10252.32
713.75	10168.25
714.094	10080.12
714.438	10084.86
714.782	10115.6
715.125	10095.94
715.469	10137.06
715.812	10087.12
716.156	10030.17
716.499	9981.59
716.843	10008.48
717.186	9996.5
717.53	9970.06
717.873	9958.31
718.216	9970.51
718.559	9891.42
718.902	9843.74
719.246	9879.9
719.589	9776.17
719.932	9775.04
720.275	9777.07
720.617	9792.44
720.96	9744.98
721.303	9776.62
721.646	9810.97
721.989	9692.1
722.331	9722.39
722.674	9746.11
723.016	9779.79
723.359	9711.31
723.701	9640.13
724.044	9698.66
724.386	9559.9
724.729	9653.23
725.071	9608.49
725.413	9627.25
725.755	9566.91
726.097	9608.26
726.439	9541.6
726.782	9546.57
727.124	9557.64
727.465	9464.54
727.807	9472.9
728.149	9457.31
728.491	9428.61
728.833	9453.69
729.175	9455.95
729.516	9464.54
729.858	9354.71
730.199	9385.22
730.541	9398.1
730.882	9462.51
731.224	9407.82
731.565	9314.26
731.906	9318.1
732.248	9306.35
732.589	9220.7
732.93	9274.26
733.271	9252.12
733.612	9172.8
733.953	9213.92
734.294	9117.43
734.635	9115.62
734.976	9222.06
735.317	9204.21
735.658	9193.36
735.999	9138.45
736.339	9104.55
736.68	9169.86
737.021	9117.66
737.361	9065.45
737.702	9173.25
738.042	9129.18
738.383	9080.14
738.723	8990.88
739.063	8972.57
739.404	9049.41
739.744	9021.84
740.084	8947.94
740.424	8961.95
740.764	9020.71
741.104	9025.23
741.444	8973.48
741.784	8941.16
742.124	8867.72
742.464	8846.7
742.804	8868.4
743.143	8808.29
743.483	8857.55
743.823	8847.83
744.162	8782.98
744.502	8801.51
744.841	8756.54
745.181	8777.78
745.52	8762.86
745.86	8808.51
746.199	8741.62
746.538	8694.16
746.877	8726.03
747.216	8707.27
747.556	8690.55
747.895	8669.31
748.234	8740.26
748.573	8668.18
748.911	8625.47
749.25	8586.82
749.589	8621.85
749.928	8577.1
750.267	8571
750.605	8551.34
750.944	8620.72
751.283	8577.56
751.621	8524
751.96	8459.82
752.298	8549.76
752.636	8516.99
752.975	8422.53
753.313	8402.42
753.651	8436.77
753.989	8388.41
754.327	8361.07
754.666	8328.75
755.004	8366.26
755.342	8411.69
755.679	8378.47
756.017	8267.96
756.355	8234.74
756.693	8225.02
757.031	8252.59
757.368	8210.33
757.706	8152.94
758.044	8159.26
758.381	8165.36
758.719	8081.3
759.056	8121.98
759.394	8105.48
759.731	8140.96
760.068	8111.13
760.405	8011.7
760.743	7977.57
761.08	8049.66
761.417	7929.44
761.754	7937.12
762.091	7903.9
762.428	7837.01
762.765	7807.63
763.102	7832.49
763.438	7784.36
763.775	7757.69
764.112	7717.92
764.449	7752.49
764.785	7836.56
765.122	7704.81
765.458	7639.28
765.795	7661.42
766.131	7665.94
766.467	7612.16
766.804	7570.13
767.14	7459.17
767.476	7562.22
767.812	7439.51
768.148	7538.94
768.485	7465.5
768.821	7440.64
769.157	7466.63
769.492	7415.1
769.828	7411.49
770.164	7345.05
770.5	7306.4
770.836	7321.54
771.171	7317.48
771.507	7272.73
771.842	7171.04
772.178	7226.63
772.513	7149.12
772.849	7193.19
773.184	7147.54
773.519	7120.65
773.855	7109.8
774.19	7046.98
774.525	7122.23
774.86	7043.13
775.195	7038.39
775.53	6974.44
775.865	6959.75
776.2	6932.4
776.535	6899.18
776.87	6934.21
777.205	6846.98
777.539	6856.25
777.874	6839.3
778.209	6769.47
778.543	6758.17
778.878	6736.7
779.212	6729.7
779.547	6715.23
779.881	6691.96
780.215	6640.21
780.55	6640.66
780.884	6633.43
781.218	6533.77
781.552	6519.76
781.886	6499.87
782.22	6495.35
782.554	6499.65
782.888	6430.49
783.222	6434.34
783.556	6384.62
783.889	6404.96
784.223	6287.45
784.557	6370.84
784.89	6324.28
785.224	6286.32
785.557	6266.21
785.891	6288.58
786.224	6267.34
786.558	6223.49
786.891	6168.35
787.224	6190.05
787.557	6110.05
787.891	6174.23
788.224	6139.2
788.557	6137.85
788.89	6047
789.223	6103.05
789.556	6007.46
789.888	6038.41
790.221	5986.89
790.554	5952.77
790.887	5905.08
791.219	5931.3
791.552	5975.37
791.884	5857.63
792.217	5832.77
792.549	5832.77
792.882	5822.83
793.214	5832.54
793.546	5801.36
793.879	5753.22
794.211	5705.54
794.543	5777.4
794.875	5701.47
795.207	5707.8
795.539	5685.43
795.871	5677.75
796.203	5613.12
796.535	5570.86
796.867	5580.12
797.198	5508.94
797.53	5627.35
797.862	5595.26
798.193	5553.23
798.525	5505.32
798.856	5564.53
799.188	5446.57
799.519	5451.99
799.85	5388.94
800.182	5459.22
800.513	5410.18
800.844	5413.35
801.175	5403.18
801.506	5401.82
801.837	5377.42
802.168	5322.95
802.499	5314.14
802.83	5322.05
803.161	5314.82
803.491	5274.59
803.822	5297.19
804.153	5236.4
804.483	5204.09
804.814	5224.2
805.145	5213.58
805.475	5165.44
805.805	5202.05
806.136	5183.52
806.466	5212.45
806.796	5136.07
807.126	5110.98
807.457	5113.47
807.787	5106.46
808.117	5113.47
808.447	5094.03
808.777	5083.86
809.107	5042.73
809.436	5080.7
809.766	5053.36
810.096	5065.78
810.426	5013.58
810.755	5031.89
811.085	4973.36
811.414	4948.73
811.744	4931.33
812.073	4955.05
812.403	4928.84
812.732	4918.9
813.061	4932.68
813.39	4880.03
813.719	4887.94
814.049	4903.76
814.378	4820.37
814.707	4866.69
815.036	4800.48
815.365	4838.9
815.693	4819.69
816.022	4819.69
816.351	4796.41
816.68	4765.68
817.008	4743.99
817.337	4729.3
817.665	4706.02
817.994	4705.12
818.322	4682.52
818.651	4715.06
818.979	4711.44
819.307	4700.14
819.636	4712.12
819.964	4649.07
820.292	4677.55
820.62	4662.86
820.948	4671.22
821.276	4680.03
821.604	4609.53
821.932	4691.33
822.259	4647.26
822.587	4606.81
822.915	4636.64
823.243	4666.25
823.57	4596.42
823.898	4631.45
824.225	4599.81
824.553	4618.34
824.88	4586.48
825.207	4625.8
825.535	4588.96
825.862	4630.32
826.189	4626.7
826.516	4619.02
826.843	4663.08
827.17	4655.17
827.497	4629.41
827.824	4651.56
828.151	4652.46
828.478	4618.79
828.805	4633.93
829.131	4573.14
829.458	4579.47
829.785	4570.66
830.111	4582.86
830.438	4633.03
830.764	4618.11
831.09	4660.37
831.417	4595.51
831.743	4612.01
832.069	4635.06
832.395	4612.92
832.722	4591.9
833.048	4590.09
833.374	4620.82
833.7	4573.59
834.026	4559.13
834.351	4604.55
834.677	4539.92
835.003	4612.92
835.329	4562.07
835.654	4571.79
835.98	4569.3
836.306	4562.75
836.631	4544.89
836.956	4534.05
837.282	4570.43
837.607	4499.47
837.932	4516.42
838.258	4510.77
838.583	4535.86
838.908	4447.95
839.233	4488.85
839.558	4488.17
839.883	4466.03
840.208	4476.87
840.533	4454.73
840.858	4470.55
841.182	4440.26
841.507	4410.21
841.832	4428.51
842.156	4424.22
842.481	4415.18
842.805	4363.88
843.13	4379.7
843.454	4408.18
843.778	4347.61
844.103	4372.7
844.427	4360.94
844.751	4336.76
845.075	4339.25
845.399	4324.79
845.723	4331.34
846.047	4308.74
846.371	4298.35
846.695	4320.95
847.019	4263.32
847.343	4241.4
847.666	4226.71
847.99	4186.94
848.313	4181.51
848.637	4183.55
848.96	4211.8
849.284	4182.19
849.607	4153.94
849.931	4132.25
850.254	4089.09
850.577	4052.93
850.9	4035.98
851.223	4047.96
851.546	4053.83
851.869	4005.7
852.192	4063.55
852.515	4021.97
852.838	3937.9
853.161	3965.25
853.483	3967.51
853.806	3936.55
854.129	3892.03
854.451	3901.3
854.774	3861.3
855.096	3876.44
855.419	3890.67
855.741	3855.42
856.063	3847.51
856.385	3856.78
856.708	3829.66
857.03	3822.2
857.352	3850.68
857.674	3792.15
857.996	3763.45
858.318	3769.77
858.64	3746.27
858.961	3794.18
859.283	3765.93
859.605	3708.08
859.926	3704.24
860.248	3719.83
860.57	3736.55
860.891	3689.78
861.212	3683.45
861.534	3692.26
861.855	3687.29
862.176	3697.69
862.498	3708.53
862.819	3733.62
863.14	3689.32
863.461	3667.63
863.782	3661.3
864.103	3676.22
864.424	3627.63
864.745	3649.1
865.065	3617.91
865.386	3590.34
865.707	3613.17
866.027	3589.89
866.348	3586.95
866.668	3615.43
866.989	3622.43
867.309	3555.99
867.63	3557.8
867.95	3579.04
868.27	3578.37
868.59	3585.82
868.91	3564.36
869.23	3551.25
869.55	3542.44
869.87	3570.23
870.19	3555.32
870.51	3539.95
870.83	3505.37
871.15	3513.51
871.469	3516.45
871.789	3517.13
872.109	3520.74
872.428	3478.03
872.748	3501.08
873.067	3482.78
873.386	3501.53
873.706	3465.6
874.025	3470.57
874.344	3446.84
874.663	3486.17
874.982	3449.78
875.301	3452.27
875.62	3431.25
875.939	3416.11
876.258	3418.6
876.577	3411.82
876.896	3443.91
877.214	3402.78
877.533	3416.56
877.852	3417.01
878.17	3416.11
878.489	3385.6
878.807	3384.7
879.125	3396
879.444	3384.25
879.762	3412.95
880.08	3394.19
880.398	3382.89
880.716	3374.53
881.034	3332.27
881.352	3347.64
881.67	3327.98
881.988	3297.47
882.306	3359.39
882.624	3336.11
882.941	3278.71
883.259	3308.54
883.577	3253.18
883.894	3334.76
884.212	3293.4
884.529	3306.74
884.846	3288.66
885.164	3280.07
885.481	3284.59
885.798	3259.73
886.115	3228.55
886.432	3231.48
886.75	3244.36
887.067	3263.12
887.383	3222.44
887.7	3196.68
888.017	3231.93
888.334	3212.95
888.651	3200.3
888.967	3207.53
889.284	3195.33
889.6	3187.64
889.917	3124.59
890.233	3150.81
890.55	3156.68
890.866	3148.32
891.182	3151.26
891.498	3105.61
891.815	3157.36
892.131	3079.4
892.447	3107.19
892.763	3084.59
893.079	3044.37
893.395	3080.75
893.71	3069.68
894.026	3061.77
894.342	3085.05
894.657	3025.61
894.973	3038.49
895.289	3041.66
895.604	3031.71
895.92	2971.15
896.235	2969.79
896.55	2982
896.865	2962.79
897.181	2977.25
897.496	2922.11
897.811	2946.97
898.126	2951.72
898.441	2923.24
898.756	2944.94
899.071	2954.88
899.386	2941.55
899.7	2920.08
900.015	2857.48
900.33	2852.06
900.644	2860.42
900.959	2870.59
901.273	2849.35
901.588	2831.27
901.902	2856.13
902.216	2803.92
902.531	2851.61
902.845	2812.96
903.159	2794.43
903.473	2755.11
903.787	2820.42
904.101	2753.98
904.415	2781.1
904.729	2733.42
905.042	2713.76
905.356	2724.15
905.67	2684.38
905.984	2740.2
906.297	2715.11
906.611	2687.32
906.924	2699.75
907.237	2663.36
907.551	2631.27
907.864	2633.53
908.177	2666.98
908.491	2650.48
908.804	2628.11
909.117	2632.4
909.43	2608.67
909.743	2577.26
910.056	2605.96
910.368	2571.39
910.681	2575
910.994	2588.11
911.307	2575.45
911.619	2579.07
911.932	2518.73
912.244	2530.03
912.557	2536.13
912.869	2523.03
913.181	2493.88
913.494	2480.09
913.806	2460.2
914.118	2453.42
914.43	2472.63
914.742	2448.45
915.054	2464.95
915.366	2427.21
915.678	2432.86
915.99	2429.47
916.302	2384.73
916.613	2428.57
916.925	2376.14
917.236	2374.78
917.548	2366.42
917.859	2382.47
918.171	2393.09
918.482	2341.56
918.794	2324.16
919.105	2353.54
919.416	2294.56
919.727	2345.4
920.038	2326.2
920.349	2321.22
920.66	2304.95
920.971	2280.77
921.282	2262.69
921.593	2270.15
921.903	2248.68
922.214	2251.4
922.525	2235.58
922.835	2250.94
923.146	2224.96
923.456	2172.3
923.767	2209.59
924.077	2234.9
924.387	2204.84
924.697	2177.95
925.008	2190.83
925.318	2197.84
925.628	2139.08
925.938	2143.38
926.248	2166.65
926.558	2127.78
926.867	2151.96
927.177	2100.67
927.487	2141.12
927.796	2071.06
928.106	2088.24
928.416	2097.05
928.725	2100.67
929.034	2060.44
929.344	2040.33
929.653	2073.1
929.962	2057.05
930.271	2078.97
930.581	2031.74
930.89	2035.13
931.199	2008.01
931.508	2026.99
931.817	2036.26
932.125	2005.07
932.434	1988.58
932.743	1980.44
933.051	1948.8
933.36	1972.31
933.669	1952.87
933.977	1935.25
934.286	1960.33
934.594	1936.6
934.902	1935.02
935.21	1925.08
935.519	1934.57
935.827	1916.49
936.135	1905.19
936.443	1879.2
936.751	1892.08
937.059	1886.66
937.367	1864.51
937.674	1862.71
937.982	1863.84
938.29	1878.52
938.597	1828.81
938.905	1844.17
939.213	1804.63
939.52	1840.11
939.827	1861.35
940.135	1819.99
940.442	1809.6
940.749	1797.85
941.056	1772.76
941.363	1784.74
941.67	1784.06
941.977	1772.99
942.284	1783.61
942.591	1789.26
942.898	1762.14
943.205	1755.14
943.511	1720.11
943.818	1753.1
944.125	1730.28
944.431	1700.22
944.738	1698.64
945.044	1722.37
945.35	1696.61
945.657	1695.93
945.963	1676.95
946.269	1670.85
946.575	1712.88
946.881	1677.63
947.187	1657.06
947.493	1686.44
947.799	1645.31
948.105	1662.26
948.41	1655.71
948.716	1641.24
949.022	1622.71
949.327	1628.14
949.633	1624.75
949.938	1601.24
950.244	1625.65
950.549	1607.57
950.854	1618.87
951.16	1584.97
951.465	1565.31
951.77	1607.34
952.075	1575.93
952.38	1544.75
952.685	1550.85
952.99	1560.11
953.294	1554.46
953.599	1531.87
953.904	1537.74
954.209	1554.92
954.513	1554.92
954.818	1523.28
955.122	1528.48
955.426	1482.83
955.731	1524.64
956.035	1475.14
956.339	1470.4
956.643	1501.13
956.948	1478.08
957.252	1462.04
957.556	1450.74
957.86	1467.01
958.163	1465.43
958.467	1474.47
958.771	1462.94
959.075	1454.58
959.378	1440.8
959.682	1450.29
959.985	1408.93
960.289	1429.04
960.592	1415.26
960.896	1432.21
961.199	1393.79
961.502	1389.27
961.805	1382.27
962.108	1397.63
962.411	1405.09
962.714	1370.29
963.017	1388.59
963.32	1392.44
963.623	1372.32
963.926	1384.98
964.228	1385.88
964.531	1340.69
964.833	1353.79
965.136	1355.6
965.438	1328.71
965.741	1340.01
966.043	1332.1
966.345	1314.25
966.648	1311.53
966.95	1340.01
967.252	1357.86
967.554	1307.24
967.856	1297.07
968.158	1300.91
968.46	1291.42
968.761	1317.63
969.063	1271.76
969.365	1269.27
969.666	1280.8
969.968	1273.12
970.269	1302.72
970.571	1274.47
970.872	1258.43
971.174	1237.41
971.475	1250.97
971.776	1223.85
972.077	1234.47
972.378	1223.17
972.679	1245.09
972.98	1249.61
973.281	1234.7
973.582	1200.12
973.883	1238.54
974.183	1200.12
974.484	1218.88
974.785	1220.69
975.085	1187.69
975.386	1202.84
975.686	1205.55
975.986	1192.67
976.287	1168.03
976.587	1157.41
976.887	1199.45
977.187	1153.8
977.487	1185.66
977.787	1181.14
978.087	1157.41
978.387	1142.27
978.687	1149.05
978.987	1156.28
979.286	1151.09
979.586	1126
979.885	1135.94
980.185	1117.87
980.484	1141.37
980.784	1108.83
981.083	1108.37
981.382	1106.11
981.682	1103.4
981.981	1112.44
982.28	1102.5
982.579	1092.33
982.878	1098.21
983.177	1080.35
983.475	1090.07
983.774	1102.5
984.073	1052.33
984.372	1082.16
984.67	1076.96
984.969	1079.68
985.267	1048.94
985.566	1041.03
985.864	1072.67
986.162	1049.85
986.461	1051.2
986.759	1044.65
987.057	1027.7
987.355	1054.36
987.653	1049.39
987.951	1042.61
988.249	1039.45
988.547	1034.48
988.844	1019.11
989.142	1003.07
989.44	1029.28
989.737	997.87
990.035	1001.03
990.332	1013.46
990.63	1023.63
990.927	1005.33
991.224	986.34
991.521	985.44
991.819	975.95
992.116	999
992.413	998.55
992.71	959
993.006	991.77
993.303	1001.94
993.6	977.08
993.897	961.26
994.193	976.4
994.49	939.57
994.787	921.94
995.083	940.92
995.379	960.36
995.676	941.6
995.972	945.67
996.268	933.24
996.565	950.64
996.861	908.38
997.157	932.33
997.453	916.29
997.749	915.16
998.044	907.7
998.34	907.93
998.636	910.64
998.932	893.01
999.227	883.75
999.523	913.8
999.818	900.47
1000.114	886.23
1000.409	854.82
1000.704	890.08
1001	882.62
1001.295	898.89
1001.59	896.4
1001.885	861.83
1002.18	882.39
1002.475	868.38
1002.77	855.05
1003.065	853.69
1003.359	872
1003.654	834.26
1003.949	859.57
1004.243	853.69
1004.538	832.68
1004.832	832.68
1005.127	853.69
1005.421	828.16
1005.715	823.64
1006.009	812.56
1006.304	834.48
1006.598	822.73
1006.892	799.68
1007.186	780.02
1007.48	797.65
1007.773	787.48
1008.067	778.21
1008.361	777.76
1008.655	763.53
1008.948	781.83
1009.242	748.84
1009.535	783.41
1009.829	766.46
1010.122	794.03
1010.415	787.71
1010.708	763.98
1011.001	763.53
1011.295	782.96
1011.588	755.62
1011.881	765.56
1012.173	767.82
1012.466	763.3
1012.759	724.88
1013.052	736.18
1013.344	738.67
1013.637	713.81
1013.93	721.94
1014.222	750.19
1014.514	748.84
1014.807	734.83
1015.099	706.8
1015.391	756.07
1015.683	709.97
1015.976	707.71
1016.268	733.92
1016.56	712.68
1016.851	705.67
1017.143	697.54
1017.435	701.15
1017.727	688.95
1018.018	693.47
1018.31	665
1018.602	679.01
1018.893	695.96
1019.185	670.65
1019.476	678.33
1019.767	692.11
1020.058	665
1020.35	678.1
1020.641	674.49
1020.932	644.66
1021.223	653.25
1021.514	656.18
1021.804	663.87
1022.095	643.53
1022.386	649.4
1022.677	684.21
1022.967	636.75
1023.258	625.22
1023.548	653.7
1023.839	646.01
1024.129	629.52
1024.419	634.94
1024.709	600.14
1025	625.9
1025.29	626.13
1025.58	641.04
1025.87	608.95
1026.16	614.83
1026.449	597.2
1026.739	614.38
1027.029	582.51
1027.319	612.34
1027.608	602.4
1027.898	605.34
1028.187	597.2
1028.477	590.87
1028.766	574.83
1029.055	615.51
1029.344	588.84
1029.634	601.27
1029.923	590.42
1030.212	592.23
1030.501	553.81
1030.79	578.22
1031.078	596.75
1031.367	567.6
1031.656	582.74
1031.945	569.63
1032.233	572.8
1032.522	570.31
1032.81	538.22
1033.099	539.12
1033.387	582.74
1033.675	566.92
1033.963	549.75
1034.251	540.25
1034.54	541.61
1034.828	533.47
1035.116	528.5
1035.403	536.19
1035.691	536.19
1035.979	526.7
1036.267	545.23
1036.554	540.25
1036.842	530.54
1037.129	551.33
1037.417	514.72
1037.704	526.7
1037.992	506.58
1038.279	541.38
1038.566	520.82
1038.853	520.82
1039.14	520.82
