Data from black_plastic_tray_FLMS001491_032.txt Node
Date: Tue Feb 07 10:39:41 GMT 2017
User: dcchb
Spectrometer: FLMS00149
Trigger mode: 0
Integration Time (sec): 2.000000E-2
Scans to average: 10
Electric dark correction enabled: true
Nonlinearity correction enabled: false
Boxcar width: 0
XAxis mode: Wavelengths
Number of Pixels in Spectrum: 2048
>>>>>Begin Spectral Data<<<<<
341.393	-26.47
341.776	-26.47
342.16	-26.47
342.543	-52
342.927	-76.18
343.31	-66.02
343.693	-75.05
344.077	-44.55
344.46	-66.24
344.843	-49.74
345.226	-40.93
345.61	-25.79
345.993	-1.61
346.376	-24.21
346.759	19.63
347.142	13.98
347.525	47.43
347.908	49.91
348.291	75.22
348.674	98.95
349.057	89.01
349.44	126.07
349.823	136.24
350.206	168.33
350.588	203.13
350.971	208.33
351.354	220.98
351.737	235.67
352.119	233.86
352.502	251.04
352.884	271.6
353.267	277.7
353.65	279.51
354.032	285.16
354.414	305.05
354.797	290.36
355.179	300.08
355.562	315.9
355.944	322.22
356.326	321.55
356.709	312.28
357.091	327.42
357.473	337.14
357.855	338.04
358.238	350.7
358.62	353.41
359.002	363.8
359.384	331.71
359.766	343.01
360.148	318.38
360.53	328.55
360.912	317.25
361.294	332.62
361.676	341.43
362.057	335.1
362.439	333.3
362.821	336.23
363.203	333.75
363.584	316.57
363.966	337.36
364.348	327.65
364.729	343.92
365.111	331.04
365.493	319.51
365.874	331.26
366.256	314.77
366.637	315.44
367.019	316.57
367.4	319.29
367.781	315.22
368.163	326.97
368.544	305.05
368.925	304.37
369.306	312.51
369.688	312.73
370.069	329.91
370.45	335.78
370.831	329.91
371.212	322.22
371.593	315.22
371.974	339.62
372.355	345.27
372.736	321.77
373.117	314.99
373.498	327.87
373.879	330.58
374.26	331.04
374.641	326.06
375.021	338.72
375.402	330.36
375.783	345.95
376.163	337.14
376.544	344.14
376.925	351.15
377.305	319.74
377.686	341.88
378.066	340.98
378.447	329.91
378.827	345.27
379.208	340.98
379.588	348.66
379.968	345.73
380.349	362.9
380.729	355.44
381.109	339.4
381.489	360.19
381.87	357.48
382.25	360.19
382.63	356.57
383.01	373.97
383.39	369.45
383.77	349.79
384.15	355.89
384.53	387.31
384.91	386.85
385.29	394.99
385.67	388.66
386.049	383.01
386.429	384.59
386.809	401.32
387.189	383.69
387.568	397.48
387.948	387.76
388.328	386.18
388.707	398.15
389.087	399.74
389.466	411.49
389.846	409.68
390.225	404.48
390.605	425.5
390.984	410.13
391.363	419.4
391.743	424.82
392.122	418.72
392.501	415.1
392.881	441.54
393.26	395.67
393.639	456.46
394.018	444.03
394.397	425.27
394.776	441.77
395.155	438.6
395.534	441.54
395.913	468.66
396.292	460.3
396.671	439.73
397.05	438.38
397.429	455.55
397.808	464.37
398.186	454.2
398.565	464.59
398.944	467.98
399.323	473.86
399.701	472.05
400.08	470.92
400.458	499.62
400.837	502.56
401.215	479.28
401.594	481.99
401.972	496.68
402.351	500.3
402.729	487.64
403.107	476.8
403.486	502.33
403.864	517.7
404.242	518.83
404.62	522.22
404.999	510.47
405.377	547.53
405.755	520.64
406.133	532.39
406.511	539.84
406.889	556.12
407.267	520.86
407.645	548.66
408.023	570.35
408.401	564.48
408.779	560.18
409.156	573.06
409.534	590.69
409.912	566.96
410.29	578.26
410.667	600.63
411.045	630.92
411.422	613.06
411.8	595.21
412.178	610.58
412.555	649.22
412.933	629.79
413.31	641.99
413.687	635.44
414.065	631.82
414.442	642.21
414.819	676.34
415.197	657.58
415.574	652.16
415.951	676.11
416.328	663.01
416.705	689.22
417.082	680.63
417.46	708.88
417.837	712.5
418.214	685.38
418.591	694.64
418.967	718.37
419.344	718.6
419.721	714.76
420.098	736
420.475	741.42
420.852	762.21
421.228	754.3
421.605	725.83
421.982	759.73
422.358	768.77
422.735	758.82
423.111	762.44
423.488	779.39
423.864	768.54
424.241	803.57
424.617	830.01
424.994	801.53
425.37	830.46
425.746	809.44
426.123	837.01
426.499	844.24
426.875	855.54
427.251	859.84
427.627	874.98
428.003	893.06
428.379	868.42
428.756	889.44
429.132	911.81
429.507	890.8
429.883	925.6
430.259	917.91
430.635	950.23
431.011	923.11
431.387	972.83
431.763	957.69
432.138	974.41
432.514	1014.86
432.89	975.54
433.265	994.07
433.641	1031.81
434.016	1029.1
434.392	1042.66
434.767	1030.45
435.143	1041.53
435.518	1088.76
435.894	1079.94
436.269	1082.2
436.644	1106.61
437.02	1123.33
437.395	1110.9
437.77	1141.64
438.145	1131.47
438.52	1151.58
438.895	1161.52
439.271	1170.56
439.646	1168.75
440.021	1205.82
440.395	1194.06
440.77	1228.64
441.145	1207.62
441.52	1229.77
441.895	1207.17
442.27	1219.83
442.645	1244.23
443.019	1253.5
443.394	1263.22
443.769	1256.21
444.143	1253.72
444.518	1268.41
444.892	1251.01
445.267	1271.58
445.641	1292.14
446.016	1291.69
446.39	1303.21
446.764	1291.01
447.139	1298.69
447.513	1348.18
447.887	1353.38
448.262	1341.18
448.636	1394.06
449.01	1363.55
449.384	1366.94
449.758	1399.48
450.132	1392.03
450.506	1413.95
450.88	1404.91
451.254	1392.03
451.628	1451.91
452.002	1464.79
452.376	1485.13
452.75	1471.12
453.123	1480.16
453.497	1552.02
453.871	1509.54
454.244	1563.09
454.618	1580.72
454.992	1579.59
455.365	1578.69
455.739	1632.02
456.112	1613.26
456.486	1649.42
456.859	1661.4
457.232	1688.06
457.606	1695.97
457.979	1736.65
458.352	1763.77
458.725	1767.83
459.099	1759.7
459.472	1814.39
459.845	1831.11
460.218	1863.88
460.591	1835.63
460.964	1839.47
461.337	1932.35
461.71	1927.83
462.083	1970.32
462.456	1966.47
462.829	1979.58
463.201	1993.37
463.574	2022.52
463.947	2031.56
464.32	2044.66
464.692	2091.67
465.065	2105
465.438	2118.79
465.81	2151.1
466.183	2179.35
466.555	2194.72
466.928	2232.46
467.3	2246.47
467.672	2288.95
468.045	2360.36
468.417	2330.31
468.789	2336.41
469.161	2402.17
469.534	2375.95
469.906	2435.84
470.278	2512
470.65	2525.1
471.022	2577.08
471.394	2601.71
471.766	2572.79
472.138	2594.93
472.51	2671.99
472.882	2740.46
473.253	2747.47
473.625	2776.17
473.997	2862.72
474.369	2883.06
474.74	2894.13
475.112	2931.19
475.484	3001.02
475.855	3026.78
476.227	3079.44
476.598	3153.34
476.97	3153.56
477.341	3227.01
477.713	3272.43
478.084	3328.47
478.455	3360.56
478.827	3435.14
479.198	3485.53
479.569	3508.13
479.94	3597.17
480.311	3629.25
480.682	3706.09
481.053	3787.22
481.424	3823.15
481.795	3887.33
482.166	3929.81
482.537	4019.08
482.908	4066.08
483.279	4064.05
483.65	4182.23
484.021	4237.15
484.391	4297.49
484.762	4311.04
485.133	4362.79
485.503	4432.4
485.874	4497.03
486.244	4542
486.615	4664.71
486.985	4689.34
487.356	4744.71
487.726	4771.37
488.097	4911.48
488.467	4923.46
488.837	5003
489.207	5044.36
489.578	5118.71
489.948	5177.91
490.318	5219.72
490.688	5259.95
491.058	5343.56
491.428	5404.35
491.798	5457.23
492.168	5550.56
492.538	5598.47
492.908	5636.21
493.278	5756.43
493.648	5718.24
494.017	5828.52
494.387	5853.83
494.757	5868.97
495.126	5968.63
495.496	6012.92
495.866	6019.93
496.235	6133.14
496.605	6166.14
496.974	6201.39
497.344	6243.65
497.713	6232.35
498.082	6361.61
498.452	6416.75
498.821	6355.51
499.19	6430.99
499.559	6538.1
499.928	6523.64
500.298	6623.75
500.667	6695.39
501.036	6698.78
501.405	6722.51
501.774	6784.65
502.143	6811.09
502.512	6779
502.88	6900.58
503.249	6899.45
503.618	6941.94
503.987	6979.45
504.356	7066.68
504.724	7076.17
505.093	7146.9
505.462	7188.48
505.83	7197.97
506.199	7265.32
506.567	7364.98
506.936	7322.27
507.304	7467.35
507.672	7517.06
508.041	7541.69
508.409	7504.86
508.777	7684.06
509.145	7702.37
509.514	7730.39
509.882	7816.26
510.25	7802.25
510.618	7870.73
510.986	7890.84
511.354	8010.16
511.722	8124.5
512.09	8141.68
512.458	8139.64
512.826	8125.63
513.193	8233.88
513.561	8263.71
513.929	8335.57
514.297	8422.58
514.664	8473.87
515.032	8484.04
515.4	8582.12
515.767	8605.85
516.135	8704.38
516.502	8715.45
516.869	8834.09
517.237	8833.64
517.604	8794.09
517.972	8980.07
518.339	9029.56
518.706	9093.52
519.073	9122.22
519.44	9115.89
519.808	9233.18
520.175	9381.19
520.542	9478.59
520.909	9432.94
521.276	9467.07
521.643	9539.61
522.009	9686.5
522.376	9682.43
522.743	9735.99
523.11	9906.6
523.477	10060.95
523.843	10070.44
524.21	10104.56
524.577	10247.61
524.943	10278.8
525.31	10352.02
525.676	10484.89
526.043	10422.07
526.409	10548.85
526.776	10642.86
527.142	10728.28
527.508	10753.81
527.874	10786.35
528.241	10873.58
528.607	10932.57
528.973	10996.07
529.339	11040.36
529.705	11135.72
530.071	11215.72
530.437	11282.84
530.803	11370.97
531.169	11421.37
531.535	11475.38
531.901	11544.75
532.267	11622.94
532.632	11564.64
532.998	11662.72
533.364	11702.26
533.73	11812.32
534.095	11895.48
534.461	11895.25
534.826	11959.43
535.192	12052.99
535.557	12056.15
535.923	12129.82
536.288	12234.23
536.653	12210.27
537.019	12173.44
537.384	12370.95
537.749	12375.24
538.114	12380.44
538.479	12422.7
538.845	12561.9
539.21	12553.54
539.575	12610.49
539.94	12589.02
540.305	12742.46
540.67	12612.97
541.034	12722.12
541.399	12772.52
541.764	12839.18
542.129	12854.55
542.494	12921.89
542.858	12869.69
543.223	12919.86
543.587	12983.36
543.952	13022.68
544.316	13063.81
544.681	13036.69
545.045	13220.87
545.41	13242.56
545.774	13261.77
546.138	13253.63
546.503	13331.15
546.867	13314.65
547.231	13521.2
547.595	13586.06
547.959	13565.94
548.324	13562.33
548.688	13581.54
549.052	13673.28
549.416	13661.99
549.779	13657.92
550.143	13793.28
550.507	13801.19
550.871	13915.54
551.235	13910.57
551.599	14021.07
551.962	14021.3
552.326	14061.97
552.689	14186.04
553.053	14117.11
553.417	14168.64
553.78	14294.51
554.143	14307.39
554.507	14433.26
554.87	14477.11
555.234	14649.76
555.597	14542.19
555.96	14576.99
556.323	14700.83
556.686	14656.54
557.05	14834.84
557.413	14786.02
557.776	14849.98
558.139	14934.72
558.502	15020.37
558.865	15061.5
559.228	15122.29
559.59	15260.14
559.953	15293.81
560.316	15445.67
560.679	15390.98
561.041	15530.64
561.404	15463.75
561.767	15574.93
562.129	15553.69
562.492	15750.52
562.854	15826.22
563.217	15760.91
563.579	15909.84
563.941	15989.38
564.304	16103.73
564.666	16123.62
565.028	16116.61
565.39	16274.35
565.753	16258.75
566.115	16333.33
566.477	16528.35
566.839	16491.06
567.201	16503.27
567.563	16531.97
567.925	16673.66
568.287	16743.03
568.648	16688.35
569.01	16809.25
569.372	16924.05
569.734	16902.8
570.095	17009.92
570.457	17177.37
570.819	17201.1
571.18	17204.94
571.542	17387.54
571.903	17324.94
572.265	17354.54
572.626	17480.42
572.987	17478.38
573.349	17471.6
573.71	17548.21
574.071	17625.27
574.432	17632.73
574.794	17710.92
575.155	17811.25
575.516	17616.01
575.877	17881.31
576.238	17881.99
576.599	17927.86
576.96	17989.78
577.32	17821.42
577.681	18034.75
578.042	18032.27
578.403	18098.48
578.763	18126.73
579.124	18220.51
579.485	18233.84
579.845	18253.73
580.206	18165.6
580.566	18131.92
580.927	18172.6
581.287	18183.22
581.648	18244.24
582.008	18247.85
582.368	18233.16
582.728	18335.53
583.089	18290.11
583.449	18301.19
583.809	18261.41
584.169	18188.42
584.529	18314.29
584.889	18430.9
585.249	18273.16
585.609	18202.43
585.969	18340.51
586.329	18432.71
586.688	18368.3
587.048	18277.91
587.408	18276.55
587.768	18263.67
588.127	18283.33
588.487	18293.73
588.846	18448.75
589.206	18294.41
589.565	18240.4
589.925	18337.12
590.284	18293.73
590.643	18298.47
591.003	18435.19
591.362	18420.28
591.721	18343.22
592.08	18314.74
592.44	18487.85
592.799	18450.33
593.158	18423.89
593.517	18388.64
593.876	18467.06
594.235	18490.11
594.593	18472.48
594.952	18426.15
595.311	18314.07
595.67	18462.31
596.029	18578.24
596.387	18541.18
596.746	18604.23
597.104	18521.07
597.463	18498.69
597.822	18570.56
598.18	18418.47
598.538	18398.13
598.897	18627.05
599.255	18480.62
599.613	18691.68
599.972	18537.34
600.33	18578.47
600.688	18624.79
601.046	18742.98
601.404	18691.91
601.762	18601.74
602.12	18718.12
602.478	18736.65
602.836	18699.14
603.194	18628.18
603.552	18711.34
603.91	18710.89
604.268	18736.2
604.625	18603.1
604.983	18783.21
605.341	18666.37
605.698	18840.15
606.056	18731.46
606.413	18782.75
606.771	18832.24
607.128	18803.55
607.485	18732.59
607.843	18810.32
608.2	18869.98
608.557	18985.91
608.914	18935.75
609.272	18942.52
609.629	19018.45
609.986	18994.5
610.343	18971
610.7	19086.48
611.057	19036.08
611.414	19186.13
611.771	19234.49
612.127	19211.9
612.484	19159.69
612.841	19216.87
613.198	19288.96
613.554	19223.87
613.911	19330.08
614.267	19302.52
614.624	19180.94
614.98	19188.17
615.337	19269.75
615.693	19336.41
616.05	19323.08
616.406	19412.34
616.762	19228.39
617.118	19337.32
617.475	19377.32
617.831	19456.41
618.187	19476.75
618.543	19412.79
618.899	19675.16
619.255	19553.58
619.611	19650.98
619.967	19664.77
620.323	19671.77
620.678	19529.18
621.034	19468.84
621.39	19479.01
621.746	19514.03
622.101	19789.06
622.457	19495.73
622.812	19623.18
623.168	19648.27
623.523	19643.98
623.879	19716.06
624.234	19531.21
624.589	19614.15
624.945	19665.9
625.3	19619.79
625.655	19584.54
626.01	19547.03
626.365	19599.91
626.72	19573.02
627.075	19637.2
627.43	19533.7
627.785	19535.05
628.14	19564.2
628.495	19595.84
628.85	19642.39
629.205	19480.59
629.559	19569.17
629.914	19421.83
630.269	19530.53
630.623	19498.67
630.978	19444.88
631.332	19621.83
631.687	19521.27
632.041	19421.61
632.396	19544.54
632.75	19374.6
633.104	19450.99
633.459	19348.62
633.813	19323.98
634.167	19297.77
634.521	19238.79
634.875	19325.11
635.229	19270.43
635.583	19199.24
635.937	19148.39
636.291	19105.01
636.645	19138
636.999	18987.72
637.352	19046.48
637.706	18919.47
638.06	19023.65
638.413	18939.36
638.767	18931.23
639.121	18964.67
639.474	18915.41
639.828	18904.33
640.181	18895.07
640.534	18873.6
640.888	18825.47
641.241	18700.05
641.594	18712.47
641.947	18711.12
642.301	18749.54
642.654	18772.81
643.007	18638.13
643.36	18621.4
643.713	18609.43
644.066	18702.53
644.419	18645.36
644.771	18476.77
645.124	18399.49
645.477	18286.5
645.83	18107.97
646.182	18047.18
646.535	17925.6
646.888	18072.26
647.24	17823.91
647.593	17927.18
647.945	17857.81
648.298	17764.48
648.65	17693.07
649.002	17639.28
649.355	17835.43
649.707	17710.01
650.059	17910.01
650.411	18079.04
650.763	18060.97
651.115	18239.94
651.467	18228.19
651.819	18153.62
652.171	18171.92
652.523	18148.2
652.875	18121.53
653.227	18054.86
653.578	18117.69
653.93	18141.42
654.282	17996.79
654.633	18022.77
654.985	17942.32
655.337	18015.32
655.688	18009.44
656.039	17975.09
656.391	17773.29
656.742	17849.45
657.094	17836.11
657.445	17911.82
657.796	17939.16
658.147	17846.51
658.498	17920.4
658.849	17968.09
659.2	17882.21
659.551	17837.47
659.902	17898.71
660.253	17876.34
660.604	17801.76
660.955	17827.98
661.306	17708.43
661.656	17585.72
662.007	17632.05
662.358	17696
662.708	17680.86
663.059	17700.52
663.409	17593.18
663.76	17692.61
664.11	17744.59
664.461	17758.37
664.811	17748.21
665.161	17630.69
665.511	17682.67
665.862	17575.78
666.212	17647.64
666.562	17653.97
666.912	17592.96
667.262	17542.56
667.612	17527.65
667.962	17501.66
668.312	17443.81
668.662	17454.43
669.011	17386.18
669.361	17430.25
669.711	17392.06
670.06	17391.6
670.41	17364.49
670.76	17320.65
671.109	17330.14
671.459	17270.25
671.808	17254.21
672.157	17355.9
672.507	17272.96
672.856	17317.71
673.205	17253.76
673.554	17251.5
673.904	17204.04
674.253	17331.49
674.602	17241.78
674.951	16906.19
675.3	16926.98
675.649	17147.77
675.998	17136.7
676.346	17167.66
676.695	17343.7
677.044	17061.44
677.393	17267.09
677.741	17167.66
678.09	17070.26
678.438	17017.15
678.787	17046.53
679.135	17114.1
679.484	16946.19
679.832	16997.72
680.181	16915.46
680.529	17020.99
680.877	16923.59
681.225	16856.93
681.573	16987.55
681.922	16844.5
682.27	16760.21
682.618	16784.39
682.966	16799.3
683.314	16713.43
683.661	16723.37
684.009	16695.58
684.357	16644.96
684.705	16536.49
685.053	16645.64
685.4	16631.85
685.748	16524.28
686.095	16435.02
686.443	16382.59
686.79	16292.2
687.138	16274.57
687.485	16472.98
687.832	16247.68
688.18	16328.58
688.527	16231.18
688.874	16199.77
689.221	16235.25
689.568	16124.97
689.915	16104.18
690.262	16152.32
690.609	16013.34
690.956	16018.08
691.303	15875.49
691.65	15819.22
691.997	15770.4
692.344	15703.06
692.69	15744.19
693.037	15782.38
693.383	15601.14
693.73	15704.64
694.077	15673.23
694.423	15622.61
694.769	15607.92
695.116	15542.39
695.462	15444.54
695.808	15374.48
696.155	15392.79
696.501	15363.86
696.847	15347.82
697.193	15207.93
697.539	15324.31
697.885	15112.79
698.231	15147.37
698.577	14993.02
698.923	15077.54
699.269	14999.8
699.614	14989.18
699.96	14957.32
700.306	14909.64
700.651	14802.29
700.997	14812.24
701.342	14760.26
701.688	14703.31
702.033	14686.14
702.379	14700.83
702.724	14701.96
703.069	14804.33
703.415	14569.08
703.76	14585.12
704.105	14584.9
704.45	14464.9
704.795	14395.75
705.14	14397.79
705.485	14355.53
705.83	14238.02
706.175	14203.21
706.52	14270.56
706.865	14177.68
707.209	14126.61
707.554	14096.1
707.899	14104.01
708.243	14061.97
708.588	14028.76
708.932	13989.21
709.277	13977.68
709.621	14002.09
709.966	13908.76
710.31	13977.23
710.654	13839.61
710.998	13822.89
711.342	13847.29
711.687	13736.56
712.031	13715.32
712.375	13626.96
712.719	13683.45
713.063	13531.59
713.407	13623.79
713.75	13536.79
714.094	13506.28
714.438	13497.92
714.782	13482.1
715.125	13423.12
715.469	13497.7
715.812	13355.78
716.156	13218.83
716.499	13257.7
716.843	13293.18
717.186	13174.09
717.53	13279.4
717.873	13304.71
718.216	13253.41
718.559	13200.75
718.902	13058.61
719.246	13143.35
719.589	13145.61
719.932	13158.5
720.275	13079.85
720.617	13076.24
720.96	12966.18
721.303	13064.04
721.646	12996.47
721.989	13036.92
722.331	13073.3
722.674	12888.9
723.016	12870.59
723.359	12864.27
723.701	12878.05
724.044	12836.92
724.386	12744.95
724.729	12751.5
725.071	12751.5
725.413	12732.29
725.755	12622.01
726.097	12618.17
726.439	12672.63
726.782	12598.51
727.124	12622.24
727.465	12497.95
727.807	12577.27
728.149	12646.87
728.491	12512.64
728.833	12474.9
729.175	12476.03
729.516	12436.71
729.858	12400.55
730.199	12403.49
730.541	12402.13
730.882	12451.62
731.224	12440.1
731.565	12318.29
731.906	12322.13
732.248	12318.07
732.589	12221.35
732.93	12286.43
733.271	12210.72
733.612	12225.86
733.953	12211.85
734.294	12195.58
734.635	12196.94
734.976	12121.23
735.317	12187.9
735.658	12118.07
735.999	12080.11
736.339	12061.58
736.68	12116.94
737.021	12093.89
737.361	11976.15
737.702	12059.77
738.042	11923.27
738.383	11968.7
738.723	11959.66
739.063	11850.96
739.404	11965.31
739.744	11901.35
740.084	11809.83
740.424	11873.78
740.764	11709.49
741.104	11801.92
741.444	11757.18
741.784	11718.99
742.124	11705.2
742.464	11706.33
742.804	11699.78
743.143	11651.64
743.483	11654.58
743.823	11625.88
744.162	11715.37
744.502	11647.58
744.841	11655.94
745.181	11681.92
745.52	11613.23
745.86	11528.71
746.199	11574.81
746.538	11557.41
746.877	11479.9
747.216	11434.93
747.556	11370.29
747.895	11410.29
748.234	11407.13
748.573	11419.33
748.911	11342.27
749.25	11325.55
749.589	11343.18
749.928	11294.14
750.267	11327.58
750.605	11238.09
750.944	11242.61
751.283	11210.07
751.621	11249.62
751.96	11159.9
752.298	11217.76
752.636	11129.4
752.975	11056.63
753.313	11033.35
753.651	11110.87
753.989	11039.23
754.327	10920.59
754.666	10901.83
755.004	10973.92
755.342	10857.31
755.679	10806.92
756.017	10822.74
756.355	10844.88
756.693	10656.87
757.031	10735.51
757.368	10754.94
757.706	10681.72
758.044	10688.5
758.381	10709.52
758.719	10599.24
759.056	10655.96
759.394	10614.16
759.731	10566.7
760.068	10484.44
760.405	10458.45
760.743	10399.47
761.08	10445.12
761.417	10453.48
761.754	10402.86
762.091	10372.13
762.428	10379.36
762.765	10238.57
763.102	10315.41
763.438	10196.77
763.775	10172.36
764.112	10158.57
764.449	10185.24
764.785	10155.86
765.122	10027.05
765.458	10027.05
765.795	9976.66
766.131	10020.5
766.467	9987.73
766.804	9907.73
767.14	9856.21
767.476	9859.15
767.812	9827.51
768.148	9759.94
768.485	9703.45
768.821	9725.14
769.157	9656.22
769.492	9661.19
769.828	9697.12
770.164	9543.22
770.5	9538.25
770.836	9570.12
771.171	9460.97
771.507	9441.31
771.842	9343.91
772.178	9371.48
772.513	9377.13
772.849	9322.44
773.184	9231.82
773.519	9198.37
773.855	9233.4
774.19	9191.59
774.525	9130.58
774.86	9204.25
775.195	9130.13
775.53	9076.12
775.865	9000.87
776.2	8995.89
776.535	8891.04
776.87	8947.53
777.205	8875.44
777.539	8909.79
777.874	8914.77
778.209	8837.93
778.543	8743.02
778.878	8687.2
779.212	8675
779.547	8646.75
779.881	8691.49
780.215	8536.7
780.55	8556.36
780.884	8526.75
781.218	8480.88
781.552	8496.25
781.886	8460.09
782.22	8412.41
782.554	8358.85
782.888	8304.84
783.222	8263.03
783.556	8227.78
783.889	8148.01
784.223	8192.98
784.557	8144.84
784.89	8185.97
785.224	8114.56
785.557	8037.5
785.891	8054.22
786.224	8019.65
786.558	8020.1
786.891	7977.39
787.224	7975.81
787.557	7958.86
787.891	7971.97
788.224	7980.33
788.557	7929.25
788.89	7889.71
789.223	7881.35
789.556	7832.99
789.888	7830.95
790.221	7804.51
790.554	7711.86
790.887	7714.8
791.219	7665.53
791.552	7660.56
791.884	7565.42
792.217	7554.8
792.549	7545.99
792.882	7528.81
793.214	7477.74
793.546	7428.7
793.879	7385.54
794.211	7414.69
794.543	7445.43
794.875	7315.03
795.207	7376.73
795.539	7375.37
795.871	7321.81
796.203	7236.62
796.535	7277.29
796.867	7218.99
797.198	7249.27
797.53	7229.84
797.862	7181.03
798.193	7108.71
798.525	7070.07
798.856	7087.69
799.188	7049.28
799.519	7043.63
799.85	6973.8
800.182	7025.55
800.513	7030.3
800.844	6925.44
801.175	6893.58
801.506	6991.88
801.837	6908.04
802.168	6910.75
802.499	6900.36
802.83	6830.75
803.161	6786.46
803.491	6844.31
803.822	6746.69
804.153	6755.05
804.483	6682.06
804.814	6632.34
805.145	6649.06
805.475	6670.3
805.805	6659.68
806.136	6638.89
806.466	6690.42
806.796	6651.1
807.126	6555.96
807.457	6637.99
807.787	6559.8
808.117	6533.36
808.447	6544.66
808.777	6563.19
809.107	6477.09
809.436	6522.06
809.766	6485.22
810.096	6401.39
810.426	6431.67
810.755	6404.1
811.085	6368.84
811.414	6374.04
811.744	6381.95
812.073	6364.32
812.403	6355.06
812.732	6259.47
813.061	6272.35
813.39	6233.93
813.719	6223.54
814.049	6237.77
814.378	6244.33
814.707	6222.86
815.036	6196.19
815.365	6190.32
815.693	6135.86
816.022	6130.43
816.351	6148.51
816.68	6088.17
817.008	6115.07
817.337	6054.5
817.665	6047.5
817.994	6081.62
818.322	6098.57
818.651	5990.32
818.979	5992.36
819.307	6055.63
819.636	6023.09
819.964	5948.97
820.292	5926.14
820.62	5915.52
820.948	5917.1
821.276	5897.67
821.604	6003.2
821.932	5968.63
822.259	5983.32
822.587	5986.26
822.915	5955.07
823.243	5972.7
823.57	5894.51
823.898	5880.04
824.225	5848.18
824.553	5898.35
824.88	5934.05
825.207	5976.54
825.535	5924.34
825.862	5988.06
826.189	5970.44
826.516	5975.63
826.843	5947.84
827.17	5973.37
827.497	6004.33
827.824	5972.47
828.151	5936.09
828.478	5934.05
828.805	5948.06
829.131	5919.14
829.458	5928.86
829.785	5905.35
830.111	5923.21
830.438	5929.31
830.764	5873.94
831.09	5893.83
831.417	5877.78
831.743	5913.94
832.069	5938.35
832.395	5886.14
832.722	5914.39
833.048	5892.7
833.374	5898.12
833.7	5865.13
834.026	5886.14
834.351	5852.93
834.677	5849.76
835.003	5826.71
835.329	5805.92
835.654	5849.76
835.98	5840.04
836.306	5826.71
836.631	5804.56
836.956	5810.44
837.282	5808.41
837.607	5802.08
837.932	5754.85
838.258	5755.98
838.583	5699.48
838.908	5713.27
839.233	5731.8
839.558	5688.86
839.883	5728.41
840.208	5660.61
840.533	5687.51
840.858	5708.97
841.182	5637.34
841.507	5676.43
841.832	5669.2
842.156	5640.95
842.481	5686.83
842.805	5615.42
843.13	5600.73
843.454	5601.41
843.778	5591.46
844.103	5596.66
844.427	5557.34
844.751	5525.25
845.075	5530
845.399	5559.83
845.723	5492.03
846.047	5483.9
846.371	5446.61
846.695	5505.36
847.019	5427.17
847.343	5407.29
847.666	5414.29
847.99	5348.76
848.313	5369.77
848.637	5287.06
848.96	5287.74
849.284	5306.72
849.607	5270.12
849.931	5262.88
850.254	5195.99
850.577	5212.72
850.9	5118.71
851.223	5125.49
851.546	5124.81
851.869	5113.06
852.192	5093.62
852.515	5074.19
852.838	5061.99
853.161	5062.21
853.483	4983.8
853.806	4992.38
854.129	4975.21
854.451	4988.09
854.774	4957.13
855.096	4931.37
855.419	4886.4
855.741	4921.42
856.063	4859.28
856.385	4889.33
856.708	4890.24
857.03	4840.3
857.352	4889.11
857.674	4840.3
857.996	4811.37
858.318	4794.2
858.64	4768.21
858.961	4862.67
859.283	4792.61
859.605	4732.73
859.926	4777.93
860.248	4727.98
860.57	4711.94
860.891	4778.83
861.212	4723.92
861.534	4700.41
861.855	4687.98
862.176	4697.02
862.498	4674.43
862.819	4677.59
863.14	4636.69
863.461	4602.79
863.782	4629.68
864.103	4653.18
864.424	4604.14
864.745	4609.12
865.065	4629.68
865.386	4599.4
865.707	4600.08
866.027	4640.3
866.348	4586.07
866.668	4550.36
866.989	4537.71
867.309	4510.36
867.63	4527.54
867.95	4529.8
868.27	4473.3
868.59	4529.12
868.91	4506.75
869.23	4500.64
869.55	4511.94
869.87	4519.4
870.19	4492.96
870.51	4511.49
870.83	4500.42
871.15	4431.04
871.469	4439.86
871.789	4490.7
872.109	4465.62
872.428	4434.21
872.748	4444.83
873.067	4426.07
873.386	4416.58
873.706	4424.94
874.025	4409.12
874.344	4399.86
874.663	4378.16
874.982	4371.83
875.301	4363.47
875.62	4357.37
875.939	4370.7
876.258	4375.45
876.577	4316.92
876.896	4309.69
877.214	4289.35
877.533	4320.99
877.852	4312.85
878.17	4336.81
878.489	4295.45
878.807	4337.03
879.125	4310.37
879.444	4300.42
879.762	4278.28
880.08	4299.97
880.398	4303.81
880.716	4287.99
881.034	4233.98
881.352	4293.87
881.67	4246.64
881.988	4226.75
882.306	4203.25
882.624	4156.02
882.941	4160.77
883.259	4208.22
883.577	4178.84
883.894	4123.93
884.212	4193.76
884.529	4156.92
884.846	4160.54
885.164	4132.97
885.481	4120.99
885.798	4110.15
886.115	4078.06
886.432	4058.4
886.75	4068.79
887.067	4083.25
887.383	4031.05
887.7	4027.89
888.017	4015.46
888.334	4028.57
888.651	4017.95
888.967	3939.53
889.284	3972.3
889.6	3989.02
889.917	3960.77
890.233	3923.71
890.55	3969.13
890.866	3965.52
891.182	3910.6
891.498	3925.74
891.815	3954.9
892.131	3919.42
892.447	3928.46
892.763	3892.3
893.079	3890.94
893.395	3870.6
893.71	3865.18
894.026	3852.07
894.342	3852.07
894.657	3814.11
894.973	3786.76
895.289	3828.57
895.604	3814.79
895.92	3756.03
896.235	3758.97
896.55	3768.23
896.865	3738.4
897.181	3727.78
897.496	3780.89
897.811	3708.8
898.126	3683.72
898.441	3671.97
898.756	3639.2
899.071	3632.42
899.386	3671.97
899.7	3641.46
900.015	3610.05
900.33	3632.64
900.644	3663.83
900.959	3629.93
901.273	3613.66
901.588	3572.53
901.902	3608.46
902.216	3577.5
902.531	3570.95
902.845	3567.56
903.159	3541.8
903.473	3523.27
903.787	3504.74
904.101	3458.64
904.415	3496.15
904.729	3477.85
905.042	3461.12
905.356	3431.07
905.67	3408.47
905.984	3384.29
906.297	3365.53
906.611	3385.87
906.924	3397.4
907.237	3355.14
907.551	3344.97
907.864	3328.02
908.177	3337.96
908.491	3323.95
908.804	3299.32
909.117	3318.08
909.43	3260.9
909.743	3263.61
910.056	3273.33
910.368	3242.82
910.681	3220.45
910.994	3199.66
911.307	3242.15
911.619	3196.72
911.932	3184.07
912.244	3193.33
912.557	3211.19
912.869	3156.72
913.181	3168.93
913.494	3142.71
913.806	3109.72
914.118	3112.88
914.43	3095.48
914.742	3075.15
915.054	3089.38
915.366	3032.21
915.678	3014.13
915.99	3023.4
916.302	2983.85
916.613	2957.86
916.925	3022.49
917.236	2945.21
917.548	3011.87
917.859	2984.07
918.171	2930.06
918.482	2923.28
918.794	2935.94
919.105	2926.67
919.416	2870.18
919.727	2899.78
920.038	2908.14
920.349	2877.64
920.66	2856.62
920.971	2878.77
921.282	2792.67
921.593	2777.75
921.903	2827.24
922.214	2801.03
922.525	2796.96
922.835	2748.15
923.146	2759.9
923.456	2769.62
923.767	2779.33
924.077	2736.62
924.387	2679.22
924.697	2680.81
925.008	2708.15
925.318	2717.41
925.628	2681.48
925.938	2699.11
926.248	2710.41
926.558	2649.62
926.867	2669.51
927.177	2612.78
927.487	2657.98
927.796	2617.98
928.106	2624.76
928.416	2598.32
928.725	2544.31
929.034	2567.14
929.344	2572.11
929.653	2530.75
929.962	2557.87
930.271	2547.25
930.581	2533.92
930.89	2538.21
931.199	2508.61
931.508	2532.56
931.817	2520.81
932.125	2507.93
932.434	2463.64
932.743	2442.62
933.051	2464.54
933.36	2413.47
933.669	2445.11
933.977	2422.28
934.286	2394.03
934.594	2404.2
934.902	2423.86
935.21	2374.37
935.519	2393.81
935.827	2386.8
936.135	2391.55
936.443	2380.25
936.751	2361.94
937.059	2320.59
937.367	2330.53
937.674	2319.01
937.982	2281.49
938.29	2316.97
938.597	2314.94
938.905	2280.59
939.213	2305.45
939.52	2275.84
939.827	2253.7
940.135	2252.79
940.442	2232.68
940.749	2244.43
941.056	2221.61
941.363	2201.5
941.67	2202.85
941.977	2185.68
942.284	2169.63
942.591	2189.97
942.898	2181.84
943.205	2142.06
943.511	2162.85
943.818	2105
944.125	2107.26
944.431	2128.05
944.738	2114.27
945.044	2121.27
945.35	2099.58
945.657	2118.56
945.963	2079.92
946.269	2055.96
946.575	2061.39
946.881	2050.54
947.187	2059.13
947.493	1986.36
947.799	2039.92
948.105	1981.16
948.41	1990.2
948.716	1971.9
949.022	2003.08
949.327	1994.5
949.633	1966.47
949.938	1971.22
950.244	1991.11
950.549	1945.91
950.854	1957.66
951.16	1973.93
951.465	1921.73
951.77	1899.81
952.075	1944.1
952.38	1942.52
952.685	1915.85
952.99	1921.73
953.294	1921.28
953.599	1884.44
953.904	1881.28
954.209	1883.54
954.513	1858
954.818	1831.34
955.122	1846.7
955.426	1861.17
955.731	1829.53
956.035	1822.3
956.339	1834.73
956.643	1827.72
956.948	1826.36
957.252	1784.33
957.556	1795.86
957.86	1785.46
958.163	1796.08
958.467	1783.65
958.771	1794.05
959.075	1756.08
959.378	1789.3
959.682	1769.87
959.985	1758.34
960.289	1743.2
960.592	1752.69
960.896	1736.88
961.199	1727.84
961.502	1731.9
961.805	1711.11
962.108	1691.45
962.411	1700.49
962.714	1673.83
963.017	1686.71
963.32	1661.17
963.623	1647.16
963.926	1674.05
964.228	1663.66
964.531	1643.32
964.833	1668.4
965.136	1628.63
965.438	1603.77
965.741	1631.12
966.043	1614.39
966.345	1636.54
966.648	1621.85
966.95	1600.16
967.252	1562.19
967.554	1595.86
967.856	1590.21
968.158	1569.87
968.46	1554.51
968.761	1573.72
969.063	1552.93
969.365	1545.69
969.666	1553.38
969.968	1537.33
970.269	1553.15
970.571	1545.47
970.872	1514.96
971.174	1526.26
971.475	1502.31
971.776	1505.47
972.077	1505.92
972.378	1480.16
972.679	1477
972.98	1485.13
973.281	1488.29
973.582	1477.45
973.883	1473.83
974.183	1463.89
974.484	1457.79
974.785	1463.21
975.085	1430.89
975.386	1439.93
975.686	1438.13
975.986	1411.46
976.287	1439.71
976.587	1411.91
976.887	1393.38
977.187	1399.26
977.487	1389.31
977.787	1399.26
978.087	1392.03
978.387	1406.26
978.687	1388.18
978.987	1384.12
979.286	1370.11
979.586	1364.68
979.885	1374.62
980.185	1364.23
980.484	1331.24
980.784	1331.69
981.083	1342.76
981.382	1342.31
981.682	1328.52
981.981	1348.18
982.28	1329.65
982.579	1325.36
982.878	1325.13
983.177	1313.61
983.475	1299.15
983.774	1321.97
984.073	1299.6
984.372	1281.07
984.67	1283.33
984.969	1292.14
985.267	1269.54
985.566	1278.13
985.864	1268.86
986.162	1271.12
986.461	1242.2
986.759	1253.05
987.057	1272.03
987.355	1228.19
987.653	1245.59
987.951	1231.58
988.249	1243.1
988.547	1206.95
988.844	1225.02
989.142	1223.67
989.44	1192.48
989.737	1180.05
990.035	1191.58
990.332	1185.7
990.63	1183.9
990.927	1182.09
991.224	1198.13
991.521	1174.63
991.819	1160.62
992.116	1206.72
992.413	1176.44
992.71	1182.31
993.006	1154.74
993.303	1137.79
993.6	1160.39
993.897	1157.68
994.193	1161.07
994.49	1142.99
994.787	1167.17
995.083	1122.2
995.379	1131.69
995.676	1135.99
995.972	1109.77
996.268	1113.61
996.565	1112.94
996.861	1117.46
997.157	1086.5
997.453	1074.97
997.749	1109.55
998.044	1053.96
998.34	1094.18
998.636	1077.68
998.932	1066.84
999.227	1059.15
999.523	1056.44
999.818	1045.37
1000.114	1039.04
1000.409	1074.75
1000.704	1031.36
1001	1037.68
1001.295	978.7
1001.59	1026.61
1001.885	1020.74
1002.18	1023.9
1002.475	1008.76
1002.77	997.69
1003.065	1003.56
1003.359	988.19
1003.654	1019.38
1003.949	1010.34
1004.243	1001.08
1004.538	992.26
1004.832	968.08
1005.127	978.93
1005.421	987.06
1005.715	981.19
1006.009	976.44
1006.304	938.7
1006.598	955.43
1006.892	940.06
1007.186	938.93
1007.48	944.35
1007.773	923.79
1008.067	923.34
1008.361	954.07
1008.655	937.12
1008.948	922.89
1009.242	894.19
1009.535	929.44
1009.829	904.81
1010.122	905.48
1010.415	905.48
1010.708	884.92
1011.001	886.95
1011.295	894.41
1011.588	889.21
1011.881	906.61
1012.173	898.25
1012.466	876.78
1012.759	876.11
1013.052	869.78
1013.344	886.28
1013.637	870.91
1013.93	851.47
1014.222	855.32
1014.514	831.14
1014.807	814.87
1015.099	816.67
1015.391	818.26
1015.683	816.67
1015.976	838.59
1016.268	812.83
1016.56	812.38
1016.851	811.48
1017.143	839.95
1017.435	806.05
1017.727	810.8
1018.018	814.87
1018.31	802.21
1018.602	808.54
1018.893	793.62
1019.185	809.44
1019.476	789.78
1019.767	791.59
1020.058	776
1020.35	755.66
1020.641	755.66
1020.932	768.09
1021.223	774.87
1021.514	734.42
1021.804	738.94
1022.095	731.03
1022.386	744.81
1022.677	759.95
1022.967	753.85
1023.258	760.86
1023.548	744.58
1023.839	726.05
1024.129	723.12
1024.419	728.54
1024.709	710.01
1025	716.56
1025.29	707.98
1025.58	707.52
1025.87	701.42
1026.16	696
1026.449	702.1
1026.739	683.8
1027.029	687.41
1027.319	690.58
1027.608	683.8
1027.898	682.67
1028.187	670.24
1028.477	668.65
1028.766	670.01
1029.055	660.75
1029.344	648.54
1029.634	672.5
1029.923	664.14
1030.212	686.06
1030.501	665.26
1030.79	646.73
1031.078	658.94
1031.367	658.94
1031.656	639.05
1031.945	634.98
1032.233	603.8
1032.522	654.87
1032.81	650.58
1033.099	624.81
1033.387	620.29
1033.675	623.23
1033.963	598.15
1034.251	634.98
1034.54	602.22
1034.828	619.62
1035.116	604.93
1035.403	597.24
1035.691	583.91
1035.979	610.13
1036.267	625.94
1036.554	616.23
1036.842	595.44
1037.129	601.09
1037.417	605.38
1037.704	576.45
1037.992	593.18
1038.279	566.06
1038.566	580.07
1038.853	580.07
1039.14	580.07
