Data from black_metal_pc_casing_FLMS001491_00079.txt Node
Date: Wed Feb 08 14:33:29 GMT 2017
User: dcchb
Spectrometer: FLMS00149
Trigger mode: 0
Integration Time (sec): 2.000000E-2
Scans to average: 10
Electric dark correction enabled: true
Nonlinearity correction enabled: false
Boxcar width: 0
XAxis mode: Wavelengths
Number of Pixels in Spectrum: 2048
>>>>>Begin Spectral Data<<<<<
341.393	-3.01
341.776	-3.01
342.16	-3.01
342.543	-80.07
342.927	-69.67
343.31	-43.23
343.693	-62.67
344.077	-67.87
344.46	-54.53
344.843	-52.27
345.226	-46.62
345.61	-29.45
345.993	-22.22
346.376	-20.64
346.759	10.1
347.142	28.18
347.525	39.02
347.908	64.56
348.291	62.75
348.674	82.87
349.057	112.02
349.44	114.73
349.823	141.85
350.206	175.97
350.588	172.58
350.971	212.58
351.354	230.43
351.737	229.53
352.119	232.01
352.502	244.89
352.884	256.19
353.267	256.19
353.65	283.31
354.032	286.25
354.414	284.44
354.797	308.85
355.179	316.53
355.562	314.27
355.944	328.51
356.326	335.51
356.709	314.27
357.091	314.05
357.473	311.79
357.855	313.59
358.238	333.25
358.62	340.94
359.002	336.19
359.384	312.01
359.766	335.51
360.148	338.9
360.53	325.34
360.912	335.29
361.294	333.93
361.676	326.93
362.057	335.29
362.439	329.19
362.821	320.6
363.203	306.59
363.584	344.78
363.966	323.54
364.348	311.56
364.729	314.05
365.111	304.1
365.493	311.79
365.874	312.92
366.256	305.68
366.637	317.44
367.019	326.02
367.4	321.73
367.781	322.63
368.163	306.36
368.544	304.55
368.925	318.79
369.306	324.67
369.688	303.65
370.069	297.1
370.45	276.98
370.831	286.25
371.212	299.13
371.593	317.89
371.974	295.29
372.355	318.79
372.736	302.75
373.117	314.05
373.498	318.57
373.879	313.82
374.26	321.95
374.641	304.33
375.021	314.27
375.402	319.47
375.783	338.68
376.163	330.54
376.544	349.52
376.925	341.62
377.305	352.24
377.686	349.07
378.066	322.18
378.447	339.36
378.827	333.25
379.208	336.87
379.588	344.1
379.968	340.03
380.349	361.05
380.729	334.16
381.109	349.52
381.489	334.61
381.87	336.42
382.25	341.84
382.63	352.24
383.01	357.21
383.39	357.43
383.77	341.84
384.15	353.37
384.53	367.83
384.91	357.21
385.29	354.95
385.67	371.9
386.049	381.84
386.429	354.27
386.809	364.44
387.189	380.03
387.568	383.87
387.948	384.33
388.328	394.95
388.707	390.2
389.087	375.06
389.466	375.51
389.846	382.52
390.225	414.38
390.605	383.65
390.984	402.18
391.363	388.62
391.743	382.52
392.122	396.3
392.501	390.2
392.881	405.34
393.26	413.93
393.639	416.87
394.018	387.26
394.397	382.07
394.776	401.5
395.155	407.83
395.534	418.45
395.913	441.73
396.292	407.6
396.671	406.7
397.05	411.67
397.429	431.33
397.808	444.21
398.186	427.94
398.565	422.07
398.944	427.04
399.323	441.27
399.701	426.13
400.08	437.66
400.458	439.69
400.837	464.78
401.215	453.93
401.594	472.23
401.972	446.47
402.351	456.41
402.729	454.38
403.107	455.06
403.486	463.87
403.864	475.17
404.242	469.97
404.62	460.26
404.999	466.36
405.377	465.23
405.755	469.3
406.133	473.59
406.511	488.05
406.889	496.87
407.267	503.87
407.645	507.26
408.023	507.94
408.401	474.27
408.779	502.74
409.156	513.59
409.534	502.06
409.912	530.54
410.29	514.49
410.667	532.57
411.045	529.86
411.422	559.01
411.8	539.35
412.178	540.03
412.555	568.05
412.933	566.24
413.31	573.7
413.687	551.1
414.065	572.57
414.442	585.68
414.819	583.64
415.197	595.17
415.574	569.86
415.951	584.09
416.328	596.3
416.705	571.44
417.082	599.24
417.46	617.09
417.837	593.13
418.214	635.17
418.591	604.21
418.967	648.73
419.344	621.61
419.721	621.16
420.098	636.75
420.475	649.63
420.852	639.01
421.228	645.11
421.605	653.7
421.982	642.85
422.358	658.9
422.735	645.56
423.111	657.09
423.488	648.5
423.864	686.47
424.241	684.66
424.617	702.06
424.994	697.54
425.37	707.03
425.746	695.5
426.123	726.24
426.499	717.88
426.875	732.79
427.251	725.33
427.627	730.31
428.003	760.81
428.379	754.49
428.756	775.95
429.132	760.81
429.507	759.91
429.883	782.73
430.259	784.32
430.635	783.41
431.011	784.54
431.387	803.75
431.763	790.42
432.138	802.85
432.514	832.9
432.89	841.26
433.265	847.59
433.641	837.65
434.016	867.48
434.392	862.51
434.767	864.99
435.143	886.91
435.518	896.63
435.894	909.06
436.269	916.97
436.644	918.1
437.02	911.54
437.395	926.91
437.77	907.48
438.145	972.11
438.52	950.41
438.895	938.66
439.271	952.67
439.646	997.87
440.021	979.56
440.395	995.38
440.77	999.45
441.145	992.22
441.52	1005.1
441.895	1039.68
442.27	1028.15
442.645	1018.66
443.019	1019.79
443.394	1025.89
443.769	1065.44
444.143	1050.98
444.518	1080.35
444.892	1054.14
445.267	1074.48
445.641	1061.14
446.016	1083.06
446.39	1072.9
446.764	1087.36
447.139	1091.43
447.513	1105.89
447.887	1098.21
448.262	1086.23
448.636	1114.25
449.01	1116.96
449.384	1137.98
449.758	1140.92
450.132	1174.59
450.506	1139.11
450.88	1148.37
451.254	1170.52
451.628	1174.14
452.002	1181.14
452.376	1198.99
452.75	1197.41
453.123	1210.75
453.497	1234.25
453.871	1246.68
454.244	1274.47
454.618	1250.74
454.992	1281.25
455.365	1260.24
455.739	1330.97
456.112	1326.9
456.486	1338.88
456.859	1327.58
457.232	1382.72
457.606	1399.44
457.979	1400.57
458.352	1398.08
458.725	1403.96
459.099	1407.58
459.472	1460.23
459.845	1500.23
460.218	1464.98
460.591	1482.38
460.964	1496.16
461.337	1537.29
461.71	1547.91
462.083	1570.96
462.456	1581.36
462.829	1565.31
463.201	1614.58
463.574	1604.18
463.947	1614.12
464.32	1640.56
464.692	1671.3
465.065	1662.94
465.438	1678.3
465.81	1706.1
466.183	1778.64
466.555	1749.04
466.928	1756.72
467.3	1792.2
467.672	1784.52
468.045	1853.89
468.417	1859.32
468.789	1840.33
469.161	1893.21
469.534	1913.55
469.906	1941.57
470.278	2008.24
470.65	1947.22
471.022	2015.02
471.394	2039.88
471.766	2065.19
472.138	2088.46
472.51	2103.15
472.882	2144.28
473.253	2172.08
473.625	2205.3
473.997	2237.16
474.369	2243.03
474.74	2291.17
475.112	2284.62
475.484	2359.64
475.855	2394.67
476.227	2389.47
476.598	2430.83
476.97	2499.07
477.341	2533.65
477.713	2570.71
478.084	2575.68
478.455	2630.14
478.827	2648.22
479.198	2710.59
479.569	2723.02
479.94	2812.51
480.311	2808.67
480.682	2873.53
481.053	2941.77
481.424	2995.1
481.795	3021.77
482.166	3063.13
482.537	3064.71
482.908	3136.57
483.279	3198.04
483.65	3240.07
484.021	3262.22
484.391	3348.54
484.762	3349.67
485.133	3342.67
485.503	3448.88
485.874	3488.88
486.244	3549.44
486.615	3583.79
486.985	3656.56
487.356	3689.55
487.726	3725.26
488.097	3736.1
488.467	3793.73
488.837	3841.18
489.207	3916.21
489.578	3958.92
489.948	3999.37
490.318	4052.93
490.688	4035.08
491.058	4094.74
491.428	4127.96
491.798	4223.55
492.168	4318.91
492.538	4308.52
492.908	4326.82
493.278	4407.05
493.648	4401.62
494.017	4449.08
494.387	4538.79
494.757	4577.66
495.126	4607.72
495.496	4595.97
495.866	4630.77
496.235	4644.78
496.605	4760.71
496.974	4731.33
497.344	4811.78
497.713	4850.65
498.082	4883.87
498.452	4918.9
498.821	4965.45
499.19	4977.88
499.559	5012.68
499.928	5035.73
500.298	5070.98
500.667	5154.37
501.036	5123.18
501.405	5163.18
501.774	5183.52
502.143	5255.61
502.512	5264.2
502.88	5279.11
503.249	5371.54
503.618	5341.48
503.987	5371.77
504.356	5400.47
504.724	5411.99
505.093	5473.46
505.462	5461.71
505.83	5571.76
506.199	5619.44
506.567	5636.84
506.936	5631.87
507.304	5728.59
507.672	5771.76
508.041	5802.04
508.409	5812.66
508.777	5846.33
509.145	5937.17
509.514	5922.03
509.882	5995.03
510.25	5995.25
510.618	6011.3
510.986	6094.91
511.354	6141.46
511.722	6146.21
512.09	6231.63
512.458	6227.56
512.826	6253.32
513.193	6341.46
513.561	6342.14
513.929	6362.47
514.297	6568.8
514.664	6475.92
515.032	6517.72
515.4	6582.58
515.767	6578.97
516.135	6606.99
516.502	6650.6
516.869	6741.9
517.237	6823.7
517.604	6722.46
517.972	6830.03
518.339	6893.53
518.706	6949.13
519.073	7037.94
519.44	7027.32
519.808	7097.37
520.175	7124.04
520.542	7185.05
520.909	7253.52
521.276	7281.09
521.643	7278.16
522.009	7454.42
522.376	7411.26
522.743	7456.91
523.11	7489.68
523.477	7600.41
523.843	7707.3
524.21	7749.1
524.577	7807.86
524.943	7877.91
525.31	7872.04
525.676	7976.22
526.043	8027.74
526.409	8135.08
526.776	8112.94
527.142	8122.65
527.508	8285.36
527.874	8311.12
528.241	8327.17
528.607	8356.77
528.973	8413.04
529.339	8482.19
529.705	8581.4
530.071	8584.34
530.437	8632.47
530.803	8657.1
531.169	8698.46
531.535	8673.37
531.901	8804.22
532.267	8778
532.632	8859.81
532.998	8911.56
533.364	8968.73
533.73	8977.55
534.095	9059.35
534.461	9083.53
534.826	9152.01
535.192	9178.9
535.557	9293.02
535.923	9280.82
536.288	9308.84
536.653	9362.4
537.019	9349.97
537.384	9389.96
537.749	9463.64
538.114	9447.82
538.479	9486.91
538.845	9545.22
539.21	9502.73
539.575	9580.92
539.94	9574.59
540.305	9696.4
540.67	9735.49
541.034	9735.49
541.399	9785.89
541.764	9739.56
542.129	9830.18
542.494	9779.11
542.858	9868.14
543.223	9955.15
543.587	9975.49
543.952	10012.32
544.316	10048.7
544.681	9994.02
545.045	10124.86
545.41	10121.02
545.774	10188.14
546.138	10203.28
546.503	10214.58
546.867	10278.3
547.231	10349.71
547.595	10372.09
547.959	10302.94
548.324	10368.7
548.688	10355.82
549.052	10496.83
549.416	10417.73
549.779	10481.91
550.143	10549.93
550.507	10581.35
550.871	10669.71
551.235	10609.14
551.599	10745.18
551.962	10792.87
552.326	10801.91
552.689	10831.28
553.053	10913.09
553.417	10875.58
553.78	11020.88
554.143	11013.65
554.507	11022.46
554.87	11074.21
555.234	11173.42
555.597	11140.65
555.96	11133.42
556.323	11224.49
556.686	11185.17
557.05	11375
557.413	11379.74
557.776	11415.67
558.139	11469.68
558.502	11548.1
558.865	11539.29
559.228	11657.93
559.59	11638.72
559.953	11669
560.316	11817.7
560.679	11730.02
561.041	11963
561.404	11938.6
561.767	12055.88
562.129	12027.41
562.492	12107.63
562.854	12071.93
563.217	12097.46
563.579	12124.58
563.941	12269.89
564.304	12315.54
564.666	12313.96
565.028	12412.48
565.39	12470.79
565.753	12539.71
566.115	12646.15
566.477	12648.41
566.839	12716.66
567.201	12760.95
567.563	12755.53
567.925	12840.72
568.287	12825.58
568.648	12904.9
569.01	12990.55
569.372	13088.17
569.734	12973.15
570.095	13102.18
570.457	13218.11
570.819	13186.25
571.18	13163.88
571.542	13303.31
571.903	13259.69
572.265	13317.32
572.626	13396.19
572.987	13396.87
573.349	13547.37
573.71	13560.02
574.071	13510.99
574.432	13531.78
574.794	13661.72
575.155	13652.9
575.516	13664.65
575.877	13711.43
576.238	13696.74
576.599	13863.75
576.96	13752.56
577.32	13791.66
577.681	13871.66
578.042	13904.2
578.403	13885.89
578.763	13902.16
579.124	13968.15
579.485	13985.32
579.845	13987.58
580.206	14035.04
580.566	13969.51
580.927	14011.99
581.287	14036.62
581.648	14044.98
582.008	14121.82
582.368	14100.58
582.728	14186.68
583.089	14147.35
583.449	14121.14
583.809	14110.29
584.169	14236.39
584.529	14110.97
584.889	14162.72
585.249	14141.48
585.609	14035.49
585.969	14179.22
586.329	14207.69
586.688	14129.5
587.048	14279.55
587.408	14164.53
587.768	14218.31
588.127	14179.44
588.487	14195.26
588.846	14293.34
589.206	14124.08
589.565	14156.39
589.925	14287.01
590.284	14136.73
590.643	14105.1
591.003	14248.37
591.362	14326.11
591.721	14297.41
592.08	14328.14
592.44	14258.76
592.799	14303.28
593.158	14267.58
593.517	14174.47
593.876	14253.34
594.235	14255.6
594.593	14271.19
594.952	14289.72
595.311	14262.38
595.67	14280.01
596.029	14373.11
596.387	14440.23
596.746	14397.74
597.104	14356.84
597.463	14287.92
597.822	14378.76
598.18	14364.75
598.538	14367.69
598.897	14457.18
599.255	14310.06
599.613	14538.98
599.972	14541.24
600.33	14410.4
600.688	14529.72
601.046	14439.78
601.404	14538.53
601.762	14488.81
602.12	14513.22
602.478	14610.62
602.836	14592.31
603.194	14477.74
603.552	14576.95
603.91	14471.19
604.268	14655.14
604.625	14549.83
604.983	14557.74
605.341	14537.85
605.698	14668.02
606.056	14600
606.413	14691.29
606.771	14672.76
607.128	14698.75
607.485	14720.9
607.843	14649.49
608.2	14762.93
608.557	14835.92
608.914	14708.47
609.272	14748.24
609.629	14802.48
609.986	14853.55
610.343	14770.84
610.7	14939.2
611.057	14932.64
611.414	14873.89
611.771	14881.8
612.127	14879.31
612.484	14875.92
612.841	14947.11
613.198	14895.58
613.554	15032.08
613.911	15000.44
614.267	14945.3
614.624	15049.7
614.98	15051.51
615.337	15188
615.693	15115.24
616.05	15081.57
616.406	15147.33
616.762	15173.54
617.118	15029.36
617.475	15144.39
617.831	15115.46
618.187	15252.41
618.543	15160.89
618.899	15359.53
619.255	15263.71
619.611	15219.42
619.967	15182.36
620.323	15293.31
620.678	15221.9
621.034	15294.44
621.39	15213.77
621.746	15164.28
622.101	15350.49
622.457	15175.12
622.812	15195.91
623.168	15275.01
623.523	15329.24
623.879	15349.81
624.234	15342.8
624.589	15379.41
624.945	15353.88
625.3	15274.33
625.655	15254.44
626.01	15360.66
626.365	15218.74
626.72	15259.19
627.075	15269.13
627.43	15298.28
627.785	15233.43
628.14	15323.59
628.495	15244.5
628.85	15260.09
629.205	15185.97
629.559	15309.58
629.914	15160.66
630.269	15137.84
630.623	15109.14
630.978	15132.64
631.332	15253.77
631.687	15205.63
632.041	15126.31
632.396	15127.67
632.75	15169.25
633.104	15161.34
633.459	14994.56
633.813	15030.49
634.167	15063.04
634.521	15020.33
634.875	15063.71
635.229	15058.52
635.583	14927.45
635.937	14982.36
636.291	14911.18
636.645	14953.66
636.999	14877.5
637.352	14937.84
637.706	14908.46
638.06	14896.03
638.413	14904.62
638.767	14828.47
639.121	14832.31
639.474	14800.67
639.828	14821.23
640.181	14792.76
640.534	14751.86
640.888	14783.95
641.241	14795.25
641.594	14718.19
641.947	14767.68
642.301	14752.08
642.654	14686.77
643.007	14695.14
643.36	14687.23
643.713	14583.5
644.066	14652.65
644.419	14537.85
644.771	14433.45
645.124	14227.8
645.477	14269.38
645.83	14207.92
646.182	14135.38
646.535	14076.4
646.888	14054.7
647.24	14051.54
647.593	14107.58
647.945	14116.39
648.298	14046.11
648.65	14022.39
649.002	13912.11
649.355	13961.37
649.707	13940.81
650.059	14025.55
650.411	14207.69
650.763	14184.64
651.115	14331.08
651.467	14288.14
651.819	14265.32
652.171	14247.92
652.523	14243.17
652.875	14119.78
653.227	14203.4
653.578	14259.44
653.93	14163.4
654.282	14130.63
654.633	14095.83
654.985	14121.82
655.337	14136.51
655.688	14069.39
656.039	14160.46
656.391	14164.75
656.742	14048.37
657.094	14061.71
657.445	14115.04
657.796	14023.06
658.147	14016.28
658.498	13971.31
658.849	14052.44
659.2	14023.97
659.551	13999.34
659.902	14075.49
660.253	13916.63
660.604	14045.66
660.955	13889.96
661.306	13948.04
661.656	13903.97
662.007	14009.96
662.358	13938.55
662.708	13951.2
663.059	13937.64
663.409	13855.16
663.76	13946.91
664.11	13940.58
664.461	13915.27
664.811	13930.64
665.161	13957.98
665.511	13835.05
665.862	13929.28
666.212	13998.21
666.562	13906.46
666.912	13954.82
667.262	13917.3
667.612	13870.3
667.962	13958.66
668.312	13863.75
668.662	13974.93
669.011	13876.4
669.361	13890.41
669.711	13903.52
670.06	13850.41
670.41	13813.13
670.76	13897.42
671.109	13799.57
671.459	13866.01
671.808	13775.16
672.157	13792.56
672.507	13711.21
672.856	13757.53
673.205	13717.76
673.554	13849.51
673.904	13753.24
674.253	13880.69
674.602	13742.17
674.951	13497.43
675.3	13440.03
675.649	13714.6
675.998	13640.02
676.346	13697.87
676.695	13728.83
677.044	13567.48
677.393	13572.45
677.741	13656.75
678.09	13541.72
678.438	13604.32
678.787	13558.67
679.135	13544.43
679.484	13461.5
679.832	13433.93
680.181	13416.75
680.529	13517.77
680.877	13421.27
681.225	13459.91
681.573	13537.88
681.922	13400.48
682.27	13324.1
682.618	13373.59
682.966	13459.91
683.314	13244.33
683.661	13298.79
684.009	13235.97
684.357	13215.63
684.705	13296.98
685.053	13223.76
685.4	13183.99
685.748	13138.12
686.095	13072.35
686.443	13108.29
686.79	13082.07
687.138	13152.58
687.485	13075.74
687.832	13041.17
688.18	13140.15
688.527	12981.28
688.874	12902.41
689.221	12940.83
689.568	12885.92
689.915	12896.54
690.262	12869.87
690.609	12776.77
690.956	12807.5
691.303	12736.09
691.65	12712.59
691.997	12703.55
692.344	12560.96
692.69	12650.44
693.037	12538.36
693.383	12511.46
693.73	12514.85
694.077	12408.87
694.423	12507.62
694.769	12430.11
695.116	12414.97
695.462	12424.69
695.808	12259.27
696.155	12363.9
696.501	12260.4
696.847	12281.64
697.193	12149.21
697.539	12097.24
697.885	12078.71
698.231	12034.19
698.577	12103.11
698.923	12052.49
699.269	11938.6
699.614	11963.46
699.96	11948.77
700.306	11903.57
700.651	11850.69
700.997	11813.18
701.342	11817.92
701.688	11793.29
702.033	11784.25
702.379	11743.12
702.724	11676.68
703.069	11679.4
703.415	11548.1
703.76	11566.63
704.105	11610.25
704.45	11620.64
704.795	11507.42
705.14	11486.18
705.485	11456.8
705.83	11328.22
706.175	11445.5
706.52	11393.53
706.865	11328.67
707.209	11361.89
707.554	11277.6
707.899	11291.61
708.243	11301.1
708.588	11254.77
708.932	11178.17
709.277	11174.32
709.621	11157.6
709.966	11068.34
710.31	11116.93
710.654	11019.3
710.998	11067.43
711.342	11082.8
711.687	10968.23
712.031	10950.83
712.375	10919.42
712.719	10944.05
713.063	10860.89
713.407	10933.65
713.75	10831.73
714.094	10895.46
714.438	10882.81
714.782	10853.88
715.125	10762.36
715.469	10785.63
715.812	10762.81
716.156	10695.47
716.499	10725.07
716.843	10800.32
717.186	10666.77
717.53	10689.37
717.873	10633.32
718.216	10600.33
718.559	10604.4
718.902	10553.55
719.246	10556.94
719.589	10586.77
719.932	10460.45
720.275	10480.33
720.617	10473.33
720.96	10467.22
721.303	10463.61
721.646	10426.1
721.989	10469.48
722.331	10428.58
722.674	10369.15
723.016	10443.04
723.359	10331.64
723.701	10335.48
724.044	10300.22
724.386	10233.33
724.729	10333.44
725.071	10278.53
725.413	10282.82
725.755	10273.11
726.097	10177.29
726.439	10161.7
726.782	10146.1
727.124	10152.43
727.465	10122.6
727.807	10171.19
728.149	10101.36
728.491	10133.9
728.833	10081.47
729.175	10037.86
729.516	10095.03
729.858	10016.62
730.199	10030.85
730.541	9992.21
730.882	9973.23
731.224	10021.59
731.565	9984.3
731.906	9899.56
732.248	9917.18
732.589	9913.79
732.93	9882.38
733.271	9897.75
733.612	9930.97
733.953	9911.53
734.294	9841.48
734.635	9800.8
734.976	9806.9
735.317	9772.1
735.658	9760.58
735.999	9742.95
736.339	9740.46
736.68	9757.19
737.021	9733.91
737.361	9669.51
737.702	9790.63
738.042	9665.44
738.383	9658.43
738.723	9723.29
739.063	9651.88
739.404	9722.61
739.744	9632.67
740.084	9627.25
740.424	9615.5
740.764	9581.15
741.104	9570.75
741.444	9510.87
741.784	9510.87
742.124	9512.9
742.464	9485.56
742.804	9482.39
743.143	9528.72
743.483	9481.94
743.823	9413.47
744.162	9433.58
744.502	9356.52
744.841	9336.18
745.181	9399
745.52	9375.73
745.86	9408.72
746.199	9408.04
746.538	9389.96
746.877	9297.31
747.216	9369.85
747.556	9317.88
747.895	9314.49
748.234	9296.41
748.573	9300.48
748.911	9320.59
749.25	9210.76
749.589	9202.4
749.928	9187.48
750.267	9184.77
750.605	9124.66
750.944	9135.06
751.283	9141.16
751.621	9139.35
751.96	9056.19
752.298	9090.31
752.636	9029.52
752.975	9012.8
753.313	8968.96
753.651	8999.47
753.989	8949.07
754.327	8935.51
754.666	8920.6
755.004	8972.12
755.342	8958.34
755.679	8860.04
756.017	8847.38
756.355	8887.15
756.693	8887.15
757.031	8854.84
757.368	8751.11
757.706	8738.46
758.044	8785.69
758.381	8675.86
758.719	8655.3
759.056	8675.18
759.394	8630.44
759.731	8523.77
760.068	8554.28
760.405	8487.84
760.743	8507.5
761.08	8555.41
761.417	8502.76
761.754	8479.25
762.091	8463.21
762.428	8405.58
762.765	8336.21
763.102	8419.6
763.438	8334.63
763.775	8301.86
764.112	8365.36
764.449	8288.75
764.785	8298.47
765.122	8253.72
765.458	8242.88
765.795	8232.26
766.131	8150.22
766.467	8200.62
766.804	8157.68
767.14	8071.58
767.476	8005.82
767.812	8082.65
768.148	8050.79
768.485	8022.54
768.821	7941.87
769.157	7937.57
769.492	7937.35
769.828	7870
770.164	7833.62
770.5	7806.5
770.836	7871.81
771.171	7759.27
771.507	7799.05
771.842	7700.29
772.178	7748.65
772.513	7748.88
772.849	7686.28
773.184	7647.86
773.519	7611.03
773.855	7654.64
774.19	7555.44
774.525	7531.93
774.86	7505.72
775.195	7532.84
775.53	7439.28
775.865	7434.76
776.2	7393.41
776.535	7322.9
776.87	7294.88
777.205	7262.11
777.539	7269.79
777.874	7264.15
778.209	7197.93
778.543	7198.16
778.878	7176.01
779.212	7151.61
779.547	7143.02
779.881	7145.5
780.215	7141.89
780.55	7112.96
780.884	7023.93
781.218	6994.1
781.552	7065.28
781.886	6987.77
782.22	6912.06
782.554	6867.09
782.888	6869.35
783.222	6839.07
783.556	6813.99
783.889	6790.49
784.223	6751.16
784.557	6738.06
784.89	6763.37
785.224	6751.39
785.557	6651.51
785.891	6699.19
786.224	6641.56
786.558	6643.14
786.891	6556.14
787.224	6555.46
787.557	6522.47
787.891	6567.21
788.224	6529.02
788.557	6444.96
788.89	6447.44
789.223	6502.81
789.556	6470.95
789.888	6446.54
790.221	6389.82
790.554	6369.71
790.887	6369.71
791.219	6291.06
791.552	6344.85
791.884	6310.27
792.217	6303.49
792.549	6178.52
792.882	6239.99
793.214	6173.33
793.546	6224.4
793.879	6179.88
794.211	6123.84
794.543	6139.65
794.875	6092.88
795.207	6132.88
795.539	6075.02
795.871	6089.94
796.203	6038.19
796.535	5971.3
796.867	5962.94
797.198	5946.89
797.53	5933.78
797.862	5933.33
798.193	5888.59
798.525	5896.95
798.856	5881.81
799.188	5871.64
799.519	5840.45
799.85	5815.37
800.182	5800.68
800.513	5819.89
800.844	5734.24
801.175	5753.45
801.506	5736.05
801.837	5736.5
802.168	5712.55
802.499	5718.2
802.83	5646.79
803.161	5666.45
803.491	5647.92
803.822	5648.82
804.153	5631.42
804.483	5573.57
804.814	5521.59
805.145	5515.04
805.475	5536.96
805.805	5537.18
806.136	5538.77
806.466	5496.96
806.796	5508.03
807.126	5471.88
807.457	5433.46
807.787	5491.08
808.117	5460.8
808.447	5408.37
808.777	5450.86
809.107	5412.22
809.436	5375.83
809.766	5430.07
810.096	5335.61
810.426	5283.41
810.755	5293.12
811.085	5303.52
811.414	5294.03
811.744	5242.96
812.073	5254.25
812.403	5268.72
812.732	5174.48
813.061	5212.67
813.39	5227.59
813.719	5215.39
814.049	5213.13
814.378	5185.78
814.707	5173.35
815.036	5150.75
815.365	5144.43
815.693	5102.85
816.022	5112.11
816.351	5119.57
816.68	5066.01
817.008	5115.28
817.337	5019.23
817.665	5041.38
817.994	5061.04
818.322	5024.88
818.651	5012
818.979	5025.33
819.307	5007.71
819.636	5023.07
819.964	4960.48
820.292	5038.89
820.62	4976.97
820.948	4971.32
821.276	5029.4
821.604	4946.01
821.932	4995.96
822.259	4947.14
822.587	4983.98
822.915	4914.15
823.243	4917.99
823.57	4947.6
823.898	4910.76
824.225	4957.99
824.553	4910.08
824.88	4940.59
825.207	4934.49
825.535	4904.89
825.862	4952.12
826.189	4912.79
826.516	4946.24
826.843	4924.77
827.17	4946.92
827.497	4928.61
827.824	4974.26
828.151	4954.38
828.478	4944.43
828.805	4923.42
829.131	4942.85
829.458	4894.26
829.785	4902.4
830.111	4896.07
830.438	4941.04
830.764	4875.96
831.09	4899.01
831.417	4909.4
831.743	4910.08
832.069	4943.98
832.395	4901.5
832.722	4934.26
833.048	4850.2
833.374	4845.9
833.7	4850.2
834.026	4838.9
834.351	4833.47
834.677	4853.14
835.003	4906.69
835.329	4861.04
835.654	4850.88
835.98	4843.87
836.306	4844.77
836.631	4821.95
836.956	4837.99
837.282	4830.76
837.607	4759.8
837.932	4795.51
838.258	4789.18
838.583	4783.98
838.908	4786.02
839.233	4792.35
839.558	4798.67
839.883	4763.87
840.208	4753.02
840.533	4741.95
840.858	4719.35
841.182	4746.02
841.507	4740.82
841.832	4677.55
842.156	4717.55
842.481	4755.96
842.805	4667.38
843.13	4691.78
843.454	4637.1
843.778	4639.36
844.103	4646.59
844.427	4642.52
844.751	4653.59
845.075	4607.27
845.399	4626.25
845.723	4587.15
846.047	4592.8
846.371	4497.44
846.695	4577.66
847.019	4498.34
847.343	4499.25
847.666	4466.93
847.99	4415.86
848.313	4478.68
848.637	4406.82
848.96	4428.97
849.284	4379.02
849.607	4339.02
849.931	4353.04
850.254	4315.3
850.577	4301.29
850.9	4248.86
851.223	4281.85
851.546	4285.01
851.869	4268.97
852.192	4241.17
852.515	4205.92
852.838	4178.35
853.161	4242.08
853.483	4221.74
853.806	4191.01
854.129	4201.4
854.451	4133.15
854.774	4166.15
855.096	4108.97
855.419	4120.27
855.741	4098.8
856.063	4100.61
856.385	4079.6
856.708	4078.01
857.03	4066.26
857.352	4030.56
857.674	4052.03
857.996	4040.28
858.318	3988.98
858.64	4027.85
858.961	4023.55
859.283	4000.73
859.605	4009.77
859.926	3944.91
860.248	3966.38
860.57	3952.37
860.891	3959.6
861.212	3963.67
861.534	3901.3
861.855	3919.83
862.176	3896.1
862.498	3927.28
862.819	3931.58
863.14	3863.1
863.461	3865.14
863.782	3891.8
864.103	3885.93
864.424	3882.99
864.745	3882.54
865.065	3850.9
865.386	3840.73
865.707	3860.84
866.027	3823.11
866.348	3805.03
866.668	3779.27
866.989	3807.74
867.309	3828.98
867.63	3786.04
867.95	3807.51
868.27	3798.7
868.59	3801.41
868.91	3786.5
869.23	3736.1
869.55	3677.8
869.87	3750.34
870.19	3767.51
870.51	3781.3
870.83	3725.93
871.15	3734.75
871.469	3717.57
871.789	3719.38
872.109	3723.45
872.428	3679.15
872.748	3710.57
873.067	3690.91
873.386	3683.9
873.706	3677.35
874.025	3666.73
874.344	3683
874.663	3696.1
874.982	3678.25
875.301	3687.06
875.62	3641.87
875.939	3631.7
876.258	3672.83
876.577	3630.34
876.896	3643.68
877.214	3616.33
877.533	3648.65
877.852	3582.66
878.17	3600.96
878.489	3608.87
878.807	3611.36
879.125	3572.26
879.444	3599.83
879.762	3569.78
880.08	3612.04
880.398	3565.26
880.716	3577.01
881.034	3559.38
881.352	3568.2
881.67	3516.45
881.988	3536.79
882.306	3571.81
882.624	3535.66
882.941	3508.09
883.259	3509.67
883.577	3492.04
883.894	3512.83
884.212	3476
884.529	3479.84
884.846	3517.13
885.164	3500.4
885.481	3457.47
885.798	3481.65
886.115	3446.39
886.432	3430.35
886.75	3445.71
887.067	3458.37
887.383	3411.59
887.7	3415.88
888.017	3407.07
888.334	3381.76
888.651	3422.21
888.967	3438.48
889.284	3353.51
889.6	3362.33
889.917	3356
890.233	3352.84
890.55	3340.18
890.866	3332.95
891.182	3360.52
891.498	3346.28
891.815	3362.78
892.131	3276.68
892.447	3307.19
892.763	3262.89
893.079	3285.49
893.395	3279.39
893.71	3253.4
894.026	3225.83
894.342	3254.76
894.657	3259.5
894.973	3208.66
895.289	3190.35
895.604	3203.01
895.92	3168.89
896.235	3119.62
896.55	3176.12
896.865	3157.13
897.181	3144.03
897.496	3145.61
897.811	3136.12
898.126	3086.85
898.441	3144.03
898.756	3124.37
899.071	3091.6
899.386	3079.4
899.7	3057.02
900.015	3028.78
900.33	3063.13
900.644	3036.69
900.959	3043.47
901.273	3021.09
901.588	2987.65
901.902	2999.62
902.216	2976.35
902.531	2976.12
902.845	2969.34
903.159	2956.01
903.473	2940.19
903.787	2903.81
904.101	2907.88
904.415	2932.06
904.729	2923.92
905.042	2914.43
905.356	2872.85
905.67	2911.04
905.984	2904.03
906.297	2863.58
906.611	2835.56
906.924	2876.24
907.237	2822.45
907.551	2822.91
907.864	2781.55
908.177	2809.8
908.491	2803.25
908.804	2770.03
909.117	2781.78
909.43	2797.37
909.743	2756.47
910.056	2725.28
910.368	2699.29
910.681	2743.36
910.994	2734.55
911.307	2731.61
911.619	2663.59
911.932	2672.18
912.244	2687.32
912.557	2669.01
912.869	2657.49
913.181	2632.4
913.494	2649.35
913.806	2644.61
914.118	2624.04
914.43	2623.59
914.742	2598.05
915.054	2585.17
915.366	2555.12
915.678	2581.33
915.99	2551.27
916.302	2529.13
916.613	2535.91
916.925	2520.99
917.236	2516.02
917.548	2526.87
917.859	2533.42
918.171	2516.25
918.482	2477.83
918.794	2508.79
919.105	2459.53
919.416	2422.01
919.727	2452.07
920.038	2429.02
920.349	2417.27
920.66	2434.89
920.971	2422.24
921.282	2411.17
921.593	2384.95
921.903	2382.69
922.214	2365.29
922.525	2382.69
922.835	2354.22
923.146	2369.81
923.456	2338.62
923.767	2351.96
924.077	2302.69
924.387	2340.66
924.697	2286.2
925.008	2321.9
925.318	2325.52
925.628	2294.78
925.938	2299.3
926.248	2272.19
926.558	2262.69
926.867	2262.24
927.177	2243.71
927.487	2228.57
927.796	2195.58
928.106	2220.21
928.416	2188.12
928.725	2204.84
929.034	2177.73
929.344	2179.31
929.653	2180.66
929.962	2178.86
930.271	2173.66
930.581	2154.9
930.89	2141.57
931.199	2142.92
931.508	2114.45
931.817	2128.46
932.125	2123.04
932.434	2070.38
932.743	2089.82
933.051	2117.84
933.36	2076.71
933.669	2069.93
933.977	2067.67
934.286	2044.4
934.594	2045.75
934.902	2017.96
935.21	2029.48
935.519	2019.99
935.827	2044.17
936.135	2031.74
936.443	1996.94
936.751	2013.66
937.059	1987.9
937.367	1963.72
937.674	1987
937.982	1975.02
938.29	1941.8
938.597	1921.69
938.905	1939.31
939.213	1962.14
939.52	1919.2
939.827	1926.43
940.135	1917.62
940.442	1912.2
940.749	1920.78
941.056	1905.19
941.363	1858.19
941.67	1861.58
941.977	1854.34
942.284	1868.81
942.591	1837.62
942.898	1850.73
943.205	1852.54
943.511	1858.19
943.818	1809.15
944.125	1808.02
944.431	1834.01
944.738	1829.71
945.044	1818.41
945.35	1802.14
945.657	1802.82
945.963	1775.25
946.269	1773.67
946.575	1793.55
946.881	1743.39
947.187	1761.92
947.493	1740.67
947.799	1732.99
948.105	1733.44
948.41	1747.23
948.716	1750.62
949.022	1723.05
949.327	1699.32
949.633	1696.16
949.938	1692.99
950.244	1728.47
950.549	1670.39
950.854	1668.36
951.16	1660.68
951.465	1659.32
951.77	1690.28
952.075	1639.43
952.38	1638.98
952.685	1617.29
952.99	1616.61
953.294	1636.72
953.599	1621.36
953.904	1623.39
954.209	1601.24
954.513	1602.6
954.818	1602.6
955.122	1592.43
955.426	1592.2
955.731	1573.67
956.035	1592.66
956.339	1534.13
956.643	1549.49
956.948	1570.28
957.252	1544.3
957.556	1562.6
957.86	1549.72
958.163	1545.88
958.467	1547.23
958.771	1542.04
959.075	1539.78
959.378	1517.4
959.682	1502.94
959.985	1515.82
960.289	1499.1
960.592	1471.53
960.896	1499.32
961.199	1464.52
961.502	1464.3
961.805	1453.68
962.108	1459.33
962.411	1456.16
962.714	1439.21
963.017	1461.36
963.32	1449.16
963.623	1425.2
963.926	1436.95
964.228	1429.04
964.531	1418.42
964.833	1406.67
965.136	1420.91
965.438	1415.03
965.741	1414.36
966.043	1404.64
966.345	1383.62
966.648	1368.03
966.95	1403.96
967.252	1362.38
967.554	1375.49
967.856	1375.49
968.158	1346.79
968.46	1329.16
968.761	1356.05
969.063	1361.7
969.365	1346.79
969.666	1331.19
969.968	1328.48
970.269	1309.27
970.571	1338.65
970.872	1304.08
971.174	1308.37
971.475	1307.47
971.776	1311.99
972.077	1294.58
972.378	1285.32
972.679	1286.22
972.98	1301.82
973.281	1311.76
973.582	1281.48
973.883	1249.16
974.183	1256.17
974.484	1255.94
974.785	1245.77
975.085	1251.65
975.386	1268.6
975.686	1255.04
975.986	1241.48
976.287	1249.61
976.587	1240.8
976.887	1228.82
977.187	1209.62
977.487	1223.85
977.787	1198.54
978.087	1198.54
978.387	1208.71
978.687	1201.48
978.987	1193.12
979.286	1201.25
979.586	1179.11
979.885	1161.71
980.185	1176.17
980.484	1195.15
980.784	1159.67
981.083	1182.5
981.382	1168.03
981.682	1151.09
981.981	1163.74
982.28	1141.82
982.579	1140.01
982.878	1131.65
983.177	1144.53
983.475	1120.35
983.774	1139.56
984.073	1116.51
984.372	1129.39
984.67	1129.62
984.969	1115.61
985.267	1110.63
985.566	1119
985.864	1109.28
986.162	1126.91
986.461	1079
986.759	1103.86
987.057	1105.66
987.355	1055.49
987.653	1093.23
987.951	1057.53
988.249	1087.36
988.547	1069.51
988.844	1060.24
989.142	1051.88
989.44	1031.31
989.737	1035.83
990.035	1054.59
990.332	1062.73
990.63	1044.87
990.927	1027.7
991.224	1057.08
991.521	1023.18
991.819	1064.08
992.116	1030.18
992.413	1022.73
992.71	1007.36
993.006	1021.15
993.303	1011.43
993.6	1016.85
993.897	989.73
994.193	977.76
994.49	984.99
994.787	999
995.083	994.93
995.379	1013.24
995.676	981.37
995.972	964.2
996.268	991.09
996.565	968.94
996.861	952.45
997.157	966.68
997.453	947.48
997.749	965.1
998.044	938.66
998.34	975.95
998.636	960.13
998.932	948.61
999.227	954.71
999.523	937.76
999.818	903.86
1000.114	942.73
1000.409	895.95
1000.704	926.68
1001	898.21
1001.295	912.67
1001.59	897.98
1001.885	907.7
1002.18	897.08
1002.475	912.45
1002.77	901.6
1003.065	887.82
1003.359	890.3
1003.654	881.71
1003.949	872.45
1004.243	861.83
1004.538	863.64
1004.832	872.67
1005.127	843.75
1005.421	850.98
1005.715	860.02
1006.009	866.57
1006.304	854.14
1006.598	857.53
1006.892	869.74
1007.186	839.91
1007.48	849.4
1007.773	834.26
1008.067	828.16
1008.361	827.93
1008.655	821.38
1008.948	842.85
1009.242	814.6
1009.535	810.08
1009.829	804.43
1010.122	791.32
1010.415	803.52
1010.708	813.47
1011.001	781.38
1011.295	794.71
1011.588	806.69
1011.881	767.82
1012.173	789.06
1012.466	768.5
1012.759	779.12
1013.052	784.32
1013.344	760.59
1013.637	758.55
1013.93	766.91
1014.222	728.72
1014.514	747.93
1014.807	744.54
1015.099	748.16
1015.391	741.83
1015.683	735.05
1015.976	756.97
1016.268	714.49
1016.56	728.27
1016.851	756.29
1017.143	719.01
1017.435	714.03
1017.727	736.41
1018.018	713.58
1018.31	710.42
1018.602	711.1
1018.893	733.24
1019.185	698.67
1019.476	689.4
1019.767	691.66
1020.058	696.63
1020.35	702.51
1020.641	691.21
1020.932	669.52
1021.223	677.65
1021.514	685.56
1021.804	663.64
1022.095	655.28
1022.386	660.03
1022.677	658.67
1022.967	670.65
1023.258	648.73
1023.548	657.99
1023.839	656.86
1024.129	652.57
1024.419	657.54
1024.709	647.6
1025	669.29
1025.29	643.3
1025.58	634.04
1025.87	617.77
1026.16	626.35
1026.449	607.15
1026.739	616.41
1027.029	622.29
1027.319	605.56
1027.608	621.83
1027.898	608.95
1028.187	605.56
1028.477	601.72
1028.766	612.12
1029.055	574.83
1029.344	626.35
1029.634	584.77
1029.923	580.48
1030.212	602.63
1030.501	595.85
1030.79	595.62
1031.078	574.15
1031.367	597.88
1031.656	580.93
1031.945	585.68
1032.233	568.95
1032.522	566.92
1032.81	572.8
1033.099	565.34
1033.387	559.46
1033.675	567.82
1033.963	577.09
1034.251	586.35
1034.54	580.71
1034.828	572.8
1035.116	567.15
1035.403	555.4
1035.691	545.68
1035.979	553.36
1036.267	556.52
1036.554	537.09
1036.842	557.43
1037.129	533.02
1037.417	542.74
1037.704	552.91
1037.992	528.96
1038.279	521.27
1038.566	561.72
1038.853	561.72
1039.14	561.72
