Data from black_plastic_tray_FLMS001491_042.txt Node
Date: Tue Feb 07 10:39:55 GMT 2017
User: dcchb
Spectrometer: FLMS00149
Trigger mode: 0
Integration Time (sec): 2.000000E-2
Scans to average: 10
Electric dark correction enabled: true
Nonlinearity correction enabled: false
Boxcar width: 0
XAxis mode: Wavelengths
Number of Pixels in Spectrum: 2048
>>>>>Begin Spectral Data<<<<<
341.393	-0.88
341.776	-0.88
342.16	-0.88
342.543	-46.07
342.927	-50.14
343.31	-79.97
343.693	-56.47
344.077	-82.68
344.46	-73.87
344.843	-48.78
345.226	-19.18
345.61	-37.03
345.993	-15.56
346.376	5.45
346.759	2.97
347.142	35.96
347.525	35.06
347.908	38.67
348.291	74.15
348.674	104.66
349.057	116.64
349.44	138.56
349.823	147.82
350.206	165.9
350.588	191.89
350.971	204.54
351.354	233.24
351.737	244.77
352.119	271.43
352.502	251.55
352.884	262.17
353.267	270.98
353.65	310.08
354.032	279.79
354.414	304.65
354.797	324.99
355.179	339.91
355.562	327.93
355.944	339.91
356.326	316.18
356.709	322.73
357.091	360.47
357.473	339.91
357.855	329.06
358.238	330.42
358.62	340.13
359.002	356.4
359.384	323.18
359.766	314.82
360.148	347.36
360.53	369.51
360.912	342.17
361.294	325.9
361.676	344.2
362.057	343.52
362.439	334.71
362.821	309.62
363.203	328.83
363.584	329.74
363.966	339
364.348	328.83
364.729	341.71
365.111	329.06
365.493	325.44
365.874	330.42
366.256	331.54
366.637	318.21
367.019	345.33
367.4	334.93
367.781	314.37
368.163	337.87
368.544	324.31
368.925	316.4
369.306	320.02
369.688	332.22
370.069	331.54
370.45	323.86
370.831	328.16
371.212	324.09
371.593	316.4
371.974	340.58
372.355	339.68
372.736	337.87
373.117	339.45
373.498	335.61
373.879	331.32
374.26	322.96
374.641	315.05
375.021	314.37
375.402	329.29
375.783	344.88
376.163	363.41
376.544	348.95
376.925	352.11
377.305	346.23
377.686	358.44
378.066	362.05
378.447	355.27
378.827	345.33
379.208	349.62
379.588	362.05
379.968	372.9
380.349	377.42
380.729	358.44
381.109	363.41
381.489	370.64
381.87	375.84
382.25	382.39
382.63	362.05
383.01	385.55
383.39	381.04
383.77	396.63
384.15	406.57
384.53	396.85
384.91	395.05
385.29	427.36
385.67	403.86
386.049	406.57
386.429	403.86
386.809	391.66
387.189	386.68
387.568	400.47
387.948	402.5
388.328	423.75
388.707	428.49
389.087	429.17
389.466	417.42
389.846	412.9
390.225	436.17
390.605	415.61
390.984	424.2
391.363	421.71
391.743	431.43
392.122	439.79
392.501	449.73
392.881	468.04
393.26	439.79
393.639	461.71
394.018	466
394.397	457.42
394.776	454.93
395.155	475.72
395.534	470.75
395.913	489.96
396.292	484.76
396.671	475.72
397.05	475.72
397.429	494.25
397.808	482.5
398.186	489.51
398.565	495.38
398.944	491.54
399.323	518.66
399.701	482.05
400.08	477.53
400.458	517.08
400.837	522.27
401.215	529.96
401.594	541.26
401.972	508.94
402.351	523.86
402.729	540.35
403.107	543.52
403.486	522.05
403.864	556.4
404.242	533.8
404.62	559.79
404.999	551.65
405.377	564.99
405.755	562.05
406.133	565.66
406.511	562.27
406.889	572.22
407.267	574.25
407.645	580.35
408.023	596.62
408.401	592.78
408.779	621.48
409.156	617.19
409.534	628.03
409.912	627.36
410.29	659.45
410.667	675.72
411.045	664.19
411.422	642.27
411.8	694.02
412.178	664.87
412.555	686.11
412.933	686.11
413.31	700.12
413.687	719.33
414.065	708.48
414.442	678.65
414.819	716.62
415.197	720.01
415.574	722.95
415.951	764.98
416.328	759.1
416.705	737.86
417.082	764.53
417.46	758.88
417.837	751.87
418.214	754.58
418.591	755.71
418.967	749.39
419.344	779.67
419.721	786.67
420.098	777.41
420.475	800.01
420.852	788.48
421.228	815.37
421.605	820.57
421.982	848.82
422.358	831.19
422.735	837.97
423.111	849.5
423.488	850.63
423.864	860.34
424.241	842.27
424.617	884.52
424.994	904.19
425.37	905.54
425.746	897.18
426.123	919.1
426.499	916.84
426.875	902.38
427.251	950.96
427.627	976.27
428.003	973.11
428.379	976.95
428.756	976.5
429.132	1019.89
429.507	996.39
429.883	1004.75
430.259	1028.25
430.635	1043.84
431.011	1044.97
431.387	1059.44
431.763	1085.42
432.138	1102.37
432.514	1107.57
432.89	1095.82
433.265	1118.87
433.641	1121.58
434.016	1141.02
434.392	1155.48
434.767	1189.83
435.143	1185.53
435.518	1192.31
435.894	1221.24
436.269	1234.35
436.644	1224.4
437.02	1247.45
437.395	1236.61
437.77	1251.29
438.145	1259.2
438.52	1301.69
438.895	1305.98
439.271	1287.45
439.646	1367.9
440.021	1355.25
440.395	1344.4
440.77	1347.79
441.145	1371.97
441.52	1397.96
441.895	1391.86
442.27	1395.92
442.645	1414.45
443.019	1435.7
443.394	1405.19
443.769	1435.92
444.143	1428.24
444.518	1475.47
444.892	1448.35
445.267	1444.74
445.641	1486.77
446.016	1472.08
446.39	1506.66
446.764	1502.59
447.139	1508.46
447.513	1498.75
447.887	1522.25
448.262	1527.45
448.636	1554.11
449.01	1557.05
449.384	1570.83
449.758	1586.88
450.132	1613.55
450.506	1617.84
450.88	1628.46
451.254	1635.01
451.628	1637.05
452.002	1691.74
452.376	1653.77
452.75	1685.86
453.123	1688.57
453.497	1722.92
453.871	1748.46
454.244	1768.12
454.618	1773.31
454.992	1795.46
455.365	1765.86
455.739	1833.2
456.112	1830.94
456.486	1894.44
456.859	1900.54
457.232	1928.79
457.606	1928.79
457.979	1942.12
458.352	1974.44
458.725	1994.78
459.099	2016.47
459.472	2089.01
459.845	2095.79
460.218	2135.34
460.591	2117.03
460.964	2131.27
461.337	2196.81
461.71	2224.83
462.083	2232.74
462.456	2223.92
462.829	2240.42
463.201	2278.61
463.574	2302.57
463.947	2344.37
464.32	2395.45
464.692	2402.68
465.065	2411.04
465.438	2438.38
465.81	2483.8
466.183	2510.92
466.555	2529.91
466.928	2560.64
467.3	2574.88
467.672	2643.12
468.045	2648.55
468.417	2665.04
468.789	2663.69
469.161	2740.3
469.534	2779.39
469.906	2832.95
470.278	2848.77
470.65	2872.04
471.022	2898.94
471.394	2945.04
471.766	3014.86
472.138	3055.54
472.51	3069.33
472.882	3122.21
473.253	3144.35
473.625	3249.89
473.997	3291.69
474.369	3295.08
474.74	3380.28
475.112	3427.06
475.484	3444.46
475.855	3454.85
476.227	3553.38
476.598	3624.34
476.97	3646.03
477.341	3695.98
477.713	3777.78
478.084	3786.6
478.455	3917.44
478.827	3916.99
479.198	4001.5
479.569	4032.24
479.94	4170.09
480.311	4192.01
480.682	4246.47
481.053	4342.06
481.424	4400.82
481.795	4453.24
482.166	4561.04
482.537	4603.3
482.908	4737.08
483.279	4756.06
483.65	4792.22
484.021	4900.46
484.391	4897.07
484.762	5010.29
485.133	5045.09
485.503	5095.04
485.874	5204.41
486.244	5216.39
486.615	5310.4
486.985	5439.66
487.356	5526.66
487.726	5537.74
488.097	5566.21
488.467	5672.2
488.837	5779.54
489.207	5831.29
489.578	5935.01
489.948	5969.14
490.318	6036.48
490.688	6054.78
491.058	6183.59
491.428	6252.97
491.798	6267.21
492.168	6434.21
492.538	6433.08
492.908	6581.1
493.278	6655.45
493.648	6664.94
494.017	6713.52
494.387	6753.52
494.757	6780.41
495.126	6889.34
495.496	6939.05
495.866	7046.85
496.235	7115.55
496.605	7157.58
496.974	7129.11
497.344	7275.32
497.713	7270.35
498.082	7348.54
498.452	7380.85
498.821	7415.2
499.19	7460.62
499.559	7522.77
499.928	7638.92
500.298	7650.9
500.667	7772.03
501.036	7695.19
501.405	7854.74
501.774	7889.31
502.143	7907.39
502.512	7920.95
502.88	7993.49
503.249	8059.25
503.618	8129.98
503.987	8209.08
504.356	8254.27
504.724	8234.84
505.093	8298.79
505.462	8321.17
505.83	8391.67
506.199	8413.82
506.567	8641.16
506.936	8597.77
507.304	8658.11
507.672	8707.37
508.041	8780.59
508.409	8836.18
508.777	8907.82
509.145	8994.59
509.514	8955.5
509.882	9097.64
510.25	9123.4
510.618	9150.97
510.986	9203.4
511.354	9284.53
511.722	9362.49
512.09	9516.84
512.458	9460.57
512.826	9535.37
513.193	9527.91
513.561	9656.05
513.929	9690.39
514.297	9802.71
514.664	9859.88
515.032	9887.45
515.4	10016.94
515.767	10034.11
516.135	10117.73
516.502	10113.89
516.869	10203.15
517.237	10188.69
517.604	10297.84
517.972	10410.83
518.339	10557.72
518.706	10547.1
519.073	10602.01
519.44	10700.31
519.808	10872.74
520.175	10841.78
520.542	10980.08
520.909	11049.68
521.276	11043.81
521.643	11183.46
522.009	11231.15
522.376	11311.6
522.743	11384.81
523.11	11561.08
523.477	11698.93
523.843	11657.12
524.21	11880.85
524.577	11884.01
524.943	11913.61
525.31	12039.26
525.676	12173.49
526.043	12259.59
526.409	12252.81
526.776	12364
527.142	12433.37
527.508	12489.64
527.874	12629.3
528.241	12620.71
528.607	12756.98
528.973	12869.75
529.339	12856.87
529.705	13037.65
530.071	13081.27
530.437	13141.83
530.803	13270.64
531.169	13374.82
531.535	13328.72
531.901	13402.61
532.267	13397.19
532.632	13596.05
532.998	13618.65
533.364	13727.58
533.73	13723.96
534.095	13883.05
534.461	13888.93
534.826	13924.18
535.192	14000.56
535.557	14056.83
535.923	14158.53
536.288	14168.7
536.653	14256.83
537.019	14278.3
537.384	14395.13
537.749	14414.79
538.114	14498.86
538.479	14542.02
538.845	14514.45
539.21	14565.97
539.575	14709.7
539.94	14708.57
540.305	14739.53
540.67	14778.4
541.034	14821.56
541.399	14873.54
541.764	14869.47
542.129	15071.04
542.494	15064.72
542.858	15151.49
543.223	15038.05
543.587	15192.85
543.952	15179.74
544.316	15234.2
544.681	15302.68
545.045	15348.55
545.41	15420.87
545.774	15441.43
546.138	15532.95
546.503	15529.34
546.867	15534.54
547.231	15739.28
547.595	15738.15
547.959	15771.36
548.324	15805.04
548.688	15857.01
549.052	15966.84
549.416	15914.64
549.779	15956.67
550.143	15981.3
550.507	16143.11
550.871	16146.27
551.235	16164.35
551.599	16332.71
551.962	16356.21
552.326	16431.91
552.689	16468.07
553.053	16451.57
553.417	16528.63
553.78	16726.59
554.143	16708.52
554.507	16803.88
554.87	16824.22
555.234	16987.6
555.597	16912.8
555.96	16982.86
556.323	17044.55
556.686	17060.6
557.05	17366.8
557.413	17227.6
557.776	17220.82
558.139	17437.54
558.502	17471.21
558.865	17566.57
559.228	17632.33
559.59	17793.46
559.953	17755.95
560.316	17853.8
560.679	17959.33
561.041	18004.75
561.404	18152.09
561.767	18200.91
562.129	18136.05
562.492	18440.9
562.854	18398.87
563.217	18417.17
563.579	18513.21
563.941	18589.14
564.304	18676.37
564.666	18864.84
565.028	18734.45
565.39	18839.08
565.753	18964.5
566.115	19067.1
566.477	19164.5
566.839	19262.57
567.201	19256.7
567.563	19200.2
567.925	19465.96
568.287	19455.56
568.648	19429.8
569.01	19684.48
569.372	19701.88
569.734	19657.36
570.095	19957.92
570.457	19959.5
570.819	20045.83
571.18	20064.36
571.542	20109.1
571.903	20044.92
572.265	20189.33
572.626	20246.05
572.987	20314.52
573.349	20256.44
573.71	20410.34
574.071	20477
574.432	20525.82
574.794	20622.76
575.155	20603.78
575.516	20572.82
575.877	20601.75
576.238	20655.98
576.599	20738.24
576.96	20813.49
577.32	20730.56
577.681	20980.27
578.042	20972.36
578.403	21051.45
578.763	20999.7
579.124	21029.98
579.485	21114.28
579.845	21249.86
580.206	21173.71
580.566	21053.71
580.927	21176.42
581.287	21225.68
581.648	21125.35
582.008	21313.37
582.368	21173.03
582.728	21279.69
583.089	21202.18
583.449	21132.35
583.809	21322.41
584.169	21256.87
584.529	21036.99
584.889	21375.29
585.249	21175.29
585.609	21197.66
585.969	21241.96
586.329	21272.92
586.688	21296.42
587.048	21184.56
587.408	21298.23
587.768	21202.18
588.127	21272.92
588.487	21225.01
588.846	21346.36
589.206	21108.4
589.565	21113.6
589.925	21213.71
590.284	21158.79
590.643	21274.95
591.003	21297.77
591.362	21227.72
591.721	21199.02
592.08	21211
592.44	21266.14
592.799	21328.06
593.158	21282.63
593.517	21344.1
593.876	21375.96
594.235	21323.08
594.593	21435.85
594.952	21330.31
595.311	21359.24
595.67	21358.56
596.029	21456.64
596.387	21360.6
596.746	21383.19
597.104	21418.9
597.463	21512.68
597.822	21382.06
598.18	21415.06
598.538	21367.83
598.897	21493.47
599.255	21379.35
599.613	21621.38
599.972	21520.59
600.33	21634.04
600.688	21479.24
601.046	21618.44
601.404	21607.6
601.762	21586.13
602.12	21655.96
602.478	21798.55
602.836	21862.73
603.194	21561.72
603.552	21720.81
603.91	21662.74
604.268	21784.54
604.625	21605.79
604.983	21709.74
605.341	21543.87
605.698	21694.83
606.056	21849.85
606.413	21691.21
606.771	21778.44
607.128	21829.74
607.485	21651.66
607.843	21736.18
608.2	21875.16
608.557	22034.7
608.914	21854.37
609.272	21908.6
609.629	21998.09
609.986	21986.57
610.343	21943.86
610.7	22109.96
611.057	22085.78
611.414	22005.55
611.771	22101.59
612.127	22234.7
612.484	22257.07
612.841	22317.41
613.198	22267.92
613.554	22260.91
613.911	22367.58
614.267	22294.81
614.624	22257.75
614.98	22254.36
615.337	22304.98
615.693	22329.84
616.05	22269.27
616.406	22454.58
616.762	22350.18
617.118	22355.82
617.475	22363.06
617.831	22520.11
618.187	22417.74
618.543	22582.94
618.899	22651.18
619.255	22615.03
619.611	22722.59
619.967	22728.92
620.323	22645.76
620.678	22644.4
621.034	22555.37
621.39	22609.6
621.746	22518.98
622.101	22752.42
622.457	22527.57
622.812	22604.18
623.168	22741.13
623.523	22628.13
623.879	22725.08
624.234	22543.39
624.589	22581.81
624.945	22606.44
625.3	22797.17
625.655	22664.07
626.01	22636.04
626.365	22724.85
626.72	22552.88
627.075	22443.28
627.43	22718.75
627.785	22510.85
628.14	22577.29
628.495	22619.77
628.85	22568.25
629.205	22496.84
629.559	22674.69
629.914	22555.59
630.269	22598.3
630.623	22477.18
630.978	22458.42
631.332	22491.19
631.687	22653.44
632.041	22515.59
632.396	22558.53
632.75	22440.57
633.104	22441.92
633.459	22349.95
633.813	22201.03
634.167	22290.74
634.521	22250.97
634.875	22193.79
635.229	22100.69
635.583	22170.52
635.937	22149.95
636.291	21995.16
636.645	21946.34
636.999	21838.32
637.352	21985.44
637.706	21795.39
638.06	21994.93
638.413	21908.38
638.767	21851.88
639.121	21838.78
639.474	21869.51
639.828	21826.8
640.181	21842.39
640.534	21763.75
640.888	21682.4
641.241	21535.28
641.594	21641.72
641.947	21582.74
642.301	21562.17
642.654	21538.67
643.007	21474.27
643.36	21573.47
643.713	21449.18
644.066	21545.22
644.419	21380.48
644.771	21339.58
645.124	21135.29
645.477	21090.77
645.83	20835.64
646.182	20729.88
646.535	20709.77
646.888	20799.93
647.24	20629.77
647.593	20699.15
647.945	20686.26
648.298	20543.89
648.65	20541.41
649.002	20401.75
649.355	20558.81
649.707	20479.04
650.059	20653.95
650.411	20878.8
650.763	21062.75
651.115	21159.47
651.467	21051.45
651.819	21094.39
652.171	21033.37
652.523	20961.74
652.875	20916.77
653.227	20816.43
653.578	20969.65
653.93	20883.77
654.282	20778.46
654.633	20717.9
654.985	20726.26
655.337	20702.76
655.688	20811.23
656.039	20829.54
656.391	20587.28
656.742	20598.36
657.094	20622.54
657.445	20792.93
657.796	20749.54
658.147	20750.44
658.498	20752.93
658.849	20700.95
659.2	20720.16
659.551	20680.84
659.902	20740.05
660.253	20625.93
660.604	20687.17
660.955	20521.3
661.306	20621.86
661.656	20434.07
662.007	20434.97
662.358	20367.63
662.708	20424.8
663.059	20447.4
663.409	20286.05
663.76	20493.95
664.11	20574.4
664.461	20505.48
664.811	20580.05
665.161	20594.06
665.511	20395.42
665.862	20351.36
666.212	20437.46
666.562	20349.78
666.912	20289.44
667.262	20322.21
667.612	20348.87
667.962	20282.43
668.312	20211.7
668.662	20383.9
669.011	20265.03
669.361	20135.77
669.711	20098.26
670.06	20104.36
670.41	20062.33
670.76	20032.95
671.109	20105.26
671.459	20105.94
671.808	20110.46
672.157	20030.69
672.507	19950.69
672.856	20057.35
673.205	19877.47
673.554	19940.52
673.904	19885.16
674.253	19995.66
674.602	19906.62
674.951	19651.26
675.3	19613.75
675.649	19806.97
675.998	19900.52
676.346	19916.79
676.695	19991.82
677.044	19843.35
677.393	19841.99
677.741	19830.92
678.09	19703.01
678.438	19693.07
678.787	19725.84
679.135	19635.67
679.484	19587.76
679.832	19758.38
680.181	19585.05
680.529	19602.68
680.877	19635.9
681.225	19611.26
681.573	19659.4
681.922	19362.68
682.27	19418.5
682.618	19457.6
682.966	19327.66
683.314	19479.29
683.661	19440.87
684.009	19233.87
684.357	19087.21
684.705	19099.19
685.053	19186.42
685.4	19167.66
685.748	19166.98
686.095	19028.23
686.443	18935.12
686.79	18812.87
687.138	18949.36
687.485	18856.26
687.832	18854
688.18	18800.66
688.527	18603.15
688.874	18719.31
689.221	18688.8
689.568	18672.08
689.915	18555.47
690.262	18594.79
690.609	18494.46
690.956	18403.16
691.303	18360.45
691.65	18320.45
691.997	18192.09
692.344	18231.19
692.69	18107.8
693.037	18151.64
693.383	18092.43
693.73	18121.81
694.077	18094.92
694.423	18111.64
694.769	17987.35
695.116	17892.44
695.462	17967.69
695.808	17857.86
696.155	17823.97
696.501	17665.78
696.847	17698.55
697.193	17620.36
697.539	17724.31
697.885	17436.63
698.231	17433.02
698.577	17431.21
698.923	17263.76
699.269	17395.5
699.614	17286.13
699.96	17244.09
700.306	17155.28
700.651	17071.67
700.997	17057.88
701.342	17057.43
701.688	16954.16
702.033	16903.54
702.379	16998.45
702.724	16925.91
703.069	16953.71
703.415	16811.34
703.76	16723.66
704.105	16774.05
704.45	16745.8
704.795	16580.38
705.14	16546.03
705.485	16528.86
705.83	16495.87
706.175	16517.56
706.52	16357.11
706.865	16387.62
707.209	16325.7
707.554	16258.13
707.899	16400.05
708.243	16202.09
708.588	16245.7
708.932	16213.84
709.277	16109.66
709.621	16128.42
709.966	16035.76
710.31	16028.08
710.654	15960.96
710.998	15861.53
711.342	16021.3
711.687	15766.39
712.031	15767.52
712.375	15653.63
712.719	15678.26
713.063	15523.46
713.407	15639.62
713.75	15513.97
714.094	15489.56
714.438	15495.21
714.782	15448.66
715.125	15470.13
715.469	15444.14
715.812	15354.65
716.156	15293.64
716.499	15232.4
716.843	15219.97
717.186	15146.3
717.53	15302.45
717.873	15362.79
718.216	15288.67
718.559	15254.77
718.902	15146.52
719.246	15167.99
719.589	15114.89
719.932	15092.96
720.275	15162.79
720.617	15080.99
720.96	14946.75
721.303	14923.48
721.646	14945.85
721.989	14815.91
722.331	14908.11
722.674	14804.84
723.016	14779.53
723.359	14802.12
723.701	14828.56
724.044	14706.08
724.386	14624.95
724.729	14731.17
725.071	14615.01
725.413	14512.42
725.755	14553.09
726.097	14526.65
726.439	14477.84
726.782	14483.04
727.124	14518.06
727.465	14362.59
727.807	14406.43
728.149	14339.31
728.491	14313.78
728.833	14377.05
729.175	14300.44
729.516	14283.49
729.858	14288.69
730.199	14270.61
730.541	14180.45
730.882	14212.99
731.224	14174.57
731.565	14080.56
731.906	14071.75
732.248	14093.22
732.589	13969.38
732.93	13970.06
733.271	14044.18
733.612	14075.14
733.953	13999.21
734.294	13915.82
734.635	13902.71
734.976	13971.41
735.317	13939.1
735.658	13857.74
735.999	13843.51
736.339	13771.19
736.68	13782.49
737.021	13737.29
737.361	13686.9
737.702	13749.5
738.042	13656.84
738.383	13648.48
738.723	13717.63
739.063	13719.22
739.404	13734.36
739.744	13567.81
740.084	13542.05
740.424	13574.13
740.764	13587.02
741.104	13514.48
741.444	13440.13
741.784	13368.49
742.124	13413.01
742.464	13430.18
742.804	13379.11
743.143	13361.03
743.483	13364.87
743.823	13335.27
744.162	13319
744.502	13365.33
744.841	13351.54
745.181	13333.69
745.52	13284.88
745.86	13269.96
746.199	13274.26
746.538	13172.34
746.877	13071.55
747.216	13114.26
747.556	13045.33
747.895	13090.31
748.234	13036.97
748.573	13004.21
748.911	13021.61
749.25	12983.64
749.589	12953.36
749.928	12911.1
750.267	12880.59
750.605	12860.48
750.944	12945.22
751.283	12875.4
751.621	12896.19
751.96	12786.81
752.298	12790.88
752.636	12768.05
752.975	12686.93
753.313	12660.03
753.651	12739.58
753.989	12617.32
754.327	12593.82
754.666	12626.81
755.004	12494.84
755.342	12538.46
755.679	12457.78
756.017	12375.52
756.355	12377.78
756.693	12272.02
757.031	12379.82
757.368	12279.03
757.706	12322.19
758.044	12310.67
758.381	12240.61
758.719	12250.55
759.056	12219.14
759.394	12215.3
759.731	12057.34
760.068	12024.12
760.405	12046.49
760.743	11841.98
761.08	11967.4
761.417	11834.97
761.754	11856.89
762.091	11903.9
762.428	11759.04
762.765	11718.59
763.102	11741.87
763.438	11667.29
763.775	11626.39
764.112	11579.61
764.449	11578.48
764.785	11600.18
765.122	11528.54
765.458	11425.94
765.795	11352.27
766.131	11462.78
766.467	11392.27
766.804	11284.48
767.14	11254.42
767.476	11228.21
767.812	11159.51
768.148	11211.48
768.485	11140.53
768.821	11038.16
769.157	11005.16
769.492	10989.12
769.828	11043.13
770.164	10883.13
770.5	10974.2
770.836	10962.23
771.171	10915.67
771.507	10857.82
771.842	10761.78
772.178	10824.38
772.513	10733.98
772.849	10622.12
773.184	10611.27
773.519	10586.87
773.855	10518.62
774.19	10529.69
774.525	10473.2
774.86	10398.17
775.195	10487.89
775.53	10464.61
775.865	10379.64
776.2	10273.2
776.535	10242.47
776.87	10201.57
777.205	10237.73
777.539	10180.33
777.874	10186.65
778.209	10120.67
778.543	10154.56
778.878	10011.97
779.212	9995.25
779.547	9972.87
779.881	9922.25
780.215	9826.89
780.55	9725.87
780.884	9741.24
781.218	9709.83
781.552	9735.82
781.886	9671.19
782.22	9637.74
782.554	9593.45
782.888	9478.42
783.222	9449.05
783.556	9443.17
783.889	9424.41
784.223	9383.96
784.557	9470.06
784.89	9486.33
785.224	9347.81
785.557	9280.46
785.891	9318.88
786.224	9244.08
786.558	9191.65
786.891	9165.21
787.224	9070.98
787.557	9128.38
787.891	9110.75
788.224	9131.09
788.557	9175.61
788.89	9021.94
789.223	9074.82
789.556	8984.65
789.888	8930.64
790.221	8949.4
790.554	8881.15
790.887	8927.7
791.219	8759.57
791.552	8789.18
791.884	8691.78
792.217	8685.22
792.549	8700.59
792.882	8568.84
793.214	8619.01
793.546	8608.62
793.879	8531.78
794.211	8475.06
794.543	8553.7
794.875	8550.99
795.207	8520.48
795.539	8486.36
795.871	8452.24
796.203	8355.97
796.535	8355.06
796.867	8354.61
797.198	8280.71
797.53	8238.46
797.862	8212.47
798.193	8210.43
798.525	8128.4
798.856	8156.2
799.188	8070.1
799.519	8105.58
799.85	7964.79
800.182	8042.08
800.513	8049.08
800.844	7961.85
801.175	8006.82
801.506	8046.82
801.837	7982.64
802.168	7973.15
802.499	7918.92
802.83	7860.39
803.161	7877.79
803.491	7739.71
803.822	7719.15
804.153	7680.5
804.483	7719.6
804.814	7673.72
805.145	7688.87
805.475	7650.45
805.805	7607.06
806.136	7625.59
806.466	7636.44
806.796	7635.08
807.126	7558.25
807.457	7538.14
807.787	7460.85
808.117	7508.98
808.447	7531.81
808.777	7511.92
809.107	7531.81
809.436	7452.04
809.766	7445.48
810.096	7428.99
810.426	7375.88
810.755	7330.46
811.085	7334.52
811.414	7336.78
811.744	7276.22
812.073	7257.69
812.403	7284.36
812.732	7251.14
813.061	7286.16
813.39	7176.56
813.719	7210.01
814.049	7154.87
814.378	7159.39
814.707	7106.73
815.036	7147.86
815.365	7061.76
815.693	7063.12
816.022	7053.63
816.351	7015.89
816.68	6989.67
817.008	7012.5
817.337	6971.14
817.665	6908.77
817.994	6925.04
818.322	6889.11
818.651	6879.85
818.979	6865.16
819.307	6843.46
819.636	6896.8
819.964	6812.05
820.292	6830.36
820.62	6789
820.948	6803.69
821.276	6855.89
821.604	6817.7
821.932	6869
822.259	6857.7
822.587	6838.94
822.915	6779.96
823.243	6807.53
823.57	6782.22
823.898	6797.14
824.225	6771.6
824.553	6776.57
824.88	6807.76
825.207	6870.81
825.535	6873.52
825.862	6909.45
826.189	6852.73
826.516	6841.66
826.843	6828.78
827.17	6892.05
827.497	6858.38
827.824	6842.79
828.151	6806.18
828.478	6771.83
828.805	6841.43
829.131	6798.04
829.458	6794.2
829.785	6734.09
830.111	6782
830.438	6763.47
830.764	6803.47
831.09	6767.99
831.417	6766.86
831.743	6792.17
832.069	6779.06
832.395	6731.6
832.722	6794.43
833.048	6737.25
833.374	6752.62
833.7	6709.91
834.026	6697.25
834.351	6749
834.677	6693.86
835.003	6739.51
835.329	6749.46
835.654	6751.94
835.98	6646.41
836.306	6742.22
836.631	6610.48
836.956	6658.84
837.282	6713.07
837.607	6597.59
837.932	6606.41
838.258	6614.32
838.583	6588.78
838.908	6542.46
839.233	6540.87
839.558	6549.69
839.883	6544.71
840.208	6532.29
840.533	6553.08
840.858	6554.21
841.182	6572.06
841.507	6510.82
841.832	6516.47
842.156	6506.07
842.481	6519.4
842.805	6481.67
843.13	6425.85
843.454	6459.29
843.778	6414.55
844.103	6433.76
844.427	6385.85
844.751	6354.21
845.075	6326.87
845.399	6335.68
845.723	6287.32
846.047	6251.16
846.371	6273.76
846.695	6310.82
847.019	6285.29
847.343	6202.58
847.666	6176.59
847.99	6170.04
848.313	6193.99
848.637	6085.74
848.96	6045.97
849.284	6068.34
849.607	6054.78
849.931	6035.8
850.254	5994.9
850.577	5935.01
850.9	5929.82
851.223	5900.89
851.546	5901.34
851.869	5808.24
852.192	5848.01
852.515	5801.68
852.838	5794.9
853.161	5754.45
853.483	5735.24
853.806	5751.52
854.129	5722.82
854.451	5698.86
854.774	5705.87
855.096	5655.25
855.419	5635.81
855.741	5636.72
856.063	5625.64
856.385	5596.04
856.708	5570.96
857.03	5519.88
857.352	5561.46
857.674	5565.31
857.996	5522.14
858.318	5466.78
858.64	5500.45
858.961	5506.1
859.283	5468.59
859.605	5438.08
859.926	5453.44
860.248	5438.3
860.57	5397.63
860.891	5416.61
861.212	5405.76
861.534	5368.47
861.855	5402.15
862.176	5359.89
862.498	5392.88
862.819	5386.78
863.14	5362.15
863.461	5374.12
863.782	5315.59
864.103	5340.23
864.424	5281.7
864.745	5292.09
865.065	5308.59
865.386	5297.97
865.707	5232.89
866.027	5223.85
866.348	5230.4
866.668	5213.68
866.989	5230.17
867.309	5196.95
867.63	5188.14
867.95	5185.88
868.27	5188.37
868.59	5174.58
868.91	5147.24
869.23	5153.34
869.55	5133.23
869.87	5171.19
870.19	5132.77
870.51	5135.26
870.83	5153.34
871.15	5130.29
871.469	5129.84
871.789	5128.25
872.109	5111.98
872.428	5081.25
872.748	5125.09
873.067	5100.46
873.386	5044.87
873.706	5081.02
874.025	4993.12
874.344	4997.18
874.663	5002.38
874.982	4997.64
875.301	4975.04
875.62	5012.55
875.939	4969.84
876.258	4966.68
876.577	4970.29
876.896	4926.68
877.214	4911.99
877.533	4931.42
877.852	4920.58
878.17	4961.71
878.489	4881.48
878.807	4892.1
879.125	4862.27
879.444	4837.42
879.762	4826.79
880.08	4873.57
880.398	4902.5
880.716	4850.52
881.034	4861.82
881.352	4892.55
881.67	4802.84
881.988	4824.08
882.306	4845.78
882.624	4772.33
882.941	4756.06
883.259	4781.37
883.577	4778.21
883.894	4810.3
884.212	4819.11
884.529	4764.87
884.846	4784.08
885.164	4743.18
885.481	4737.08
885.798	4664.54
886.115	4644.65
886.432	4663.41
886.75	4640.81
887.067	4679.91
887.383	4624.31
887.7	4580.7
888.017	4584.09
888.334	4575.95
888.651	4528.72
888.967	4535.95
889.284	4531.89
889.6	4554.03
889.917	4495.73
890.233	4530.98
890.55	4509.06
890.866	4539.34
891.182	4520.59
891.498	4474.94
891.815	4466.13
892.131	4534.82
892.447	4485.79
892.763	4451.89
893.079	4460.25
893.395	4435.39
893.71	4423.41
894.026	4401.04
894.342	4383.19
894.657	4412.79
894.973	4362.63
895.289	4344.09
895.604	4393.36
895.92	4285.11
896.235	4313.14
896.55	4328.73
896.865	4302.06
897.181	4280.82
897.496	4273.81
897.811	4212.35
898.126	4221.16
898.441	4170.77
898.756	4166.02
899.071	4195.17
899.386	4161.5
899.7	4145
900.015	4174.61
900.33	4134.61
900.644	4160.6
900.959	4146.59
901.273	4115.63
901.588	4088.96
901.902	4048.96
902.216	4091.67
902.531	4090.54
902.845	4051
903.159	4018.91
903.473	3980.71
903.787	3962.41
904.101	3973.26
904.415	3978.23
904.729	3929.87
905.042	3883.99
905.356	3909.76
905.67	3890.1
905.984	3863.43
906.297	3884.22
906.611	3874.73
906.924	3812.81
907.237	3851.23
907.551	3825.92
907.864	3818.46
908.177	3818.46
908.491	3826.82
908.804	3741.17
909.117	3795.41
909.43	3733.26
909.743	3724.68
910.056	3700.5
910.368	3651.23
910.681	3700.5
910.994	3660.72
911.307	3678.58
911.619	3625.02
911.932	3679.48
912.244	3644.23
912.557	3606.94
912.869	3603.55
913.181	3589.54
913.494	3622.76
913.806	3581.63
914.118	3568.97
914.43	3517.9
914.742	3519.94
915.054	3496.89
915.366	3475.87
915.678	3453.72
915.99	3404.01
916.302	3450.11
916.613	3356.78
916.925	3396.32
917.236	3349.54
917.548	3352.71
917.859	3414.85
918.171	3344.57
918.482	3352.03
918.794	3337.34
919.105	3301.86
919.416	3300.05
919.727	3310.9
920.038	3268.87
920.349	3302.31
920.66	3235.65
920.971	3272.26
921.282	3213.28
921.593	3216.67
921.903	3181.87
922.214	3162.2
922.525	3131.25
922.835	3130.79
923.146	3138.7
923.456	3151.13
923.767	3107.97
924.077	3136.67
924.387	3119.27
924.697	3103.45
925.008	3070.91
925.318	3042.21
925.628	3061.19
925.938	3095.99
926.248	3032.04
926.558	3015.09
926.867	3007.63
927.177	2978.71
927.487	3022.32
927.796	2921.08
928.106	2943.45
928.416	2966.05
928.725	2925.38
929.034	2897.35
929.344	2900.97
929.653	2887.41
929.962	2849.9
930.271	2825.49
930.581	2842.44
930.89	2858.26
931.199	2813.97
931.508	2825.94
931.817	2812.16
932.125	2778.26
932.434	2780.52
932.743	2776
933.051	2756.11
933.36	2751.37
933.669	2792.72
933.977	2728.32
934.286	2715.21
934.594	2719.5
934.902	2735.55
935.21	2667.98
935.519	2709.56
935.827	2676.34
936.135	2676.34
936.443	2638.38
936.751	2682.67
937.059	2628.43
937.367	2630.47
937.674	2609.23
937.982	2619.17
938.29	2597.93
938.597	2575.1
938.905	2591.82
939.213	2564.93
939.52	2602.67
939.827	2609.45
940.135	2561.32
940.442	2543.46
940.749	2543.24
941.056	2514.54
941.363	2503.24
941.67	2475.67
941.977	2489.91
942.284	2443.58
942.591	2433.18
942.898	2432.51
943.205	2416.69
943.511	2409.23
943.818	2391.15
944.125	2390.02
944.431	2395.45
944.738	2368.78
945.044	2380.3
945.35	2355.22
945.657	2342.57
945.963	2364.49
946.269	2351.83
946.575	2321.1
946.881	2323.36
947.187	2301.21
947.493	2276.58
947.799	2305.96
948.105	2286.3
948.41	2273.87
948.716	2256.69
949.022	2221.21
949.327	2253.75
949.633	2263.25
949.938	2228.22
950.244	2246.52
950.549	2192.96
950.854	2190.03
951.16	2200.65
951.465	2201.1
951.77	2138.73
952.075	2188.67
952.38	2180.08
952.685	2163.36
952.99	2159.97
953.294	2142.34
953.599	2125.85
953.904	2089.24
954.209	2103.48
954.513	2090.37
954.818	2092.85
955.122	2078.84
955.426	2078.84
955.731	2083.82
956.035	2075.91
956.339	2042.46
956.643	2047.88
956.948	2039.07
957.252	2034.33
957.556	2010.37
957.86	2016.25
958.163	2005.63
958.467	1982.35
958.771	2008.11
959.075	2018.51
959.378	1978.73
959.682	1991.84
959.985	1983.7
960.289	1951.84
960.592	1993.65
960.896	1952.29
961.199	1951.16
961.502	1928.34
961.805	1883.37
962.108	1883.82
962.411	1885.85
962.714	1879.3
963.017	1899.64
963.32	1890.6
963.623	1852.63
963.926	1862.8
964.228	1856.48
964.531	1836.36
964.833	1844.95
965.136	1818.06
965.438	1829.36
965.741	1837.27
966.043	1830.71
966.345	1790.04
966.648	1801.79
966.95	1786.2
967.252	1778.74
967.554	1773.09
967.856	1788.91
968.158	1775.35
968.46	1767.67
968.761	1761.11
969.063	1733.99
969.365	1745.75
969.666	1746.65
969.968	1702.58
970.269	1686.54
970.571	1705.29
970.872	1693.54
971.174	1707.78
971.475	1720.21
971.776	1668.46
972.077	1676.37
972.378	1679.31
972.679	1672.53
972.98	1641.34
973.281	1655.13
973.582	1668.23
973.883	1646.31
974.183	1605.41
974.484	1649.93
974.785	1625.75
975.085	1587.11
975.386	1613.09
975.686	1613.09
975.986	1611.29
976.287	1574.45
976.587	1604.05
976.887	1595.24
977.187	1597.27
977.487	1583.49
977.787	1577.16
978.087	1557.28
978.387	1549.82
978.687	1530.38
978.987	1546.65
979.286	1520.67
979.586	1521.34
979.885	1510.05
980.185	1493.32
980.484	1522.02
980.784	1520.21
981.083	1508.69
981.382	1511.4
981.682	1471.63
981.981	1501.91
982.28	1464.62
982.579	1464.4
982.878	1473.89
983.177	1474.11
983.475	1459.88
983.774	1423.27
984.073	1443.15
984.372	1419.88
984.67	1455.36
984.969	1402.93
985.267	1418.75
985.566	1425.98
985.864	1406.09
986.162	1371.97
986.461	1409.03
986.759	1370.84
987.057	1339.65
987.355	1386.66
987.653	1363.83
987.951	1375.36
988.249	1363.16
988.547	1364.74
988.844	1326.1
989.142	1323.16
989.44	1330.39
989.737	1328.13
990.035	1327.22
990.332	1319.09
990.63	1287.68
990.927	1309.82
991.224	1311.86
991.521	1321.35
991.819	1303.5
992.116	1314.57
992.413	1325.42
992.71	1304.4
993.006	1269.15
993.303	1281.58
993.6	1260.56
993.897	1253.78
994.193	1273.67
994.49	1235.02
994.787	1237.28
995.083	1237.74
995.379	1235.48
995.676	1248.36
995.972	1244.97
996.268	1225.31
996.565	1216.95
996.861	1235.02
997.157	1209.49
997.453	1192.31
997.749	1217.85
998.044	1180.11
998.34	1160.45
998.636	1176.27
998.932	1136.04
999.227	1171.75
999.523	1154.8
999.818	1140.56
1000.114	1163.16
1000.409	1151.41
1000.704	1134.01
1001	1145.31
1001.295	1122.71
1001.59	1124.07
1001.885	1155.93
1002.18	1121.81
1002.475	1121.58
1002.77	1105.08
1003.065	1096.95
1003.359	1090.85
1003.654	1081.81
1003.949	1072.09
1004.243	1068.25
1004.538	1084.97
1004.832	1076.16
1005.127	1081.36
1005.421	1068.93
1005.715	1050.62
1006.009	1048.14
1006.304	1046.1
1006.598	1051.98
1006.892	1025.99
1007.186	1032.32
1007.48	1011.53
1007.773	1016.95
1008.067	1014.46
1008.361	1005.65
1008.655	1008.59
1008.948	1006.56
1009.242	1014.24
1009.535	1019.89
1009.829	991.41
1010.122	996.61
1010.415	988.25
1010.708	983.28
1011.001	985.99
1011.295	948.03
1011.588	982.38
1011.881	967.23
1012.173	972.21
1012.466	966.78
1012.759	937.4
1013.052	938.53
1013.344	954.35
1013.637	934.69
1013.93	913.45
1014.222	910.06
1014.514	922.49
1014.807	920.91
1015.099	921.59
1015.391	900.8
1015.683	900.57
1015.976	914.58
1016.268	880.46
1016.56	887.46
1016.851	884.3
1017.143	883.39
1017.435	887.69
1017.727	869.38
1018.018	881.14
1018.31	851.98
1018.602	842.49
1018.893	852.44
1019.185	835.49
1019.476	845.66
1019.767	813.11
1020.058	831.87
1020.35	833
1020.641	830.97
1020.932	815.15
1021.223	843.4
1021.514	798.2
1021.804	826.45
1022.095	812.44
1022.386	786.9
1022.677	815.15
1022.967	789.84
1023.258	781.25
1023.548	783.28
1023.839	763.85
1024.129	802.49
1024.419	771.76
1024.709	760.91
1025	772.89
1025.29	754.81
1025.58	759.78
1025.87	797.07
1026.16	764.08
1026.449	760.01
1026.739	735.6
1027.029	702.38
1027.319	722.5
1027.608	738.77
1027.898	724.98
1028.187	732.89
1028.477	709.16
1028.766	731.53
1029.055	690.41
1029.344	744.19
1029.634	705.55
1029.923	715.49
1030.212	713.68
1030.501	702.16
1030.79	690.18
1031.078	695.15
1031.367	682.95
1031.656	673.46
1031.945	656.73
1032.233	652.67
1032.522	685.66
1032.81	677.52
1033.099	677.3
1033.387	677.07
1033.675	678.65
1033.963	634.36
1034.251	645.21
1034.54	660.12
1034.828	648.6
1035.116	671.65
1035.403	665.1
1035.691	642.27
1035.979	628.26
1036.267	618.32
1036.554	646.34
1036.842	626.9
1037.129	627.13
1037.417	620.8
1037.704	604.31
1037.992	604.53
1038.279	616.74
1038.566	623.51
1038.853	623.51
1039.14	623.51
