Data from black_plastic_tray_FLMS001491_071.txt Node
Date: Tue Feb 07 10:40:34 GMT 2017
User: dcchb
Spectrometer: FLMS00149
Trigger mode: 0
Integration Time (sec): 2.000000E-2
Scans to average: 10
Electric dark correction enabled: true
Nonlinearity correction enabled: false
Boxcar width: 0
XAxis mode: Wavelengths
Number of Pixels in Spectrum: 2048
>>>>>Begin Spectral Data<<<<<
341.393	-0.76
341.776	-0.76
342.16	-0.76
342.543	-51.61
342.927	-70.14
343.31	-43.02
343.693	-70.59
344.077	-52.29
344.46	-44.15
344.843	-65.85
345.226	-30.14
345.61	-32.4
345.993	-25.39
346.376	-8.45
346.759	10.99
347.142	21.38
347.525	30.42
347.908	52.34
348.291	74.72
348.674	79.46
349.057	102.96
349.44	121.72
349.823	145.22
350.206	153.13
350.588	199.46
350.971	193.58
351.354	219.57
351.737	216.41
352.119	227.25
352.502	250.53
352.884	242.85
353.267	279.91
353.65	288.72
354.032	303.18
354.414	297.08
354.797	303.18
355.179	290.08
355.562	323.3
355.944	318.1
356.326	312.45
356.709	325.33
357.091	332.79
357.473	335.27
357.855	344.31
358.238	327.36
358.62	336.18
359.002	344.31
359.384	329.4
359.766	356.52
360.148	335.95
360.53	336.4
360.912	335.95
361.294	301.6
361.676	324.2
362.057	326.91
362.439	350.41
362.821	335.73
363.203	322.17
363.584	337.08
363.966	337.08
364.348	321.71
364.729	293.01
365.111	333.69
365.493	316.97
365.874	317.42
366.256	316.74
366.637	309.96
367.019	333.47
367.4	336.63
367.781	333.24
368.163	308.61
368.544	283.98
368.925	313.81
369.306	330.53
369.688	306.35
370.069	330.75
370.45	307.25
370.831	322.17
371.212	311.55
371.593	330.98
371.974	312.9
372.355	326.69
372.736	325.33
373.117	316.97
373.498	319.68
373.879	327.36
374.26	302.73
374.641	312
375.021	320.13
375.402	325.1
375.783	333.01
376.163	344.09
376.544	330.75
376.925	331.43
377.305	305.9
377.686	332.34
378.066	309.74
378.447	330.08
378.827	335.5
379.208	342.05
379.588	354.03
379.968	346.35
380.349	349.96
380.729	337.31
381.109	346.8
381.489	347.48
381.87	347.25
382.25	362.17
382.63	343.64
383.01	357.87
383.39	349.28
383.77	349.06
384.15	345.89
384.53	333.92
384.91	354.48
385.29	365.33
385.67	357.65
386.049	384.76
386.429	349.74
386.809	387.02
387.189	368.27
387.568	361.26
387.948	372.79
388.328	375.95
388.707	372.11
389.087	381.83
389.466	388.15
389.846	398.77
390.225	380.47
390.605	384.99
390.984	389.74
391.363	406.46
391.743	402.39
392.122	380.92
392.501	408.27
392.881	424.76
393.26	413.92
393.639	395.84
394.018	405.55
394.397	405.78
394.776	415.05
395.155	425.67
395.534	407.36
395.913	417.31
396.292	428.15
396.671	443.75
397.05	444.2
397.429	417.08
397.808	428.38
398.186	432.9
398.565	438.32
398.944	442.84
399.323	442.84
399.701	441.71
400.08	443.07
400.458	453.01
400.837	466.8
401.215	462.95
401.594	451.88
401.972	460.69
402.351	474.25
402.729	462.28
403.107	462.95
403.486	468.83
403.864	468.38
404.242	467.25
404.62	458.89
404.999	474.25
405.377	496.4
405.755	482.39
406.133	485.78
406.511	499.79
406.889	523.29
407.267	507.47
407.645	498.43
408.023	503.18
408.401	514.03
408.779	531.2
409.156	524.42
409.534	516.51
409.912	547.47
410.29	521.71
410.667	534.59
411.045	567.13
411.422	552.67
411.8	569.39
412.178	560.58
412.555	574.14
412.933	561.26
413.31	567.58
413.687	586.79
414.065	579.79
414.442	577.75
414.819	589.05
415.197	613.01
415.574	613.68
415.951	608.71
416.328	597.64
416.705	628.83
417.082	608.94
417.46	602.39
417.837	633.8
418.214	628.15
418.591	633.12
418.967	625.44
419.344	646.9
419.721	626.11
420.098	647.13
420.475	670.86
420.852	644.64
421.228	675.15
421.605	689.39
421.982	693.23
422.358	691.42
422.735	697.52
423.111	682.38
423.488	688.03
423.864	714.25
424.241	717.86
424.617	724.87
424.994	737.75
425.37	742.27
425.746	754.02
426.123	744.3
426.499	736.85
426.875	754.7
427.251	740.91
427.627	788.82
428.003	762.16
428.379	775.49
428.756	802.15
429.132	802.61
429.507	809.84
429.883	808.93
430.259	831.31
430.635	840.57
431.011	835.15
431.387	839.67
431.763	874.24
432.138	855.03
432.514	866.11
432.89	868.82
433.265	876.28
433.641	915.6
434.016	906.33
434.392	905.43
434.767	930.96
435.143	935.26
435.518	953.34
435.894	970.74
436.269	941.59
436.644	945.65
437.02	990.85
437.395	981.36
437.77	977.97
438.145	1028.59
438.52	1007.57
438.895	1037.63
439.271	990.17
439.646	1035.59
440.021	1053.67
440.395	1044.41
440.77	1036.5
441.145	1043.05
441.52	1074.24
441.895	1070.85
442.27	1072.88
442.645	1079.89
443.019	1076.5
443.394	1084.18
443.769	1107.68
444.143	1084.18
444.518	1120.79
444.892	1143.39
445.267	1149.04
445.641	1128.93
446.016	1155.82
446.39	1145.87
446.764	1149.26
447.139	1157.4
447.513	1166.89
447.887	1177.29
448.262	1197.4
448.636	1170.96
449.01	1214.35
449.384	1200.11
449.758	1238.75
450.132	1227
450.506	1226.55
450.88	1276.04
451.254	1229.94
451.628	1279.43
452.002	1269.26
452.376	1268.13
452.75	1289.82
453.123	1280.79
453.497	1342.03
453.871	1317.39
454.244	1348.35
454.618	1356.26
454.992	1389.26
455.365	1397.17
455.739	1411.18
456.112	1413.66
456.486	1423.83
456.859	1451.63
457.232	1446.2
457.606	1445.75
457.979	1500.89
458.352	1520.78
458.725	1528.69
459.099	1534.56
459.472	1576.6
459.845	1547.9
460.218	1596.71
460.591	1593.32
460.964	1608.46
461.337	1624.05
461.71	1659.31
462.083	1706.54
462.456	1697.27
462.829	1696.37
463.201	1723.26
463.574	1736.82
463.947	1733.43
464.32	1792.41
464.692	1805.97
465.065	1788.57
465.438	1805.97
465.81	1870.83
466.183	1889.13
466.555	1927.1
466.928	1949.47
467.3	1909.7
467.672	1946.3
468.045	2002.35
468.417	2004.16
468.789	2022.01
469.161	2050.48
469.534	2056.13
469.906	2111.05
470.278	2140.42
470.65	2167.54
471.022	2161.67
471.394	2240.76
471.766	2216.58
472.138	2244.38
472.51	2332.06
472.882	2331.15
473.253	2335.22
473.625	2393.52
473.997	2438.95
474.369	2451.6
474.74	2472.62
475.112	2499.28
475.484	2579.96
475.855	2584.48
476.227	2610.47
476.598	2683.69
476.97	2711.93
477.341	2764.36
477.713	2777.24
478.084	2821.08
478.455	2887.97
478.827	2885.04
479.198	2967.07
479.569	2995.99
479.94	3041.42
480.311	3081.87
480.682	3128.87
481.053	3239.83
481.424	3266.27
481.795	3305.59
482.166	3352.37
482.537	3383.56
482.908	3489.54
483.279	3453.61
483.65	3531.57
484.021	3648.41
484.391	3613.83
484.762	3661.06
485.133	3698.35
485.503	3713.49
485.874	3840.27
486.244	3841.85
486.615	3946.7
486.985	3969.75
487.356	4026.48
487.726	4068.96
488.097	4158.9
488.467	4155.74
488.837	4233.48
489.207	4281.38
489.578	4350.54
489.948	4380.82
490.318	4492.45
490.688	4435.28
491.058	4534.94
491.428	4579.68
491.798	4634.6
492.168	4721.37
492.538	4736.29
492.908	4776.51
493.278	4821.71
493.648	4856.96
494.017	4913.01
494.387	4928.83
494.757	4983.29
495.126	5061.25
495.496	5041.82
495.866	5141.25
496.235	5218.54
496.605	5159.1
496.974	5216.95
497.344	5288.36
497.713	5320.91
498.082	5328.59
498.452	5421.24
498.821	5422.37
499.19	5435.25
499.559	5533.78
499.928	5523.84
500.298	5543.05
500.667	5587.79
501.036	5654.46
501.405	5691.97
501.774	5719.99
502.143	5756.15
502.512	5739.43
502.88	5816.49
503.249	5839.31
503.618	5861
503.987	5929.02
504.356	5974
504.724	5977.84
505.093	6031.62
505.462	6049.7
505.83	6082.92
506.199	6166.53
506.567	6262.35
506.936	6249.92
507.304	6302.12
507.672	6308.45
508.041	6418.96
508.409	6404.49
508.777	6484.94
509.145	6506.86
509.514	6511.61
509.882	6589.8
510.25	6651.49
510.618	6632.06
510.986	6681.55
511.354	6758.16
511.722	6808.32
512.09	6873.86
512.458	6879.73
512.826	6976.68
513.193	6933.07
513.561	7048.54
513.929	7037.24
514.297	7116.34
514.664	7172.83
515.032	7194.08
515.4	7251.7
515.767	7352.49
516.135	7274.75
516.502	7293.06
516.869	7467.06
517.237	7500.96
517.604	7459.15
517.972	7506.61
518.339	7617.79
518.706	7680.39
519.073	7737.56
519.44	7745.25
519.808	7841.97
520.175	7902.31
520.542	7973.49
520.909	8064.56
521.276	8001.96
521.643	8132.81
522.009	8113.15
522.376	8252.13
522.743	8278.12
523.11	8359.92
523.477	8457.32
523.843	8460.03
524.21	8493.48
524.577	8590.65
524.943	8690.08
525.31	8722.62
525.676	8752.91
526.043	8822.06
526.409	8952.67
526.776	8982.5
527.142	8982.28
527.508	9036.06
527.874	9101.37
528.241	9168.26
528.607	9215.94
528.973	9343.17
529.339	9334.13
529.705	9471.53
530.071	9493.68
530.437	9483.73
530.803	9624.75
531.169	9678.3
531.535	9624.52
531.901	9668.14
532.267	9739.09
532.632	9853.22
532.998	9779.09
533.364	9925.08
533.73	9896.15
534.095	10032.19
534.461	10085.53
534.826	10142.93
535.192	10069.48
535.557	10219.08
535.923	10234.67
536.288	10257.95
536.653	10339.98
537.019	10305.63
537.384	10354.45
537.749	10445.52
538.114	10478.74
538.479	10508.57
538.845	10582.24
539.21	10604.61
539.575	10600.54
539.94	10669.92
540.305	10673.76
540.67	10735.45
541.034	10725.28
541.399	10820.65
541.764	10795.11
542.129	10916.69
542.494	10855.22
542.858	10970.47
543.223	10869.91
543.587	11029.91
543.952	10964.6
544.316	11073.52
544.681	11098.15
545.045	11109.68
545.41	11111.71
545.774	11196.68
546.138	11224.48
546.503	11261.54
546.867	11251.82
547.231	11384.25
547.595	11452.04
547.959	11443.23
548.324	11490.23
548.688	11502.21
549.052	11520.74
549.416	11494.3
549.779	11605.03
550.143	11633.73
550.507	11703.79
550.871	11745.6
551.235	11698.36
551.599	11836.21
551.962	11877.57
552.326	11922.09
552.689	11995.98
553.053	12000.05
553.417	11963.67
553.78	12198.92
554.143	12170.44
554.507	12207.73
554.87	12197.11
555.234	12408.85
555.597	12347.39
555.96	12306.71
556.323	12367.27
556.686	12412.7
557.05	12539.92
557.413	12489.53
557.776	12562.97
558.139	12675.29
558.502	12719.81
558.865	12773.36
559.228	12916.64
559.59	12928.39
559.953	13003.42
560.316	13031.44
560.679	13046.58
561.041	13089.74
561.404	13169.29
561.767	13213.13
562.129	13172.9
562.492	13334.25
562.854	13318.89
563.217	13312.33
563.579	13406.12
563.941	13507.58
564.304	13574.7
564.666	13636.84
565.028	13600.91
565.39	13733.11
565.753	13833.45
566.115	13842.04
566.477	13854.69
566.839	13945.99
567.201	14042.94
567.563	14039.55
567.925	14066.44
568.287	14146.44
568.648	14171.52
569.01	14329.48
569.372	14314.12
569.734	14346.43
570.095	14472.3
570.457	14501.68
570.819	14605.18
571.18	14580.1
571.542	14630.49
571.903	14680.43
572.265	14639.76
572.626	14773.54
572.987	14766.76
573.349	14790.71
573.71	14846.98
574.071	14904.61
574.432	14965.85
574.794	15063.02
575.155	15028.45
575.516	14988.9
575.877	15034.77
576.238	15114.09
576.599	15072.51
576.96	15056.24
577.32	15123.59
577.681	15198.61
578.042	15234.77
578.403	15353.18
578.763	15343.47
579.124	15333.52
579.485	15447.64
579.845	15413.52
580.206	15380.3
580.566	15401.32
580.927	15389.79
581.287	15350.02
581.648	15431.6
582.008	15423.24
582.368	15428.44
582.728	15506.85
583.089	15465.27
583.449	15494.2
583.809	15447.87
584.169	15515.21
584.529	15512.28
584.889	15616
585.249	15525.38
585.609	15446.29
585.969	15617.58
586.329	15566.06
586.688	15580.3
587.048	15497.13
587.408	15484.71
587.768	15441.77
588.127	15480.41
588.487	15554.99
588.846	15597.47
589.206	15527.64
589.565	15486.97
589.925	15515.44
590.284	15499.85
590.643	15587.08
591.003	15637.02
591.362	15618.71
591.721	15599.73
592.08	15579.84
592.44	15627.53
592.799	15659.62
593.158	15635.44
593.517	15644.7
593.876	15685.6
594.235	15644.25
594.593	15678.83
594.952	15677.47
595.311	15610.8
595.67	15637.7
596.029	15785.26
596.387	15738.48
596.746	15853.28
597.104	15755.21
597.463	15686.51
597.822	15711.37
598.18	15680.63
598.538	15735.32
598.897	15833.17
599.255	15625.27
599.613	15908.65
599.972	15765.15
600.33	15879.5
600.688	15812.15
601.046	15757.69
601.404	15946.16
601.762	15809.44
602.12	15907.07
602.478	16009.66
602.836	15919.04
603.194	15846.73
603.552	15847.18
603.91	15790.91
604.268	15981.19
604.625	15966.05
604.983	15917.91
605.341	15851.7
605.698	15948.87
606.056	15984.13
606.413	15952.49
606.771	16035.43
607.128	16046.27
607.485	16047.63
607.843	15966.28
608.2	16076.55
608.557	16181.86
608.914	16117.68
609.272	16078.81
609.629	16223.67
609.986	16189.09
610.343	16144.35
610.7	16269.54
611.057	16230.22
611.414	16247.4
611.771	16220.73
612.127	16227.96
612.484	16264.35
612.841	16375.53
613.198	16378.02
613.554	16376.43
613.911	16418.69
614.267	16363.33
614.624	16320.16
614.98	16279.94
615.337	16434.06
615.693	16383.21
616.05	16312.71
616.406	16520.16
616.762	16417.11
617.118	16492.59
617.475	16497.33
617.831	16562.64
618.187	16540.95
618.543	16602.64
618.899	16566.71
619.255	16626.37
619.611	16574.85
619.967	16574.39
620.323	16618.91
620.678	16602.19
621.034	16658.01
621.39	16539.14
621.746	16505.47
622.101	16644.68
622.457	16575.07
622.812	16709.98
623.168	16586.82
623.523	16647.84
623.879	16699.36
624.234	16568.75
624.589	16664.79
624.945	16647.61
625.3	16711.57
625.655	16609.65
626.01	16558.12
626.365	16715.41
626.72	16614.17
627.075	16699.59
627.43	16621.17
627.785	16633.15
628.14	16587.28
628.495	16795.63
628.85	16676.54
629.205	16548.86
629.559	16609.65
629.914	16616.2
630.269	16491.46
630.623	16561.51
630.978	16477.22
631.332	16619.59
631.687	16643.77
632.041	16428.41
632.396	16541.18
632.75	16502.76
633.104	16453.27
633.459	16397.22
633.813	16441.06
634.167	16349.99
634.521	16400.84
634.875	16314.06
635.229	16298.02
635.583	16358.36
635.937	16178.25
636.291	16228.19
636.645	16188.42
636.999	16124.24
637.352	16088.76
637.706	16097.8
638.06	16006.27
638.413	16166.04
638.767	16089.66
639.121	16042.66
639.474	15974.64
639.828	16035.65
640.181	16106.38
640.534	16047.85
640.888	15896.9
641.241	15827.07
641.594	15874.98
641.947	15962.21
642.301	15857.58
642.654	15938.03
643.007	15865.26
643.36	15785.71
643.713	15878.59
644.066	15804.02
644.419	15723.34
644.771	15715.89
645.124	15572.16
645.477	15569.45
645.83	15450.36
646.182	15325.61
646.535	15379.85
646.888	15357.03
647.24	15219.18
647.593	15287.87
647.945	15208.1
648.298	15183.24
648.65	15127.65
649.002	15150.25
649.355	15180.76
649.707	15103.02
650.059	15094.43
650.411	15322.22
650.763	15415.33
651.115	15519.06
651.467	15457.81
651.819	15487.19
652.171	15414.65
652.523	15386.18
652.875	15470.69
653.227	15462.33
653.578	15513.86
653.93	15410.81
654.282	15357.03
654.633	15320.42
654.985	15319.51
655.337	15356.12
655.688	15381.43
656.039	15326.74
656.391	15206.07
656.742	15251.04
657.094	15197.93
657.445	15352.96
657.796	15208.33
658.147	15115
658.498	15168.78
658.849	15312.73
659.2	15259.63
659.551	15270.02
659.902	15222.57
660.253	15245.84
660.604	15231.83
660.955	15108.44
661.306	15144.6
661.656	15055.56
662.007	15113.19
662.358	15045.85
662.708	15037.26
663.059	15085.17
663.409	15025.51
663.76	15066.19
664.11	15055.79
664.461	14978.28
664.811	15120.87
665.161	14993.87
665.511	15053.3
665.862	15026.19
666.212	14981.44
666.562	14965.85
666.912	14945.06
667.262	14953.19
667.612	14930.37
667.962	14994.55
668.312	14896.47
668.662	15008.56
669.011	14984.83
669.361	14948.22
669.711	14810.15
670.06	14820.54
670.41	14844.5
670.76	14794.55
671.109	14862.8
671.459	14755.23
671.808	14776.48
672.157	14770.83
672.507	14780.54
672.856	14775.12
673.205	14762.01
673.554	14806.08
673.904	14736.02
674.253	14786.65
674.602	14695.35
674.951	14518.18
675.3	14385.3
675.649	14626.2
675.998	14640.66
676.346	14731.28
676.695	14723.37
677.044	14649.25
677.393	14687.89
677.741	14634.33
678.09	14562.02
678.438	14545.75
678.787	14579.64
679.135	14543.04
679.484	14448.35
679.832	14545.75
680.181	14436.15
680.529	14579.42
680.877	14522.7
681.225	14421.91
681.573	14497.84
681.922	14418.29
682.27	14352.98
682.618	14411.74
682.966	14303.27
683.314	14450.16
683.661	14348.01
684.009	14267.79
684.357	14191.18
684.705	14214.23
685.053	14289.26
685.4	14260.33
685.748	14251.74
686.095	14185.53
686.443	14061.01
686.79	14073.22
687.138	14099.21
687.485	14069.15
687.832	14048.59
688.18	14033.9
688.527	13965.65
688.874	13931.98
689.221	13906.22
689.568	13856.27
689.915	13865.99
690.262	13820.79
690.609	13744.41
690.956	13752.32
691.303	13595.94
691.65	13516.17
691.997	13546.68
692.344	13529.05
692.69	13457.87
693.037	13565.66
693.383	13428.26
693.73	13582.16
694.077	13423.29
694.423	13527.7
694.769	13449.96
695.116	13372.22
695.462	13326.34
695.808	13212.9
696.155	13322.95
696.501	13195.05
696.847	13224.65
697.193	13060.81
697.539	13157.99
697.885	13059.91
698.231	12924.55
698.577	13018.56
698.923	13041.15
699.269	12909.41
699.614	12836.64
699.96	12861.05
700.306	12837.54
700.651	12729.98
700.997	12770.65
701.342	12613.82
701.688	12703.31
702.033	12689.3
702.379	12593.71
702.724	12610.66
703.069	12664.22
703.415	12482.07
703.76	12488.17
704.105	12478.46
704.45	12457.44
704.795	12360.72
705.14	12382.41
705.485	12341.06
705.83	12317.11
706.175	12429.64
706.52	12294.06
706.865	12217.67
707.209	12181.97
707.554	12169.31
707.899	12150.56
708.243	12146.04
708.588	12146.04
708.932	12024.46
709.277	12104
709.621	12082.31
709.966	12012.03
710.31	11948.53
710.654	11918.02
710.998	11858.59
711.342	11867.63
711.687	11940.84
712.031	11758.93
712.375	11740.62
712.719	11785.14
713.063	11735.43
713.407	11789.21
713.75	11704.69
714.094	11655.2
714.438	11650.23
714.782	11608.2
715.125	11532.72
715.469	11551.02
715.812	11480.52
716.156	11476
716.499	11423.34
716.843	11451.82
717.186	11493.85
717.53	11488.2
717.873	11448.65
718.216	11363.01
718.559	11418.6
718.902	11325.72
719.246	11353.52
719.589	11306.06
719.932	11251.14
720.275	11250.01
720.617	11284.14
720.96	11136.12
721.303	11185.61
721.646	11306.06
721.989	11151.49
722.331	11196.68
722.674	11161.66
723.016	11095.89
723.359	11077.36
723.701	11072.84
724.044	11101.77
724.386	11033.52
724.729	11090.02
725.071	10959.85
725.413	11041.88
725.755	10920.08
726.097	10907.2
726.439	10852.51
726.782	10836.69
727.124	10927.99
727.465	10799.63
727.807	10750.82
728.149	10870.82
728.491	10770.48
728.833	10870.36
729.175	10778.16
729.516	10751.72
729.858	10677.83
730.199	10697.26
730.541	10767.99
730.882	10720.54
731.224	10670.6
731.565	10600.77
731.906	10660.88
732.248	10598.51
732.589	10528.45
732.93	10590.15
733.271	10559.19
733.612	10569.35
733.953	10553.31
734.294	10554.44
734.635	10470.6
734.976	10511.28
735.317	10454.78
735.658	10449.58
735.999	10469.02
736.339	10451.84
736.68	10437.61
737.021	10337.5
737.361	10303.37
737.702	10410.04
738.042	10370.26
738.383	10364.16
738.723	10380.21
739.063	10319.19
739.404	10300.66
739.744	10302.7
740.084	10211.62
740.424	10251.62
740.764	10260.89
741.104	10219.08
741.444	10180.21
741.784	10141.8
742.124	10153.09
742.464	10120.33
742.804	10121.91
743.143	10097.05
743.483	10174.79
743.823	10056.83
744.162	10055.47
744.502	10076.94
744.841	10007.56
745.181	10077.84
745.52	9982.7
745.86	9994.45
746.199	10006.88
746.538	9968.92
746.877	9961.01
747.216	9922.59
747.556	9855.48
747.895	9941.12
748.234	9900.9
748.573	9930.28
748.911	9901.12
749.25	9878.3
749.589	9784.06
749.928	9826.32
750.267	9872.65
750.605	9804.4
750.944	9773.9
751.283	9651.19
751.621	9761.47
751.96	9648.25
752.298	9731.18
752.636	9691.64
752.975	9608.48
753.313	9648.02
753.651	9647.57
753.989	9618.42
754.327	9517.41
754.666	9451.19
755.004	9482.15
755.342	9517.41
755.679	9451.87
756.017	9344.98
756.355	9365.32
756.693	9400.8
757.031	9406.9
757.368	9396.5
757.706	9234.25
758.044	9265.66
758.381	9300.91
758.719	9199.22
759.056	9274.25
759.394	9227.7
759.731	9156.74
760.068	9160.13
760.405	9154.93
760.743	9037.87
761.08	9035.38
761.417	9036.06
761.754	9055.04
762.091	8979.79
762.428	9032.22
762.765	8926.69
763.102	8973.01
763.438	8883.52
763.775	8839.68
764.112	8866.57
764.449	8835.84
764.785	8779.8
765.122	8753.81
765.458	8737.09
765.795	8682.85
766.131	8703.64
766.467	8665.9
766.804	8649.18
767.14	8589.97
767.476	8540.03
767.812	8542.06
768.148	8504.55
768.485	8468.39
768.821	8494.16
769.157	8475.17
769.492	8439.02
769.828	8432.46
770.164	8288.96
770.5	8328.74
770.836	8356.76
771.171	8247.61
771.507	8200.6
771.842	8184.33
772.178	8192.92
772.513	8164.9
772.849	8141.85
773.184	8058.69
773.519	8091.45
773.855	8051.91
774.19	7975.52
774.525	8008.07
774.86	8061.85
775.195	7918.8
775.53	7899.37
775.865	7927.16
776.2	7857.79
776.535	7810.78
776.87	7820.73
777.205	7749.09
777.539	7708.64
777.874	7767.39
778.209	7667.74
778.543	7619.38
778.878	7565.59
779.212	7649.21
779.547	7577.57
779.881	7597.46
780.215	7509.32
780.55	7522.43
780.884	7346.39
781.218	7323.56
781.552	7414.86
781.886	7317.01
782.22	7324.92
782.554	7285.37
782.888	7210.8
783.222	7201.08
783.556	7230.01
783.889	7183.91
784.223	7192.72
784.557	7201.31
784.89	7135.09
785.224	7110.24
785.557	7110.69
785.891	7039.96
786.224	7038.6
786.558	7012.61
786.891	6969.9
787.224	6959.51
787.557	6904.37
787.891	6975.1
788.224	6901.2
788.557	6943.46
788.89	6946.63
789.223	6894.2
789.556	6844.03
789.888	6823.46
790.221	6814.65
790.554	6743.69
790.887	6740.75
791.219	6682
791.552	6667.08
791.884	6630.02
792.217	6584.6
792.549	6568.56
792.882	6533.75
793.214	6540.53
793.546	6553.19
793.879	6535.34
794.211	6476.13
794.543	6480.2
794.875	6465.51
795.207	6451.5
795.539	6413.76
795.871	6432.51
796.203	6363.14
796.535	6274.78
796.867	6279.07
797.198	6243.14
797.53	6206.31
797.862	6234.33
798.193	6232.97
798.525	6197.04
798.856	6178.96
799.188	6129.02
799.519	6094.44
799.85	6103.26
800.182	6065.74
800.513	6136.03
800.844	6044.05
801.175	6036.14
801.506	6068.68
801.837	6068.23
802.168	5998.18
802.499	5995.92
802.83	5961.79
803.161	5954.56
803.491	5944.84
803.822	5886.99
804.153	5945.75
804.483	5856.71
804.814	5814.23
805.145	5802.7
805.475	5836.37
805.805	5749.59
806.136	5782.59
806.466	5788.69
806.796	5839.76
807.126	5651.07
807.457	5700.56
807.787	5672.99
808.117	5750.72
808.447	5643.83
808.777	5693.32
809.107	5669.14
809.436	5661.24
809.766	5620.56
810.096	5563.84
810.426	5557.51
810.755	5574.91
811.085	5595.93
811.414	5585.98
811.744	5543.72
812.073	5498.53
812.403	5525.87
812.732	5511.63
813.061	5443.84
813.39	5445.87
813.719	5454.01
814.049	5457.17
814.378	5449.72
814.707	5408.13
815.036	5415.82
815.365	5391.19
815.693	5286.33
816.022	5372.88
816.351	5292.21
816.68	5310.74
817.008	5331.75
817.337	5254.92
817.665	5265.99
817.994	5301.02
818.322	5231.42
818.651	5240.91
818.979	5200.68
819.307	5245.65
819.636	5255.82
819.964	5197.07
820.292	5207.01
820.62	5189.84
820.948	5165.2
821.276	5206.78
821.604	5182.83
821.932	5200
822.259	5197.74
822.587	5199.55
822.915	5177.86
823.243	5190.74
823.57	5123.4
823.898	5155.03
824.225	5133.79
824.553	5151.64
824.88	5169.5
825.207	5190.29
825.535	5174.02
825.862	5213.11
826.189	5133.34
826.516	5217.63
826.843	5239.1
827.17	5181.7
827.497	5228.93
827.824	5163.17
828.151	5168.82
828.478	5144.41
828.805	5159.33
829.131	5127.92
829.458	5198.87
829.785	5119.33
830.111	5152.32
830.438	5133.11
830.764	5200.46
831.09	5117.29
831.417	5129.72
831.743	5157.52
832.069	5134.24
832.395	5108.03
832.722	5162.49
833.048	5101.02
833.374	5111.65
833.7	5055.83
834.026	5069.39
834.351	5124.75
834.677	5022.61
835.003	5066.45
835.329	5112.32
835.654	5071.42
835.98	5092.44
836.306	5030.52
836.631	5040.46
836.956	5059.44
837.282	5061.03
837.607	5037.75
837.932	4964.08
838.258	4976.73
838.583	5017.86
838.908	4953.46
839.233	5005.66
839.558	5028.48
839.883	4935.83
840.208	4931.54
840.533	4938.99
840.858	4899.22
841.182	4971.08
841.507	4934.02
841.832	4959.11
842.156	4918.88
842.481	4914.81
842.805	4878.43
843.13	4868.26
843.454	4925.89
843.778	4825.33
844.103	4880.24
844.427	4877.3
844.751	4843.63
845.075	4844.08
845.399	4805.89
845.723	4768.15
846.047	4827.58
846.371	4756.85
846.695	4789.17
847.019	4709.4
847.343	4724.76
847.666	4700.36
847.99	4700.36
848.313	4657.19
848.637	4626.23
848.96	4611.09
849.284	4601.6
849.607	4526.12
849.931	4555.5
850.254	4516.86
850.577	4489.06
850.9	4476.41
851.223	4455.62
851.546	4483.64
851.869	4444.32
852.192	4489.74
852.515	4452.23
852.838	4387.6
853.161	4391.89
853.483	4386.01
853.806	4342.63
854.129	4367.03
854.451	4314.83
854.774	4351.21
855.096	4293.59
855.419	4309.63
855.741	4315.73
856.063	4276.19
856.385	4317.09
856.708	4272.57
857.03	4231.22
857.352	4238.22
857.674	4238.9
857.996	4192.35
858.318	4220.14
858.64	4136.3
858.961	4153.93
859.283	4156.42
859.605	4174.04
859.926	4140.15
860.248	4166.81
860.57	4136.53
860.891	4097.66
861.212	4073.03
861.534	4061.96
861.855	4042.29
862.176	4118.9
862.498	4080.49
862.819	4075.97
863.14	4042.52
863.461	4028.51
863.782	4048.4
864.103	4005.46
864.424	4012.24
864.745	4043.88
865.065	3985.8
865.386	4010.21
865.707	4033.71
866.027	3991.22
866.348	4006.14
866.668	3969.75
866.989	3961.62
867.309	3961.84
867.63	3964.1
867.95	3926.59
868.27	3960.26
868.59	3931.56
868.91	3943.99
869.23	3936.31
869.55	3887.72
869.87	3958.91
870.19	3912.13
870.51	3839.36
870.83	3911.22
871.15	3904.9
871.469	3890.43
871.789	3883.2
872.109	3874.39
872.428	3854.5
872.748	3841.85
873.067	3843.43
873.386	3839.36
873.706	3869.87
874.025	3821.51
874.344	3800.04
874.663	3810.66
874.982	3797.56
875.301	3808.85
875.62	3783.77
875.939	3793.94
876.258	3767.5
876.577	3745.35
876.896	3756.65
877.214	3749.2
877.533	3742.64
877.852	3782.19
878.17	3800.49
878.489	3740.38
878.807	3787.39
879.125	3770.44
879.444	3751
879.762	3724.79
880.08	3693.15
880.398	3708.52
880.716	3739.03
881.034	3703.09
881.352	3726.82
881.67	3666.71
881.988	3683.89
882.306	3676.43
882.624	3662.87
882.941	3676.65
883.259	3656.54
883.577	3643.21
883.894	3671.46
884.212	3651.57
884.529	3650.89
884.846	3628.52
885.164	3627.16
885.481	3611.57
885.798	3610.89
886.115	3539.03
886.432	3531.35
886.75	3558.47
887.067	3580.39
887.383	3506.26
887.7	3534.06
888.017	3516.21
888.334	3496.09
888.651	3485.02
888.967	3474.85
889.284	3482.54
889.6	3482.08
889.917	3442.99
890.233	3443.89
890.55	3437.79
890.866	3421.07
891.182	3501.74
891.498	3436.66
891.815	3458.81
892.131	3410.9
892.447	3438.92
892.763	3429.88
893.079	3401.86
893.395	3400.28
893.71	3378.81
894.026	3388.98
894.342	3353.27
894.657	3379.26
894.973	3292.48
895.289	3294.07
895.604	3318.47
895.92	3324.35
896.235	3271.24
896.55	3275.08
896.865	3219.49
897.181	3261.98
897.496	3274.41
897.811	3271.47
898.126	3228.76
898.441	3210.9
898.756	3196.89
899.071	3203.9
899.386	3202.54
899.7	3139.72
900.015	3169.1
900.33	3147.63
900.644	3185.82
900.959	3176.55
901.273	3085.48
901.588	3151.47
901.902	3123.67
902.216	3077.8
902.531	3151.24
902.845	3102.43
903.159	3086.16
903.473	3061.53
903.787	3060.17
904.101	3003.9
904.415	3045.03
904.729	3037.12
905.042	2993.06
905.356	2982.66
905.67	3023.11
905.984	3014.98
906.297	3004.36
906.611	2972.72
906.924	2948.09
907.237	2950.12
907.551	2967.52
907.864	2923.45
908.177	2950.12
908.491	2910.12
908.804	2891.59
909.117	2861.31
909.43	2846.17
909.743	2830.58
910.056	2858.37
910.368	2855.21
910.681	2827.19
910.994	2793.97
911.307	2818.15
911.619	2816.11
911.932	2798.94
912.244	2796.23
912.557	2816.11
912.869	2779.73
913.181	2770.46
913.494	2756.23
913.806	2741.54
914.118	2699.96
914.43	2734.98
914.742	2711.48
915.054	2690.47
915.366	2657.02
915.678	2668.55
915.99	2637.81
916.302	2656.79
916.613	2645.27
916.925	2627.42
917.236	2637.59
917.548	2600.75
917.859	2619.73
918.171	2562.56
918.482	2593.07
918.794	2576.12
919.105	2578.15
919.416	2548.55
919.727	2571.37
920.038	2522.79
920.349	2504.93
920.66	2540.64
920.971	2492.51
921.282	2505.61
921.593	2507.19
921.903	2482.11
922.214	2471.04
922.525	2451.83
922.835	2449.34
923.146	2427.2
923.456	2428.1
923.767	2418.38
924.077	2401.43
924.387	2408.67
924.697	2447.76
925.008	2407.99
925.318	2364.15
925.628	2358.05
925.938	2344.03
926.248	2360.31
926.558	2369.8
926.867	2335.9
927.177	2329.57
927.487	2361.89
927.796	2327.54
928.106	2304.71
928.416	2309.46
928.725	2275.56
929.034	2261.32
929.344	2253.19
929.653	2271.27
929.962	2246.18
930.271	2215.22
930.581	2215.68
930.89	2198.28
931.199	2218.16
931.508	2215.45
931.817	2218.39
932.125	2184.04
932.434	2132.06
932.743	2151.5
933.051	2169.58
933.36	2130.03
933.669	2127.32
933.977	2116.02
934.286	2146.07
934.594	2126.64
934.902	2107.43
935.21	2114.21
935.519	2089.35
935.827	2066.3
936.135	2128.45
936.443	2075.11
936.751	2095
937.059	2032.86
937.367	2040.09
937.674	2064.49
937.982	2031.27
938.29	2046.64
938.597	2076.02
938.905	2005.96
939.213	2042.12
939.52	2030.6
939.827	2009.35
940.135	1987.89
940.442	1996.47
940.749	1987.43
941.056	2004.16
941.363	1939.07
941.67	1932.07
941.977	1938.62
942.284	1912.86
942.591	1920.77
942.898	1933.65
943.205	1894.78
943.511	1918.73
943.818	1897.04
944.125	1897.94
944.431	1887.55
944.738	1869.02
945.044	1906.53
945.35	1850.04
945.657	1873.76
945.963	1853.43
946.269	1830.15
946.575	1823.37
946.881	1820.43
947.187	1841.9
947.493	1806.2
947.799	1782.92
948.105	1807.33
948.41	1794.9
948.716	1758.97
949.022	1790.15
949.327	1765.74
949.633	1752.64
949.938	1794.67
950.244	1755.58
950.549	1734.11
950.854	1743.15
951.16	1710.15
951.465	1699.76
951.77	1692.98
952.075	1711.96
952.38	1709.02
952.685	1700.44
952.99	1722.81
953.294	1713.09
953.599	1697.5
953.904	1675.35
954.209	1652.3
954.513	1658.63
954.818	1640.32
955.122	1659.08
955.426	1664.05
955.731	1609.82
956.035	1629.48
956.339	1640.1
956.643	1627.9
956.948	1614.11
957.252	1599.42
957.556	1605.75
957.86	1600.1
958.163	1612.08
958.467	1594
958.771	1548.8
959.075	1563.04
959.378	1574.34
959.682	1574.11
959.985	1543.83
960.289	1546.77
960.592	1512.19
960.896	1533.66
961.199	1503.6
961.502	1549.93
961.805	1512.64
962.108	1525.75
962.411	1479.42
962.714	1477.16
963.017	1481.91
963.32	1487.33
963.623	1474.23
963.926	1485.07
964.228	1466.54
964.531	1466.54
964.833	1502.7
965.136	1473.32
965.438	1470.84
965.741	1459.09
966.043	1434.68
966.345	1416.83
966.648	1409.37
966.95	1424.06
967.252	1430.39
967.554	1405.75
967.856	1384.96
968.158	1401.23
968.46	1389.94
968.761	1391.52
969.063	1404.17
969.365	1375.02
969.666	1379.77
969.968	1411.63
970.269	1360.11
970.571	1361.24
970.872	1339.99
971.174	1338.19
971.475	1340.44
971.776	1336.38
972.077	1349.71
972.378	1364.17
972.679	1332.99
972.98	1305.87
973.281	1319.65
973.582	1309.94
973.883	1321.01
974.183	1325.98
974.484	1309.49
974.785	1276.04
975.085	1278.98
975.386	1279.66
975.686	1292.31
975.986	1271.75
976.287	1261.8
976.587	1262.48
976.887	1258.64
977.187	1267.23
977.487	1242.14
977.787	1256.15
978.087	1255.02
978.387	1244.63
978.687	1230.39
978.987	1242.14
979.286	1240.33
979.586	1255.93
979.885	1238.07
980.185	1215.7
980.484	1202.37
980.784	1200.34
981.083	1204.86
981.382	1206.44
981.682	1198.98
981.981	1175.03
982.28	1200.34
982.579	1165.08
982.878	1187
983.177	1169.6
983.475	1151.07
983.774	1137.96
984.073	1170.51
984.372	1138.64
984.67	1156.04
984.969	1149.49
985.267	1144.74
985.566	1143.16
985.864	1107.91
986.162	1103.39
986.461	1099.1
986.759	1132.77
987.057	1111.52
987.355	1120.56
987.653	1071.98
987.951	1100
988.249	1121.24
988.547	1104.52
988.844	1100.23
989.142	1096.84
989.44	1074.46
989.737	1072.88
990.035	1071.53
990.332	1074.92
990.63	1106.78
990.927	1097.51
991.224	1053.45
991.521	1074.01
991.819	1045.54
992.116	1057.74
992.413	1029.94
992.71	1037.85
993.006	1053.67
993.303	1045.31
993.6	1032.66
993.897	1025.65
994.193	1043.28
994.49	1009.38
994.787	1035.14
995.083	1035.82
995.379	1022.94
995.676	1029.94
995.972	1016.16
996.268	1004.41
996.565	985.2
996.861	987.91
997.157	977.06
997.453	994.47
997.749	980.91
998.044	969.16
998.34	983.84
998.636	960.12
998.932	981.36
999.227	967.12
999.523	958.53
999.818	944.52
1000.114	936.16
1000.409	946.78
1000.704	929.83
1001	924.86
1001.295	925.09
1001.59	935.71
1001.885	918.31
1002.18	934.35
1002.475	913.11
1002.77	896.61
1003.065	889.84
1003.359	905.43
1003.654	902.72
1003.949	898.2
1004.243	895.03
1004.538	893.23
1004.832	885.99
1005.127	889.38
1005.421	873.56
1005.715	863.62
1006.009	851.19
1006.304	856.62
1006.598	830.4
1006.892	855.03
1007.186	847.58
1007.48	855.03
1007.773	846.9
1008.067	845.54
1008.361	820.91
1008.655	839.44
1008.948	845.54
1009.242	871.76
1009.535	846.67
1009.829	841.93
1010.122	812.32
1010.415	837.18
1010.708	787.69
1011.001	803.51
1011.295	822.49
1011.588	823.62
1011.881	787.01
1012.173	798.76
1012.466	806.9
1012.759	771.65
1013.052	794.7
1013.344	780.23
1013.637	805.77
1013.93	781.59
1014.222	777.75
1014.514	780.23
1014.807	777.07
1015.099	751.31
1015.391	759.67
1015.683	768.03
1015.976	754.7
1016.268	744.3
1016.56	768.48
1016.851	744.75
1017.143	734.36
1017.435	742.27
1017.727	745.88
1018.018	737.75
1018.31	697.07
1018.602	737.75
1018.893	732.55
1019.185	696.85
1019.476	698.65
1019.767	729.39
1020.058	717.41
1020.35	695.49
1020.641	678.99
1020.932	692.55
1021.223	699.11
1021.514	712.89
1021.804	680.8
1022.095	686
1022.386	680.35
1022.677	676.51
1022.967	661.59
1023.258	653.46
1023.548	669.73
1023.839	642.16
1024.129	689.39
1024.419	665.89
1024.709	669.73
1025	676.06
1025.29	649.16
1025.58	647.36
1025.87	658.2
1026.16	643.97
1026.449	644.64
1026.739	620.01
1027.029	627.92
1027.319	630.41
1027.608	640.35
1027.898	650.75
1028.187	622.72
1028.477	628.15
1028.766	614.59
1029.055	620.69
1029.344	617.3
1029.634	607.13
1029.923	620.01
1030.212	610.52
1030.501	598.54
1030.79	598.09
1031.078	593.35
1031.367	598.54
1031.656	596.51
1031.945	600.8
1032.233	594.48
1032.522	570.07
1032.81	591.54
1033.099	608.03
1033.387	582.72
1033.675	590.41
1033.963	562.61
1034.251	563.29
1034.54	560.35
1034.828	546.34
1035.116	578.88
1035.403	559.22
1035.691	553.12
1035.979	539.79
1036.267	561.03
1036.554	551.31
1036.842	539.11
1037.129	562.39
1037.417	552.22
1037.704	549.51
1037.992	555.61
1038.279	537.98
1038.566	537.75
1038.853	537.75
1039.14	537.75
