Data from black_plastic_tray_FLMS001491_034.txt Node
Date: Tue Feb 07 10:39:42 GMT 2017
User: dcchb
Spectrometer: FLMS00149
Trigger mode: 0
Integration Time (sec): 2.000000E-2
Scans to average: 10
Electric dark correction enabled: true
Nonlinearity correction enabled: false
Boxcar width: 0
XAxis mode: Wavelengths
Number of Pixels in Spectrum: 2048
>>>>>Begin Spectral Data<<<<<
341.393	-15.14
341.776	-15.14
342.16	-15.14
342.543	-51.52
342.927	-69.6
343.31	-52.88
343.693	-65.54
344.077	-54.91
344.46	-62.37
344.843	-45.65
345.226	-33.67
345.61	-40.9
345.993	-14.91
346.376	-8.59
346.759	12.88
347.142	18.3
347.525	30.06
347.908	69.6
348.291	58.98
348.674	93.78
349.057	95.82
349.44	115.7
349.823	122.03
350.206	146.21
350.588	187.11
350.971	204.74
351.354	213.1
351.737	219.66
352.119	244.74
352.502	251.74
352.884	264.17
353.267	252.42
353.65	291.29
354.032	295.13
354.414	281.35
354.797	306.88
355.179	315.7
355.562	327.68
355.944	346.21
356.326	329.93
356.709	327.9
357.091	321.12
357.473	337.84
357.855	348.47
358.238	317.73
358.62	336.26
359.002	341.46
359.384	331.52
359.766	341.46
360.148	322.48
360.53	332.19
360.912	332.65
361.294	334.45
361.676	336.94
362.057	319.99
362.439	323.16
362.821	333.78
363.203	312.76
363.584	328.58
363.966	326.77
364.348	306.66
364.729	328.13
365.111	322.7
365.493	318.18
365.874	317.28
366.256	338.52
366.637	311.4
367.019	324.06
367.4	313.66
367.781	313.21
368.163	299.2
368.544	313.89
368.925	297.85
369.306	317.28
369.688	324.96
370.069	319.54
370.45	323.38
370.831	308.47
371.212	322.93
371.593	327.9
371.974	309.37
372.355	344.4
372.736	339.88
373.117	338.3
373.498	313.44
373.879	321.8
374.26	323.83
374.641	325.64
375.021	308.47
375.402	303.95
375.783	321.12
376.163	334.23
376.544	362.7
376.925	323.61
377.305	336.49
377.686	323.38
378.066	358.41
378.447	331.52
378.827	348.47
379.208	316.38
379.588	353.44
379.968	342.82
380.349	359.99
380.729	363.83
381.109	362.02
381.489	345.08
381.87	343.04
382.25	341.01
382.63	345.08
383.01	364.96
383.39	356.15
383.77	361.35
384.15	370.84
384.53	378.07
384.91	354.11
385.29	371.97
385.67	375.36
386.049	389.37
386.429	379.43
386.809	388.01
387.189	361.57
387.568	383.49
387.948	391.4
388.328	402.25
388.707	386.43
389.087	389.37
389.466	401.35
389.846	392.98
390.225	423.27
390.605	390.5
390.984	421.01
391.363	410.84
391.743	431.18
392.122	412.87
392.501	428.69
392.881	425.3
393.26	424.17
393.639	470.04
394.018	444.96
394.397	452.64
394.776	441.12
395.155	445.41
395.534	465.07
395.913	431.4
396.292	427.56
396.671	457.16
397.05	458.29
397.429	440.21
397.808	452.64
398.186	455.13
398.565	460.78
398.944	466.65
399.323	455.36
399.701	453.32
400.08	462.59
400.458	465.75
400.837	475.92
401.215	479.31
401.594	498.29
401.972	493.55
402.351	499.87
402.729	505.07
403.107	513.66
403.486	505.52
403.864	498.52
404.242	470.5
404.62	528.35
404.999	521.57
405.377	543.26
405.755	517.73
406.133	547.56
406.511	534.9
406.889	537.84
407.267	536.26
407.645	561.79
408.023	557.73
408.401	562.92
408.779	569.25
409.156	574.67
409.534	572.87
409.912	571.06
410.29	570.61
410.667	574
411.045	573.77
411.422	618.29
411.8	615.58
412.178	613.77
412.555	629.14
412.933	638.63
413.31	627.1
413.687	642.02
414.065	650.38
414.442	657.61
414.819	644.95
415.197	647.21
415.574	653.32
415.951	649.47
416.328	651.51
416.705	663.71
417.082	689.25
417.46	690.6
417.837	722.01
418.214	682.69
418.591	705.29
418.967	682.02
419.344	711.17
419.721	724.95
420.098	708.91
420.475	731.28
420.852	730.15
421.228	724.73
421.605	744.84
421.982	739.42
422.358	748.68
422.735	768.79
423.111	776.48
423.488	773.54
423.864	788.68
424.241	788
424.617	799.53
424.994	797.49
425.37	797.95
425.746	829.81
426.123	815.57
426.499	815.8
426.875	854.21
427.251	841.56
427.627	852.63
428.003	875.91
428.379	866.87
428.756	896.25
429.132	916.13
429.507	914.1
429.883	908.22
430.259	920.2
430.635	930.82
431.011	944.38
431.387	956.13
431.763	1001.33
432.138	977.83
432.514	982.12
432.89	1004.27
433.265	1020.09
433.641	1029.8
434.016	1044.27
434.392	1023.02
434.767	1059.86
435.143	1052.4
435.518	1083.36
435.894	1063.02
436.269	1060.99
436.644	1102.57
437.02	1095.11
437.395	1125.17
437.77	1114.09
438.145	1156.13
438.52	1163.59
438.895	1155.9
439.271	1145.51
439.646	1170.14
440.021	1183.02
440.395	1169.01
440.77	1170.14
441.145	1206.75
441.52	1236.58
441.895	1230.25
442.27	1208.56
442.645	1213.98
443.019	1266.86
443.394	1291.04
443.769	1273.19
444.143	1260.76
444.518	1245.39
444.892	1284.49
445.267	1305.5
445.641	1291.04
446.016	1354.09
446.39	1338.04
446.764	1347.99
447.139	1293.98
447.513	1321.55
447.887	1328.33
448.262	1341.21
448.636	1355.22
449.01	1381.43
449.384	1397.03
449.758	1379.4
450.132	1411.71
450.506	1437.93
450.88	1405.39
451.254	1403.58
451.628	1430.47
452.002	1476.35
452.376	1465.27
452.75	1468.66
453.123	1501.2
453.497	1494.88
453.871	1506.63
454.244	1549.11
454.618	1551.37
454.992	1581.2
455.365	1596.57
455.739	1661.43
456.112	1618.04
456.486	1618.94
456.859	1674.98
457.232	1694.87
457.606	1685.83
457.979	1719.73
458.352	1730.35
458.725	1726.51
459.099	1784.81
459.472	1785.04
459.845	1806.96
460.218	1843.79
460.591	1884.7
460.964	1879.27
461.337	1910.68
461.71	1916.33
462.083	1985.26
462.456	1940.06
462.829	1975.77
463.201	2016.9
463.574	1992.94
463.947	2066.39
464.32	2072.26
464.692	2082.66
465.065	2104.13
465.438	2105.03
465.81	2174.18
466.183	2150.68
466.555	2241.75
466.928	2221.64
467.3	2244.23
467.672	2241.07
468.045	2346.83
468.417	2315.87
468.789	2348.41
469.161	2369.88
469.534	2405.13
469.906	2522.19
470.278	2475.42
470.65	2490.56
471.022	2516.54
471.394	2584.56
471.766	2592.25
472.138	2616.43
472.51	2696.88
472.882	2707.27
473.253	2722.64
473.625	2772.81
473.997	2827.04
474.369	2883.77
474.74	2875.86
475.112	2952.01
475.484	2924.89
475.855	3041.28
476.227	3067.72
476.598	3122.18
476.97	3136.19
477.341	3242.63
477.713	3240.59
478.084	3311.55
478.455	3368.95
478.827	3359.23
479.198	3480.13
479.569	3507.25
479.94	3593.8
480.311	3629.06
480.682	3678.1
481.053	3776.17
481.424	3804.87
481.795	3855.04
482.166	3918.77
482.537	3988.14
482.908	4025.43
483.279	4078.99
483.65	4150.17
484.021	4231.98
484.391	4277.18
484.762	4281.47
485.133	4299.77
485.503	4414.57
485.874	4528.92
486.244	4553.33
486.615	4623.16
486.985	4650.27
487.356	4764.39
487.726	4777.95
488.097	4844.39
488.467	4876.71
488.837	5011.62
489.207	5115.8
489.578	5130.94
489.948	5188.56
490.318	5263.14
490.688	5315.57
491.058	5358.28
491.428	5391.5
491.798	5418.16
492.168	5539.97
492.538	5561.89
492.908	5605.28
493.278	5718.04
493.648	5750.58
494.017	5773.41
494.387	5874.87
494.757	5928.88
495.126	5960.07
495.496	5948.54
495.866	6013.4
496.235	6130.01
496.605	6186.96
496.974	6182.66
497.344	6236.22
497.713	6268.76
498.082	6298.59
498.452	6410
498.821	6412.94
499.19	6437.8
499.559	6465.59
499.928	6607.51
500.298	6546.49
500.667	6633.72
501.036	6697.45
501.405	6669.88
501.774	6732.93
502.143	6786.94
502.512	6833.04
502.88	6891.12
503.249	6952.36
503.618	6934.28
503.987	6977.67
504.356	7029.19
504.724	7062.87
505.093	7122.98
505.462	7176.53
505.83	7209.08
506.199	7310.54
506.567	7377.43
506.936	7341.05
507.304	7504.66
507.672	7560.71
508.041	7557.32
508.409	7530.2
508.777	7598.22
509.145	7661.49
509.514	7703.98
509.882	7839.34
510.25	7858.55
510.618	7853.58
510.986	7909.62
511.354	7937.19
511.722	8064.19
512.09	8181.93
512.458	8121.14
512.826	8211.76
513.193	8220.35
513.561	8260.8
513.929	8330.18
514.297	8428.48
514.664	8476.61
515.032	8507.57
515.4	8569.27
515.767	8673.22
516.135	8663.28
516.502	8628.93
516.869	8801.8
517.237	8741.92
517.604	8857.17
517.972	8937.17
518.339	8964.96
518.706	9009.25
519.073	9101.68
519.44	9183.26
519.808	9291.28
520.175	9251.28
520.542	9369.92
520.909	9503.03
521.276	9496.93
521.643	9546.19
522.009	9622.57
522.376	9688.33
522.743	9742.57
523.11	9810.36
523.477	9998.83
523.843	9915.45
524.21	10105.05
524.577	10164.03
524.943	10184.14
525.31	10257.58
525.676	10387.3
526.043	10511.36
526.409	10482.89
526.776	10585.94
527.142	10695.09
527.508	10665.26
527.874	10854.63
528.241	10871.8
528.607	10942.31
528.973	11013.5
529.339	11059.6
529.705	11080.61
530.071	11233.6
530.437	11312.7
530.803	11392.69
531.169	11392.24
531.535	11411
531.901	11471.79
532.267	11599.92
532.632	11574.38
532.998	11601.05
533.364	11755.17
533.73	11755.4
534.095	11848.5
534.461	11868.61
534.826	11954.04
535.192	11977.09
535.557	12107.25
535.923	12088.27
536.288	12177.53
536.653	12187.93
537.019	12268.15
537.384	12208.04
537.749	12276.97
538.114	12407.58
538.479	12465.43
538.845	12470.63
539.21	12506.11
539.575	12572.78
539.94	12562.61
540.305	12681.25
540.67	12667.69
541.034	12712.21
541.399	12784.3
541.764	12762.6
542.129	12854.8
542.494	12928.7
542.858	12871.07
543.223	12921.24
543.587	13008.25
543.952	12921.92
544.316	13031.97
544.681	13059.09
545.045	13137.96
545.41	13204.17
545.774	13236.04
546.138	13335.69
546.503	13270.16
546.867	13369.14
547.231	13481.91
547.595	13521
547.959	13565.29
548.324	13511.96
548.688	13575.91
549.052	13580.43
549.416	13757.15
549.779	13616.59
550.143	13719.87
550.507	13880.76
550.871	13815.91
551.235	13890.03
551.599	13990.82
551.962	13982.91
552.326	13972.74
552.689	14163.24
553.053	14105.17
553.417	14133.19
553.78	14307.42
554.143	14341.77
554.507	14349.68
554.87	14451.15
555.234	14604.81
555.597	14480.75
555.96	14590.58
556.323	14617.02
556.686	14680.74
557.05	14743.12
557.413	14796.45
557.776	14896.56
558.139	14998.48
558.502	15014.75
558.865	15073.28
559.228	15178.36
559.59	15261.97
559.953	15172.03
560.316	15393.27
560.679	15353.27
561.041	15557.56
561.404	15465.58
561.767	15673.49
562.129	15622.19
562.492	15749.42
562.854	15824.44
563.217	15753.03
563.579	15936.53
563.941	15943.99
564.304	16036.41
564.666	16051.1
565.028	16132.01
565.39	16225.34
565.753	16347.14
566.115	16252.91
566.477	16441.38
566.839	16515.95
567.201	16627.59
567.563	16681.37
567.925	16759.79
568.287	16655.83
568.648	16769.95
569.01	16773.57
569.372	16934.92
569.734	16856.05
570.095	17019.44
570.457	17130.62
570.819	17167.23
571.18	17165.65
571.542	17232.32
571.903	17303.95
572.265	17284.74
572.626	17381.24
572.987	17513.44
573.349	17523.83
573.71	17538.3
574.071	17619.88
574.432	17657.61
574.794	17788.46
575.155	17713.66
575.516	17769.7
575.877	17831.85
576.238	17809.25
576.599	17830.72
576.96	17857.61
577.32	17884.73
577.681	17995.91
578.042	18166.53
578.403	18071.16
578.763	18083.14
579.124	18181.22
579.485	18181.89
579.845	18171.27
580.206	18202.46
580.566	18145.51
580.927	18194.32
581.287	18209.46
581.648	18141.44
582.008	18344.83
582.368	18242.01
582.728	18240.88
583.089	18146.42
583.449	18248.33
583.809	18198.62
584.169	18300.54
584.529	18265.06
584.889	18368.1
585.249	18223.93
585.609	18277.49
585.969	18339.86
586.329	18402.23
586.688	18303.47
587.048	18399.52
587.408	18221.67
587.768	18345.51
588.127	18290.37
588.487	18305.06
588.846	18372.62
589.206	18295.11
589.565	18180.09
589.925	18256.92
590.284	18270.48
590.643	18282.68
591.003	18434.54
591.362	18453.98
591.721	18417.59
592.08	18256.02
592.44	18337.37
592.799	18451.72
593.158	18324.49
593.517	18441.55
593.876	18431.15
594.235	18347.09
594.593	18341.66
594.952	18426.41
595.311	18334.89
595.67	18410.59
596.029	18503.92
596.387	18558.61
596.746	18490.59
597.104	18446.97
597.463	18464.15
597.822	18571.49
598.18	18449.68
598.538	18349.57
598.897	18599.96
599.255	18422.79
599.613	18633.63
599.972	18563.81
600.33	18692.62
600.688	18569
601.046	18654.88
601.404	18684.71
601.762	18666.18
602.12	18749.56
602.478	18754.99
602.836	18701.43
603.194	18642
603.552	18671.6
603.91	18592.51
604.268	18826.4
604.625	18623.47
604.983	18782.56
605.341	18701.2
605.698	18805.61
606.056	18821.88
606.413	18653.07
606.771	18690.36
607.128	18761.99
607.485	18685.61
607.843	18731.03
608.2	18917.69
608.557	18937.58
608.914	18936.9
609.272	18944.13
609.629	19004.02
609.986	19105.03
610.343	18900.75
610.7	19038.37
611.057	19058.71
611.414	19035.88
611.771	19097.58
612.127	19175.77
612.484	19215.77
612.841	19125.82
613.198	19172.15
613.554	19102.1
613.911	19250.79
614.267	19315.65
614.624	19253.96
614.98	19219.83
615.337	19338.47
615.693	19338.47
616.05	19204.47
616.406	19442.2
616.762	19387.06
617.118	19388.42
617.475	19340.73
617.831	19395.87
618.187	19441.07
618.543	19507.51
618.899	19557.45
619.255	19553.16
619.611	19509.32
619.967	19576.21
620.323	19613.27
620.678	19551.58
621.034	19551.8
621.39	19576.89
621.746	19549.77
622.101	19722.42
622.457	19420.73
622.812	19541.18
623.168	19680.84
623.523	19651.69
623.879	19658.47
624.234	19482.88
624.589	19568.75
624.945	19582.99
625.3	19561.52
625.655	19605.81
626.01	19656.88
626.365	19673.38
626.72	19542.54
627.075	19533.27
627.43	19517.9
627.785	19475.65
628.14	19479.94
628.495	19575.98
628.85	19555.42
629.205	19429.09
629.559	19555.42
629.914	19525.36
630.269	19442.65
630.623	19440.17
630.978	19450.11
631.332	19535.53
631.687	19557
632.041	19445.59
632.396	19574.63
632.75	19373.28
633.104	19355.2
633.459	19349.77
633.813	19261.41
634.167	19393.39
634.521	19280.62
634.875	19345.03
635.229	19311.81
635.583	19148.2
635.937	19144.13
636.291	19158.82
636.645	19030.91
636.999	19047.63
637.352	18931.93
637.706	18893.06
638.06	19006.73
638.413	18993.62
638.767	18959.95
639.121	18955.43
639.474	18876.79
639.828	18844.48
640.181	18884.02
640.534	18948.65
640.888	18717.02
641.241	18758.38
641.594	18668.44
641.947	18737.13
642.301	18644.71
642.654	18660.53
643.007	18674.31
643.36	18590.02
643.713	18484.94
644.066	18696.46
644.419	18515.22
644.771	18476.35
645.124	18352.74
645.477	18351.38
645.83	18093.99
646.182	18046.08
646.535	17972.63
646.888	17917.27
647.24	17873.88
647.593	17877.5
647.945	17832.98
648.298	17744.84
648.65	17771.96
649.002	17758.86
649.355	17809.93
649.707	17693.55
650.059	17846.76
650.411	18123.37
650.763	18136.25
651.115	18328.33
651.467	18154.55
651.819	18206.75
652.171	18138.73
652.523	18164.72
652.875	18083.14
653.227	18154.55
653.578	18148.45
653.93	18128.34
654.282	18063.48
654.633	17923.37
654.985	17902.13
655.337	17934.44
655.688	17946.19
656.039	17912.75
656.391	17866.65
656.742	17825.75
657.094	17834.79
657.445	17997.27
657.796	17924.5
658.147	17896.48
658.498	17885.63
658.849	17960.66
659.2	17811.74
659.551	17851.51
659.902	17905.52
660.253	17807.44
660.604	17745.97
660.955	17851.96
661.306	17777.39
661.656	17637.73
662.007	17671.4
662.358	17651.74
662.708	17686.77
663.059	17617.16
663.409	17484.29
663.76	17606.77
664.11	17694.22
664.461	17759.08
664.811	17729.25
665.161	17701
665.511	17676.37
665.862	17610.38
666.212	17571.74
666.562	17724.96
666.912	17568.35
667.262	17561.57
667.612	17509.37
667.962	17458.07
668.312	17477.96
668.662	17403.38
669.011	17384.4
669.361	17419.65
669.711	17401.12
670.06	17351.63
670.41	17325.65
670.76	17324.52
671.109	17379.43
671.459	17324.52
671.808	17307.57
672.157	17402.25
672.507	17130.17
672.856	17239.55
673.205	17301.01
673.554	17242.26
673.904	17248.13
674.253	17327.45
674.602	17185.31
674.951	16903.51
675.3	16860.35
675.649	17146.44
675.998	17160.9
676.346	17185.54
676.695	17154.58
677.044	17056.95
677.393	17166.33
677.741	17209.94
678.09	17062.83
678.438	17041.36
678.787	17057.18
679.135	17135.37
679.484	16977.18
679.832	17064.41
680.181	16934.92
680.529	16923.85
680.877	16951.19
681.225	16902.83
681.573	16962.49
681.922	16848.82
682.27	16750.07
682.618	16774.7
682.966	16733.12
683.314	16805.66
683.661	16766.56
684.009	16569.06
684.357	16644.76
684.705	16574.71
685.053	16562.73
685.4	16576.29
685.748	16466.23
686.095	16465.1
686.443	16403.41
686.79	16267.14
687.138	16235.73
687.485	16385.33
687.832	16208.39
688.18	16270.08
688.527	16178.56
688.874	16132.68
689.221	16144.21
689.568	16187.6
689.915	16103.76
690.262	16086.81
690.609	16047.71
690.956	16047.26
691.303	15907.15
691.65	15820.37
691.997	15758
692.344	15677.33
692.69	15716.42
693.037	15814.27
693.383	15624.22
693.73	15707.38
694.077	15679.59
694.423	15639.36
694.769	15617.22
695.116	15508.97
695.462	15410.44
695.808	15309.2
696.155	15445.47
696.501	15307.62
696.847	15310.33
697.193	15236.89
697.539	15253.16
697.885	15146.04
698.231	15059.94
698.577	15084.58
698.923	15122.31
699.269	15017.23
699.614	15000.96
699.96	14914.41
700.306	14934.07
700.651	14789.22
700.997	14827.18
701.342	14698.14
701.688	14700.4
702.033	14720.06
702.379	14628.77
702.724	14642.33
703.069	14688.88
703.415	14450.69
703.76	14610.69
704.105	14476.46
704.45	14557.81
704.795	14388.32
705.14	14345.84
705.485	14383.35
705.83	14336.8
706.175	14261.09
706.52	14172.73
706.865	14145.16
707.209	14140.42
707.554	14114.21
707.899	14145.39
708.243	14113.98
708.588	14105.17
708.932	13970.48
709.277	13920.09
709.621	14059.07
709.966	13879.86
710.31	13925.96
710.654	13782.46
710.998	13755.8
711.342	13871.05
711.687	13797.38
712.031	13739.98
712.375	13660.43
712.719	13673.09
713.063	13549.7
713.407	13595.8
713.75	13630.38
714.094	13556.93
714.438	13477.39
714.782	13484.62
715.125	13359.2
715.469	13390.38
715.812	13290.5
716.156	13312.87
716.499	13228.8
716.843	13202.59
717.186	13221.12
717.53	13251.18
717.873	13258.18
718.216	13208.47
718.559	13262.02
718.902	13022.03
719.246	13233.78
719.589	13114.01
719.932	13128.02
720.275	13088.7
720.617	12990.62
720.96	12935.03
721.303	12972.31
721.646	12922.37
721.989	12873.11
722.331	13014.8
722.674	12874.24
723.016	12882.37
723.359	12830.85
723.701	12947.46
724.044	12820.45
724.386	12791.08
724.729	12778.65
725.071	12670.85
725.413	12648.48
725.755	12723.96
726.097	12596.96
726.439	12556.05
726.782	12518.31
727.124	12692.1
727.465	12592.21
727.807	12533.23
728.149	12558.99
728.491	12521.93
728.833	12503.17
729.175	12404.87
729.516	12376.85
729.858	12454.59
730.199	12424.08
730.541	12394.25
730.882	12366.45
731.224	12370.07
731.565	12267.47
731.906	12318.09
732.248	12363.52
732.589	12171.21
732.93	12213.92
733.271	12154.03
733.612	12249.17
733.953	12188.15
734.294	12131.43
734.635	12147.93
734.976	12113.81
735.317	12133.69
735.658	12192.67
735.999	12097.31
736.339	12051.66
736.68	12105.22
737.021	11987.71
737.361	11874.04
737.702	12006.01
738.042	12052.56
738.383	11963.3
738.723	11986.13
739.063	11900.7
739.404	11879.24
739.744	11863.64
740.084	11793.36
740.424	11842.85
740.764	11820.25
741.104	11785.45
741.444	11752.69
741.784	11736.41
742.124	11767.15
742.464	11700.03
742.804	11741.39
743.143	11634.27
743.483	11670.2
743.823	11626.36
744.162	11629.52
744.502	11627.72
744.841	11705.23
745.181	11582.52
745.52	11555.85
745.86	11613.25
746.199	11561.96
746.538	11456.65
746.877	11529.41
747.216	11380.72
747.556	11410.77
747.895	11406.25
748.234	11355.86
748.573	11366.03
748.911	11329.87
749.25	11289.65
749.589	11234.96
749.928	11319.48
750.267	11340.49
750.605	11261.85
750.944	11250.55
751.283	11178.46
751.621	11175.3
751.96	11091.46
752.298	11152.7
752.636	11116.32
752.975	11054.85
753.313	10986.38
753.651	11063.21
753.989	10991.35
754.327	10990.9
754.666	10918.36
755.004	10900.96
755.342	10912.26
755.679	10827.51
756.017	10805.37
756.355	10884.91
756.693	10727.4
757.031	10716.33
757.368	10695.99
757.706	10768.53
758.044	10651.47
758.381	10689.44
758.719	10618.03
759.056	10572.83
759.394	10549.55
759.731	10502.55
760.068	10483.34
760.405	10420.29
760.743	10394.98
761.08	10447.18
761.417	10396.56
761.754	10392.27
762.091	10337.81
762.428	10326.73
762.765	10278.83
763.102	10288.32
763.438	10269.11
763.775	10128.55
764.112	10154.76
764.449	10112.05
764.785	10089
765.122	10027.98
765.458	9994.31
765.795	9983.01
766.131	10012.62
766.467	9944.82
766.804	9879.51
767.14	9891.72
767.476	9722
767.812	9831.38
768.148	9816.47
768.485	9759.07
768.821	9697.82
769.157	9696.69
769.492	9667.32
769.828	9671.61
770.164	9504.16
770.5	9573.99
770.836	9535.57
771.171	9530.14
771.507	9518.85
771.842	9360.66
772.178	9414.89
772.513	9329.02
772.849	9381.45
773.184	9285.63
773.519	9246.08
773.855	9166.76
774.19	9171.96
774.525	9087.22
774.86	9136.26
775.195	9204.28
775.53	9108.46
775.865	8989.37
776.2	8965.19
776.535	8928.35
776.87	8930.61
777.205	8869.15
777.539	8847.45
777.874	8836.38
778.209	8830.28
778.543	8794.8
778.878	8711.86
779.212	8693.33
779.547	8608.36
779.881	8685.2
780.215	8525.65
780.55	8534.69
780.884	8478.87
781.218	8480.45
781.552	8509.61
781.886	8440.46
782.22	8391.64
782.554	8315.71
782.888	8219.22
783.222	8269.84
783.556	8246.34
783.889	8168.82
784.223	8191.65
784.557	8128.15
784.89	8166.79
785.224	8124.08
785.557	8062.84
785.891	8060.35
786.224	7973.58
786.558	8030.3
786.891	7934.25
787.224	7934.03
787.557	7970.64
787.891	7971.99
788.224	7950.98
788.557	7942.62
788.89	7911.66
789.223	7917.31
789.556	7832.56
789.888	7887.93
790.221	7823.52
790.554	7768.38
790.887	7729.51
791.219	7635.51
791.552	7618.1
791.884	7583.98
792.217	7535.17
792.549	7546.02
792.882	7440.26
793.214	7447.49
793.546	7496.53
793.879	7476.64
794.211	7378.11
794.543	7424.89
794.875	7312.12
795.207	7352.12
795.539	7290.66
795.871	7384.89
796.203	7220.6
796.535	7227.38
796.867	7240.94
797.198	7211.11
797.53	7193.03
797.862	7117.78
798.193	7162.75
798.525	7096.08
798.856	7129.3
799.188	7001.62
799.519	6980.83
799.85	6934.96
800.182	7059.48
800.513	7031.91
800.844	6941.74
801.175	7017.67
801.506	6961.17
801.837	6921.4
802.168	6955.07
802.499	6914.62
802.83	6804.57
803.161	6809.09
803.491	6760.73
803.822	6743.1
804.153	6715.76
804.483	6681.18
804.814	6634.18
805.145	6731.57
805.475	6647.73
805.805	6679.15
806.136	6676.43
806.466	6646.15
806.796	6605.7
807.126	6582.65
807.457	6563.22
807.787	6574.97
808.117	6493.16
808.447	6494.29
808.777	6580.62
809.107	6488.64
809.436	6532.26
809.766	6447.51
810.096	6464.46
810.426	6332.71
810.755	6377.69
811.085	6393.73
811.414	6419.72
811.744	6349.44
812.073	6344.01
812.403	6309.66
812.732	6255.43
813.061	6248.42
813.39	6202.1
813.719	6230.34
814.049	6263.34
814.378	6184.7
814.707	6159.39
815.036	6152.83
815.365	6219.27
815.693	6128.2
816.022	6183.34
816.351	6086.39
816.68	6071.48
817.008	6120.52
817.337	6045.49
817.665	6035.1
817.994	6038.26
818.322	6029.67
818.651	6024.25
818.979	5979.96
819.307	6003.23
819.636	5946.06
819.964	5962.1
820.292	5934.76
820.62	5979.28
820.948	5939.73
821.276	5933.63
821.604	5880.98
821.932	5954.87
822.259	5937.02
822.587	5944.7
822.915	5935.89
823.243	5887.75
823.57	5824.71
823.898	5880.98
824.225	5875.33
824.553	5917.58
824.88	5936.12
825.207	5960.3
825.535	5954.42
825.862	5915.1
826.189	5930.01
826.516	5971.37
826.843	5936.79
827.17	5950.13
827.497	5960.97
827.824	5958.71
828.151	6010.69
828.478	5917.13
828.805	6038.26
829.131	5932.05
829.458	5890.47
829.785	5847.3
830.111	5889.34
830.438	5909.68
830.764	5898.6
831.09	5919.84
831.417	5885.95
831.743	5905.38
832.069	5870.81
832.395	5900.64
832.722	5898.6
833.048	5817.25
833.374	5833.29
833.7	5815.44
834.026	5866.74
834.351	5876
834.677	5832.84
835.003	5887.75
835.329	5792.16
835.654	5841.88
835.98	5796.68
836.306	5812.95
836.631	5809.79
836.956	5787.87
837.282	5805.95
837.607	5769.79
837.932	5718.27
838.258	5691.15
838.583	5735.44
838.908	5657.93
839.233	5739.06
839.558	5669.91
839.883	5727.98
840.208	5709.68
840.533	5672.39
840.858	5671.04
841.182	5680.75
841.507	5715.56
841.832	5631.49
842.156	5626.97
842.481	5632.85
842.805	5604.15
843.13	5558.27
843.454	5549.91
843.778	5552.17
844.103	5547.88
844.427	5607.08
844.751	5565.96
845.075	5481.21
845.399	5518.27
845.723	5451.83
846.047	5474.21
846.371	5461.33
846.695	5416.13
847.019	5400.76
847.343	5424.26
847.666	5413.64
847.99	5331.16
848.313	5297.26
848.637	5294.78
848.96	5248.68
849.284	5289.13
849.607	5250.71
849.931	5254.55
850.254	5172.52
850.577	5164.16
850.9	5140.88
851.223	5165.74
851.546	5127.55
851.869	5116.25
852.192	5131.16
852.515	5051.17
852.838	5025.86
853.161	5033.09
853.483	4998.06
853.806	4967.33
854.129	4939.53
854.451	4970.94
854.774	4955.35
855.096	4891.4
855.419	4923.94
855.741	4926.2
856.063	4937.27
856.385	4852.53
856.708	4850.95
857.03	4875.58
857.352	4843.49
857.674	4808.91
857.996	4778.63
858.318	4815.47
858.64	4721.91
858.961	4823.83
859.283	4742.47
859.605	4774.34
859.926	4799.65
860.248	4715.13
860.57	4646.66
860.891	4701.35
861.212	4673.1
861.534	4669.48
861.855	4687.33
862.176	4652.08
862.498	4702.02
862.819	4665.64
863.14	4615.92
863.461	4625.19
863.782	4593.78
864.103	4592.87
864.424	4607.11
864.745	4564.63
865.065	4583.38
865.386	4590.84
865.707	4620.9
866.027	4591.74
866.348	4554.91
866.668	4532.08
866.989	4548.58
867.309	4539.99
867.63	4505.64
867.95	4525.53
868.27	4500.9
868.59	4459.54
868.91	4466.1
869.23	4506.1
869.55	4495.48
869.87	4539.32
870.19	4538.41
870.51	4438.08
870.83	4460.67
871.15	4441.69
871.469	4469.71
871.789	4464.97
872.109	4422.26
872.428	4430.84
872.748	4386.33
873.067	4414.35
873.386	4435.14
873.706	4394.01
874.025	4371.41
874.344	4396.04
874.663	4339.32
874.982	4335.03
875.301	4334.35
875.62	4390.62
875.939	4313.11
876.258	4330.73
876.577	4307.23
876.896	4321.47
877.214	4266.55
877.533	4293.45
877.852	4336.38
878.17	4327.8
878.489	4334.58
878.807	4308.59
879.125	4292.99
879.444	4297.51
879.762	4259.1
880.08	4280.57
880.398	4280.11
880.716	4242.37
881.034	4217.06
881.352	4263.84
881.67	4245.54
881.988	4219.55
882.306	4179.78
882.624	4215.03
882.941	4176.16
883.259	4177.74
883.577	4183.84
883.894	4167.12
884.212	4194.92
884.529	4175.26
884.846	4178.2
885.164	4139.1
885.481	4126.67
885.798	4140
886.115	4085.99
886.432	4090.97
886.75	4054.13
887.067	4056.39
887.383	4038.76
887.7	4041.25
888.017	3981.82
888.334	4019.56
888.651	4012.78
888.967	4026.11
889.284	4001.02
889.6	3981.36
889.917	3958.54
890.233	3977.75
890.55	3942.72
890.866	3929.16
891.182	3909.28
891.498	3935.94
891.815	3895.04
892.131	3906.34
892.447	3871.08
892.763	3916.73
893.079	3876.51
893.395	3872.21
893.71	3865.44
894.026	3881.48
894.342	3834.93
894.657	3838.09
894.973	3794.93
895.289	3812.78
895.604	3815.27
895.92	3810.3
896.235	3742.95
896.55	3764.87
896.865	3701.6
897.181	3745.44
897.496	3697.08
897.811	3762.39
898.126	3656.4
898.441	3678.32
898.756	3657.76
899.071	3690.75
899.386	3672.67
899.7	3631.32
900.015	3663.86
900.33	3615.27
900.644	3601.71
900.959	3615.95
901.273	3610.3
901.588	3602.62
901.902	3586.35
902.216	3572.56
902.531	3567.82
902.845	3555.39
903.159	3505.44
903.473	3535.27
903.787	3495.5
904.101	3490.53
904.415	3448.27
904.729	3418.67
905.042	3449.17
905.356	3448.95
905.67	3415.05
905.984	3423.41
906.297	3407.82
906.611	3390.19
906.924	3368.95
907.237	3367.37
907.551	3365.34
907.864	3334.38
908.177	3360.59
908.491	3302.74
908.804	3317.88
909.117	3317.43
909.43	3284.66
909.743	3287.6
910.056	3254.6
910.368	3243.08
910.681	3224.32
910.994	3222.74
911.307	3208.5
911.619	3199.69
911.932	3182.29
912.244	3151.56
912.557	3205.11
912.869	3158.56
913.181	3126.02
913.494	3106.13
913.806	3102.29
914.118	3099.13
914.43	3072.69
914.742	3038.11
915.054	3037.89
915.366	3068.39
915.678	3039.47
915.99	3047.15
916.302	2996.31
916.613	2982.29
916.925	2957.89
917.236	2974.16
917.548	2986.81
917.859	2970.32
918.171	2939.58
918.482	2927.38
918.794	2918.34
919.105	2962.86
919.416	2900.94
919.727	2909.3
920.038	2892.58
920.349	2864.78
920.66	2855.97
920.971	2838.8
921.282	2872.92
921.593	2825.46
921.903	2822.98
922.214	2793.15
922.525	2804.22
922.835	2787.72
923.146	2771.9
923.456	2763.77
923.767	2720.83
924.077	2744.56
924.387	2688.97
924.697	2716.31
925.008	2718.12
925.318	2658.01
925.628	2711.12
925.938	2699.59
926.248	2637.22
926.558	2627.95
926.867	2649.42
927.177	2627.95
927.487	2638.35
927.796	2623.43
928.106	2589.99
928.416	2595.19
928.725	2587.28
929.034	2595.64
929.344	2557.9
929.653	2508.63
929.962	2522.65
930.271	2527.84
930.581	2528.52
930.89	2528.3
931.199	2498.47
931.508	2522.19
931.817	2525.13
932.125	2494.4
932.434	2457.34
932.743	2461.63
933.051	2466.6
933.36	2416.89
933.669	2463.89
933.977	2405.81
934.286	2409.65
934.594	2393.61
934.902	2382.99
935.21	2368.3
935.519	2393.84
935.827	2380.05
936.135	2395.87
936.443	2361.29
936.751	2343.44
937.059	2319.04
937.367	2323.33
937.674	2265.7
937.982	2270.9
938.29	2288.98
938.597	2281.75
938.905	2284.46
939.213	2284.23
939.52	2277
939.827	2266.16
940.135	2248.53
940.442	2231.58
940.749	2187.06
941.056	2200.85
941.363	2215.53
941.67	2188.87
941.977	2188.42
942.284	2167.63
942.591	2189.77
942.898	2183.67
943.205	2147.51
943.511	2128.98
943.818	2142.54
944.125	2142.54
944.431	2091.47
944.738	2100.28
945.044	2099.61
945.35	2074.52
945.657	2066.61
945.963	2110.23
946.269	2084.46
946.575	2053.73
946.881	2059.83
947.187	2048.76
947.493	2008.76
947.799	2004.47
948.105	2005.82
948.41	1976.22
948.716	2014.41
949.022	1982.55
949.327	1964.47
949.633	1961.08
949.938	2000.4
950.244	1969.67
950.549	1933.28
950.854	1976.67
951.16	1964.02
951.465	1938.93
951.77	1935.99
952.075	1912.72
952.38	1913.17
952.685	1910.91
952.99	1909.78
953.294	1896.45
953.599	1907.75
953.904	1896.22
954.209	1872.04
954.513	1843.12
954.818	1838.37
955.122	1861.42
955.426	1858.71
955.731	1850.8
956.035	1822.1
956.339	1828.43
956.643	1831.82
956.948	1806.05
957.252	1820.52
957.556	1794.76
957.86	1792.04
958.163	1772.61
958.467	1779.61
958.771	1796.56
959.075	1770.57
959.378	1748.65
959.682	1748.65
959.985	1752.04
960.289	1741.2
960.592	1738.03
960.896	1727.19
961.199	1746.62
961.502	1716.79
961.805	1722.89
962.108	1693.51
962.411	1696.23
962.714	1702.33
963.017	1654.87
963.32	1651.71
963.623	1670.01
963.926	1666.4
964.228	1657.13
964.531	1643.12
964.833	1661.2
965.136	1623.01
965.438	1619.62
965.741	1670.92
966.043	1614.87
966.345	1592.5
966.648	1594.31
966.95	1577.36
967.252	1566.06
967.554	1582.11
967.856	1598.83
968.158	1559.96
968.46	1539.85
968.761	1553.86
969.063	1516.34
969.365	1523.58
969.666	1561.09
969.968	1508.66
970.269	1543.91
970.571	1519.06
970.872	1534.65
971.174	1514.08
971.475	1537.59
971.776	1486.97
972.077	1522.9
972.378	1491.49
972.679	1492.62
972.98	1485.38
973.281	1468.44
973.582	1472.73
973.883	1466.18
974.183	1472.28
974.484	1426.86
974.785	1450.36
975.085	1425.05
975.386	1447.65
975.686	1454.43
975.986	1419.85
976.287	1392.28
976.587	1411.71
976.887	1412.62
977.187	1416.69
977.487	1426.4
977.787	1393.18
978.087	1377.36
978.387	1417.82
978.687	1376.69
978.987	1388.21
979.286	1343.24
979.586	1348.89
979.885	1377.36
980.185	1372.39
980.484	1331.94
980.784	1327.42
981.083	1330.13
981.382	1335.33
981.682	1320.64
981.981	1317.25
982.28	1309.57
982.579	1305.28
982.878	1330.13
983.177	1316.12
983.475	1318.16
983.774	1277.48
984.073	1292.62
984.372	1258.95
984.67	1267.54
984.969	1294.66
985.267	1284.49
985.566	1304.15
985.864	1268.44
986.162	1245.62
986.461	1225.05
986.759	1252.85
987.057	1251.94
987.355	1230.25
987.653	1224.37
987.951	1210.36
988.249	1237.71
988.547	1211.27
988.844	1211.04
989.142	1226.86
989.44	1177.37
989.737	1194.54
990.035	1168.33
990.332	1173.3
990.63	1172.62
990.927	1193.41
991.224	1185.73
991.521	1159.29
991.819	1160.65
992.116	1187.99
992.413	1164.94
992.71	1172.17
993.006	1142.79
993.303	1138.5
993.6	1162.23
993.897	1132.63
994.193	1132.85
994.49	1117.94
994.787	1137.15
995.083	1123.36
995.379	1128.11
995.676	1105.28
995.972	1105.28
996.268	1090.14
996.565	1124.94
996.861	1080.88
997.157	1080.65
997.453	1065.73
997.749	1082.91
998.044	1079.75
998.34	1081.1
998.636	1056.47
998.932	1036.81
999.227	1063.02
999.523	1038.84
999.818	1057.15
1000.114	1042.91
1000.409	1058.96
1000.704	1042.68
1001	1024.38
1001.295	1034.32
1001.59	1028
1001.885	1021.89
1002.18	1032.74
1002.475	999.97
1002.77	1020.76
1003.065	992.06
1003.359	994.1
1003.654	1026.19
1003.949	963.36
1004.243	985.28
1004.538	1001.33
1004.832	980.99
1005.127	969.92
1005.421	967.43
1005.715	972.4
1006.009	983.25
1006.304	943.48
1006.598	945.96
1006.892	945.06
1007.186	933.99
1007.48	948.9
1007.773	913.42
1008.067	920.2
1008.361	925.17
1008.655	904.83
1008.948	921.33
1009.242	911.61
1009.535	903.25
1009.829	933.99
1010.122	890.6
1010.415	908.9
1010.708	884.5
1011.001	890.6
1011.295	877.04
1011.588	850.37
1011.881	868
1012.173	867.55
1012.466	894.89
1012.759	886.53
1013.052	875.91
1013.344	880.88
1013.637	857.6
1013.93	861.45
1014.222	842.24
1014.514	848.79
1014.807	839.75
1015.099	825.52
1015.391	817.15
1015.683	810.15
1015.976	833.88
1016.268	795.23
1016.56	826.19
1016.851	809.02
1017.143	806.76
1017.435	773.09
1017.727	786.42
1018.018	793.65
1018.31	793.88
1018.602	808.79
1018.893	795.46
1019.185	772.18
1019.476	779.19
1019.767	788.45
1020.058	775.8
1020.35	764.5
1020.641	761.11
1020.932	755.69
1021.223	763.6
1021.514	744.61
1021.804	739.64
1022.095	741.68
1022.386	762.47
1022.677	748
1022.967	717.27
1023.258	711.62
1023.548	710.94
1023.839	739.87
1024.129	738.74
1024.419	704.39
1024.709	736.93
1025	720.43
1025.29	707.55
1025.58	698.51
1025.87	682.47
1026.16	683.37
1026.449	703.03
1026.739	695.12
1027.029	690.6
1027.319	679.3
1027.608	684.5
1027.898	651.28
1028.187	667.1
1028.477	669.36
1028.766	682.02
1029.055	675.69
1029.344	661.45
1029.634	658.97
1029.923	631.62
1030.212	663.26
1030.501	656.03
1030.79	644.05
1031.078	636.82
1031.367	646.31
1031.656	638.4
1031.945	640.21
1032.233	619.87
1032.522	628.68
1032.81	631.62
1033.099	618.97
1033.387	628.91
1033.675	615.58
1033.963	626.42
1034.251	603.6
1034.54	616.25
1034.828	610.61
1035.116	606.31
1035.403	619.42
1035.691	592.53
1035.979	599.98
1036.267	623.26
1036.554	572.41
1036.842	583.04
1037.129	566.76
1037.417	589.81
1037.704	574.45
1037.992	574.45
1038.279	536.03
1038.566	568.57
1038.853	568.57
1039.14	568.57
