Data from black_metal_pc_casing_FLMS001491_00081.txt Node
Date: Wed Feb 08 14:33:37 GMT 2017
User: dcchb
Spectrometer: FLMS00149
Trigger mode: 0
Integration Time (sec): 2.000000E-2
Scans to average: 10
Electric dark correction enabled: true
Nonlinearity correction enabled: false
Boxcar width: 0
XAxis mode: Wavelengths
Number of Pixels in Spectrum: 2048
>>>>>Begin Spectral Data<<<<<
341.393	-9.05
341.776	-9.05
342.16	-9.05
342.543	-59
342.927	-62.61
343.31	-60.35
343.693	-61.93
344.077	-59.45
344.46	-73.23
344.843	-57.64
345.226	-50.63
345.61	-35.04
345.993	-15.61
346.376	2.7
346.759	-9.28
347.142	22.58
347.525	46.76
347.908	75.24
348.291	63.04
348.674	96.03
349.057	116.82
349.44	141.45
349.823	126.31
350.206	146.87
350.588	180.32
350.971	197.27
351.354	219.64
351.737	246.31
352.119	256.02
352.502	253.99
352.884	266.87
353.267	255.12
353.65	299.86
354.032	304.38
354.414	291.96
354.797	310.49
355.179	301.9
355.562	316.14
355.944	299.41
356.326	311.84
356.709	322.92
357.091	358.39
357.473	329.02
357.855	321.11
358.238	334.44
358.62	333.31
359.002	352.52
359.384	333.99
359.766	339.86
360.148	333.54
360.53	362.01
360.912	334.44
361.294	323.37
361.676	322.69
362.057	326.08
362.439	329.47
362.821	316.59
363.203	333.31
363.584	308.9
363.966	322.92
364.348	322.46
364.729	327.66
365.111	311.39
365.493	329.24
365.874	319.53
366.256	309.58
366.637	310.03
367.019	335.57
367.4	317.49
367.781	298.28
368.163	304.84
368.544	318.17
368.925	305.06
369.306	298.28
369.688	308.9
370.069	317.72
370.45	323.82
370.831	321.11
371.212	330.6
371.593	307.32
371.974	305.29
372.355	321.33
372.736	329.92
373.117	312.97
373.498	319.3
373.879	343.48
374.26	306.87
374.641	327.66
375.021	341.45
375.402	345.97
375.783	324.27
376.163	338.51
376.544	335.8
376.925	344.61
377.305	320.88
377.686	334.21
378.066	351.84
378.447	330.37
378.827	344.16
379.208	331.28
379.588	334.21
379.968	340.54
380.349	337.15
380.729	354.55
381.109	345.74
381.489	348.9
381.87	360.88
382.25	334.89
382.63	351.84
383.01	368.56
383.39	373.99
383.77	379.41
384.15	370.82
384.53	384.83
384.91	369.92
385.29	369.24
385.67	355.23
386.049	388.9
386.429	388.22
386.809	392.74
387.189	362.91
387.568	366.76
387.948	390.26
388.328	380.09
388.707	374.67
389.087	377.38
389.466	400.65
389.846	379.18
390.225	400.43
390.605	412.63
390.984	400.65
391.363	386.87
391.743	394.33
392.122	385.96
392.501	412.63
392.881	404.5
393.26	401.78
393.639	390.71
394.018	404.27
394.397	412.18
394.776	404.5
395.155	433.87
395.534	410.6
395.913	414.21
396.292	419.18
396.671	430.26
397.05	446.3
397.429	425.51
397.808	449.92
398.186	452.4
398.565	445.62
398.944	437.26
399.323	464.38
399.701	429.81
400.08	456.7
400.458	463.48
400.837	434.78
401.215	466.64
401.594	446.98
401.972	483.36
402.351	469.8
402.729	464.61
403.107	470.71
403.486	482.91
403.864	480.65
404.242	472.06
404.62	486.53
404.999	476.58
405.377	497.15
405.755	495.34
406.133	479.75
406.511	516.36
406.889	509.58
407.267	511.61
407.645	511.84
408.023	506.64
408.401	526.53
408.779	519.75
409.156	547.32
409.534	537.37
409.912	509.58
410.29	538.95
410.667	522.01
411.045	548.67
411.422	556.36
411.8	547.32
412.178	567.43
412.555	573.08
412.933	584.38
413.31	563.59
413.687	582.8
414.065	604.49
414.442	573.08
414.819	597.71
415.197	604.94
415.574	607.2
415.951	607.43
416.328	620.76
416.705	616.47
417.082	602.68
417.46	630.03
417.837	648.1
418.214	614.88
418.591	637.03
418.967	628.22
419.344	666.41
419.721	642.45
420.098	656.24
420.475	647.43
420.852	673.41
421.228	679.29
421.605	669.57
421.982	676.35
422.358	671.83
422.735	683.36
423.111	695.56
423.488	688.78
423.864	709.35
424.241	703.92
424.617	710.93
424.994	728.33
425.37	721.1
425.746	742.34
426.123	762.45
426.499	750.7
426.875	733.75
427.251	763.36
427.627	774.2
428.003	796.35
428.379	781.43
428.756	784.6
429.132	808.33
429.507	809.91
429.883	799.96
430.259	813.75
430.635	806.07
431.011	823.69
431.387	812.39
431.763	842.22
432.138	842.22
432.514	853.97
432.89	853.75
433.265	925.61
433.641	889.91
434.016	920.41
434.392	911.83
434.767	893.75
435.143	907.98
435.518	929.68
435.894	924.71
436.269	921.32
436.644	958.15
437.02	957.25
437.395	972.84
437.77	988.89
438.145	984.37
438.52	984.82
438.895	1014.87
439.271	1002.22
439.646	998.38
440.021	1029.56
440.395	1047.19
440.77	997.47
441.145	1061.88
441.52	1041.99
441.895	1057.36
442.27	1051.94
442.645	1053.74
443.019	1076.34
443.394	1070.92
443.769	1088.09
444.143	1060.97
444.518	1098.49
444.892	1108.21
445.267	1128.54
445.641	1100.07
446.016	1115.89
446.39	1140.75
446.764	1141.88
447.139	1147.75
447.513	1131.03
447.887	1131.26
448.262	1147.75
448.636	1173.06
449.01	1191.37
449.384	1172.16
449.758	1206.51
450.132	1209.22
450.506	1196.79
450.88	1218.94
451.254	1216.68
451.628	1218.48
452.002	1212.16
452.376	1231.14
452.75	1251.03
453.123	1266.62
453.497	1280.18
453.871	1307.3
454.244	1330.57
454.618	1345.04
454.992	1329.89
455.365	1347.97
455.739	1379.61
456.112	1398.59
456.486	1410.12
456.859	1406.05
457.232	1444.92
457.606	1427.29
457.979	1431.81
458.352	1454.64
458.725	1474.07
459.099	1513.84
459.472	1530.12
459.845	1545.26
460.218	1539.83
460.591	1549.32
460.964	1546.61
461.337	1605.14
461.71	1602.43
462.083	1641.75
462.456	1614.63
462.829	1646.72
463.201	1670.45
463.574	1695.99
463.947	1708.19
464.32	1743.67
464.692	1728.08
465.065	1759.71
465.438	1775.08
465.81	1790.22
466.183	1803.78
466.555	1830.22
466.928	1831.58
467.3	1862.76
467.672	1869.77
468.045	1945.47
468.417	1900.27
468.789	1935.53
469.161	1980.5
469.534	2011.46
469.906	2025.02
470.278	2041.74
470.65	2038.8
471.022	2112.47
471.394	2126.71
471.766	2147.73
472.138	2174.39
472.51	2208.74
472.882	2236.31
473.253	2254.39
473.625	2273.15
473.997	2331.45
474.369	2367.61
474.74	2368.74
475.112	2374.39
475.484	2460.26
475.855	2472.46
476.227	2532.8
476.598	2617.77
476.97	2568.73
477.341	2660.93
477.713	2666.58
478.084	2692.34
478.455	2755.85
478.827	2806.01
479.198	2831.32
479.569	2889.85
479.94	2944.54
480.311	2968.04
480.682	3027.02
481.053	3099.57
481.424	3099.11
481.795	3121.94
482.166	3179.79
482.537	3221.82
482.908	3328.49
483.279	3345.89
483.65	3366.68
484.021	3429.27
484.391	3475.37
484.762	3473.11
485.133	3529.84
485.503	3567.12
485.874	3662.71
486.244	3676.5
486.615	3741.36
486.985	3805.76
487.356	3851.86
487.726	3874.91
488.097	3927.34
488.467	3973.44
488.837	4029.03
489.207	4149.03
489.578	4134.11
489.948	4165.3
490.318	4198.52
490.688	4257.73
491.058	4292.75
491.428	4357.61
491.798	4405.07
492.168	4512.41
492.538	4464.28
492.908	4537.95
493.278	4584.95
493.648	4631.28
494.017	4686.19
494.387	4695.23
494.757	4743.14
495.126	4824.94
495.496	4864.49
495.866	4903.59
496.235	4930.93
496.605	4981.55
496.974	4986.52
497.344	5067.2
497.713	5067.2
498.082	5127.76
498.452	5122.34
498.821	5123.69
499.19	5147.87
499.559	5273.52
499.928	5268.1
500.298	5303.35
500.667	5369.34
501.036	5394.65
501.405	5431.48
501.774	5441.42
502.143	5466.51
502.512	5511.25
502.88	5606.39
503.249	5604.36
503.618	5570.23
503.987	5656.33
504.356	5636.67
504.724	5734.98
505.093	5754.18
505.462	5730.68
505.83	5808.87
506.199	5858.14
506.567	5975.42
506.936	5927.06
507.304	6001.86
507.672	6003.67
508.041	5993.73
508.409	6127.28
508.777	6177
509.145	6206.38
509.514	6217
509.882	6241.4
510.25	6295.41
510.618	6341.29
510.986	6369.54
511.354	6366.82
511.722	6461.96
512.09	6504
512.458	6508.06
512.826	6623.77
513.193	6608.85
513.561	6674.61
513.929	6720.04
514.297	6763.2
514.664	6772.92
515.032	6841.61
515.4	6898.34
515.767	6918
516.135	6932.01
516.502	6979.46
516.869	7023.3
517.237	7105.56
517.604	7092.91
517.972	7212.68
518.339	7233.24
518.706	7209.74
519.073	7287.25
519.44	7351.21
519.808	7371.09
520.175	7416.97
520.542	7530.86
520.909	7587.58
521.276	7588.03
521.643	7696.28
522.009	7786.45
522.376	7851.3
522.743	7853.11
523.11	7913.9
523.477	7962.71
523.843	8025.99
524.21	8113.67
524.577	8143.27
524.943	8200.45
525.31	8232.54
525.676	8331.52
526.043	8359.99
526.409	8401.35
526.776	8518.41
527.142	8534
527.508	8598.18
527.874	8679.98
528.241	8663.71
528.607	8723.6
528.973	8801.11
529.339	8832.52
529.705	8981.9
530.071	8995.46
530.437	9058.96
530.803	9089.46
531.169	9180.76
531.535	9212.62
531.901	9256.47
532.267	9179.86
532.632	9287.65
532.998	9367.88
533.364	9394.99
533.73	9464.82
534.095	9571.26
534.461	9573.29
534.826	9558.83
535.192	9562.22
535.557	9722.89
535.923	9722.44
536.288	9746.17
536.653	9818.26
537.019	9795.43
537.384	9822.78
537.749	9898.26
538.114	9880.86
538.479	9959.95
538.845	9981.19
539.21	9930.12
539.575	10037.24
539.94	10085.82
540.305	10170.57
540.67	10118.59
541.034	10215.08
541.399	10246.04
541.764	10265.48
542.129	10303.44
542.494	10339.83
542.858	10357.23
543.223	10415.08
543.587	10431.8
543.952	10419.6
544.316	10459.37
544.681	10502.31
545.045	10572.59
545.41	10661.63
545.774	10629.31
546.138	10708.86
546.503	10722.64
546.867	10760.15
547.231	10876.54
547.595	10767.16
547.959	10912.92
548.324	10888.74
548.688	10862.07
549.052	10933.48
549.416	11066.81
549.779	11027.49
550.143	11056.64
550.507	11094.61
550.871	11214.61
551.235	11152.24
551.599	11232.91
551.962	11301.84
552.326	11263.42
552.689	11347.94
553.053	11348.16
553.417	11380.25
553.78	11529.63
554.143	11508.16
554.507	11543.19
554.87	11570.08
555.234	11714.48
555.597	11664.54
555.96	11733.01
556.323	11877.19
556.686	11803.07
557.05	11918.09
557.413	11915.15
557.776	11900.69
558.139	12047.8
558.502	12088.48
558.865	12118.99
559.228	12146.33
559.59	12228.82
559.953	12293.9
560.316	12402.37
560.679	12401.24
561.041	12440.11
561.404	12504.29
561.767	12577.73
562.129	12523.05
562.492	12768.24
562.854	12697.28
563.217	12749.71
563.579	12775.92
563.941	12922.81
564.304	12856.15
564.666	12882.13
565.028	12964.84
565.39	13028.34
565.753	13180.2
566.115	13097.04
566.477	13264.04
566.839	13284.61
567.201	13447.77
567.563	13377.49
567.925	13391.27
568.287	13522.57
568.648	13504.04
569.01	13614.32
569.372	13634.66
569.734	13674.88
570.095	13759.4
570.457	13764.14
570.819	13909.45
571.18	13902.67
571.542	13909.68
571.903	13944.93
572.265	14054.53
572.626	14080.52
572.987	14111.71
573.349	14126.62
573.71	14238.93
574.071	14190.12
574.432	14250.68
574.794	14272.15
575.155	14314.19
575.516	14294.3
575.877	14390.57
576.238	14393.96
576.599	14461.07
576.96	14497.91
577.32	14524.8
577.681	14534.29
578.042	14581.75
578.403	14640.73
578.763	14594.4
579.124	14669.88
579.485	14648.19
579.845	14724.34
580.206	14747.62
580.566	14655.87
580.927	14671.69
581.287	14833.72
581.648	14799.82
582.008	14890.67
582.368	14795.3
582.728	14816.55
583.089	14834.17
583.449	14893.83
583.809	14893.15
584.169	14914.17
584.529	14908.07
584.889	15006.82
585.249	14765.93
585.609	14886.37
585.969	14938.12
586.329	14895.19
586.688	14861.06
587.048	14912.14
587.408	14845.02
587.768	14861.29
588.127	14807.28
588.487	14878.24
588.846	14976.54
589.206	14878.01
589.565	14826.04
589.925	14934.06
590.284	14850.22
590.643	14862.42
591.003	15001.17
591.362	14927.05
591.721	14993.72
592.08	14927.95
592.44	14945.36
592.799	15029.87
593.158	14989.42
593.517	14898.13
593.876	15056.77
594.235	15051.34
594.593	14999.37
594.952	14978.35
595.311	14914.85
595.67	15018.57
596.029	15144.45
596.387	15104.45
596.746	15151.68
597.104	15058.35
597.463	15031.23
597.822	15134.96
598.18	15085.01
598.538	15075.97
598.897	15216.53
599.255	15102.87
599.613	15360.26
599.972	15124.11
600.33	15196.65
600.688	15089.31
601.046	15203.2
601.404	15217.89
601.762	15222.86
602.12	15297.21
602.478	15226.25
602.836	15301.96
603.194	15218.12
603.552	15340.37
603.91	15099.93
604.268	15366.59
604.625	15235.97
604.983	15320.94
605.341	15258.79
605.698	15345.12
606.056	15379.92
606.413	15329.75
606.771	15486.81
607.128	15564.1
607.485	15348.73
607.843	15392.8
608.2	15501.27
608.557	15426.7
608.914	15496.08
609.272	15511.89
609.629	15564.55
609.986	15650.65
610.343	15522.52
610.7	15631.21
611.057	15587.37
611.414	15596.64
611.771	15623.53
612.127	15737.65
612.484	15671.44
612.841	15737.88
613.198	15698.78
613.554	15723.19
613.911	15730.87
614.267	15752.34
614.624	15755.73
614.98	15762.51
615.337	15774.94
615.693	15792.56
616.05	15761.38
616.406	15879.57
616.762	15809.51
617.118	15920.7
617.475	15824.2
617.831	15826.01
618.187	15950.53
618.543	15928.83
618.899	16004.54
619.255	15972.9
619.611	15913.24
619.967	16065.33
620.323	16018.32
620.678	16006.34
621.034	16032.11
621.39	16009.73
621.746	15981.26
622.101	16031.43
622.457	15942.62
622.812	16138.32
623.168	16083.18
623.523	16031.43
623.879	15984.88
624.234	15997.53
624.589	16016.97
624.945	16069.85
625.3	16133.57
625.655	16073.46
626.01	16019
626.365	16121.82
626.72	16162.27
627.075	16070.75
627.43	16020.58
627.785	15941.49
628.14	15963.18
628.495	16087.25
628.85	16046.34
629.205	15956.18
629.559	16113.69
629.914	15960.47
630.269	16016.06
630.623	15939.68
630.978	15911.21
631.332	15925.22
631.687	15938.78
632.041	15981.71
632.396	16003.18
632.75	15868.5
633.104	15863.98
633.459	15787.59
633.813	15828.5
634.167	15807.48
634.521	15760.25
634.875	15831.66
635.229	15812
635.583	15701.49
635.937	15715.28
636.291	15725
636.645	15721.61
636.999	15641.38
637.352	15722.74
637.706	15620.37
638.06	15622.85
638.413	15605.45
638.767	15593.25
639.121	15571.55
639.474	15578.33
639.828	15529.97
640.181	15562.74
640.534	15540.59
640.888	15472.8
641.241	15408.39
641.594	15442.97
641.947	15499.24
642.301	15316.42
642.654	15368.17
643.007	15422.86
643.36	15366.81
643.713	15277.1
644.066	15439.81
644.419	15311
644.771	15228.29
645.124	15066.26
645.477	15020.16
645.83	14893.61
646.182	14818.81
646.535	14824.91
646.888	14882.98
647.24	14787.85
647.593	14863.78
647.945	14777.22
648.298	14755.53
648.65	14765.47
649.002	14698.58
649.355	14753.04
649.707	14769.54
650.059	14677.34
650.411	15000.5
650.763	14795.08
651.115	15122.07
651.467	15044.79
651.819	14960.72
652.171	14942.64
652.523	14856.54
652.875	14956.65
653.227	14875.75
653.578	15067.84
653.93	14930.44
654.282	14850.67
654.633	14805.7
654.985	14810.67
655.337	14860.16
655.688	14854.74
656.039	14846.83
656.391	14745.59
656.742	14763.89
657.094	14811.57
657.445	14863.32
657.796	14790.11
658.147	14742.88
658.498	14767.73
658.849	14809.99
659.2	14762.08
659.551	14725.25
659.902	14824.91
660.253	14685.93
660.604	14695.64
660.955	14710.11
661.306	14725.25
661.656	14737.68
662.007	14701.75
662.358	14634.63
662.708	14645.02
663.059	14616.1
663.409	14529.1
663.76	14614.74
664.11	14559.38
664.461	14630.11
664.811	14586.27
665.161	14591.47
665.511	14630.56
665.862	14618.81
666.212	14631.69
666.562	14586.72
666.912	14580.62
667.262	14598.02
667.612	14533.84
667.962	14516.44
668.312	14535.87
668.662	14585.82
669.011	14485.03
669.361	14494.07
669.711	14519.6
670.06	14559.38
670.41	14466.5
670.76	14437.35
671.109	14478.48
671.459	14414.52
671.808	14416.56
672.157	14533.62
672.507	14372.49
672.856	14410
673.205	14466.5
673.554	14413.17
673.904	14311.47
674.253	14443
674.602	14462.2
674.951	14244.81
675.3	14141.99
675.649	14384.24
675.998	14382.66
676.346	14419.95
676.695	14430.57
677.044	14311.7
677.393	14350.12
677.741	14362.77
678.09	14315.54
678.438	14262.66
678.787	14235.09
679.135	14260.4
679.484	14205.26
679.832	14285.71
680.181	14125.72
680.529	14186.51
680.877	14111.48
681.225	14111.71
681.573	14178.6
681.922	14043.91
682.27	14080.75
682.618	14105.6
682.966	14129.33
683.314	14090.69
683.661	14108.09
684.009	13902.9
684.357	13964.59
684.705	13897.93
685.053	13898.15
685.4	13877.59
685.748	13754.43
686.095	13819.51
686.443	13756.69
686.79	13720.76
687.138	13851.37
687.485	13812.5
687.832	13790.81
688.18	13739.51
688.527	13672.17
688.874	13633.98
689.221	13657.71
689.568	13596.24
689.915	13499.07
690.262	13526.18
690.609	13450.03
690.956	13434.21
691.303	13366.19
691.65	13269.69
691.997	13341.1
692.344	13221.79
692.69	13328.67
693.037	13211.16
693.383	13105.4
693.73	13203.25
694.077	13205.29
694.423	13074.67
694.769	13076.48
695.116	13066.99
695.462	13078.51
695.808	13018.17
696.155	13062.92
696.501	12829.48
696.847	12890.49
697.193	12791.06
697.539	12828.8
697.885	12813.66
698.231	12684.17
698.577	12749.26
698.923	12717.84
699.269	12660.44
699.614	12571.41
699.96	12555.36
700.306	12575.25
700.651	12526.44
700.997	12417.06
701.342	12476.72
701.688	12486.44
702.033	12306.1
702.379	12339.32
702.724	12340.45
703.069	12340.68
703.415	12184.98
703.76	12197.18
704.105	12230.17
704.45	12106.11
704.795	12177.97
705.14	12037.86
705.485	12071.53
705.83	12018.88
706.175	12057.97
706.52	12015.49
706.865	11962.38
707.209	11844.42
707.554	11871.99
707.899	11900.01
708.243	11874.25
708.588	11844.19
708.932	11837.87
709.277	11835.83
709.621	11730.98
709.966	11695.05
710.31	11703.18
710.654	11633.8
710.998	11658.66
711.342	11611.88
711.687	11574.14
712.031	11503.19
712.375	11542.51
712.719	11515.84
713.063	11557.87
713.407	11548.61
713.75	11503.19
714.094	11446.92
714.438	11379.57
714.782	11416.41
715.125	11314.26
715.469	11379.12
715.812	11337.54
716.156	11276.75
716.499	11254.61
716.843	11270.65
717.186	11167.83
717.53	11273.81
717.873	11209.41
718.216	11292.8
718.559	11123.54
718.902	11170.77
719.246	11106.13
719.589	11074.04
719.932	11082.86
720.275	11116.53
720.617	10985.91
720.96	10993.82
721.303	10980.94
721.646	10952.69
721.989	10923.54
722.331	10976.42
722.674	10887.61
723.016	10996.31
723.359	10870.89
723.701	10947.49
724.044	10856.88
724.386	10763.54
724.729	10860.27
725.071	10740.72
725.413	10808.97
725.755	10766.93
726.097	10731.23
726.439	10681.51
726.782	10680.83
727.124	10691
727.465	10622.31
727.807	10608.07
728.149	10648.29
728.491	10626.6
728.833	10642.87
729.175	10605.58
729.516	10560.84
729.858	10498.69
730.199	10507.28
730.541	10530.78
730.882	10449.2
731.224	10498.92
731.565	10448.75
731.906	10470.45
732.248	10413.72
732.589	10418.24
732.93	10332.6
733.271	10336.66
733.612	10387.96
733.953	10356.78
734.294	10299.15
734.635	10307.96
734.976	10358.58
735.317	10287.17
735.658	10273.84
735.999	10360.17
736.339	10317
736.68	10278.81
737.021	10249.43
737.361	10222.99
737.702	10267.51
738.042	10213.73
738.383	10166.27
738.723	10252.15
739.063	10188.87
739.404	10223.45
739.744	10148.65
740.084	10105.26
740.424	10106.84
740.764	10082.66
741.104	10070.23
741.444	10129.66
741.784	10011.47
742.124	10030
742.464	10027.74
742.804	9965.15
743.143	10037.91
743.483	10008.54
743.823	9917.47
744.162	9837.92
744.502	9902.55
744.841	9923.34
745.181	9884.47
745.52	9825.26
745.86	9839.5
746.199	9785.49
746.538	9815.77
746.877	9809.22
747.216	9818.48
747.556	9818.03
747.895	9762.89
748.234	9717.7
748.573	9741.88
748.911	9731.48
749.25	9729.67
749.589	9697.81
749.928	9665.49
750.267	9653.29
750.605	9644.25
750.944	9589.11
751.283	9494.2
751.621	9611.71
751.96	9534.88
752.298	9535.55
752.636	9545.95
752.975	9486.74
753.313	9392.96
753.651	9412.62
753.989	9429.34
754.327	9410.81
754.666	9402.22
755.004	9362.45
755.342	9352.28
755.679	9317.71
756.017	9302.11
756.355	9321.1
756.693	9239.74
757.031	9262.79
757.368	9145.06
757.706	9197.94
758.044	9163.81
758.381	9169.01
758.719	9082.23
759.056	9118.84
759.394	9037.49
759.731	9075.23
760.068	8997.04
760.405	9020.99
760.743	8942.8
761.08	8982.8
761.417	8901.45
761.754	8941.9
762.091	8859.87
762.428	8869.81
762.765	8798.62
763.102	8848.11
763.438	8813.99
763.775	8703.94
764.112	8710.94
764.449	8694.45
764.785	8733.09
765.122	8638.18
765.458	8622.58
765.795	8645.63
766.131	8562.47
766.467	8527.9
766.804	8496.03
767.14	8529.25
767.476	8470.95
767.812	8433.89
768.148	8439.99
768.485	8402.7
768.821	8310.05
769.157	8358.64
769.492	8396.15
769.828	8312.08
770.164	8253.78
770.5	8222.14
770.836	8188.92
771.171	8190.73
771.507	8153.67
771.842	8091.75
772.178	8101.69
772.513	8100.11
772.849	8062.15
773.184	8028.48
773.519	7986.89
773.855	7936.73
774.19	7882.72
774.525	7919.1
774.86	7931.98
775.195	7843.17
775.53	7828.25
775.865	7818.99
776.2	7781.48
776.535	7733.57
776.87	7715.26
777.205	7632.55
777.539	7662.16
777.874	7628.26
778.209	7575.15
778.543	7570.63
778.878	7504.2
779.212	7504.87
779.547	7423.52
779.881	7511.88
780.215	7420.58
780.55	7436.63
780.884	7441.82
781.218	7373.13
781.552	7380.36
781.886	7305.56
782.22	7285.9
782.554	7306.69
782.888	7204.32
783.222	7188.95
783.556	7105.56
783.889	7131.78
784.223	7110.08
784.557	7114.15
784.89	7164.09
785.224	7056.75
785.557	7025.34
785.891	7053.13
786.224	6937.88
786.558	7002.06
786.891	6940.14
787.224	6933.59
787.557	6930.2
787.891	6891.1
788.224	6878.9
788.557	6862.63
788.89	6838
789.223	6784.21
789.556	6789.86
789.888	6733.37
790.221	6700.83
790.554	6653.6
790.887	6641.62
791.219	6643.65
791.552	6681.17
791.884	6565.24
792.217	6577.21
792.549	6614.95
792.882	6556.88
793.214	6491.34
793.546	6525.46
793.879	6500.83
794.211	6421.06
794.543	6463.32
794.875	6418.35
795.207	6423.09
795.539	6388.97
795.871	6409.53
796.203	6366.15
796.535	6343.1
796.867	6301.74
797.198	6265.36
797.53	6295.19
797.862	6216.55
798.193	6274.17
798.525	6181.29
798.856	6220.39
799.188	6108.3
799.519	6153.95
799.85	6108.53
800.182	6116.66
800.513	6120.95
800.844	6043.67
801.175	6082.09
801.506	6048.87
801.837	6016.78
802.168	6010.45
802.499	5991.47
802.83	5973.39
803.161	5934.52
803.491	5966.38
803.822	5981.07
804.153	5903.33
804.483	5841.19
804.814	5862.88
805.145	5848.19
805.475	5813.84
805.805	5847.97
806.136	5818.36
806.466	5839.83
806.796	5871.24
807.126	5746.95
807.457	5735.65
807.787	5726.84
808.117	5695.88
808.447	5701.76
808.777	5727.52
809.107	5679.16
809.436	5631.25
809.766	5668.99
810.096	5679.84
810.426	5581.76
810.755	5603.23
811.085	5590.8
811.414	5565.49
811.744	5517.58
812.073	5561.2
812.403	5492.27
812.732	5482.55
813.061	5533.4
813.39	5471.93
813.719	5473.97
814.049	5429.22
814.378	5434.42
814.707	5443.23
815.036	5399.84
815.365	5410.01
815.693	5407.75
816.022	5421.99
816.351	5384.25
816.68	5330.47
817.008	5313.07
817.337	5317.13
817.665	5264.71
817.994	5277.81
818.322	5303.35
818.651	5234.65
818.979	5267.42
819.307	5250.7
819.636	5268.55
819.964	5222.67
820.292	5266.06
820.62	5266.74
820.948	5249.11
821.276	5269.23
821.604	5206.18
821.932	5239.62
822.259	5204.37
822.587	5225.61
822.915	5188.32
823.243	5206.63
823.57	5203.92
823.898	5181.77
824.225	5191.71
824.553	5115.56
824.88	5208.66
825.207	5141.55
825.535	5197.82
825.862	5183.8
826.189	5150.58
826.516	5229.45
826.843	5208.44
827.17	5165.05
827.497	5208.44
827.824	5165.05
828.151	5181.54
828.478	5191.71
828.805	5182.67
829.131	5131.6
829.458	5143.13
829.785	5167.76
830.111	5125.05
830.438	5140.19
830.764	5116.69
831.09	5154.43
831.417	5135.22
831.743	5167.53
832.069	5148.1
832.395	5141.09
832.722	5126.63
833.048	5119.4
833.374	5106.74
833.7	5140.64
834.026	5085.28
834.351	5147.87
834.677	5129.12
835.003	5142
835.329	5102
835.654	5125.73
835.98	5098.61
836.306	5080.76
836.631	5076.69
836.956	5088.67
837.282	5078.95
837.607	5068.55
837.932	5059.29
838.258	5051.6
838.583	5113.52
838.908	5066.75
839.233	5019.06
839.558	5028.1
839.883	4998.95
840.208	4978.61
840.533	4963.47
840.858	4995.11
841.182	5005.28
841.507	4996.46
841.832	4987.65
842.156	4934.77
842.481	4948.33
842.805	4903.13
843.13	4913.3
843.454	4939.97
843.778	4902.23
844.103	4889.8
844.427	4890.25
844.751	4865.85
845.075	4883.02
845.399	4834.44
845.723	4829.92
846.047	4791.95
846.371	4815.68
846.695	4824.72
847.019	4737.94
847.343	4749.47
847.666	4694.1
847.99	4699.3
848.313	4731.61
848.637	4662.91
848.96	4653.2
849.284	4635.8
849.607	4608
849.931	4578.4
850.254	4591.28
850.577	4548.34
850.9	4511.51
851.223	4513.31
851.546	4518.29
851.869	4455.69
852.192	4423.82
852.515	4400.1
852.838	4462.92
853.161	4463.82
853.483	4424.05
853.806	4391.96
854.129	4386.99
854.451	4347.67
854.774	4375.01
855.096	4336.37
855.419	4311.06
855.741	4301.79
856.063	4278.29
856.385	4251.17
856.708	4268.12
857.03	4286.2
857.352	4274.9
857.674	4257.5
857.996	4212.76
858.318	4226.09
858.64	4213.43
858.961	4228.35
859.283	4183.83
859.605	4179.54
859.926	4172.08
860.248	4181.8
860.57	4179.31
860.891	4167.56
861.212	4127.79
861.534	4135.92
861.855	4147
862.176	4127.33
862.498	4101.12
862.819	4110.16
863.14	4118.97
863.461	4085.98
863.782	4104.51
864.103	4101.35
864.424	4055.25
864.745	4080.1
865.065	4067.45
865.386	4066.32
865.707	4029.94
866.027	4036.26
866.348	4032.2
866.668	4015.7
866.989	4038.98
867.309	3990.16
867.63	3997.85
867.95	4000.78
868.27	3945.87
868.59	3957.85
868.91	3960.79
869.23	3918.98
869.55	3947.9
869.87	3948.13
870.19	3986.55
870.51	3943.61
870.83	3940
871.15	3937.06
871.469	3934.8
871.789	3942.48
872.109	3939.77
872.428	3880.34
872.748	3930.73
873.067	3910.84
873.386	3922.82
873.706	3907.45
874.025	3880.11
874.344	3872.43
874.663	3847.79
874.982	3830.62
875.301	3867.91
875.62	3829.72
875.939	3846.89
876.258	3831.07
876.577	3801.92
876.896	3842.6
877.214	3804.86
877.533	3842.37
877.852	3781.13
878.17	3756.05
878.489	3794.46
878.807	3802.15
879.125	3763.5
879.444	3784.07
879.762	3776.16
880.08	3754.92
880.398	3735.93
880.716	3760.11
881.034	3753.11
881.352	3738.42
881.67	3766.21
881.988	3706.33
882.306	3728.25
882.624	3680.79
882.941	3729.61
883.259	3702.26
883.577	3679.66
883.894	3650.74
884.212	3682.6
884.529	3703.17
884.846	3672.66
885.164	3674.47
885.481	3637.86
885.798	3605.09
886.115	3594.69
886.432	3628.37
886.75	3573.9
887.067	3631.08
887.383	3560.34
887.7	3558.99
888.017	3566.9
888.334	3545.88
888.651	3554.47
888.967	3508.82
889.284	3522.83
889.6	3528.48
889.917	3526.9
890.233	3523.74
890.55	3508.82
890.866	3539.55
891.182	3463.17
891.498	3513.57
891.815	3473.57
892.131	3484.19
892.447	3438.77
892.763	3423.4
893.079	3418.88
893.395	3419.11
893.71	3380.24
894.026	3418.88
894.342	3412.1
894.657	3396.05
894.973	3375.72
895.289	3333.23
895.604	3362.61
895.92	3345.21
896.235	3330.07
896.55	3323.51
896.865	3354.47
897.181	3295.27
897.496	3303.18
897.811	3310.18
898.126	3247.36
898.441	3253.91
898.756	3278.09
899.071	3238.54
899.386	3264.76
899.7	3197.64
900.015	3224.99
900.33	3191.54
900.644	3178.89
900.959	3217.98
901.273	3162.16
901.588	3163.74
901.902	3161.26
902.216	3107.93
902.531	3156.51
902.845	3160.35
903.159	3082.39
903.473	3112.9
903.787	3089.85
904.101	3100.47
904.415	3092.33
904.729	3100.02
905.042	3070.64
905.356	3038.1
905.67	3030.41
905.984	3014.37
906.297	3009.17
906.611	2996.07
906.924	2974.37
907.237	2998.78
907.551	2958.33
907.864	2979.12
908.177	2913.81
908.491	2962.85
908.804	2944.32
909.117	2892.57
909.43	2896.18
909.743	2900.7
910.056	2943.86
910.368	2898.67
910.681	2850.08
910.994	2858.67
911.307	2808.27
911.619	2827.26
911.932	2799.91
912.244	2786.35
912.557	2798.1
912.869	2818.67
913.181	2786.81
913.494	2768.73
913.806	2754.94
914.118	2749.29
914.43	2728.28
914.742	2731.89
915.054	2715.85
915.366	2727.15
915.678	2689.18
915.99	2654.83
916.302	2671.78
916.613	2655.51
916.925	2669.97
917.236	2632.46
917.548	2591.56
917.859	2603.99
918.171	2615.96
918.482	2605.34
918.794	2616.87
919.105	2592.69
919.416	2573.7
919.727	2567.38
920.038	2581.16
920.349	2565.79
920.66	2568.51
920.971	2501.62
921.282	2539.81
921.593	2527.83
921.903	2480.37
922.214	2505
922.525	2497.77
922.835	2450.09
923.146	2476.53
923.456	2478.79
923.767	2453.03
924.077	2453.25
924.387	2445.35
924.697	2392.24
925.008	2448.51
925.318	2411.9
925.628	2383.88
925.938	2416.87
926.248	2383.65
926.558	2384.78
926.867	2385.23
927.177	2354.95
927.487	2369.87
927.796	2281.51
928.106	2346.82
928.416	2376.42
928.725	2331.68
929.034	2299.59
929.344	2305.69
929.653	2275.63
929.962	2299.59
930.271	2270.66
930.581	2258.23
930.89	2235.18
931.199	2234.5
931.508	2211.68
931.817	2229.31
932.125	2173.49
932.434	2209.42
932.743	2196.09
933.051	2180.04
933.36	2166.71
933.669	2141.4
933.977	2170.1
934.286	2187.95
934.594	2185.47
934.902	2159.93
935.21	2126.26
935.519	2124.68
935.827	2119.93
936.135	2095.07
936.443	2079.03
936.751	2107.05
937.059	2080.16
937.367	2064.34
937.674	2048.97
937.982	2055.98
938.29	2082.19
938.597	2058.69
938.905	2049.2
939.213	2016.2
939.52	2033.6
939.827	2011.91
940.135	1984.34
940.442	1978.69
940.749	1997.67
941.056	2028.86
941.363	1986.15
941.67	1952.25
941.977	1982.98
942.284	1932.36
942.591	1982.08
942.898	1945.25
943.205	1946.6
943.511	1935.98
943.818	1939.82
944.125	1895.76
944.431	1909.77
944.738	1906.6
945.044	1855.98
945.35	1882.2
945.657	1902.31
945.963	1886.04
946.269	1843.33
946.575	1863.21
946.881	1859.15
947.187	1837
947.493	1851.01
947.799	1837.9
948.105	1845.14
948.41	1813.95
948.716	1787.74
949.022	1828.19
949.327	1790.67
949.633	1780.96
949.938	1764.69
950.244	1806.49
950.549	1757.23
950.854	1748.41
951.16	1748.19
951.465	1749.32
951.77	1734.18
952.075	1773.5
952.38	1730.79
952.685	1732.14
952.99	1750
953.294	1730.34
953.599	1702.31
953.904	1709.32
954.209	1665.48
954.513	1669.55
954.818	1658.25
955.122	1647.4
955.426	1658.7
955.731	1653.5
956.035	1653.5
956.339	1641.52
956.643	1653.95
956.948	1634.29
957.252	1651.24
957.556	1634.29
957.86	1632.49
958.163	1643.56
958.467	1612.37
958.771	1598.14
959.075	1602.2
959.378	1576.67
959.682	1600.4
959.985	1583.67
960.289	1553.39
960.592	1571.47
960.896	1533.28
961.199	1535.09
961.502	1513.17
961.805	1525.37
962.108	1522.21
962.411	1499.38
962.714	1511.58
963.017	1508.65
963.32	1510.45
963.623	1517.01
963.926	1504.81
964.228	1474.98
964.531	1479.27
964.833	1503.22
965.136	1487.63
965.438	1470.23
965.741	1474.52
966.043	1449.44
966.345	1448.08
966.648	1432.72
966.95	1461.42
967.252	1451.25
967.554	1459.16
967.856	1449.21
968.158	1425.49
968.46	1423
968.761	1408.54
969.063	1398.59
969.365	1409.44
969.666	1400.63
969.968	1399.5
970.269	1392.49
970.571	1396.33
970.872	1373.28
971.174	1342.1
971.475	1389.1
971.776	1364.92
972.077	1374.41
972.378	1349.78
972.679	1358.37
972.98	1342.32
973.281	1326.28
973.582	1353.85
973.883	1347.3
974.183	1322.66
974.484	1314.3
974.785	1322.89
975.085	1318.37
975.386	1332.83
975.686	1320.86
975.986	1314.3
976.287	1297.35
976.587	1296.67
976.887	1290.12
977.187	1272.04
977.487	1276.34
977.787	1270.69
978.087	1247.86
978.387	1275.21
978.687	1249.9
978.987	1267.75
979.286	1239.05
979.586	1233.85
979.885	1232.04
980.185	1239.28
980.484	1210.8
980.784	1202.21
981.083	1227.75
981.382	1222.55
981.682	1210.58
981.981	1234.76
982.28	1213.74
982.579	1182.78
982.878	1206.51
983.177	1187.98
983.475	1190.69
983.774	1178.71
984.073	1189.11
984.372	1158.37
984.67	1167.19
984.969	1163.12
985.267	1157.02
985.566	1119.5
985.864	1158.83
986.162	1163.12
986.461	1131.26
986.759	1151.37
987.057	1153.85
987.355	1131.71
987.653	1117.47
987.951	1112.27
988.249	1151.37
988.547	1114.31
988.844	1103.91
989.142	1114.31
989.44	1100.75
989.737	1089.22
990.035	1102.56
990.332	1098.49
990.63	1102.1
990.927	1077.7
991.224	1075.89
991.521	1089
991.819	1060.3
992.116	1055.1
992.413	1086.74
992.71	1040.18
993.006	1057.13
993.303	1051.94
993.6	1031.6
993.897	1030.47
994.193	1042.22
994.49	1050.81
994.787	1023.46
995.083	1033.63
995.379	1024.37
995.676	1006.06
995.972	1014.65
996.268	1008.55
996.565	1012.84
996.861	1020.52
997.157	1017.59
997.453	988.43
997.749	1002.45
998.044	969.45
998.34	962.9
998.636	994.76
998.932	982.11
999.227	993.63
999.523	963.35
999.818	937.81
1000.114	973.52
1000.409	951.83
1000.704	933.97
1001	936.68
1001.295	930.36
1001.59	966.74
1001.885	943.46
1002.18	918.61
1002.475	940.98
1002.77	942.79
1003.065	914.31
1003.359	922
1003.654	922.9
1003.949	921.54
1004.243	903.92
1004.538	907.76
1004.832	904.59
1005.127	890.36
1005.421	900.75
1005.715	896.69
1006.009	863.92
1006.304	912.05
1006.598	867.08
1006.892	874.77
1007.186	850.81
1007.48	875.22
1007.773	848.55
1008.067	857.59
1008.361	859.17
1008.655	859.17
1008.948	840.64
1009.242	834.99
1009.535	853.07
1009.829	810.36
1010.122	859.62
1010.415	859.62
1010.708	824.82
1011.001	836.35
1011.295	820.08
1011.588	825.27
1011.881	810.13
1012.173	796.12
1012.466	806.97
1012.759	818.5
1013.052	795.22
1013.344	787.76
1013.637	801.09
1013.93	789.12
1014.222	806.29
1014.514	814.43
1014.807	785.28
1015.099	747.76
1015.391	745.5
1015.683	768.55
1015.976	769.46
1016.268	773.75
1016.56	770.36
1016.851	762.68
1017.143	726.75
1017.435	756.35
1017.727	739.18
1018.018	735.79
1018.31	752.96
1018.602	733.98
1018.893	731.94
1019.185	726.97
1019.476	721.32
1019.767	738.27
1020.058	718.84
1020.35	715.67
1020.641	708.22
1020.932	694.88
1021.223	725.62
1021.514	711.61
1021.804	707.09
1022.095	674.77
1022.386	700.53
1022.677	705.73
1022.967	682
1023.258	693.3
1023.548	706.86
1023.839	677.93
1024.129	671.61
1024.419	676.58
1024.709	668.67
1025	694.88
1025.29	655.11
1025.58	657.82
1025.87	675.67
1026.16	666.64
1026.449	655.34
1026.739	644.26
1027.029	656.47
1027.319	648.1
1027.608	639.07
1027.898	637.03
1028.187	640.42
1028.477	628.44
1028.766	611.27
1029.055	657.6
1029.344	637.26
1029.634	617.82
1029.923	602.23
1030.212	629.12
1030.501	594.32
1030.79	611.95
1031.078	609.01
1031.367	602.68
1031.656	579.18
1031.945	576.69
1032.233	606.75
1032.522	603.59
1032.81	592.29
1033.099	586.41
1033.387	588.67
1033.675	578.5
1033.963	588.67
1034.251	568.11
1034.54	559.97
1034.828	558.84
1035.116	584.83
1035.403	576.69
1035.691	553.87
1035.979	587.77
1036.267	568.33
1036.554	545.96
1036.842	563.59
1037.129	550.25
1037.417	562.91
1037.704	571.95
1037.992	537.6
1038.279	552.97
1038.566	520.2
1038.853	520.2
1039.14	520.2
