Data from black_metal_pc_casing_FLMS001491_00077.txt Node
Date: Wed Feb 08 14:33:29 GMT 2017
User: dcchb
Spectrometer: FLMS00149
Trigger mode: 0
Integration Time (sec): 2.000000E-2
Scans to average: 10
Electric dark correction enabled: true
Nonlinearity correction enabled: false
Boxcar width: 0
XAxis mode: Wavelengths
Number of Pixels in Spectrum: 2048
>>>>>Begin Spectral Data<<<<<
341.393	-6.36
341.776	-6.36
342.16	-6.36
342.543	-52.91
342.927	-62.17
343.31	-78.67
343.693	-79.57
344.077	-53.59
344.46	-51.33
344.843	-35.28
345.226	-47.48
345.61	-40.93
345.993	-12.01
346.376	-12.46
346.759	20.54
347.142	25.06
347.525	38.61
347.908	39.74
348.291	62.34
348.674	101.21
349.057	123.81
349.44	119.52
349.823	152.74
350.206	153.64
350.588	190.48
350.971	199.29
351.354	195.22
351.737	223.24
352.119	235.9
352.502	264.37
352.884	251.04
353.267	283.35
353.65	288.55
354.032	276.12
354.414	320.19
354.797	278.61
355.179	315.9
355.562	292.39
355.944	296.01
356.326	299.4
356.709	320.64
357.091	326.06
357.473	352.05
357.855	327.42
358.238	326.29
358.62	342.56
359.002	322.68
359.384	338.95
359.766	333.97
360.148	337.36
360.53	334.43
360.912	331.26
361.294	336.46
361.676	332.17
362.057	318.38
362.439	317.93
362.821	312.96
363.203	324.93
363.584	330.81
363.966	332.84
364.348	331.94
364.729	303.47
365.111	323.35
365.493	331.04
365.874	329.68
366.256	312.73
366.637	309.79
367.019	318.61
367.4	311.15
367.781	309.57
368.163	320.42
368.544	326.97
368.925	310.02
369.306	318.16
369.688	312.73
370.069	302.79
370.45	324.26
370.831	319.96
371.212	300.75
371.593	327.87
371.974	313.41
372.355	322.68
372.736	309.79
373.117	302.11
373.498	307.76
373.879	313.18
374.26	306.86
374.641	310.7
375.021	322.68
375.402	319.29
375.783	307.99
376.163	343.69
376.544	358.83
376.925	330.36
377.305	348.44
377.686	351.15
378.066	329.68
378.447	349.79
378.827	340.53
379.208	338.04
379.588	355.44
379.968	337.59
380.349	346.4
380.729	314.77
381.109	334.88
381.489	357.93
381.87	347.53
382.25	345.05
382.63	347.76
383.01	350.02
383.39	381.88
383.77	339.17
384.15	357.48
384.53	354.99
384.91	366.74
385.29	364.93
385.67	368.1
386.049	376.91
386.429	357.7
386.809	352.96
387.189	368.55
387.568	368.55
387.948	358.61
388.328	398.83
388.707	374.88
389.087	388.66
389.466	393.63
389.846	385.27
390.225	410.58
390.605	398.83
390.984	395.67
391.363	380.3
391.743	392.5
392.122	397.25
392.501	404.25
392.881	412.39
393.26	410.36
393.639	410.13
394.018	401.77
394.397	413.29
394.776	423.01
395.155	415.55
395.534	395.22
395.913	427.98
396.292	428.66
396.671	409.9
397.05	401.32
397.429	420.07
397.808	414.2
398.186	428.89
398.565	431.82
398.944	440.86
399.323	445.61
399.701	436.57
400.08	467.3
400.458	468.43
400.837	431.6
401.215	445.16
401.594	471.82
401.972	451.94
402.351	434.99
402.729	453.52
403.107	477.02
403.486	465.72
403.864	473.63
404.242	469.11
404.62	466.85
404.999	451.71
405.377	473.18
405.755	486.74
406.133	453.97
406.511	480.86
406.889	485.83
407.267	496.23
407.645	503.01
408.023	531.71
408.401	530.81
408.779	514.53
409.156	535.1
409.534	526.06
409.912	524.48
410.29	530.13
410.667	536.68
411.045	542.56
411.422	533.07
411.8	531.48
412.178	559.28
412.555	551.14
412.933	568.32
413.31	554.76
413.687	570.35
414.065	567.64
414.442	588.88
414.819	575.32
415.197	571.71
415.574	576.45
415.951	586.62
416.328	609.45
416.705	588.2
417.082	601.76
417.46	605.38
417.837	603.57
418.214	608.77
418.591	622.33
418.967	604.93
419.344	628.66
419.721	633.4
420.098	624.81
420.475	640.86
420.852	660.75
421.228	652.84
421.605	668.88
421.982	657.81
422.358	679.05
422.735	688.54
423.111	686.06
423.488	663.01
423.864	669.56
424.241	699.61
424.617	709.78
424.994	701.42
425.37	689.45
425.746	701.42
426.123	717.24
426.499	726.51
426.875	697.13
427.251	714.08
427.627	723.57
428.003	750.46
428.379	748.43
428.756	758.82
429.132	749.56
429.507	803.57
429.883	799.95
430.259	771.25
430.635	793.17
431.011	792.04
431.387	795.66
431.763	824.58
432.138	807.63
432.514	825.71
432.89	819.16
433.265	855.32
433.641	855.32
434.016	833.17
434.392	865.94
434.767	878.59
435.143	875.2
435.518	901.19
435.894	912.72
436.269	888.99
436.644	911.59
437.02	945.48
437.395	944.13
437.77	954.97
438.145	947.74
438.52	984.8
438.895	943.22
439.271	957.01
439.646	978.48
440.021	988.19
440.395	988.65
440.77	980.06
441.145	995.2
441.52	1026.16
441.895	1016.22
442.27	1020.96
442.645	1014.86
443.019	1037.91
443.394	1030.45
443.769	1058.02
444.143	1042.43
444.518	1052.37
444.892	1053.5
445.267	1034.29
445.641	1069.77
446.016	1065.25
446.39	1082.43
446.764	1087.85
447.139	1086.04
447.513	1084.01
447.887	1103.22
448.262	1114.29
448.636	1124.46
449.01	1142.77
449.384	1161.75
449.758	1185.93
450.132	1162.88
450.506	1156.55
450.88	1156.1
451.254	1174.18
451.628	1190.45
452.002	1200.62
452.376	1211.69
452.75	1174.86
453.123	1238.36
453.497	1233.39
453.871	1242.65
454.244	1261.86
454.618	1267.06
454.992	1260.5
455.365	1284.91
455.739	1317.23
456.112	1310.67
456.486	1333.04
456.859	1352.48
457.232	1396.32
457.606	1361.29
457.979	1395.19
458.352	1401.29
458.725	1421.18
459.099	1437.22
459.472	1475.64
459.845	1480.16
460.218	1499.82
460.591	1511.8
460.964	1490.78
461.337	1520.16
461.71	1548.86
462.083	1539.37
462.456	1546.15
462.829	1601.06
463.201	1570.78
463.574	1589.99
463.947	1616.65
464.32	1679.93
464.692	1650.32
465.065	1653.26
465.438	1692.36
465.81	1720.38
466.183	1735.75
466.555	1748.63
466.928	1765.12
467.3	1780.26
467.672	1804.44
468.045	1842.41
468.417	1856.87
468.789	1869.3
469.161	1904.33
469.534	1910.88
469.906	1938.9
470.278	1972.12
470.65	1965.8
471.022	2007.38
471.394	2038.56
471.766	2091.67
472.138	2039.01
472.51	2122.18
472.882	2152.91
473.253	2199.24
473.625	2219.8
473.997	2246.69
474.369	2274.49
474.74	2275.39
475.112	2319.46
475.484	2344.09
475.855	2411.43
476.227	2421.6
476.598	2495.95
476.97	2475.16
477.341	2539.11
477.713	2561.94
478.084	2596.51
478.455	2647.13
478.827	2633.8
479.198	2727.81
479.569	2727.58
479.94	2824.08
480.311	2831.08
480.682	2870.86
481.053	2945.66
481.424	2953.79
481.795	2993.79
482.166	3071.76
482.537	3076.28
482.908	3129.83
483.279	3177.29
483.65	3227.46
484.021	3267.23
484.391	3316.04
484.762	3345.87
485.133	3375.25
485.503	3399.66
485.874	3481.01
486.244	3514.68
486.615	3589.03
486.985	3612.98
487.356	3706.31
487.726	3736.37
488.097	3798.29
488.467	3779.99
488.837	3891.39
489.207	3919.87
489.578	3949.92
489.948	3969.58
490.318	4034.67
490.688	4036.48
491.058	4125.51
491.428	4198.96
491.798	4226.98
492.168	4276.02
492.538	4332.97
492.908	4407.99
493.278	4361.89
493.648	4389.46
494.017	4473.98
494.387	4503.58
494.757	4553.52
495.126	4646.18
495.496	4600.53
495.866	4693.18
496.235	4704.48
496.605	4751.49
496.974	4757.81
497.344	4779.06
497.713	4803.91
498.082	4910.13
498.452	4948.99
498.821	4945.15
499.19	4977.02
499.559	4991.25
499.928	5016.56
500.298	5042.55
500.667	5078.48
501.036	5137.69
501.405	5121.64
501.774	5169.55
502.143	5248.65
502.512	5285.03
502.88	5310.11
503.249	5294.3
503.618	5385.37
503.987	5385.59
504.356	5435.31
504.724	5457.46
505.093	5476.89
505.462	5518.02
505.83	5541.07
506.199	5592.59
506.567	5664.91
506.936	5662.87
507.304	5736.77
507.672	5732.48
508.041	5806.37
508.409	5837.56
508.777	5866.03
509.145	5889.08
509.514	5979.93
509.882	6003.66
510.25	5995.97
510.618	6052.92
510.986	6049.98
511.354	6115.52
511.722	6161.17
512.09	6189.64
512.458	6212.24
512.826	6269.41
513.193	6308.96
513.561	6353.7
513.929	6406.13
514.297	6451.78
514.664	6535.39
515.032	6504.89
515.4	6590.08
515.767	6616.07
516.135	6678.89
516.502	6681.38
516.869	6755.27
517.237	6808.38
517.604	6736.52
517.972	6846.57
518.339	6927.02
518.706	6907.59
519.073	6984.42
519.44	6991.65
519.808	7077.98
520.175	7080.46
520.542	7222.38
520.909	7212.66
521.276	7244.98
521.643	7302.38
522.009	7371.3
522.376	7388.25
522.743	7464.18
523.11	7555.71
523.477	7592.54
523.843	7649.71
524.21	7746.66
524.577	7756.15
524.943	7837.96
525.31	7854.91
525.676	7960.44
526.043	7971.29
526.409	8069.59
526.776	8100.32
527.142	8183.71
527.508	8182.81
527.874	8256.48
528.241	8355.23
528.607	8357.94
528.973	8482.91
529.339	8444.04
529.705	8526.75
530.071	8605.4
530.437	8597.71
530.803	8644.26
531.169	8646.52
531.535	8744.6
531.901	8766.52
532.267	8741.21
532.632	8850.36
532.998	8889.46
533.364	8947.31
533.73	8983.24
534.095	9049.68
534.461	9088.55
534.826	9179.62
535.192	9169.45
535.557	9228.43
535.923	9237.47
536.288	9246.96
536.653	9364.02
537.019	9327.18
537.384	9454.41
537.749	9432.72
538.114	9445.15
538.479	9488.54
538.845	9517.91
539.21	9523.79
539.575	9563.11
539.94	9629.32
540.305	9706.61
540.67	9722.65
541.034	9733.5
541.399	9780.96
541.764	9720.39
542.129	9732.82
542.494	9812.37
542.858	9903.21
543.223	9922.87
543.587	9905.47
543.952	9971.69
544.316	10040.16
544.681	10056.2
545.045	10119.25
545.41	10166.48
545.774	10140.27
546.138	10257.78
546.503	10252.13
546.867	10250.78
547.231	10313.82
547.595	10371.22
547.959	10392.69
548.324	10396.31
548.688	10426.36
549.052	10432.01
549.416	10427.95
549.779	10570.99
550.143	10542.29
550.507	10614.61
550.871	10745.68
551.235	10653.93
551.599	10761.27
551.962	10729.86
552.326	10792.68
552.689	10877.65
553.053	10832
553.417	10887.14
553.78	10976.41
554.143	10969.4
554.507	11021.83
554.87	11129.85
555.234	11171.2
555.597	11114.93
555.96	11168.49
556.323	11246.46
556.686	11216.4
557.05	11352.44
557.413	11345.21
557.776	11414.36
558.139	11528.71
558.502	11516.05
558.865	11500.46
559.228	11606.45
559.59	11581.81
559.953	11686.9
560.316	11754.24
560.679	11776.61
561.041	11888.02
561.404	11934.57
561.767	11977.28
562.129	12001.92
562.492	12154.23
562.854	12154
563.217	12118.75
563.579	12177.73
563.941	12225.41
564.304	12352.42
564.666	12451.85
565.028	12448.91
565.39	12447.78
565.753	12511.73
566.115	12603.93
566.477	12593.99
566.839	12658.85
567.201	12811.84
567.563	12820.2
567.925	12869.92
568.287	12867.43
568.648	12844.38
569.01	12970.93
569.372	12990.82
569.734	12912.17
570.095	13105.16
570.457	13102.9
570.819	13170.25
571.18	13144.26
571.542	13250.24
571.903	13275.55
572.265	13305.84
572.626	13341.32
572.987	13431.71
573.349	13423.35
573.71	13493.63
574.071	13581.08
574.432	13554.19
574.794	13638.71
575.155	13667.86
575.516	13699.72
575.877	13683.68
576.238	13778.59
576.599	13798.7
576.96	13805.48
577.32	13797.58
577.681	13874.41
578.042	13845.94
578.403	13920.96
578.763	13878.93
579.124	13965.93
579.485	14007.74
579.845	14018.59
580.206	13964.58
580.566	14129.09
580.927	14096.55
581.287	14092.71
581.648	13982.43
582.008	14149.88
582.368	14060.84
582.728	14147.85
583.089	14081.86
583.449	14077.79
583.809	14114.63
584.169	14127.06
584.529	14082.31
584.889	14165.25
585.249	14136.1
585.609	14072.6
585.969	14231.24
586.329	14163.67
586.688	14264.46
587.048	14195.53
587.408	14036.21
587.768	14081.41
588.127	14202.54
588.487	14166.6
588.846	14237.11
589.206	14178.81
589.565	14177
589.925	14240.05
590.284	14185.14
590.643	14200.28
591.003	14184.23
591.362	14304
591.721	14206.83
592.08	14330.89
592.44	14284.79
592.799	14259.94
593.158	14334.51
593.517	14196.43
593.876	14225.59
594.235	14240.05
594.593	14338.8
594.952	14319.14
595.311	14162.76
595.67	14262.65
596.029	14286.83
596.387	14331.12
596.746	14412.47
597.104	14296.77
597.463	14267.17
597.822	14378.58
598.18	14373.38
598.538	14337.45
598.897	14491.12
599.255	14321.4
599.613	14494.28
599.972	14463.09
600.33	14461.29
600.688	14534.96
601.046	14472.81
601.404	14542.64
601.762	14472.81
602.12	14516.65
602.478	14465.13
602.836	14589.42
603.194	14501.29
603.552	14500.16
603.91	14518.69
604.268	14563.43
604.625	14576.09
604.983	14610.21
605.341	14535.86
605.698	14631
606.056	14764.1
606.413	14702.64
606.771	14757.1
607.128	14761.17
607.485	14647.27
607.843	14713.26
608.2	14760.49
608.557	14713.26
608.914	14717.1
609.272	14738.57
609.629	14808.4
609.986	14870.99
610.343	14790.77
610.7	14966.36
611.057	14889.98
611.414	14826.93
611.771	14901.95
612.127	14958.9
612.484	14931.56
612.841	14955.74
613.198	15019.69
613.554	14920.94
613.911	15036.64
614.267	14982.63
614.624	14930.2
614.98	15058.33
615.337	15161.38
615.693	15071.67
616.05	15070.08
616.406	15184.66
616.762	15135.62
617.118	15099.91
617.475	15145.11
617.831	15143.75
618.187	15146.01
618.543	15133.36
618.899	15266.91
619.255	15248.38
619.611	15185.79
619.967	15235.96
620.323	15260.81
620.678	15239.8
621.034	15197.54
621.39	15199.35
621.746	15191.89
622.101	15364.09
622.457	15289.29
622.812	15224.43
623.168	15298.33
623.523	15299
623.879	15333.35
624.234	15333.58
624.589	15352.56
624.945	15346.91
625.3	15296.52
625.655	15261.94
626.01	15364.54
626.365	15269.63
626.72	15315.05
627.075	15295.16
627.43	15233.92
627.785	15232.34
628.14	15208.39
628.495	15287.93
628.85	15232.11
629.205	15164.32
629.559	15305.33
629.914	15256.75
630.269	15231.21
630.623	15156.18
630.978	15077.32
631.332	15139.69
631.687	15201.83
632.041	15004.32
632.396	15165.45
632.75	15092.91
633.104	15124.09
633.459	15089.52
633.813	15086.13
634.167	15022.18
634.521	15096.3
634.875	15071.89
635.229	15025.57
635.583	14933.36
635.937	15002.06
636.291	14934.49
636.645	14944.44
636.999	14934.04
637.352	14976.98
637.706	14890.65
638.06	14862.41
638.413	14867.83
638.767	14936.53
639.121	14862.63
639.474	14730.43
639.828	14820.15
640.181	14761.62
640.534	14855.63
640.888	14757.55
641.241	14717.32
641.594	14689.3
641.947	14742.86
642.301	14662.19
642.654	14659.25
643.007	14691.79
643.36	14654.73
643.713	14549.87
644.066	14645.24
644.419	14536.76
644.771	14429.65
645.124	14334.06
645.477	14319.14
645.83	14289.54
646.182	14114.18
646.535	14090.67
646.888	14088.87
647.24	13995.54
647.593	14171.12
647.945	14096.1
648.298	13945.82
648.65	14007.06
649.002	13912.37
649.355	14003.67
649.707	14020.17
650.059	14075.08
650.411	14163.89
650.763	14210.22
651.115	14350.1
651.467	14264
651.819	14301.52
652.171	14280.27
652.523	14245.02
652.875	14216.32
653.227	14191.46
653.578	14219.26
653.93	14195.98
654.282	14121.86
654.633	14110.34
654.985	14175.64
655.337	14160.5
655.688	14120.73
656.039	14217.9
656.391	14072.37
656.742	14067.62
657.094	14083.67
657.445	14108.98
657.796	14104.46
658.147	14037.79
658.498	13969.55
658.849	14080.73
659.2	13967.74
659.551	13986.5
659.902	14072.6
660.253	13940.85
660.604	14033.73
660.955	13913.5
661.306	13998.25
661.656	13922.77
662.007	13902.88
662.358	13929.55
662.708	13836.9
663.059	13874.64
663.409	13825.6
663.76	14012.94
664.11	13920.51
664.461	13982.65
664.811	13955.76
665.161	13959.38
665.511	13860.17
665.862	13884.13
666.212	13923.45
666.562	13881.87
666.912	13899.27
667.262	13944.69
667.612	13842.77
667.962	13876.44
668.312	13861.53
668.662	14027.17
669.011	13973.84
669.361	13870.12
669.711	13820.85
670.06	13807.52
670.41	13781.76
670.76	13773.85
671.109	13823.79
671.459	13777.46
671.808	13858.82
672.157	13789.67
672.507	13581.31
672.856	13757.8
673.205	13804.81
673.554	13890
673.904	13677.13
674.253	13843.68
674.602	13694.3
674.951	13547.19
675.3	13465.61
675.649	13739.5
675.998	13675.09
676.346	13652.95
676.695	13721.42
677.044	13545.38
677.393	13668.99
677.741	13643.91
678.09	13556.9
678.438	13518.71
678.787	13572.95
679.135	13508.54
679.484	13412.05
679.832	13523.91
680.181	13436
680.529	13494.98
680.877	13480.07
681.225	13379.96
681.573	13549.22
681.922	13388.55
682.27	13355.55
682.618	13436.68
682.966	13371.15
683.314	13360.07
683.661	13338.83
684.009	13234.65
684.357	13219.96
684.705	13268.32
685.053	13261.32
685.4	13272.62
685.748	13162.79
686.095	13132.96
686.443	13062.68
686.79	13038.27
687.138	13092.96
687.485	13053.41
687.832	13024.04
688.18	13093.64
688.527	12965.05
688.874	12937.03
689.221	12890.03
689.568	12901.1
689.915	12846.64
690.262	12880.99
690.609	12709.02
690.956	12778.39
691.303	12747.43
691.65	12688.45
691.997	12685.29
692.344	12613.88
692.69	12600.77
693.037	12612.3
693.383	12442.81
693.73	12530.72
694.077	12493.88
694.423	12502.02
694.769	12386.76
695.116	12388.12
695.462	12425.18
695.808	12299.54
696.155	12383.15
696.501	12254.79
696.847	12267.45
697.193	12157.17
697.539	12167.34
697.885	12051.63
698.231	12085.08
698.577	12057.06
698.923	12036.04
699.269	11929.83
699.614	12004.18
699.96	11900
700.306	11883.05
700.651	11925.31
700.997	11821.36
701.342	11759.66
701.688	11862.26
702.033	11741.13
702.379	11711.53
702.724	11660.68
703.069	11654.81
703.415	11569.84
703.76	11611.42
704.105	11627.24
704.45	11554.02
704.795	11461.82
705.14	11467.47
705.485	11506.34
705.83	11423.63
706.175	11502.49
706.52	11398.77
706.865	11377.98
707.209	11422.04
707.554	11302.73
707.899	11313.8
708.243	11288.49
708.588	11215.5
708.932	11196.97
709.277	11206.68
709.621	11165.55
709.966	11063.86
710.31	11191.54
710.654	11018.44
710.998	11051.66
711.342	11060.92
711.687	10980.93
712.031	10952.9
712.375	10979.12
712.719	10931.44
713.063	10877.2
713.407	10950.42
713.75	10911.55
714.094	10847.6
714.438	10810.99
714.782	10813.7
715.125	10734.83
715.469	10824.55
715.812	10661.16
716.156	10697.09
716.499	10676.08
716.843	10785.22
717.186	10596.08
717.53	10698.22
717.873	10629.52
718.216	10609.18
718.559	10615.74
718.902	10532.12
719.246	10558.34
719.589	10484.44
719.932	10472.92
720.275	10387.72
720.617	10536.42
720.96	10482.18
721.303	10381.17
721.646	10435.63
721.989	10372.81
722.331	10406.7
722.674	10459.58
723.016	10400.6
723.359	10341.17
723.701	10347.95
724.044	10233.6
724.386	10270.66
724.729	10317.21
725.071	10236.99
725.413	10255.3
725.755	10231.57
726.097	10187.5
726.439	10194.28
726.782	10172.13
727.124	10188.86
727.465	10146.15
727.807	10138.24
728.149	10029.99
728.491	10108.41
728.833	10141.4
729.175	10033.61
729.516	10034.96
729.858	9999.03
730.199	10050.78
730.541	10004
730.882	9996.09
731.224	10020.95
731.565	9982.31
731.906	9971.69
732.248	9949.54
732.589	9881.07
732.93	9877.23
733.271	9859.37
733.612	9860.73
733.953	9896.66
734.294	9826.38
734.635	9844.68
734.976	9804.23
735.317	9799.49
735.658	9765.82
735.999	9813.73
736.339	9795.87
736.68	9792.26
737.021	9741.86
737.361	9710.9
737.702	9700.06
738.042	9685.37
738.383	9668.64
738.723	9698.7
739.063	9636.78
739.404	9679.27
739.744	9661.19
740.084	9596.1
740.424	9558.59
740.764	9576.44
741.104	9626.39
741.444	9606.05
741.784	9397.69
742.124	9481.53
742.464	9467.07
742.804	9482.89
743.143	9444.02
743.483	9427.07
743.823	9408.99
744.162	9413.28
744.502	9423.9
744.841	9293.29
745.181	9398.59
745.52	9372.83
745.86	9397.01
746.199	9379.61
746.538	9293.51
746.877	9368.99
747.216	9348.88
747.556	9378.26
747.895	9378.26
748.234	9316.11
748.573	9333.06
748.911	9271.14
749.25	9209
749.589	9192.72
749.928	9186.85
750.267	9195.89
750.605	9239.5
750.944	9133.52
751.283	9171.03
751.621	9096.23
751.96	9097.59
752.298	9117.92
752.636	9074.31
752.975	9029.79
753.313	8971.26
753.651	9010.81
753.989	9011.49
754.327	8914.99
754.666	8972.84
755.004	8894.43
755.342	8876.8
755.679	8899.85
756.017	8819.63
756.355	8888.33
756.693	8787.54
757.031	8833.86
757.368	8766.07
757.706	8768.1
758.044	8682.91
758.381	8773.53
758.719	8645.62
759.056	8711.61
759.394	8662.57
759.731	8554.1
760.068	8632.29
760.405	8529.92
760.743	8536.92
761.08	8535.57
761.417	8529.69
761.754	8469.13
762.091	8430.03
762.428	8408.34
762.765	8403.59
763.102	8418.51
763.438	8329.02
763.775	8359.3
764.112	8334.44
764.449	8321.33
764.785	8282.92
765.122	8223.94
765.458	8200.43
765.795	8179.87
766.131	8157.05
766.467	8192.07
766.804	8168.12
767.14	8085.41
767.476	8110.27
767.812	8065.97
768.148	8058.06
768.485	7936.49
768.821	7957.5
769.157	7952.76
769.492	7906.88
769.828	7957.05
770.164	7894.45
770.5	7797.51
770.836	7841.8
771.171	7764.74
771.507	7785.53
771.842	7722.71
772.178	7721.35
772.513	7689.04
772.849	7670.96
773.184	7604.29
773.519	7637.74
773.855	7515.48
774.19	7553.22
774.525	7426.44
774.86	7547.34
775.195	7481.81
775.53	7412.43
775.865	7403.84
776.2	7383.73
776.535	7356.61
776.87	7303.06
777.205	7305.99
777.539	7258.99
777.874	7268.03
778.209	7240.01
778.543	7155.49
778.878	7193.68
779.212	7125.43
779.547	7174.02
779.881	7098.77
780.215	7057.19
780.55	7080.46
780.884	7017.41
781.218	7016.74
781.552	7047.02
781.886	6941.94
782.22	6927.93
782.554	6917.3
782.888	6873.01
783.222	6843.86
783.556	6797.53
783.889	6866.01
784.223	6792.11
784.557	6719.34
784.89	6745.56
785.224	6712.34
785.557	6700.81
785.891	6647.48
786.224	6660.81
786.558	6586.69
786.891	6562.06
787.224	6587.82
787.557	6536.3
787.891	6559.8
788.224	6514.15
788.557	6527.94
788.89	6484.77
789.223	6430.09
789.556	6420.82
789.888	6449.52
790.221	6419.92
790.554	6348.73
790.887	6400.71
791.219	6298.79
791.552	6301.05
791.884	6290.43
792.217	6241.84
792.549	6225.12
792.882	6158.45
793.214	6208.62
793.546	6204.1
793.879	6152.8
794.211	6079.36
794.543	6114.39
794.875	6125.69
795.207	6153.93
795.539	6044.56
795.871	6043.43
796.203	6061.28
796.535	5988.51
796.867	5971.34
797.198	5984.45
797.53	5984.67
797.862	5891.12
798.193	5957.78
798.525	5897.22
798.856	5958.91
799.188	5851.57
799.519	5818.12
799.85	5757.11
800.182	5851.57
800.513	5809.76
800.844	5696.32
801.175	5743.78
801.506	5791.01
801.837	5743.78
802.168	5719.14
802.499	5668.07
802.83	5689.09
803.161	5650.44
803.491	5614.74
803.822	5632.82
804.153	5593.27
804.483	5560.05
804.814	5518.24
805.145	5528.64
805.475	5508.98
805.805	5570.22
806.136	5518.92
806.466	5495.42
806.796	5524.35
807.126	5478.47
807.457	5433.95
807.787	5442.31
808.117	5435.99
808.447	5392.15
808.777	5434.63
809.107	5419.04
809.436	5383.11
809.766	5339.49
810.096	5334.97
810.426	5390.56
810.755	5307.85
811.085	5318.48
811.414	5270.57
811.744	5265.82
812.073	5218.14
812.403	5260.85
812.732	5232.83
813.061	5186.73
813.39	5235.31
813.719	5174.98
814.049	5202.32
814.378	5210.91
814.707	5210.23
815.036	5148.54
815.365	5093.17
815.693	5129.1
816.022	5090.91
816.351	5123.68
816.68	5049.78
817.008	5104.24
817.337	5069.22
817.665	5049.56
817.994	5041.2
818.322	5006.17
818.651	5039.61
818.979	5044.36
819.307	4994.64
819.636	5016.11
819.964	4992.38
820.292	5037.35
820.62	4972.72
820.948	4930.92
821.276	4984.93
821.604	5008.2
821.932	4981.99
822.259	5007.3
822.587	4921.2
822.915	4922.1
823.243	4957.36
823.57	4882.33
823.898	4916.23
824.225	4927.53
824.553	4937.02
824.88	4940.18
825.207	5000.74
825.535	4949.67
825.862	4950.8
826.189	4927.3
826.516	4932.05
826.843	4908.77
827.17	4969.78
827.497	4918.49
827.824	4957.58
828.151	4934.53
828.478	4935.44
828.805	4948.32
829.131	4936.79
829.458	4874.19
829.785	4885.49
830.111	4899.5
830.438	4953.29
830.764	4895.21
831.09	4889.79
831.417	4865.83
831.743	4887.98
832.069	4919.16
832.395	4926.85
832.722	4912.84
833.048	4903.12
833.374	4878.71
833.7	4858.15
834.026	4889.33
834.351	4872.16
834.677	4860.86
835.003	4875.78
835.329	4847.3
835.654	4800.07
835.98	4798.72
836.306	4804.37
836.631	4798.72
836.956	4855.44
837.282	4801.88
837.607	4815.21
837.932	4820.86
838.258	4836.68
838.583	4814.99
838.908	4777.25
839.233	4752.39
839.558	4800.3
839.883	4758.26
840.208	4729.56
840.533	4787.42
840.858	4714.88
841.182	4725.95
841.507	4722.33
841.832	4717.59
842.156	4676.46
842.481	4660.64
842.805	4668.55
843.13	4668.1
843.454	4627.19
843.778	4637.59
844.103	4684.82
844.427	4645.5
844.751	4609.79
845.075	4586.74
845.399	4591.94
845.723	4565.95
846.047	4533.86
846.371	4569.12
846.695	4528.89
847.019	4515.11
847.343	4496.8
847.666	4490.93
847.99	4474.43
848.313	4449.12
848.637	4422
848.96	4399.86
849.284	4419.52
849.607	4359.41
849.931	4368.9
850.254	4346.3
850.577	4308.11
850.9	4304.27
851.223	4314.43
851.546	4259.52
851.869	4229.69
852.192	4238.96
852.515	4214.32
852.838	4228.11
853.161	4178.84
853.483	4176.36
853.806	4173.87
854.129	4158.28
854.451	4132.74
854.774	4149.47
855.096	4121.45
855.419	4142.46
855.741	4110.37
856.063	4082.58
856.385	4116.25
856.708	4031.73
857.03	4052.52
857.352	4113.76
857.674	4080.99
857.996	4016.59
858.318	4018.62
858.64	4010.49
858.961	3992.18
859.283	3991.73
859.605	3959.64
859.926	3965.74
860.248	3993.99
860.57	3941.56
860.891	3976.82
861.212	3928.23
861.534	3911.96
861.855	3868.34
862.176	3920.09
862.498	3913.77
862.819	3874.45
863.14	3872.41
863.461	3874.67
863.782	3902.69
864.103	3911.96
864.424	3899.76
864.745	3847.1
865.065	3845.52
865.386	3829.25
865.707	3819.08
866.027	3856.14
866.348	3831.06
866.668	3840.1
866.989	3808.91
867.309	3814.11
867.63	3766.65
867.95	3807.56
868.27	3730.27
868.59	3757.84
868.91	3735.01
869.23	3733.21
869.55	3748.12
869.87	3763.71
870.19	3731.17
870.51	3723.49
870.83	3781.34
871.15	3705.86
871.469	3721.23
871.789	3716.03
872.109	3695.69
872.428	3696.15
872.748	3669.93
873.067	3688.69
873.386	3702.47
873.706	3673.77
874.025	3695.47
874.344	3682.36
874.663	3672.87
874.982	3681.23
875.301	3673.77
875.62	3698.18
875.939	3675.13
876.258	3669.25
876.577	3620.89
876.896	3651.63
877.214	3656.15
877.533	3599.65
877.852	3628.35
878.17	3612.53
878.489	3652.76
878.807	3601.46
879.125	3608.24
879.444	3590.16
879.762	3557.84
880.08	3592.42
880.398	3618.86
880.716	3605.07
881.034	3553.32
881.352	3522.82
881.67	3512.65
881.988	3534.12
882.306	3548.8
882.624	3528.01
882.941	3495.25
883.259	3485.53
883.577	3474.23
883.894	3479.65
884.212	3458.86
884.529	3511.29
884.846	3463.61
885.164	3458.64
885.481	3496.15
885.798	3508.35
886.115	3436.49
886.432	3450.95
886.75	3401.69
887.067	3387.91
887.383	3398.53
887.7	3466.77
888.017	3375.02
888.334	3379.09
888.651	3366.44
888.967	3384.06
889.284	3378.19
889.6	3397.4
889.917	3335.03
890.233	3371.63
890.55	3372.54
890.866	3342.48
891.182	3335.48
891.498	3336.83
891.815	3296.83
892.131	3327.57
892.447	3253.9
892.763	3259.55
893.079	3259.1
893.395	3292.09
893.71	3284.41
894.026	3257.06
894.342	3237.85
894.657	3217.97
894.973	3238.98
895.289	3203.05
895.604	3199.44
895.92	3155.59
896.235	3177.74
896.55	3197.85
896.865	3142.71
897.181	3172.09
897.496	3153.34
897.811	3132.32
898.126	3178.65
898.441	3118.53
898.756	3124.41
899.071	3078.53
899.386	3076.73
899.7	3081.25
900.015	3046.9
900.33	3048.25
900.644	3010.51
900.959	3018.42
901.273	3033.56
901.588	3015.03
901.902	2966.67
902.216	2958.09
902.531	2999.67
902.845	2987.24
903.159	2963.96
903.473	2963.28
903.787	2882.38
904.101	2900.46
904.415	2917.64
904.729	2951.76
905.042	2918.54
905.356	2902.49
905.67	2878.77
905.984	2880.12
906.297	2897.3
906.611	2856.17
906.924	2850.07
907.237	2835.6
907.551	2773.46
907.864	2788.6
908.177	2809.16
908.491	2810.29
908.804	2768.49
909.117	2775.04
909.43	2771.88
909.743	2742.72
910.056	2739.33
910.368	2726.91
910.681	2725.78
910.994	2775.27
911.307	2688.71
911.619	2718.77
911.932	2712.67
912.244	2690.3
912.557	2691.65
912.869	2629.51
913.181	2642.39
913.494	2634.93
913.806	2609.39
914.118	2628.83
914.43	2599.68
914.742	2622.28
915.054	2564.65
915.366	2564.2
915.678	2552
915.99	2496.86
916.302	2553.12
916.613	2537.31
916.925	2514.26
917.236	2523.07
917.548	2483.75
917.859	2504.09
918.171	2496.4
918.482	2504.09
918.794	2467.48
919.105	2470.64
919.416	2474.03
919.727	2467.25
920.038	2445.56
920.349	2433.58
920.66	2433.58
920.971	2434.26
921.282	2413.02
921.593	2363.53
921.903	2371.89
922.214	2367.14
922.525	2351.77
922.835	2348.38
923.146	2344.09
923.456	2342.74
923.767	2341.38
924.077	2303.87
924.387	2304.32
924.697	2270.42
925.008	2309.52
925.318	2300.93
925.628	2272
925.938	2264.32
926.248	2270.42
926.558	2253.25
926.867	2229.29
927.177	2272.23
927.487	2187.71
927.796	2201.95
928.106	2218.9
928.416	2200.59
928.725	2208.28
929.034	2182.29
929.344	2192.91
929.653	2196.52
929.962	2181.61
930.271	2146.36
930.581	2148.84
930.89	2151.78
931.199	2129.63
931.508	2107.94
931.817	2101.39
932.125	2103.65
932.434	2104.1
932.743	2089.86
933.051	2063.87
933.36	2052.12
933.669	2057.54
933.977	2058.67
934.286	2079.92
934.594	2075.62
934.902	2018.45
935.21	2034.04
935.519	1994.5
935.827	1995.85
936.135	1966.93
936.443	1969.19
936.751	2002.4
937.059	1995.4
937.367	1985.23
937.674	1995.4
937.982	1942.97
938.29	1950.88
938.597	1965.34
938.905	1943.2
939.213	1941.84
939.52	1900.71
939.827	1907.27
940.135	1892.35
940.442	1912.46
940.749	1935.97
941.056	1913.82
941.363	1861.62
941.67	1882.41
941.977	1908.4
942.284	1860.04
942.591	1880.6
942.898	1861.39
943.205	1842.64
943.511	1815.29
943.818	1838.12
944.125	1803.54
944.431	1803.09
944.738	1815.07
945.044	1821.39
945.35	1782.3
945.657	1814.39
945.963	1784.33
946.269	1768.51
946.575	1765.12
946.881	1760.6
947.187	1782.07
947.493	1766.03
947.799	1761.51
948.105	1729.42
948.41	1723.99
948.716	1755.41
949.022	1700.94
949.327	1718.34
949.633	1699.36
949.938	1677.44
950.244	1692.81
950.549	1706.37
950.854	1688.29
951.16	1662.75
951.465	1692.13
951.77	1668.4
952.075	1634.28
952.38	1648.52
952.685	1629.76
952.99	1633.6
953.294	1641.06
953.599	1625.01
953.904	1621.17
954.209	1592.25
954.513	1583.21
954.818	1604.22
955.122	1584.11
955.426	1588.86
955.731	1579.59
956.035	1564
956.339	1597.67
956.643	1574.17
956.948	1553.15
957.252	1523.77
957.556	1563.77
957.86	1552.7
958.163	1559.48
958.467	1516.77
958.771	1524.9
959.075	1521.06
959.378	1513.38
959.682	1505.69
959.985	1505.24
960.289	1474.96
960.592	1510.21
960.896	1477
961.199	1465.47
961.502	1462.76
961.805	1482.42
962.108	1443.78
962.411	1447.84
962.714	1445.13
963.017	1455.07
963.32	1457.56
963.623	1424.57
963.926	1447.84
964.228	1425.02
964.531	1402.42
964.833	1429.09
965.136	1399.26
965.438	1420.73
965.741	1378.92
966.043	1365.13
966.345	1380.5
966.648	1379.82
966.95	1374.85
967.252	1372.59
967.554	1347.96
967.856	1346.83
968.158	1343.21
968.46	1372.59
968.761	1370.33
969.063	1348.18
969.365	1352.93
969.666	1352.25
969.968	1329.43
970.269	1308.19
970.571	1332.37
970.872	1326.04
971.174	1327.39
971.475	1275.19
971.776	1303.44
972.077	1282.42
972.378	1279.94
972.679	1305.47
972.98	1263.22
973.281	1293.95
973.582	1284.68
973.883	1264.35
974.183	1231.35
974.484	1262.76
974.785	1237
975.085	1230.45
975.386	1273.61
975.686	1246.94
975.986	1222.76
976.287	1227.96
976.587	1248.98
976.887	1239.71
977.187	1206.72
977.487	1196.55
977.787	1191.58
978.087	1212.82
978.387	1180.51
978.687	1199.26
978.987	1188.87
979.286	1182.99
979.586	1182.54
979.885	1197.23
980.185	1191.35
980.484	1162.2
980.784	1180.73
981.083	1156.33
981.382	1159.49
981.682	1155.2
981.981	1170.56
982.28	1142.09
982.579	1157.91
982.878	1147.96
983.177	1145.03
983.475	1121.98
983.774	1138.92
984.073	1146.61
984.372	1140.05
984.67	1111.13
984.969	1124.24
985.267	1135.76
985.566	1108.64
985.864	1107.51
986.162	1119.94
986.461	1090.34
986.759	1109.32
987.057	1099.15
987.355	1085.82
987.653	1101.19
987.951	1089.66
988.249	1090.34
988.547	1058.25
988.844	1102.09
989.142	1077.46
989.44	1048.98
989.737	1055.09
990.035	1073.62
990.332	1030.91
990.63	1056.89
990.927	1035.88
991.224	1031.13
991.521	1004.01
991.819	1029.32
992.116	998.59
992.413	1041.3
992.71	1026.84
993.006	1016.22
993.303	1023.22
993.6	997.91
993.897	991.58
994.193	1015.54
994.49	993.84
994.787	982.09
995.083	972.6
995.379	974.64
995.676	968.31
995.972	979.61
996.268	988.87
996.565	961.53
996.861	978.93
997.157	979.38
997.453	943.9
997.749	966.95
998.044	959.49
998.34	942.55
998.636	938.7
998.932	937.12
999.227	939.83
999.523	946.84
999.818	926.95
1000.114	931.92
1000.409	946.61
1000.704	921.53
1001	917.91
1001.295	919.72
1001.59	900.29
1001.885	920.85
1002.18	910.91
1002.475	881.08
1002.77	903.68
1003.065	862.77
1003.359	875.2
1003.654	889.44
1003.949	876.33
1004.243	867.97
1004.538	860.51
1004.832	887.18
1005.127	873.85
1005.421	838.59
1005.715	851.02
1006.009	848.76
1006.304	846.28
1006.598	849.89
1006.892	830.91
1007.186	858.71
1007.48	831.59
1007.773	826.84
1008.067	828.88
1008.361	808.31
1008.655	797.92
1008.948	800.63
1009.242	812.15
1009.535	790.69
1009.829	823.9
1010.122	839.5
1010.415	808.99
1010.708	792.72
1011.001	790.01
1011.295	803.57
1011.588	799.5
1011.881	801.08
1012.173	791.36
1012.466	781.65
1012.759	773.74
1013.052	769.44
1013.344	755.88
1013.637	753.62
1013.93	751.36
1014.222	730.8
1014.514	766.51
1014.807	744.58
1015.099	754.3
1015.391	738.26
1015.683	754.08
1015.976	736.68
1016.268	736.9
1016.56	719.27
1016.851	730.57
1017.143	728.09
1017.435	740.52
1017.727	706.39
1018.018	704.59
1018.31	716.56
1018.602	734.42
1018.893	721.08
1019.185	723.34
1019.476	688.54
1019.767	716.34
1020.058	697.13
1020.35	693.29
1020.641	688.54
1020.932	689.9
1021.223	663.01
1021.514	674.76
1021.804	667.75
1022.095	646.73
1022.386	673.4
1022.677	675.21
1022.967	663.01
1023.258	649.22
1023.548	692.61
1023.839	654.42
1024.129	676.34
1024.419	639.5
1024.709	642.21
1025	644.02
1025.29	637.47
1025.58	655.77
1025.87	651.03
1026.16	633.85
1026.449	611.03
1026.739	627.98
1027.029	637.47
1027.319	587.53
1027.608	621.88
1027.898	635.21
1028.187	634.08
1028.477	640.41
1028.766	620.97
1029.055	582.78
1029.344	599.28
1029.634	594.98
1029.923	605.38
1030.212	596.11
1030.501	573.52
1030.79	590.92
1031.078	592.5
1031.367	588.2
1031.656	590.01
1031.945	590.24
1032.233	588.66
1032.522	601.54
1032.81	564.02
1033.099	575.78
1033.387	576.68
1033.675	573.97
1033.963	568.32
1034.251	586.62
1034.54	589.79
1034.828	555.44
1035.116	546.62
1035.403	563.35
1035.691	550.47
1035.979	552.5
1036.267	551.37
1036.554	545.95
1036.842	555.66
1037.129	557.7
1037.417	553.63
1037.704	542.1
1037.992	532.84
1038.279	526.06
1038.566	544.59
1038.853	544.59
1039.14	544.59
