Data from black_plastic_tray_FLMS001491_054.txt Node
Date: Tue Feb 07 10:40:09 GMT 2017
User: dcchb
Spectrometer: FLMS00149
Trigger mode: 0
Integration Time (sec): 2.000000E-2
Scans to average: 10
Electric dark correction enabled: true
Nonlinearity correction enabled: false
Boxcar width: 0
XAxis mode: Wavelengths
Number of Pixels in Spectrum: 2048
>>>>>Begin Spectral Data<<<<<
341.393	-6.29
341.776	-6.29
342.16	-6.29
342.543	-41.99
342.927	-71.59
343.31	-66.17
343.693	-56
344.077	-72.05
344.46	-53.52
344.843	-65.72
345.226	-29.56
345.61	-46.74
345.993	-33.18
346.376	1.17
346.759	11.34
347.142	28.06
347.525	52.02
347.908	69.42
348.291	56.54
348.674	97.44
349.057	106.93
349.44	136.31
349.823	140.38
350.206	157.55
350.588	183.31
350.971	214.05
351.354	229.64
351.737	218.12
352.119	227.61
352.502	271.9
352.884	268.74
353.267	255.85
353.65	305.8
354.032	255.63
354.414	299.02
354.797	298.57
355.179	326.81
355.562	315.06
355.944	308.28
356.326	327.27
356.709	317.55
357.091	325.46
357.473	333.37
357.855	341.28
358.238	329.3
358.62	333.82
359.002	329.75
359.384	344.21
359.766	325.01
360.148	323.42
360.53	332.01
360.912	355.29
361.294	332.46
361.676	334.95
362.057	346.93
362.439	332.01
362.821	329.98
363.203	318.9
363.584	310.09
363.966	320.03
364.348	327.27
364.729	327.04
365.111	329.53
365.493	341.5
365.874	330.88
366.256	313.25
366.637	303.76
367.019	314.38
367.4	315.51
367.781	299.92
368.163	315.06
368.544	315.74
368.925	327.94
369.306	317.55
369.688	316.19
370.069	315.51
370.45	320.03
370.831	326.59
371.212	316.19
371.593	327.49
371.974	315.51
372.355	313.48
372.736	329.07
373.117	320.94
373.498	345.12
373.879	325.46
374.26	316.87
374.641	309.41
375.021	336.76
375.402	320.49
375.783	338.34
376.163	335.85
376.544	333.14
376.925	325.01
377.305	334.72
377.686	333.14
378.066	330.66
378.447	334.95
378.827	355.29
379.208	335.17
379.588	347.15
379.968	358
380.349	348.96
380.729	346.93
381.109	332.24
381.489	357.32
381.87	366.81
382.25	355.51
382.63	356.42
383.01	367.26
383.39	376.3
383.77	345.12
384.15	384.44
384.53	361.84
384.91	376.76
385.29	364.78
385.67	394.16
386.049	373.14
386.429	398.22
386.809	369.75
387.189	374.5
387.568	391.22
387.948	381.28
388.328	376.76
388.707	377.89
389.087	393.25
389.466	379.02
389.846	403.65
390.225	374.5
390.605	393.25
390.984	378.11
391.363	399.35
391.743	402.52
392.122	410.65
392.501	416.08
392.881	417.43
393.26	426.47
393.639	414.95
394.018	415.85
394.397	425.57
394.776	433.25
395.155	418.79
395.534	416.98
395.913	426.7
396.292	407.72
396.671	439.58
397.05	442.97
397.429	453.36
397.808	451.33
398.186	434.61
398.565	435.74
398.944	432.57
399.323	433.03
399.701	449.52
400.08	455.62
400.458	444.55
400.837	463.98
401.215	475.74
401.594	457.21
401.972	475.51
402.351	475.51
402.729	470.31
403.107	478.22
403.486	480.03
403.864	475.74
404.242	492.68
404.62	492.68
404.999	489.3
405.377	489.3
405.755	501.05
406.133	504.21
406.511	481.39
406.889	516.86
407.267	514.83
407.645	518.45
408.023	505.34
408.401	533.14
408.779	522.06
409.156	535.85
409.534	548.73
409.912	525.45
410.29	564.1
410.667	543.3
411.045	573.81
411.422	564.32
411.8	543.98
412.178	546.24
412.555	572
412.933	562.51
413.31	551.67
413.687	597.99
414.065	583.08
414.442	602.74
414.819	588.95
415.197	571.1
415.574	610.2
415.951	614.94
416.328	602.96
416.705	609.29
417.082	634.83
417.46	604.77
417.837	634.6
418.214	636.86
418.591	638.67
418.967	617.2
419.344	661.04
419.721	669.86
420.098	663.98
420.475	670.53
420.852	665.11
421.228	672.34
421.605	688.16
421.982	676.63
422.358	689.29
422.735	689.97
423.111	702.62
423.488	706.46
423.864	717.31
424.241	708.72
424.617	721.83
424.994	721.61
425.37	728.84
425.746	713.47
426.123	759.12
426.499	741.72
426.875	754.6
427.251	763.41
427.627	770.64
428.003	802.51
428.379	803.64
428.756	816.97
429.132	808.61
429.507	789.17
429.883	812
430.259	843.41
430.635	825.33
431.011	855.39
431.387	837.53
431.763	842.73
432.138	866.91
432.514	886.8
432.89	883.86
433.265	886.35
433.641	899.91
434.016	913.01
434.392	930.41
434.767	922.05
435.143	914.59
435.518	950.07
435.894	958.89
436.269	953.92
436.644	957.98
437.02	979.9
437.395	981.26
437.77	1019
438.145	1009.06
438.52	1014.03
438.895	1043.4
439.271	1038.89
439.646	1059.68
440.021	1031.88
440.395	1079.79
440.77	1079.56
441.145	1069.62
441.52	1073.23
441.895	1073.23
442.27	1114.59
442.645	1069.39
443.019	1108.04
443.394	1108.71
443.769	1129.96
444.143	1094.7
444.518	1134.25
444.892	1092.89
445.267	1127.24
445.641	1135.38
446.016	1166.79
446.39	1166.57
446.764	1179.22
447.139	1146
447.513	1188.94
447.887	1142.39
448.262	1181.03
448.636	1214.93
449.01	1236.85
449.384	1217.64
449.758	1235.26
450.132	1224.64
450.506	1233
450.88	1250.63
451.254	1271.2
451.628	1241.82
452.002	1269.84
452.376	1286.79
452.75	1309.84
453.123	1276.17
453.497	1338.09
453.871	1330.18
454.244	1343.74
454.618	1358.88
454.992	1381.93
455.365	1390.97
455.739	1429.16
456.112	1448.59
456.486	1451.3
456.859	1459.89
457.232	1461.92
457.606	1472.32
457.979	1480.46
458.352	1547.35
458.725	1537.4
459.099	1531.08
459.472	1554.58
459.845	1579.66
460.218	1616.27
460.591	1606.33
460.964	1631.19
461.337	1644.52
461.71	1653.33
462.083	1688.81
462.456	1691.3
462.829	1692.43
463.201	1717.96
463.574	1764.97
463.947	1761.8
464.32	1805.64
464.692	1804.29
465.065	1828.02
465.438	1861.24
465.81	1868.47
466.183	1857.62
466.555	1930.61
466.928	1927.9
467.3	1928.81
467.672	2011.97
468.045	2018.52
468.417	2032.08
468.789	2054.23
469.161	2056.26
469.534	2068.24
469.906	2120.89
470.278	2120.21
470.65	2160.44
471.022	2210.61
471.394	2218.74
471.766	2265.52
472.138	2295.12
472.51	2292.64
472.882	2356.82
473.253	2378.74
473.625	2398.4
473.997	2450.83
474.369	2484.04
474.74	2471.39
475.112	2531.05
475.484	2591.61
475.855	2587.77
476.227	2615.11
476.598	2678.39
476.97	2697.82
477.341	2775.11
477.713	2784.83
478.084	2852.85
478.455	2898.5
478.827	2911.38
479.198	2959.96
479.569	2966.52
479.94	3081.54
480.311	3107.53
480.682	3162.9
481.053	3214.65
481.424	3267.08
481.795	3323.57
482.166	3353.85
482.537	3381.42
482.908	3496.45
483.279	3531.25
483.65	3549.55
484.021	3613.51
484.391	3642.66
484.762	3675.2
485.133	3729.21
485.503	3748.87
485.874	3889.21
486.244	3894.4
486.615	3939.15
486.985	3999.26
487.356	4019.6
487.726	4117.45
488.097	4205.13
488.467	4187.5
488.837	4239.48
489.207	4342.53
489.578	4353.15
489.948	4402.64
490.318	4458.91
490.688	4472.92
491.058	4531.45
491.428	4609.19
491.798	4650.09
492.168	4746.81
492.538	4767.37
492.908	4828.16
493.278	4851.21
493.648	4914.94
494.017	4917.88
494.387	4961.27
494.757	5018.89
495.126	5074.71
495.496	5120.59
495.866	5077.42
496.235	5177.31
496.605	5259.11
496.974	5303.18
497.344	5257.53
497.713	5341.82
498.082	5424.31
498.452	5450.29
498.821	5454.59
499.19	5461.82
499.559	5523.51
499.928	5577.07
500.298	5608.03
500.667	5656.62
501.036	5703.62
501.405	5695.03
501.774	5697.07
502.143	5772.55
502.512	5853.45
502.88	5913.79
503.249	5917.85
503.618	5956.5
503.987	6020.68
504.356	6034.46
504.724	6030.17
505.093	6090.73
505.462	6097.06
505.83	6139.32
506.199	6196.26
506.567	6282.36
506.936	6283.27
507.304	6368.91
507.672	6401.91
508.041	6449.36
508.409	6472.19
508.777	6481.68
509.145	6594.9
509.514	6553.99
509.882	6681
510.25	6658.85
510.618	6693.2
510.986	6727.1
511.354	6779.98
511.722	6870.14
512.09	6932.74
512.458	6909.01
512.826	6997.15
513.193	7080.76
513.561	7033.53
513.929	7135.22
514.297	7193.53
514.664	7207.76
515.032	7277.14
515.4	7338.83
515.767	7343.13
516.135	7463.35
516.502	7380.19
516.869	7521.2
517.237	7527.3
517.604	7541.76
517.972	7682.78
518.339	7729.1
518.706	7716.68
519.073	7786.28
519.44	7758.71
519.808	7911.7
520.175	7927.29
520.542	7999.83
520.909	8094.97
521.276	8055.88
521.643	8145.82
522.009	8275.98
522.376	8288.64
522.743	8287.28
523.11	8429.43
523.477	8489.31
523.843	8574.73
524.21	8661.28
524.577	8729.3
524.943	8708.29
525.31	8756.87
525.676	8849.98
526.043	8920.03
526.409	8981.95
526.776	9054.04
527.142	9112.8
527.508	9125.23
527.874	9187.6
528.241	9300.36
528.607	9275.73
528.973	9363.86
529.339	9414.48
529.705	9465.78
530.071	9511.66
530.437	9604.99
530.803	9685.89
531.169	9730.41
531.535	9654.25
531.901	9755.04
532.267	9885.66
532.632	9941.7
532.998	9887.24
533.364	9996.16
533.73	10034.35
534.095	10090.62
534.461	10141.47
534.826	10239.77
535.192	10206.33
535.557	10270.28
535.923	10258.3
536.288	10326.78
536.653	10382.82
537.019	10339.43
537.384	10408.81
537.749	10569.26
538.114	10506.21
538.479	10622.14
538.845	10647.22
539.21	10665.3
539.575	10726.77
539.94	10738.07
540.305	10679.08
540.67	10743.94
541.034	10824.62
541.399	10901.45
541.764	10868.68
542.129	10933.31
542.494	10966.53
542.858	10991.39
543.223	11009.24
543.587	11082.91
543.952	11097.38
544.316	11115.68
544.681	11135.79
545.045	11178.51
545.41	11229.13
545.774	11241.33
546.138	11354.55
546.503	11361.78
546.867	11240.88
547.231	11461.21
547.595	11476.35
547.959	11567.42
548.324	11553.18
548.688	11501.43
549.052	11630.92
549.416	11630.25
549.779	11698.49
550.143	11765.16
550.507	11770.81
550.871	11860.52
551.235	11747.76
551.599	11894.87
551.962	11946.39
552.326	11979.84
552.689	12053.74
553.053	12005.6
553.417	12081.31
553.78	12206.28
554.143	12235.2
554.507	12334.18
554.87	12302.77
555.234	12454.18
555.597	12314.75
555.96	12398.36
556.323	12469.32
556.686	12490.11
557.05	12581.86
557.413	12705.7
557.776	12661.18
558.139	12812.59
558.502	12812.13
558.865	12904.11
559.228	12911.34
559.59	13052.81
559.953	12916.54
560.316	13170.32
560.679	13046.93
561.041	13155.63
561.404	13311.78
561.767	13323.53
562.129	13240.15
562.492	13480.82
562.854	13468.61
563.217	13549.06
563.579	13591.78
563.941	13646.24
564.304	13691.89
564.666	13771.66
565.028	13776.18
565.39	13794.26
565.753	13922.84
566.115	13994.7
566.477	13968.49
566.839	13947.25
567.201	14073.8
567.563	14097.3
567.925	14263.62
568.287	14209.61
568.648	14242.61
569.01	14365.09
569.372	14418.87
569.734	14483.96
570.095	14543.16
570.457	14620
570.819	14730.73
571.18	14658.64
571.542	14829.48
571.903	14725.76
572.265	14767.79
572.626	14816.15
572.987	14805.98
573.349	14862.02
573.71	14918.52
574.071	14833.1
574.432	15056.37
574.794	15139.31
575.155	15106.76
575.516	15050.27
575.877	15104.05
576.238	15105.63
576.599	15193.32
576.96	15308.11
577.32	15141.11
577.681	15328.68
578.042	15429.92
578.403	15435.79
578.763	15417.72
579.124	15470.82
579.485	15503.36
579.845	15443.48
580.206	15506.98
580.566	15464.04
580.927	15555.79
581.287	15510.14
581.648	15552.18
582.008	15568.22
582.368	15498.62
582.728	15570.71
583.089	15545.85
583.449	15603.25
583.809	15534.78
584.169	15549.92
584.529	15589.24
584.889	15651.16
585.249	15616.35
585.609	15468.11
585.969	15619.52
586.329	15644.6
586.688	15635.56
587.048	15652.06
587.408	15611.84
587.768	15636.47
588.127	15560.54
588.487	15544.27
588.846	15613.19
589.206	15433.08
589.565	15567.32
589.925	15659.74
590.284	15688.67
590.643	15697.03
591.003	15711.72
591.362	15714.43
591.721	15658.84
592.08	15691.61
592.44	15686.64
592.799	15698.61
593.158	15716.01
593.517	15755.79
593.876	15749.46
594.235	15749.68
594.593	15786.29
594.952	15787.42
595.311	15626.3
595.67	15705.17
596.029	15832.85
596.387	15706.3
596.746	15784.49
597.104	15715.11
597.463	15753.98
597.822	15744.04
598.18	15717.14
598.538	15755.33
598.897	15789.23
599.255	15686.18
599.613	15924.6
599.972	15833.3
600.33	15942.22
600.688	15810.02
601.046	15863.81
601.404	15980.87
601.762	15962.11
602.12	15992.84
602.478	16006.4
602.836	15900.87
603.194	15955.56
603.552	15974.76
603.91	15958.04
604.268	16031.03
604.625	15899.29
604.983	16014.08
605.341	15867.65
605.698	15993.75
606.056	15994.65
606.413	16033.75
606.771	16072.61
607.128	16029
607.485	16027.19
607.843	16020.41
608.2	16171.37
608.557	16155.1
608.914	16128.88
609.272	16187.19
609.629	16217.02
609.986	16172.72
610.343	16108.09
610.7	16288.43
611.057	16316
611.414	16177.02
611.771	16236
612.127	16308.54
612.484	16280.07
612.841	16415.2
613.198	16357.13
613.554	16395.77
613.911	16473.96
614.267	16428.99
614.624	16410.91
614.98	16510.12
615.337	16488.65
615.693	16419.5
616.05	16384.47
616.406	16524.13
616.762	16445.49
617.118	16539.49
617.475	16556.22
617.831	16570.23
618.187	16591.02
618.543	16654.29
618.899	16748.75
619.255	16723.67
619.611	16676.44
619.967	16673.5
620.323	16708.98
620.678	16685.25
621.034	16616.55
621.39	16581.53
621.746	16621.75
622.101	16826.94
622.457	16672.6
622.812	16705.37
623.168	16776.32
623.523	16703.56
623.879	16742.43
624.234	16624.24
624.589	16761.18
624.945	16704.46
625.3	16701.3
625.655	16697.23
626.01	16698.59
626.365	16808.87
626.72	16707.63
627.075	16756.66
627.43	16741.98
627.785	16697
628.14	16780.17
628.495	16710.11
628.85	16756.44
629.205	16679.15
629.559	16751.69
629.914	16712.82
630.269	16624.24
630.623	16666.95
630.978	16536.78
631.332	16663.56
631.687	16697.68
632.041	16694.29
632.396	16684.35
632.75	16576.1
633.104	16563.22
633.459	16574.52
633.813	16464.47
634.167	16489.78
634.521	16436.9
634.875	16507.18
635.229	16451.36
635.583	16309.22
635.937	16323
636.291	16328.2
636.645	16275.32
636.999	16270.8
637.352	16220.86
637.706	16108.09
638.06	16183.12
638.413	16226.06
638.767	16199.39
639.121	16203.23
639.474	16119.62
639.828	16144.7
640.181	16128.21
640.534	16079.39
640.888	15942.45
641.241	15933.41
641.594	15991.71
641.947	16078.26
642.301	15967.98
642.654	16018.6
643.007	15953.75
643.36	15934.99
643.713	15800.76
644.066	16012.73
644.419	15809.12
644.771	15763.24
645.124	15742.45
645.477	15483.7
645.83	15403.25
646.182	15401.22
646.535	15280.77
646.888	15359.19
647.24	15228.12
647.593	15372.07
647.945	15325.52
648.298	15170.94
648.65	15210.04
649.002	15198.06
649.355	15192.64
649.707	15224.05
650.059	15169.36
650.411	15457.26
650.763	15476.7
651.115	15544.27
651.467	15519.86
651.819	15534.55
652.171	15486.19
652.523	15427.66
652.875	15439.41
653.227	15399.64
653.578	15536.36
653.93	15397.83
654.282	15349.47
654.633	15380.43
654.985	15302.92
655.337	15362.58
655.688	15396.25
656.039	15293.2
656.391	15216.82
656.742	15298.4
657.094	15243.71
657.445	15390.15
657.796	15225.86
658.147	15295.46
658.498	15344.95
658.849	15312.18
659.2	15280.09
659.551	15298.4
659.902	15282.8
660.253	15294.78
660.604	15242.58
660.955	15194.67
661.306	15156.71
661.656	15128.01
662.007	15193.54
662.358	15203.48
662.708	15093.2
663.059	15204.84
663.409	15053.88
663.76	15163.03
664.11	15095.69
664.461	15084.84
664.811	15138.18
665.161	15062.25
665.511	15001.23
665.862	15049.59
666.212	15002.36
666.562	15052.08
666.912	15007.78
667.262	15036.26
667.612	14965.75
667.962	14986.77
668.312	15002.13
668.662	15086.43
669.011	15026.54
669.361	15002.59
669.711	14943.83
670.06	14875.13
670.41	14870.39
670.76	14798.52
671.109	14939.54
671.459	14926.2
671.808	14856.6
672.157	14898.63
672.507	14792.2
672.856	14818.41
673.205	14889.37
673.554	14869.48
673.904	14897.73
674.253	14869.26
674.602	14738.64
674.951	14571.64
675.3	14463.16
675.649	14667.23
675.998	14725.98
676.346	14757.85
676.695	14888.92
677.044	14694.57
677.393	14695.25
677.741	14714.91
678.09	14651.86
678.438	14543.39
678.787	14659.54
679.135	14603.95
679.484	14555.14
679.832	14621.13
680.181	14504.97
680.529	14602.14
680.877	14555.59
681.225	14473.56
681.573	14482.37
681.922	14409.16
682.27	14305.65
682.618	14337.29
682.966	14361.7
683.314	14484.41
683.661	14332.77
684.009	14242.61
684.357	14265.88
684.705	14161.93
685.053	14349.95
685.4	14271.98
685.748	14279.44
686.095	14202.83
686.443	14036.74
686.79	14055.94
687.138	13972.33
687.485	13940.24
687.832	14009.39
688.18	14038.32
688.527	13973.69
688.874	13935.5
689.221	13870.19
689.568	13854.82
689.915	13857.31
690.262	13828.61
690.609	13738.66
690.956	13698.67
691.303	13651.89
691.65	13619.57
691.997	13513.81
692.344	13448.5
692.69	13542.74
693.037	13475.85
693.383	13387.94
693.73	13483.98
694.077	13427.49
694.423	13452.34
694.769	13395.17
695.116	13403.98
695.462	13292.12
695.808	13196.31
696.155	13326.02
696.501	13182.07
696.847	13243.76
697.193	13173.26
697.539	13175.52
697.885	13024.11
698.231	13058.91
698.577	13066.14
698.923	13044.9
699.269	12972.36
699.614	12855.98
699.96	12874.51
700.306	12816.2
700.651	12719.03
700.997	12719.03
701.342	12741.18
701.688	12621.41
702.033	12660.5
702.379	12674.96
702.724	12655.3
703.069	12632.93
703.415	12456.89
703.76	12493.27
704.105	12576.89
704.45	12470.45
704.795	12429.77
705.14	12455.31
705.485	12419.83
705.83	12266.61
706.175	12338.93
706.52	12275.65
706.865	12228.87
707.209	12177.58
707.554	12176.67
707.899	12207.18
708.243	12116.11
708.588	12208.31
708.932	12101.65
709.277	12146.84
709.621	12046.73
709.966	11994.3
710.31	12090.8
710.654	11910.46
710.998	11966.73
711.342	11913.4
711.687	11855.32
712.031	11823.69
712.375	11704.59
712.719	11718.38
713.063	11749.56
713.407	11765.38
713.75	11648.1
714.094	11641.54
714.438	11519.29
714.782	11583.69
715.125	11518.16
715.469	11623.92
715.812	11632.05
716.156	11494.66
716.499	11451.94
716.843	11494.66
717.186	11421.21
717.53	11518.84
717.873	11359.07
718.216	11407.2
718.559	11425.05
718.902	11312.74
719.246	11411.04
719.589	11278.39
719.932	11291.72
720.275	11270.48
720.617	11238.39
720.96	11242.23
721.303	11164.49
721.646	11158.39
721.989	11196.13
722.331	11191.16
722.674	11122.24
723.016	11129.69
723.359	11047.66
723.701	11091.05
724.044	11070.03
724.386	10979.41
724.729	11059.64
725.071	10931.96
725.413	10944.16
725.755	10990.26
726.097	10909.59
726.439	10853.54
726.782	10872.98
727.124	10904.16
727.465	10855.8
727.807	10880.89
728.149	10794.33
728.491	10839.53
728.833	10846.31
729.175	10715.47
729.516	10735.81
729.858	10674.34
730.199	10755.24
730.541	10738.52
730.882	10704.85
731.224	10770.61
731.565	10649.48
731.906	10601.12
732.248	10589.59
732.589	10636.15
732.93	10599.76
733.271	10563.83
733.612	10560.22
733.953	10590.5
734.294	10518.18
734.635	10494.91
734.976	10466.89
735.317	10539.43
735.658	10535.58
735.999	10435.25
736.339	10464.4
736.68	10378.07
737.021	10302.6
737.361	10377.62
737.702	10325.87
738.042	10344.86
738.383	10344.18
738.723	10342.6
739.063	10301.01
739.404	10238.42
739.744	10235.25
740.084	10209.04
740.424	10249.94
740.764	10251.75
741.104	10268.92
741.444	10152.54
741.784	10118.42
742.124	10151.64
742.464	10143.05
742.804	10147.8
743.143	10118.87
743.483	10113.45
743.823	10042.04
744.162	10009.27
744.502	10080.23
744.841	10028.93
745.181	10077.07
745.52	10035.94
745.86	10049.72
746.199	10019.44
746.538	10005.88
746.877	9907.35
747.216	9911.19
747.556	9883.62
747.895	9934.7
748.234	9881.36
748.573	9822.61
748.911	9873.23
749.25	9887.01
749.589	9778.32
749.928	9851.76
750.267	9772.21
750.605	9789.62
750.944	9736.74
751.283	9695.38
751.621	9698.77
751.96	9720.46
752.298	9699
752.636	9694.48
752.975	9648.83
753.313	9572.45
753.651	9636.4
753.989	9539.23
754.327	9567.47
754.666	9475.5
755.004	9454.26
755.342	9502.62
755.679	9445.44
756.017	9441.83
756.355	9404.77
756.693	9364.32
757.031	9380.36
757.368	9284.32
757.706	9405.67
758.044	9310.76
758.381	9231.44
758.719	9283.64
759.056	9282.28
759.394	9203.19
759.731	9186.02
760.068	9173.13
760.405	9128.39
760.743	8982.18
761.08	8981.5
761.417	8978.79
761.754	9006.59
762.091	9072.12
762.428	9019.69
762.765	8887.04
763.102	8964.33
763.438	8926.36
763.775	8888.4
764.112	8874.84
764.449	8875.06
764.785	8873.48
765.122	8682.75
765.458	8686.59
765.795	8702.86
766.131	8701.96
766.467	8697.89
766.804	8562.98
767.14	8608.4
767.476	8577.9
767.812	8530.44
768.148	8572.25
768.485	8543.77
768.821	8450.67
769.157	8397.34
769.492	8478.01
769.828	8426.94
770.164	8383.55
770.5	8360.5
770.836	8351.01
771.171	8287.06
771.507	8295.19
771.842	8237.11
772.178	8220.17
772.513	8122.99
772.849	8140.62
773.184	8111.92
773.519	8110.56
773.855	8038.48
774.19	7997.12
774.525	8011.36
774.86	7954.18
775.195	7955.31
775.53	7923.22
775.865	7833.96
776.2	7852.49
776.535	7777.24
776.87	7812.27
777.205	7753.51
777.539	7751.7
777.874	7689.11
778.209	7755.09
778.543	7755.32
778.878	7652.72
779.212	7643.91
779.547	7658.37
779.881	7567.98
780.215	7472.39
780.55	7523.46
780.884	7438.49
781.218	7385.38
781.552	7377.25
781.886	7368.89
782.22	7308.78
782.554	7269
782.888	7160.31
783.222	7252.96
783.556	7179.51
783.889	7205.5
784.223	7228.1
784.557	7177.48
784.89	7151.04
785.224	7156.46
785.557	7185.84
785.891	7123.7
786.224	7087.31
786.558	7064.04
786.891	6996.02
787.224	6980.2
787.557	6960.76
787.891	6946.75
788.224	6963.93
788.557	6968.45
788.89	6973.87
789.223	6920.76
789.556	6861.33
789.888	6832.41
790.221	6833.31
790.554	6812.07
790.887	6768
791.219	6739.98
791.552	6690.26
791.884	6678.74
792.217	6652.07
792.549	6630.83
792.882	6550.83
793.214	6570.72
793.546	6639.19
793.879	6563.49
794.211	6538.63
794.543	6594.45
794.875	6539.08
795.207	6599.87
795.539	6514.9
795.871	6456.14
796.203	6333.21
796.535	6374.11
796.867	6341.8
797.198	6401
797.53	6326.2
797.862	6256.38
798.193	6271.52
798.525	6241.69
798.856	6237.17
799.188	6142.25
799.519	6192.42
799.85	6132.76
800.182	6172.31
800.513	6104.51
800.844	6073.55
801.175	6146.55
801.506	6157.39
801.837	6105.87
802.168	6124.4
802.499	6056.38
802.83	6025.42
803.161	6040.11
803.491	6015.48
803.822	5939.77
804.153	5953.56
804.483	5857.29
804.814	5900.23
805.145	5853.67
805.475	5828.14
805.805	5817.06
806.136	5832.21
806.466	5871.3
806.796	5871.3
807.126	5784.52
807.457	5769.83
807.787	5760.79
808.117	5708.59
808.447	5727.58
808.777	5760.57
809.107	5742.72
809.436	5740.68
809.766	5718.76
810.096	5681.47
810.426	5674.47
810.755	5693.9
811.085	5654.13
811.414	5612.1
811.744	5569.39
812.073	5577.75
812.403	5542.27
812.732	5516.28
813.061	5552.21
813.39	5516.28
813.719	5476.06
814.049	5535.49
814.378	5493.23
814.707	5509.5
815.036	5532.1
815.365	5419.79
815.693	5433.57
816.022	5411.43
816.351	5409.62
816.68	5338.89
817.008	5406.45
817.337	5353.57
817.665	5308.83
817.994	5372.33
818.322	5310.19
818.651	5331.2
818.979	5324.65
819.307	5320.35
819.636	5300.24
819.964	5249.62
820.292	5259.57
820.62	5263.18
820.948	5260.7
821.276	5258.44
821.604	5256.18
821.932	5272.9
822.259	5246.01
822.587	5255.05
822.915	5237.64
823.243	5251.66
823.57	5222.96
823.898	5225.22
824.225	5177.08
824.553	5186.57
824.88	5245.55
825.207	5281.71
825.535	5242.16
825.862	5282.16
826.189	5253.24
826.516	5291.65
826.843	5241.49
827.17	5295.04
827.497	5266.34
827.824	5277.87
828.151	5294.37
828.478	5262.28
828.805	5321.94
829.131	5267.47
829.458	5239.68
829.785	5208.94
830.111	5201.94
830.438	5187.25
830.764	5184.76
831.09	5236.06
831.417	5211.88
831.743	5173.69
832.069	5233.13
832.395	5147.03
832.722	5186.12
833.048	5146.35
833.374	5156.29
833.7	5094.6
834.026	5181.6
834.351	5172.79
834.677	5142.73
835.003	5148.38
835.329	5165.56
835.654	5161.26
835.98	5159.23
836.306	5133.01
836.631	5129.17
836.956	5135.05
837.282	5165.78
837.607	5107.93
837.932	5074.26
838.258	5076.52
838.583	5083.3
838.908	5036.75
839.233	5069.29
839.558	5098.21
839.883	5025.9
840.208	5039.23
840.533	5067.93
840.858	5062.06
841.182	5040.14
841.507	4994.71
841.832	5010.53
842.156	4982.96
842.481	5002.62
842.805	4991.32
843.13	4992.68
843.454	4924.43
843.778	4946.13
844.103	4917.88
844.427	4911.55
844.751	4918.11
845.075	4903.42
845.399	4845.56
845.723	4889.86
846.047	4866.13
846.371	4880.59
846.695	4847.15
847.019	4793.81
847.343	4831.1
847.666	4800.59
847.99	4723.76
848.313	4750.88
848.637	4747.71
848.96	4726.92
849.284	4718.11
849.607	4677.43
849.931	4681.5
850.254	4588.85
850.577	4647.38
850.9	4605.8
851.223	4562.63
851.546	4525.57
851.869	4505.91
852.192	4546.59
852.515	4530.32
852.838	4503.43
853.161	4460.94
853.483	4414.39
853.806	4403.99
854.129	4394.73
854.451	4392.7
854.774	4391.57
855.096	4387.5
855.419	4441.51
855.741	4329.19
856.063	4313.83
856.385	4331.23
856.708	4331.23
857.03	4302.75
857.352	4278.57
857.674	4272.02
857.996	4261.17
858.318	4260.95
858.64	4233.15
858.961	4253.26
859.283	4236.32
859.605	4215.52
859.926	4214.62
860.248	4238.57
860.57	4151.8
860.891	4174.17
861.212	4175.3
861.534	4166.49
861.855	4137.33
862.176	4151.57
862.498	4150.67
862.819	4180.95
863.14	4133.49
863.461	4101.4
863.782	4116.54
864.103	4108.86
864.424	4104.79
864.745	4097.79
865.065	4110.89
865.386	4065.7
865.707	4066.15
866.027	4073.16
866.348	4028.41
866.668	4016.43
866.989	4020.73
867.309	4036.77
867.63	4015.53
867.95	4053.27
868.27	4009.2
868.59	4023.89
868.91	4009.88
869.23	4023.89
869.55	3972.59
869.87	3985.93
870.19	3975.76
870.51	3987.96
870.83	3967.85
871.15	3937.57
871.469	3980.05
871.789	3942.99
872.109	3966.04
872.428	3948.41
872.748	3940.5
873.067	3981.86
873.386	3945.25
873.706	3901.63
874.025	3900.28
874.344	3864.35
874.663	3877.23
874.982	3874.52
875.301	3898.92
875.62	3838.59
875.939	3821.64
876.258	3844.91
876.577	3900.05
876.896	3826.61
877.214	3835.42
877.533	3860.96
877.852	3808.98
878.17	3841.75
878.489	3783.9
878.807	3810.34
879.125	3791.36
879.444	3799.04
879.762	3775.76
880.08	3782.32
880.398	3812.15
880.716	3795.42
881.034	3719.27
881.352	3766.05
881.67	3771.02
881.988	3768.3
882.306	3760.85
882.624	3723.33
882.941	3691.47
883.259	3693.05
883.577	3726.27
883.894	3729.44
884.212	3705.48
884.529	3712.94
884.846	3691.47
885.164	3689.21
885.481	3673.62
885.798	3729.44
886.115	3659.16
886.432	3649.66
886.75	3582.77
887.067	3601.98
887.383	3587.07
887.7	3575.99
888.017	3553.4
888.334	3565.82
888.651	3560.4
888.967	3599.5
889.284	3569.21
889.6	3545.71
889.917	3499.84
890.233	3503.45
890.55	3536.67
890.866	3479.5
891.182	3500.52
891.498	3518.14
891.815	3473.62
892.131	3509.78
892.447	3521.98
892.763	3465.49
893.079	3461.19
893.395	3432.49
893.71	3431.36
894.026	3460.74
894.342	3454.87
894.657	3412.61
894.973	3402.89
895.289	3379.16
895.604	3387.52
895.92	3366.96
896.235	3335.55
896.55	3385.26
896.865	3331.93
897.181	3316.57
897.496	3341.2
897.811	3331.25
898.126	3284.48
898.441	3286.96
898.756	3230.01
899.071	3234.31
899.386	3209
899.7	3212.39
900.015	3257.81
900.33	3248.09
900.644	3211.26
900.959	3251.26
901.273	3215.78
901.588	3214.42
901.902	3182.11
902.216	3160.64
902.531	3170.13
902.845	3132.16
903.159	3096.01
903.473	3150.92
903.787	3157.93
904.101	3095.33
904.415	3098.72
904.729	3109.57
905.042	3076.35
905.356	3074.99
905.67	3051.94
905.984	3050.58
906.297	3027.31
906.611	3009.45
906.924	3018.95
907.237	3001.55
907.551	3036.35
907.864	2996.12
908.177	2970.81
908.491	2994.54
908.804	2967.42
909.117	2961.55
909.43	2954.31
909.743	2889.01
910.056	2873.87
910.368	2891.27
910.681	2870.25
910.994	2888.1
911.307	2843.36
911.619	2852.62
911.932	2828.22
912.244	2865.5
912.557	2866.86
912.869	2828.67
913.181	2850.59
913.494	2804.26
913.806	2763.59
914.118	2769.46
914.43	2758.84
914.742	2795
915.054	2772.62
915.366	2751.61
915.678	2721.78
915.99	2701.44
916.302	2651.05
916.613	2663.02
916.925	2671.38
917.236	2631.39
917.548	2698.73
917.859	2669.8
918.171	2651.5
918.482	2630.71
918.794	2592.52
919.105	2632.52
919.416	2625.06
919.727	2604.95
920.038	2588.67
920.349	2583.48
920.66	2571.95
920.971	2562.23
921.282	2546.87
921.593	2521.56
921.903	2501.45
922.214	2525.4
922.525	2492.86
922.835	2487.66
923.146	2485.4
923.456	2481.56
923.767	2439.3
924.077	2473.2
924.387	2461.67
924.697	2480.88
925.008	2412.63
925.318	2458.73
925.628	2427.78
925.938	2421
926.248	2414.44
926.558	2403.59
926.867	2394.78
927.177	2379.87
927.487	2400.66
927.796	2344.84
928.106	2331.96
928.416	2313.2
928.725	2300.55
929.034	2332.18
929.344	2291.06
929.653	2282.92
929.962	2248.57
930.271	2270.94
930.581	2257.38
930.89	2252.41
931.199	2260.1
931.508	2252.86
931.817	2255.12
932.125	2222.36
932.434	2194.79
932.743	2194.79
933.051	2182.81
933.36	2195.24
933.669	2182.36
933.977	2183.94
934.286	2163.6
934.594	2164.96
934.902	2160.21
935.21	2155.92
935.519	2165.64
935.827	2148.69
936.135	2113.66
936.443	2134.45
936.751	2096.03
937.059	2110.72
937.367	2111.17
937.674	2116.6
937.982	2101.91
938.29	2067.11
938.597	2072.53
938.905	2086.77
939.213	2053.77
939.52	1995.02
939.827	2058.75
940.135	2012.87
940.442	2057.39
940.749	2015.81
941.056	1997.96
941.363	2004.06
941.67	1983.72
941.977	1950.05
942.284	1986.43
942.591	1978.3
942.898	1967
943.205	1950.95
943.511	1938.52
943.818	1948.92
944.125	1927.68
944.431	1931.74
944.738	1921.35
945.044	1940.78
945.35	1896.49
945.657	1905.08
945.963	1901.46
946.269	1924.96
946.575	1882.25
946.881	1882.03
947.187	1876.83
947.493	1842.48
947.799	1858.3
948.105	1847
948.41	1827.56
948.716	1814.91
949.022	1807.68
949.327	1826.21
949.633	1815.59
949.938	1799.32
950.244	1787.34
950.549	1771.07
950.854	1802.48
951.16	1802.25
951.465	1755.25
951.77	1749.37
952.075	1729.49
952.38	1733.56
952.685	1752.54
952.99	1754.35
953.294	1742.37
953.599	1727.68
953.904	1750.96
954.209	1692.43
954.513	1709.83
954.818	1697.85
955.122	1705.53
955.426	1658.53
955.731	1701.92
956.035	1708.7
956.339	1661.92
956.643	1686.78
956.948	1701.01
957.252	1663.28
957.556	1658.53
957.86	1616.5
958.163	1639.1
958.467	1626.67
958.771	1646.78
959.075	1651.3
959.378	1635.03
959.682	1636.84
959.985	1607.68
960.289	1618.76
960.592	1622.6
960.896	1578.76
961.199	1594.58
961.502	1558.87
961.805	1547.35
962.108	1554.8
962.411	1562.26
962.714	1526.1
963.017	1550.28
963.32	1549.38
963.623	1545.99
963.926	1540.11
964.228	1557.97
964.531	1501.25
964.833	1534.92
965.136	1475.71
965.438	1524.75
965.741	1489.04
966.043	1496.05
966.345	1495.82
966.648	1460.79
966.95	1495.37
967.252	1435.48
967.554	1478.2
967.856	1458.08
968.158	1445.65
968.46	1430.06
968.761	1470.51
969.063	1404.3
969.365	1447.01
969.666	1397.75
969.968	1382.6
970.269	1418.08
970.571	1383.06
970.872	1400.46
971.174	1373.34
971.475	1374.47
971.776	1376.96
972.077	1396.39
972.378	1396.16
972.679	1358.88
972.98	1343.06
973.281	1368.14
973.582	1366.79
973.883	1344.19
974.183	1356.39
974.484	1327.47
974.785	1349.61
975.085	1327.01
975.386	1323.4
975.686	1311.65
975.986	1306.22
976.287	1310.52
976.587	1300.12
976.887	1309.61
977.187	1308.93
977.487	1289.95
977.787	1301.93
978.087	1294.25
978.387	1277.52
978.687	1281.14
978.987	1275.72
979.286	1263.06
979.586	1274.36
979.885	1224.64
980.185	1252.44
980.484	1238.88
980.784	1227.35
981.083	1234.59
981.382	1245.43
981.682	1247.24
981.981	1243.63
982.28	1224.19
982.579	1259.44
982.878	1186.45
983.177	1242.04
983.475	1223.06
983.774	1190.52
984.073	1203.17
984.372	1201.59
984.67	1178.77
984.969	1212.67
985.267	1195.72
985.566	1183.51
985.864	1150.97
986.162	1170.86
986.461	1155.49
986.759	1148.03
987.057	1125.89
987.355	1133.8
987.653	1153.91
987.951	1128.6
988.249	1145.1
988.547	1120.24
988.844	1141.93
989.142	1121.59
989.44	1129.05
989.737	1099.22
990.035	1105.1
990.332	1066.91
990.63	1119.33
990.927	1108.26
991.224	1097.64
991.521	1090.86
991.819	1091.31
992.116	1094.25
992.413	1089.28
992.71	1056.06
993.006	1071.43
993.303	1044.53
993.6	1073.91
993.897	1066.91
994.193	1057.42
994.49	1057.87
994.787	1036.17
995.083	1034.59
995.379	1061.26
995.676	1060.13
995.972	1018.77
996.268	1030.07
996.565	1026.46
996.861	993.01
997.157	1011.54
997.453	1034.37
997.749	1006.8
998.044	992.78
998.34	989.39
998.636	1000.69
998.932	997.08
999.227	998.66
999.523	985.78
999.818	1000.02
1000.114	988.49
1000.409	955.72
1000.704	955.95
1001	983.07
1001.295	964.76
1001.59	948.27
1001.885	956.85
1002.18	954.82
1002.475	959.34
1002.77	939
1003.065	950.53
1003.359	940.81
1003.654	942.16
1003.949	949.62
1004.243	927.48
1004.538	904.43
1004.832	918.44
1005.127	894.93
1005.421	903.07
1005.715	894.93
1006.009	881.15
1006.304	867.36
1006.598	884.09
1006.892	889.96
1007.186	880.02
1007.48	882.96
1007.773	876.63
1008.067	881.15
1008.361	868.04
1008.655	878.89
1008.948	870.98
1009.242	870.98
1009.535	858.32
1009.829	847.7
1010.122	861.26
1010.415	853.58
1010.708	837.08
1011.001	845.67
1011.295	840.47
1011.588	820.13
1011.881	812
1012.173	820.59
1012.466	804.54
1012.759	802.06
1013.052	798.44
1013.344	808.16
1013.637	796.18
1013.93	802.73
1014.222	792.34
1014.514	796.41
1014.807	779.91
1015.099	773.13
1015.391	755.28
1015.683	793.24
1015.976	786.91
1016.268	752.56
1016.56	778.33
1016.851	751.21
1017.143	745.79
1017.435	757.99
1017.727	748.72
1018.018	765.67
1018.31	743.98
1018.602	739.68
1018.893	732.68
1019.185	736.07
1019.476	742.85
1019.767	724.32
1020.058	692.23
1020.35	721.38
1020.641	730.19
1020.932	706.46
1021.223	696.52
1021.514	694.71
1021.804	677.76
1022.095	704.66
1022.386	673.92
1022.677	685
1022.967	680.02
1023.258	680.48
1023.548	677.76
1023.839	656.07
1024.129	671.21
1024.419	668.27
1024.709	668.27
1025	668.27
1025.29	659.23
1025.58	652.68
1025.87	683.19
1026.16	667.14
1026.449	679.12
1026.739	663.08
1027.029	681.83
1027.319	660.36
1027.608	655.17
1027.898	635.51
1028.187	643.19
1028.477	630.76
1028.766	642.06
1029.055	627.6
1029.344	628.73
1029.634	640.03
1029.923	610.42
1030.212	636.18
1030.501	621.95
1030.79	612.23
1031.078	638.9
1031.367	625.56
1031.656	620.82
1031.945	598.44
1032.233	592.8
1032.522	591.67
1032.81	596.64
1033.099	570.42
1033.387	578.11
1033.675	595.73
1033.963	602.06
1034.251	590.31
1034.54	591.89
1034.828	592.34
1035.116	576.3
1035.403	562.29
1035.691	574.94
1035.979	580.82
1036.267	572.91
1036.554	587.15
1036.842	576.52
1037.129	578.33
1037.417	556.19
1037.704	546.69
1037.992	547.15
1038.279	553.25
1038.566	545.11
1038.853	545.11
1039.14	545.11
