Data from black_plastic_tray_FLMS001491_068.txt Node
Date: Tue Feb 07 10:40:22 GMT 2017
User: dcchb
Spectrometer: FLMS00149
Trigger mode: 0
Integration Time (sec): 2.000000E-2
Scans to average: 10
Electric dark correction enabled: true
Nonlinearity correction enabled: false
Boxcar width: 0
XAxis mode: Wavelengths
Number of Pixels in Spectrum: 2048
>>>>>Begin Spectral Data<<<<<
341.393	8.74
341.776	8.74
342.16	8.74
342.543	-60.63
342.927	-78.03
343.31	-69.22
343.693	-71.93
344.077	-52.95
344.46	-29.9
344.843	-43.91
345.226	-37.81
345.61	-55.44
345.993	-24.93
346.376	-36.45
346.759	0.38
347.142	43.09
347.525	58.46
347.908	60.49
348.291	55.07
348.674	107.72
349.057	97.33
349.44	128.51
349.823	138.68
350.206	144.33
350.588	175.52
350.971	199.92
351.354	217.32
351.737	214.84
352.119	243.54
352.502	250.09
352.884	255.29
353.267	258.91
353.65	290.77
354.032	296.64
354.414	291.9
354.797	312.24
355.179	302.07
355.562	308.4
355.944	308.62
356.326	306.36
356.709	299.81
357.091	334.38
357.473	325.12
357.855	309.75
358.238	321.5
358.62	303.2
359.002	326.7
359.384	329.19
359.766	327.38
360.148	309.98
360.53	339.58
360.912	324.21
361.294	309.3
361.676	321.28
362.057	331.67
362.439	304.78
362.821	305.46
363.203	333.25
363.584	322.18
363.966	304.78
364.348	307.72
364.729	326.93
365.111	322.18
365.493	300.03
365.874	299.36
366.256	300.94
366.637	291.22
367.019	307.04
367.4	321.95
367.781	305.01
368.163	314.72
368.544	298.68
368.925	291.45
369.306	311.33
369.688	290.77
370.069	307.49
370.45	302.52
370.831	293.26
371.212	297.32
371.593	311.56
371.974	312.01
372.355	312.46
372.736	306.59
373.117	307.94
373.498	299.81
373.879	301.39
374.26	307.72
374.641	317.21
375.021	315.63
375.402	311.79
375.783	328.28
376.163	321.95
376.544	324.89
376.925	285.8
377.305	316.31
377.686	311.11
378.066	313.37
378.447	324.67
378.827	305.68
379.208	317.89
379.588	327.38
379.968	331.67
380.349	329.19
380.729	348.17
381.109	328.06
381.489	320.37
381.87	333.93
382.25	330.99
382.63	325.57
383.01	342.29
383.39	350.43
383.77	344.78
384.15	326.47
384.53	355.63
384.91	335.74
385.29	349.75
385.67	344.55
386.049	351.78
386.429	354.72
386.809	339.58
387.189	337.55
387.568	343.88
387.948	343.88
388.328	356.76
388.707	386.81
389.087	369.19
389.466	366.47
389.846	351.78
390.225	371.67
390.605	392.91
390.984	369.41
391.363	369.41
391.743	391.78
392.122	363.54
392.501	367.38
392.881	378.9
393.26	384.55
393.639	395.17
394.018	380.26
394.397	377.09
394.776	391.33
395.155	373.25
395.534	394.27
395.913	384.1
396.292	399.24
396.671	382.07
397.05	384.1
397.429	388.17
397.808	386.59
398.186	397.89
398.565	392.46
398.944	399.69
399.323	422.97
399.701	430.65
400.08	407.83
400.458	414.38
400.837	413.7
401.215	415.06
401.594	404.21
401.972	429.07
402.351	423.87
402.729	425
403.107	426.81
403.486	422.74
403.864	442.4
404.242	408.05
404.62	440.37
404.999	425.68
405.377	437.88
405.755	444.44
406.133	458.22
406.511	465.68
406.889	474.27
407.267	434.72
407.645	479.69
408.023	463.42
408.401	465.91
408.779	484.89
409.156	477.88
409.534	465.45
409.912	467.94
410.29	496.19
410.667	490.09
411.045	476.3
411.422	480.37
411.8	459.35
412.178	498.67
412.555	496.41
412.933	503.42
413.31	494.38
413.687	538.67
414.065	519.24
414.442	507.03
414.819	540.71
415.197	539.58
415.574	529.18
415.951	550.42
416.328	533.25
416.705	557.65
417.082	529.41
417.46	553.59
417.837	569.41
418.214	564.21
418.591	555.17
418.967	540.25
419.344	563.3
419.721	563.98
420.098	572.12
420.475	566.92
420.852	581.83
421.228	579.12
421.605	598.11
421.982	593.59
422.358	611.44
422.735	584.32
423.111	596.75
423.488	630.42
423.864	616.41
424.241	629.74
424.617	601.04
424.994	622.29
425.37	611.21
425.746	620.93
426.123	644.43
426.499	639.91
426.875	644.21
427.251	663.64
427.627	634.94
428.003	665
428.379	667.26
428.756	661.61
429.132	679.01
429.507	705.67
429.883	699.57
430.259	720.81
430.635	693.02
431.011	719.23
431.387	727.59
431.763	725.33
432.138	731.66
432.514	736.18
432.89	738.44
433.265	748.38
433.641	772.34
434.016	755.62
434.392	775.95
434.767	791.1
435.143	781.15
435.518	797.87
435.894	795.39
436.269	817.54
436.644	825.22
437.02	818.89
437.395	831.55
437.77	842.39
438.145	857.31
438.52	861.15
438.895	844.65
439.271	845.33
439.646	878.1
440.021	890.53
440.395	908.61
440.77	885.78
441.145	916.52
441.52	902.96
441.895	904.76
442.27	905.22
442.645	926.46
443.019	901.83
443.394	898.21
443.769	942.96
444.143	945.22
444.518	930.75
444.892	918.1
445.267	921.94
445.641	941.83
446.016	950.41
446.39	975.27
446.764	948.38
447.139	954.93
447.513	975.04
447.887	959.68
448.262	978.66
448.636	997.42
449.01	1010.07
449.384	1005.78
449.758	984.54
450.132	1024.08
450.506	1039
450.88	1042.16
451.254	1046.46
451.628	1064.53
452.002	1070.41
452.376	1078.32
452.75	1102.27
453.123	1091.43
453.497	1083.06
453.871	1112.89
454.244	1138.2
454.618	1137.53
454.992	1135.04
455.365	1150.63
455.739	1146.34
456.112	1179.56
456.486	1176.17
456.859	1155.38
457.232	1196.51
457.606	1185.43
457.979	1248.48
458.352	1232.44
458.725	1251.2
459.099	1269.73
459.472	1295.04
459.845	1304.53
460.218	1316.73
460.591	1328.48
460.964	1327.58
461.337	1367.35
461.71	1380.01
462.083	1388.59
462.456	1387.69
462.829	1390.85
463.201	1398.76
463.574	1412.1
463.947	1459.55
464.32	1449.61
464.692	1465.88
465.065	1493.22
465.438	1495.71
465.81	1533.67
466.183	1511.75
466.555	1557.63
466.928	1586.55
467.3	1577.29
467.672	1626.33
468.045	1644.63
468.417	1657.29
468.789	1659.55
469.161	1670.39
469.534	1691.18
469.906	1721.01
470.278	1706.55
470.65	1708.36
471.022	1750.39
471.394	1780
471.766	1807.79
472.138	1817.73
472.51	1855.93
472.882	1874.23
473.253	1876.26
473.625	1895.47
473.997	1929.82
474.369	1971.4
474.74	1990.84
475.112	2014.79
475.484	2019.76
475.855	2078.07
476.227	2118.07
476.598	2142.7
476.97	2166.88
477.341	2186.09
477.713	2216.82
478.084	2248.01
478.455	2285.07
478.827	2332.52
479.198	2370.04
479.569	2377.04
479.94	2448.23
480.311	2482.58
480.682	2501.11
481.053	2560.31
481.424	2584.04
481.795	2626.08
482.166	2626.3
482.537	2676.7
482.908	2721.21
483.279	2748.33
483.65	2803.47
484.021	2881.21
484.391	2906.29
484.762	2924.6
485.133	2955.56
485.503	2965.05
485.874	3046.63
486.244	3069.91
486.615	3090.92
486.985	3141.54
487.356	3208.43
487.726	3245.27
488.097	3320.07
488.467	3312.38
488.837	3391.7
489.207	3415.88
489.578	3477.58
489.948	3452.27
490.318	3580.85
490.688	3538.82
491.058	3569.33
491.428	3635.99
491.798	3670.12
492.168	3731.36
492.538	3735.65
492.908	3814.97
493.278	3901.97
493.648	3846.16
494.017	3922.09
494.387	3898.13
494.757	3963.44
495.126	3952.82
495.496	4017.22
495.866	4045.25
496.235	4098.35
496.605	4089.31
496.974	4099.26
497.344	4148.52
497.713	4193.04
498.082	4236.65
498.452	4306.71
498.821	4313.26
499.19	4301.74
499.559	4308.06
499.928	4372.47
500.298	4412.69
500.667	4437.1
501.036	4439.81
501.405	4474.16
501.774	4498.12
502.143	4530.88
502.512	4508.96
502.88	4546.93
503.249	4594.16
503.618	4617.89
503.987	4633.93
504.356	4652.46
504.724	4694.27
505.093	4685.23
505.462	4716.64
505.83	4789.18
506.199	4812.01
506.567	4862.17
506.936	4888.39
507.304	4967.93
507.672	4949.86
508.041	4993.24
508.409	5043.19
508.777	5070.3
509.145	5075.95
509.514	5150.98
509.882	5153.69
510.25	5176.97
510.618	5162.28
510.986	5193.92
511.354	5259.9
511.722	5291.99
512.09	5365.89
512.458	5363.86
512.826	5349.85
513.193	5467.58
513.561	5511.2
513.929	5563.17
514.297	5619.89
514.664	5568.14
515.032	5685.88
515.4	5691.08
515.767	5681.59
516.135	5735.82
516.502	5726.11
516.869	5805.65
517.237	5858.76
517.604	5819.66
517.972	5913.22
518.339	5926.33
518.706	5986.66
519.073	6030.96
519.44	6018.98
519.808	6140.78
520.175	6139.2
520.542	6310.72
520.909	6275.47
521.276	6264.17
521.643	6381.68
522.009	6440.89
522.376	6429.14
522.743	6440.89
523.11	6522.47
523.477	6579.87
523.843	6626.65
524.21	6644.95
524.577	6784.16
524.943	6749.36
525.31	6768.11
525.676	6930.37
526.043	6921.78
526.409	6963.59
526.776	7035
527.142	7031.38
527.508	7049.24
527.874	7018.95
528.241	7149.8
528.607	7173.3
528.973	7219.17
529.339	7219.4
529.705	7311.83
530.071	7375.55
530.437	7448.32
530.803	7512.5
531.169	7501.43
531.535	7521.77
531.901	7511.14
532.267	7606.06
532.632	7641.76
532.998	7623.01
533.364	7690.8
533.73	7682.21
534.095	7767.63
534.461	7792.49
534.826	7827.75
535.192	7802.89
535.557	7920.4
535.923	7825.49
536.288	7987.52
536.653	7951.58
537.019	8047.18
537.384	8031.36
537.749	8092.15
538.114	8151.58
538.479	8158.13
538.845	8196.78
539.21	8137.34
539.575	8236.77
539.94	8258.24
540.305	8237.23
540.67	8254.85
541.034	8366.49
541.399	8363.33
541.764	8445.13
542.129	8394.74
542.494	8489.2
542.858	8482.42
543.223	8462.98
543.587	8570.55
543.952	8558.35
544.316	8582.98
544.681	8606.26
545.045	8625.01
545.41	8655.52
545.774	8683.09
546.138	8716.54
546.503	8771
546.867	8759.25
547.231	8897.1
547.595	8908.17
547.959	8904.1
548.324	8883.76
548.688	8928.51
549.052	8959.47
549.416	8901.84
549.779	8974.61
550.143	9021.84
550.507	9073.82
550.871	9079.24
551.235	9116.98
551.599	9210.08
551.962	9154.04
552.326	9255.51
552.689	9281.95
553.053	9271.32
553.417	9320.14
553.78	9450.08
554.143	9450.75
554.507	9457.08
554.87	9518.1
555.234	9618.89
555.597	9507.25
555.96	9558.77
556.323	9668.15
556.686	9667.02
557.05	9710.18
557.413	9768.26
557.776	9781.82
558.139	9772.78
558.502	9911.31
558.865	9882.83
559.228	9985.43
559.59	9979.55
559.953	10017.07
560.316	10156.27
560.679	10159.21
561.041	10257.51
561.404	10244.18
561.767	10290.73
562.129	10214.8
562.492	10358.98
562.854	10348.36
563.217	10413.21
563.579	10392.42
563.941	10423.16
564.304	10518.07
564.666	10588.8
565.028	10536.15
565.39	10564.85
565.753	10688.01
566.115	10738.86
566.477	10809.36
566.839	10786.31
567.201	10847.78
567.563	10856.14
567.925	10901.79
568.287	10876.93
568.648	10961.68
569.01	11061.33
569.372	11113.99
569.734	11020.66
570.095	11184.95
570.457	11136.81
570.819	11125.74
571.18	11175.68
571.542	11260.2
571.903	11285.73
572.265	11299.52
572.626	11352.17
572.987	11412.06
573.349	11464.26
573.71	11445.73
574.071	11439.85
574.432	11445.96
574.794	11532.51
575.155	11472.17
575.516	11527.54
575.877	11472.85
576.238	11529.8
576.599	11570.47
576.96	11652.05
577.32	11588.1
577.681	11655.44
578.042	11722.78
578.403	11716.91
578.763	11751.71
579.124	11746.74
579.485	11735.21
579.845	11857.7
580.206	11774.54
580.566	11814.08
580.927	11730.02
581.287	11812.73
581.648	11773.18
582.008	11846.62
582.368	11848.43
582.728	11848.21
583.089	11875.1
583.449	11876.45
583.809	11892.95
584.169	11957.36
584.529	11916.45
584.889	12021.08
585.249	11889.33
585.609	11831.03
585.969	11957.81
586.329	11922.78
586.688	11975.21
587.048	11997.81
587.408	11887.3
587.768	11946.51
588.127	11918.03
588.487	11968.2
588.846	12035.09
589.206	11907.64
589.565	11958.71
589.925	12069.67
590.284	11872.61
590.643	11977.47
591.003	12045.26
591.362	12121.19
591.721	12024.92
592.08	11982.89
592.44	12153.96
592.799	12060.86
593.158	12061.31
593.517	12059.27
593.876	12092.27
594.235	12115.77
594.593	12114.87
594.952	12155.32
595.311	12084.81
595.67	12054.08
596.029	12177.91
596.387	12256.33
596.746	12207.07
597.104	12056.11
597.463	12081.87
597.822	12120.97
598.18	12115.99
598.538	11998.48
598.897	12124.36
599.255	12059.73
599.613	12286.16
599.972	12147.86
600.33	12207.74
600.688	12183.34
601.046	12249.78
601.404	12275.54
601.762	12219.04
602.12	12262.88
602.478	12357.57
602.836	12377.23
603.194	12199.61
603.552	12266.05
603.91	12350.79
604.268	12387.63
604.625	12261.53
604.983	12308.53
605.341	12289.32
605.698	12378.13
606.056	12369.1
606.413	12299.94
606.771	12381.3
607.128	12444.57
607.485	12278.25
607.843	12279.83
608.2	12250.68
608.557	12343.33
608.914	12355.99
609.272	12492.26
609.629	12504.46
609.986	12508.98
610.343	12421.52
610.7	12427.63
611.057	12497.68
611.414	12463.1
611.771	12434.18
612.127	12485.93
612.484	12427.17
612.841	12513.27
613.198	12546.72
613.554	12513.05
613.911	12544.23
614.267	12541.75
614.624	12505.82
614.98	12535.64
615.337	12609.77
615.693	12589.2
616.05	12597.56
616.406	12593.04
616.762	12598.69
617.118	12623.55
617.475	12577.9
617.831	12700.84
618.187	12705.36
618.543	12584.01
618.899	12679.82
619.255	12734.06
619.611	12736.54
619.967	12731.8
620.323	12789.88
620.678	12741.74
621.034	12681.86
621.39	12691.12
621.746	12666.04
622.101	12791.46
622.457	12677.11
622.812	12735.41
623.168	12820.61
623.523	12755.53
623.879	12767.05
624.234	12752.14
624.589	12699.26
624.945	12788.52
625.3	12826.94
625.655	12741.74
626.01	12741.74
626.365	12777.67
626.72	12729.76
627.075	12743.32
627.43	12720.27
627.785	12728.18
628.14	12767.73
628.495	12772.25
628.85	12687.28
629.205	12615.42
629.559	12779.48
629.914	12564.34
630.269	12649.99
630.623	12616.32
630.978	12649.77
631.332	12640.73
631.687	12707.84
632.041	12622.65
632.396	12715.3
632.75	12617.68
633.104	12619.94
633.459	12587.62
633.813	12529.54
634.167	12540.62
634.521	12525.02
634.875	12559.83
635.229	12558.24
635.583	12381.3
635.937	12423.11
636.291	12345.82
636.645	12398.93
636.999	12407.74
637.352	12435.76
637.706	12318.25
638.06	12438.7
638.413	12331.36
638.767	12287.52
639.121	12335.2
639.474	12250.68
639.828	12183.11
640.181	12331.81
640.534	12275.09
640.888	12212.49
641.241	12154.41
641.594	12165.49
641.947	12252.49
642.301	12132.27
642.654	12198.48
643.007	12087.75
643.36	12152.83
643.713	12181.08
644.066	12155.54
644.419	12063.34
644.771	11926.85
645.124	11914.64
645.477	11875.55
645.83	11743.12
646.182	11788.55
646.535	11654.31
646.888	11800.75
647.24	11592.62
647.593	11712.62
647.945	11649.57
648.298	11607.31
648.65	11599.17
649.002	11506.29
649.355	11565.95
649.707	11580.42
650.059	11618.61
650.411	11699.06
650.763	11796
651.115	11973.63
651.467	11863.8
651.819	11842.78
652.171	11857.7
652.523	11802.78
652.875	11755.55
653.227	11746.29
653.578	11820.41
653.93	11742.9
654.282	11758.49
654.633	11687.98
654.985	11705.61
655.337	11711.71
655.688	11656.8
656.039	11742.22
656.391	11617.7
656.742	11642.11
657.094	11757.59
657.445	11698.83
657.796	11644.59
658.147	11602.11
658.498	11657.02
658.849	11638.27
659.2	11672.16
659.551	11630.13
659.902	11699.28
660.253	11653.86
660.604	11635.33
660.955	11556.91
661.306	11563.02
661.656	11480.31
662.007	11492.06
662.358	11550.36
662.708	11544.26
663.059	11570.47
663.409	11495.22
663.76	11530.47
664.11	11464.03
664.461	11548.33
664.811	11461.77
665.161	11463.81
665.511	11423.58
665.862	11497.48
666.212	11514.88
666.562	11494.32
666.912	11433.75
667.262	11417.26
667.612	11360.99
667.962	11410.48
668.312	11414.09
668.662	11500.19
669.011	11363.25
669.361	11376.81
669.711	11270.37
670.06	11304.49
670.41	11301.1
670.76	11302.46
671.109	11308.56
671.459	11238.28
671.808	11278.95
672.157	11329.57
672.507	11198.73
672.856	11155.57
673.205	11227.66
673.554	11335.68
673.904	11175.68
674.253	11223.82
674.602	11202.35
674.951	11054.1
675.3	11067.66
675.649	11119.41
675.998	11122.8
676.346	11198.28
676.695	11267.66
677.044	11165.06
677.393	11129.35
677.741	11102.01
678.09	11104.04
678.438	11005.29
678.787	11073.08
679.135	11117.38
679.484	11072.63
679.832	11029.92
680.181	11025.4
680.529	11064.5
680.877	10994.22
681.225	11017.04
681.573	11072.86
681.922	10952.18
682.27	10989.02
682.618	11021.56
682.966	10961.22
683.314	10921
683.661	10921.22
684.009	10885.97
684.357	10921.68
684.705	10862.69
685.053	10907.89
685.4	10803.49
685.748	10792.87
686.095	10681.46
686.443	10678.52
686.79	10730.72
687.138	10693.43
687.485	10695.92
687.832	10636.26
688.18	10612.53
688.527	10577.28
688.874	10556.71
689.221	10578.86
689.568	10562.36
689.915	10489.6
690.262	10532.76
690.609	10496.83
690.956	10467.68
691.303	10470.61
691.65	10411.18
691.997	10439.65
692.344	10338.87
692.69	10296.38
693.037	10349.71
693.383	10257.06
693.73	10359.43
694.077	10232.65
694.423	10310.39
694.769	10212.32
695.116	10199.21
695.462	10220.68
695.808	10055.26
696.155	10100.68
696.501	10065.2
696.847	10075.82
697.193	10020
697.539	10121.02
697.885	9999.67
698.231	9975.71
698.577	10029.72
698.923	9917.63
699.269	9834.47
699.614	9773.68
699.96	9837.18
700.306	9859.11
700.651	9818.88
700.997	9662.5
701.342	9667.7
701.688	9638.09
702.033	9564.88
702.379	9662.73
702.724	9632.22
703.069	9681.26
703.415	9588.15
703.76	9549.06
704.105	9575.72
704.45	9552.45
704.795	9501.83
705.14	9454.82
705.485	9437.2
705.83	9381.83
706.175	9419.79
706.52	9404.65
706.865	9381.15
707.209	9228.84
707.554	9308.61
707.899	9262.74
708.243	9225
708.588	9267.71
708.932	9233.81
709.277	9210.53
709.621	9237.2
709.966	9129.18
710.31	9151.33
710.654	9074.27
710.998	9020.71
711.342	9094.38
711.687	9018.22
712.031	8953.37
712.375	8983.42
712.719	9023.19
713.063	8947.49
713.407	9004.21
713.75	8886.25
714.094	8838.57
714.438	8840.6
714.782	8841.05
715.125	8801.28
715.469	8775.74
715.812	8767.38
716.156	8746.14
716.499	8712.02
716.843	8712.92
717.186	8735.29
717.53	8696.42
717.873	8687.16
718.216	8702.75
718.559	8625.69
718.902	8641.51
719.246	8604
719.589	8681.74
719.932	8542.76
720.275	8608.52
720.617	8572.81
720.96	8562.87
721.303	8511.8
721.646	8476.09
721.989	8481.51
722.331	8429.99
722.674	8507.5
723.016	8481.29
723.359	8387.96
723.701	8419.14
724.044	8364
724.386	8334.85
724.729	8322.42
725.071	8313.61
725.413	8319.71
725.755	8315.64
726.097	8277.9
726.439	8186.83
726.782	8281.52
727.124	8245.59
727.465	8171.24
727.807	8232.93
728.149	8159.71
728.491	8150
728.833	8163.78
729.175	8122.65
729.516	8119.49
729.858	8094.18
730.199	8164.01
730.541	8093.95
730.882	8100.96
731.224	8102.54
731.565	8070
731.906	8047.85
732.248	8020.96
732.589	8015.76
732.93	7994.52
733.271	8016.89
733.612	8050.34
733.953	8024.13
734.294	7928.99
734.635	7936.22
734.976	8017.12
735.317	7931.25
735.658	7987.06
735.999	7903
736.339	7937.8
736.68	7935.99
737.021	7848.08
737.361	7843.34
737.702	7885.15
738.042	7827.29
738.383	7902.09
738.723	7813.51
739.063	7799.05
739.404	7801.08
739.744	7745.49
740.084	7783.23
740.424	7702.78
740.764	7784.13
741.104	7824.58
741.444	7694.42
741.784	7707.98
742.124	7759.95
742.464	7727.86
742.804	7688.77
743.143	7754.08
743.483	7703
743.823	7648.32
744.162	7633.18
744.502	7639.28
744.841	7665.72
745.181	7656.45
745.52	7643.57
745.86	7665.72
746.199	7594.08
746.538	7594.08
746.877	7618.03
747.216	7573.74
747.556	7591.14
747.895	7605.83
748.234	7480.18
748.573	7486.51
748.911	7497.81
749.25	7489.68
749.589	7433.41
749.928	7432.5
750.267	7509.56
750.605	7474.54
750.944	7442.9
751.283	7369
751.621	7350.47
751.96	7394.54
752.298	7353.63
752.636	7340.98
752.975	7244.71
753.313	7274.77
753.651	7322.22
753.989	7250.13
754.327	7237.93
754.666	7277.48
755.004	7236.58
755.342	7218.27
755.679	7236.8
756.017	7182.34
756.355	7146.86
756.693	7050.14
757.031	7099.18
757.368	7137.14
757.706	7147.76
758.044	7047.43
758.381	7124.26
758.719	7032.06
759.056	6968.56
759.394	7018.05
759.731	6977.37
760.068	6962.01
760.405	6956.36
760.743	6901.22
761.08	6901.22
761.417	6869.35
761.754	6862.8
762.091	6913.65
762.428	6839.98
762.765	6818.96
763.102	6821.9
763.438	6754.1
763.775	6737.38
764.112	6767.66
764.449	6749.58
764.785	6743.93
765.122	6682.24
765.458	6602.92
765.795	6657.61
766.131	6641.11
766.467	6630.04
766.804	6571.96
767.14	6552.53
767.476	6566.31
767.812	6484.05
768.148	6510.27
768.485	6470.95
768.821	6418.52
769.157	6457.61
769.492	6393.66
769.828	6409.25
770.164	6312.53
770.5	6298.07
770.836	6401.12
771.171	6267.11
771.507	6282.25
771.842	6237.05
772.178	6297.84
772.513	6233.89
772.849	6194.34
773.184	6186.89
773.519	6167.45
773.855	6151.63
774.19	6099.88
774.525	6115.02
774.86	6129.03
775.195	6060.56
775.53	6032.09
775.865	6040
776.2	5990.73
776.535	5895.14
776.87	5914.8
777.205	5899.21
777.539	5867.35
777.874	5873
778.209	5840.68
778.543	5874.35
778.878	5782.38
779.212	5759.33
779.547	5789.61
779.881	5816.73
780.215	5716.62
780.55	5708.48
780.884	5713.68
781.218	5655.15
781.552	5664.19
781.886	5658.54
782.22	5665.77
782.554	5564.08
782.888	5562.04
783.222	5577.18
783.556	5458.99
783.889	5525.66
784.223	5474.59
784.557	5445.44
784.89	5511.42
785.224	5423.74
785.557	5401.6
785.891	5414.25
786.224	5399.34
786.558	5376.51
786.891	5370.41
787.224	5331.77
787.557	5359.11
787.891	5320.69
788.224	5309.17
788.557	5316.85
788.89	5307.81
789.223	5289.28
789.556	5235.27
789.888	5212.22
790.221	5228.49
790.554	5166.8
790.887	5154.37
791.219	5122.28
791.552	5116.18
791.884	5034.83
792.217	5083.86
792.549	5010.65
792.882	5014.03
793.214	5005.9
793.546	5076.86
793.879	4974.49
794.211	4942.17
794.543	4942.85
794.875	4971.78
795.207	4935.39
795.539	4933.13
795.871	4894.49
796.203	4818.11
796.535	4840.48
796.867	4833.02
797.198	4835.73
797.53	4781.5
797.862	4770.2
798.193	4786.7
798.525	4756.87
798.856	4710.31
799.188	4738.56
799.519	4725.68
799.85	4673.03
800.182	4710.31
800.513	4734.95
800.844	4694.72
801.175	4673.48
801.506	4667.83
801.837	4629.64
802.168	4679.58
802.499	4636.19
802.83	4582.63
803.161	4606.36
803.491	4565.46
803.822	4546.25
804.153	4536.31
804.483	4496.99
804.814	4487.27
805.145	4508.74
805.475	4463.31
805.805	4496.31
806.136	4474.61
806.466	4482.3
806.796	4442.3
807.126	4380.15
807.457	4404.11
807.787	4422.64
808.117	4419.25
808.447	4432.13
808.777	4409.08
809.107	4414.28
809.436	4364.79
809.766	4387.16
810.096	4371.34
810.426	4304.45
810.755	4317.78
811.085	4322.3
811.414	4293.6
811.744	4231.91
812.073	4273.49
812.403	4264.22
812.732	4226.94
813.061	4219.48
813.39	4228.74
813.719	4196.88
814.049	4248.18
814.378	4166.15
814.707	4158.92
815.036	4171.35
815.365	4163.66
815.693	4167.96
816.022	4161.63
816.351	4123.21
816.68	4100.61
817.008	4132.02
817.337	4106.04
817.665	4103.1
817.994	4088.18
818.322	4079.6
818.651	4045.92
818.979	4077.56
819.307	4061.29
819.636	4060.39
819.964	4033.72
820.292	4006.38
820.62	4018.58
820.948	4011.8
821.276	4065.59
821.604	4030.78
821.932	4035.08
822.259	4062.2
822.587	4040.73
822.915	4037.34
823.243	4076.88
823.57	4048.41
823.898	4024.23
824.225	4021.29
824.553	4007.51
824.88	4010.9
825.207	4028.75
825.535	4027.62
825.862	4025.36
826.189	4029.43
826.516	4033.95
826.843	4001.63
827.17	4016.09
827.497	4056.55
827.824	4036.66
828.151	4042.99
828.478	4011.58
828.805	4041.86
829.131	4005.02
829.458	4054.29
829.785	3982.65
830.111	4056.77
830.438	4036.21
830.764	4008.86
831.09	3998.92
831.417	3986.27
831.743	4040.73
832.069	4006.83
832.395	3982.42
832.722	4017.68
833.048	3993.04
833.374	4037.56
833.7	4018.35
834.026	4005.02
834.351	3997.34
834.677	3940.62
835.003	3998.24
835.329	3988.3
835.654	3944.91
835.98	3950.79
836.306	3952.82
836.631	3979.71
836.956	3974.51
837.282	3934.06
837.607	3900.39
837.932	3959.6
838.258	3906.72
838.583	3854.97
838.908	3903.33
839.233	3925.93
839.558	3925.02
839.883	3871.92
840.208	3870.79
840.533	3910.34
840.858	3892.48
841.182	3876.21
841.507	3884.12
841.832	3844.8
842.156	3828.08
842.481	3822.2
842.805	3817.91
843.13	3809.09
843.454	3790.79
843.778	3797.34
844.103	3784.01
844.427	3754.63
844.751	3767.29
845.075	3723.67
845.399	3763.22
845.723	3734.29
846.047	3712.6
846.371	3704.46
846.695	3715.54
847.019	3654.75
847.343	3711.92
847.666	3652.04
847.99	3669.66
848.313	3673.96
848.637	3610.68
848.96	3619.5
849.284	3649.32
849.607	3587.63
849.931	3591.02
850.254	3546.05
850.577	3527.75
850.9	3512.83
851.223	3509.67
851.546	3514.41
851.869	3455.43
852.192	3487.52
852.515	3469.67
852.838	3444.36
853.161	3474.87
853.483	3457.47
853.806	3431.03
854.129	3444.81
854.451	3385.83
854.774	3393.96
855.096	3334.53
855.419	3353.06
855.741	3331.59
856.063	3344.93
856.385	3367.3
856.708	3354.42
857.03	3333.63
857.352	3303.12
857.674	3301.76
857.996	3333.18
858.318	3301.76
858.64	3263.35
858.961	3271.71
859.283	3312.84
859.605	3246.85
859.926	3257.92
860.248	3311.93
860.57	3249.11
860.891	3222.67
861.212	3220.86
861.534	3196.91
861.855	3224.7
862.176	3202.11
862.498	3194.2
862.819	3200.3
863.14	3208.43
863.461	3144.03
863.782	3157.59
864.103	3132.05
864.424	3138.83
864.745	3176.57
865.065	3164.14
865.386	3166.4
865.707	3157.36
866.027	3134.31
866.348	3096.12
866.668	3089.79
866.989	3112.84
867.309	3090.47
867.63	3110.81
867.95	3066.06
868.27	3076.23
868.59	3084.37
868.91	3087.98
869.23	3084.37
869.55	3065.16
869.87	3074.65
870.19	3089.57
870.51	3066.52
870.83	3016.57
871.15	3011.83
871.469	3022.45
871.789	3038.04
872.109	3015.44
872.428	3038.95
872.748	3055.89
873.067	3046.63
873.386	3020.64
873.706	3031.49
874.025	2984.94
874.344	2984.94
874.663	3000.3
874.982	2982.22
875.301	2957.37
875.62	2970.47
875.939	2941.55
876.258	2945.39
876.577	2963.24
876.896	2934.32
877.214	2946.52
877.533	2957.14
877.852	2980.87
878.17	2989.23
878.489	2942.9
878.807	2949.68
879.125	2934.09
879.444	2943.81
879.762	2945.16
880.08	2940.42
880.398	2901.77
880.716	2885.73
881.034	2904.94
881.352	2892.51
881.67	2923.69
881.988	2929.57
882.306	2939.51
882.624	2843.7
882.941	2834.66
883.259	2878.27
883.577	2872.62
883.894	2845.05
884.212	2838.95
884.529	2833.53
884.846	2820.19
885.164	2832.17
885.481	2804.15
885.798	2809.35
886.115	2772.29
886.432	2767.31
886.75	2762.79
887.067	2775.9
887.383	2727.99
887.7	2747.65
888.017	2737.26
888.334	2722.8
888.651	2730.71
888.967	2749.91
889.284	2719.86
889.6	2739.29
889.917	2734.77
890.233	2716.47
890.55	2693.19
890.866	2641.22
891.182	2723.47
891.498	2680.76
891.815	2691.38
892.131	2703.14
892.447	2726.19
892.763	2663.81
893.079	2698.39
893.395	2662.23
893.71	2685.96
894.026	2648
894.342	2612.74
894.657	2611.16
894.973	2580.43
895.289	2607.09
895.604	2620.2
895.92	2582.91
896.235	2572.29
896.55	2572.52
896.865	2584.49
897.181	2576.36
897.496	2572.52
897.811	2542.24
898.126	2543.82
898.441	2526.19
898.756	2526.87
899.071	2507.43
899.386	2539.75
899.7	2477.6
900.015	2510.82
900.33	2518.06
900.644	2502.01
900.959	2491.39
901.273	2478.28
901.588	2497.72
901.902	2502.24
902.216	2450.26
902.531	2463.59
902.845	2426.76
903.159	2432.41
903.473	2407.32
903.787	2417.27
904.101	2392.18
904.415	2407.55
904.729	2446.19
905.042	2396.25
905.356	2357.61
905.67	2375.46
905.984	2357.16
906.297	2333.88
906.611	2316.25
906.924	2350.38
907.237	2338.85
907.551	2328
907.864	2317.61
908.177	2340.66
908.491	2316.03
908.804	2294.56
909.117	2306.76
909.43	2259.53
909.743	2271.51
910.056	2275.35
910.368	2244.16
910.681	2222.7
910.994	2231.28
911.307	2231.96
911.619	2214.56
911.932	2213.66
912.244	2204.84
912.557	2196.26
912.869	2191.74
913.181	2170.04
913.494	2160.32
913.806	2155.35
914.118	2177.5
914.43	2175.24
914.742	2139.31
915.054	2162.58
915.366	2138.4
915.678	2113.32
915.99	2130.95
916.302	2118.74
916.613	2106.99
916.925	2108.12
917.236	2065.41
917.548	2076.26
917.859	2047.56
918.171	2029.25
918.482	2074.45
918.794	2083.04
919.105	2038.29
919.416	2038.97
919.727	2095.02
920.038	2027.45
920.349	1998.75
920.66	2013.66
920.971	2006.43
921.282	2003.49
921.593	1983.83
921.903	2003.94
922.214	1983.38
922.525	1948.58
922.835	1964.17
923.146	1958.52
923.456	1934.34
923.767	1956.71
924.077	1948.8
924.387	1932.53
924.697	1918.97
925.008	1918.07
925.318	1883.27
925.628	1907.45
925.938	1886.89
926.248	1900.67
926.558	1870.39
926.867	1873.78
927.177	1852.99
927.487	1882.82
927.796	1846.89
928.106	1863.61
928.416	1848.47
928.725	1811.18
929.034	1824.74
929.344	1794.23
929.653	1827.68
929.962	1798.75
930.271	1786.78
930.581	1783.61
930.89	1769.6
931.199	1757.17
931.508	1805.31
931.817	1763.95
932.125	1763.95
932.434	1763.27
932.743	1747.23
933.051	1735.25
933.36	1740.9
933.669	1733.67
933.977	1748.81
934.286	1733.9
934.594	1728.02
934.902	1733.44
935.21	1704.29
935.519	1693.44
935.827	1716.95
936.135	1730.51
936.443	1716.72
936.751	1677.4
937.059	1670.17
937.367	1629.04
937.674	1668.81
937.982	1607.34
938.29	1631.98
938.597	1618.19
938.905	1617.51
939.213	1615.71
939.52	1654.12
939.827	1615.48
940.135	1632.65
940.442	1628.36
940.749	1599.44
941.056	1567.12
941.363	1577.97
941.67	1578.19
941.977	1571.64
942.284	1526.89
942.591	1550.4
942.898	1558.76
943.205	1575.71
943.511	1548.14
943.818	1549.49
944.125	1562.37
944.431	1534.35
944.738	1525.76
945.044	1525.09
945.35	1508.14
945.657	1520.57
945.963	1513.56
946.269	1507.01
946.575	1472.21
946.881	1493
947.187	1473.79
947.493	1451.42
947.799	1467.91
948.105	1421.59
948.41	1451.19
948.716	1385.66
949.022	1453.45
949.327	1436.95
949.633	1434.24
949.938	1428.14
950.244	1420.01
950.549	1431.98
950.854	1396.28
951.16	1403.96
951.465	1417.52
951.77	1394.92
952.075	1398.31
952.38	1406.22
952.685	1394.47
952.99	1392.66
953.294	1375.26
953.599	1389.95
953.904	1396.28
954.209	1374.81
954.513	1360.12
954.818	1338.43
955.122	1310.4
955.426	1338.2
955.731	1327.58
956.035	1358.76
956.339	1327.13
956.643	1336.39
956.948	1337.97
957.252	1318.31
957.556	1311.31
957.86	1328.03
958.163	1323.74
958.467	1302.49
958.771	1277.86
959.075	1288.03
959.378	1263.62
959.682	1307.24
959.985	1277.86
960.289	1299.33
960.592	1263.17
960.896	1278.54
961.199	1275.38
961.502	1227.92
961.805	1247.58
962.108	1227.69
962.411	1238.77
962.714	1246
963.017	1215.49
963.32	1234.93
963.623	1236.96
963.926	1227.24
964.228	1214.59
964.531	1202.16
964.833	1204.42
965.136	1206
965.438	1198.54
965.741	1201.25
966.043	1182.27
966.345	1174.59
966.648	1187.47
966.95	1174.14
967.252	1178.88
967.554	1131.43
967.856	1147.02
968.158	1156.51
968.46	1148.6
968.761	1132.33
969.063	1158.77
969.365	1140.01
969.666	1147.47
969.968	1137.3
970.269	1124.87
970.571	1103.63
970.872	1109.96
971.174	1110.86
971.475	1116.06
971.776	1092.33
972.077	1095.04
972.378	1115.38
972.679	1096.17
972.98	1084.65
973.281	1093.91
973.582	1087.36
973.883	1098.88
974.183	1058.88
974.484	1074.7
974.785	1056.85
975.085	1064.76
975.386	1064.99
975.686	1067.47
975.986	1073.35
976.287	1062.73
976.587	1022.5
976.887	1062.27
977.187	1051.2
977.487	1064.99
977.787	1054.36
978.087	1012.11
978.387	1040.35
978.687	1039.45
978.987	1009.85
979.286	1040.13
979.586	1016.85
979.885	1003.97
980.185	1015.72
980.484	1021.15
980.784	1012.56
981.083	1015.95
981.382	998.77
981.682	987.02
981.981	982.73
982.28	995.84
982.579	998.32
982.878	989.73
983.177	961.49
983.475	1002.16
983.774	979.56
984.073	948.15
984.372	966.01
984.67	959.23
984.969	940.7
985.267	940.92
985.566	941.83
985.864	932.56
986.162	929.62
986.461	939.57
986.759	917.42
987.057	928.94
987.355	948.15
987.653	911.32
987.951	925.33
988.249	922.62
988.547	929.4
988.844	900.92
989.142	896.63
989.44	919
989.737	876.29
990.035	910.87
990.332	911.77
990.63	893.24
990.927	886.23
991.224	873.13
991.521	892.34
991.819	878.32
992.116	878.32
992.413	875.39
992.71	914.26
993.006	877.19
993.303	880.58
993.6	881.94
993.897	861.38
994.193	855.73
994.49	863.18
994.787	866.12
995.083	826.57
995.379	838.33
995.676	823.64
995.972	837.87
996.268	818.66
996.565	836.74
996.861	846.46
997.157	831.77
997.453	828.61
997.749	809.63
998.044	817.08
998.34	826.35
998.636	805.56
998.932	821.83
999.227	810.08
999.523	811.43
999.818	796.07
1000.114	792.45
1000.409	812.11
1000.704	813.02
1001	772.11
1001.295	765.78
1001.59	790.64
1001.885	759.23
1002.18	764.66
1002.475	778.21
1002.77	749.51
1003.065	780.47
1003.359	773.69
1003.654	758.78
1003.949	772.34
1004.243	775.28
1004.538	778.44
1004.832	750.64
1005.127	742.96
1005.421	744.09
1005.715	730.76
1006.009	762.4
1006.304	744.32
1006.598	720.36
1006.892	732.79
1007.186	718.78
1007.48	729.85
1007.773	730.53
1008.067	707.48
1008.361	723.75
1008.655	719.68
1008.948	694.83
1009.242	730.53
1009.535	728.05
1009.829	709.06
1010.122	721.94
1010.415	704.09
1010.708	708.39
1011.001	693.47
1011.295	700.02
1011.588	684.43
1011.881	697.31
1012.173	705.45
1012.466	685.11
1012.759	670.87
1013.052	667.03
1013.344	647.82
1013.637	665
1013.93	679.69
1014.222	664.77
1014.514	688.72
1014.807	644.66
1015.099	630.87
1015.391	681.04
1015.683	677.43
1015.976	654.15
1016.268	637.43
1016.56	636.75
1016.851	669.29
1017.143	647.82
1017.435	644.43
1017.727	654.38
1018.018	629.97
1018.31	641.95
1018.602	644.88
1018.893	636.07
1019.185	632
1019.476	614.6
1019.767	644.66
1020.058	638.1
1020.35	613.25
1020.641	599.91
1020.932	616.18
1021.223	611.21
1021.514	602.4
1021.804	604.66
1022.095	611.66
1022.386	603.98
1022.677	589.52
1022.967	597.43
1023.258	597.65
1023.548	591.1
1023.839	582.96
1024.129	592.46
1024.419	578.22
1024.709	572.34
1025	572.57
1025.29	577.77
1025.58	579.35
1025.87	573.47
1026.16	591.1
1026.449	561.5
1026.739	546.81
1027.029	540.93
1027.319	580.48
1027.608	558.78
1027.898	565.56
1028.187	538.9
1028.477	549.07
1028.766	559.24
1029.055	575.96
1029.344	576.41
1029.634	543.64
1029.923	551.1
1030.212	539.12
1030.501	517.66
1030.79	545.23
1031.078	526.24
1031.367	510.65
1031.656	544.1
1031.945	536.64
1032.233	523.31
1032.522	526.7
1032.81	519.92
1033.099	535.06
1033.387	543.64
1033.675	517.43
1033.963	521.27
1034.251	519.92
1034.54	521.05
1034.828	525.34
1035.116	490.31
1035.403	502.52
1035.691	498.67
1035.979	518.56
1036.267	491.67
1036.554	493.25
1036.842	501.39
1037.129	511.55
1037.417	484.21
1037.704	482.4
1037.992	486.47
1038.279	468.17
1038.566	465.45
1038.853	465.45
1039.14	465.45
