Data from black_metal_pc_casing_FLMS001491_00013.txt Node
Date: Wed Feb 08 14:32:02 GMT 2017
User: dcchb
Spectrometer: FLMS00149
Trigger mode: 0
Integration Time (sec): 2.000000E-2
Scans to average: 10
Electric dark correction enabled: true
Nonlinearity correction enabled: false
Boxcar width: 0
XAxis mode: Wavelengths
Number of Pixels in Spectrum: 2048
>>>>>Begin Spectral Data<<<<<
341.393	-10.93
341.776	-10.93
342.16	-10.93
342.543	-73.98
342.927	-78.95
343.31	-68.11
343.693	-58.39
344.077	-78.95
344.46	-57.71
344.843	-42.12
345.226	-39.63
345.61	-49.35
345.993	-16.13
346.376	4.43
346.759	11.67
347.142	30.2
347.525	24.1
347.908	64.77
348.291	63.64
348.674	97.99
349.057	113.58
349.44	109.29
349.823	152.91
350.206	148.61
350.588	167.82
350.971	187.71
351.354	212.34
351.737	221.6
352.119	229.29
352.502	244.88
352.884	255.73
353.267	257.54
353.65	260.25
354.032	286.24
354.414	292.56
354.797	304.77
355.179	316.74
355.562	302.51
355.944	307.48
356.326	310.64
356.709	321.71
357.091	299.34
357.473	335.73
357.855	340.25
358.238	323.3
358.62	326.01
359.002	310.64
359.384	333.92
359.766	313.13
360.148	339.79
360.53	314.94
360.912	322.17
361.294	306.12
361.676	318.78
362.057	319.91
362.439	327.82
362.821	319.68
363.203	297.08
363.584	314.26
363.966	287.82
364.348	322.62
364.729	313.81
365.111	299.79
365.493	300.92
365.874	314.26
366.256	333.47
366.637	304.54
367.019	312.9
367.4	292.56
367.781	314.26
368.163	310.64
368.544	297.08
368.925	320.81
369.306	316.29
369.688	314.71
370.069	274.94
370.45	306.8
370.831	311.77
371.212	309.51
371.593	300.7
371.974	291.88
372.355	301.6
372.736	308.83
373.117	330.3
373.498	310.64
373.879	291.43
374.26	313.58
374.641	303.41
375.021	309.06
375.402	294.6
375.783	325.1
376.163	326.01
376.544	316.74
376.925	316.29
377.305	325.1
377.686	318.78
378.066	332.11
378.447	313.35
378.827	316.29
379.208	333.69
379.588	312.9
379.968	320.58
380.349	336.63
380.729	330.08
381.109	335.27
381.489	327.14
381.87	320.36
382.25	313.81
382.63	328.95
383.01	320.36
383.39	333.47
383.77	336.18
384.15	357.87
384.53	340.92
384.91	331.66
385.29	329.17
385.67	335.73
386.049	341.38
386.429	353.8
386.809	353.8
387.189	341.83
387.568	350.41
387.948	350.64
388.328	356.74
388.707	335.95
389.087	354.71
389.466	331.88
389.846	378.21
390.225	357.19
390.605	357.65
390.984	365.56
391.363	348.38
391.743	380.24
392.122	365.1
392.501	364.65
392.881	361.26
393.26	383.63
393.639	396.97
394.018	359
394.397	379.79
394.776	368.04
395.155	357.42
395.534	383.18
395.913	376.18
396.292	366.46
396.671	373.69
397.05	408.49
397.429	392.22
397.808	383.63
398.186	382.96
398.565	362.17
398.944	397.64
399.323	388.61
399.701	409.17
400.08	386.8
400.458	402.16
400.837	395.39
401.215	406.23
401.594	387.7
401.972	393.8
402.351	405.78
402.729	432.67
403.107	393.58
403.486	423.63
403.864	408.72
404.242	408.94
404.62	411.66
404.999	417.98
405.377	414.14
405.755	420.24
406.133	421.15
406.511	407.81
406.889	431.77
407.267	449.17
407.645	441.71
408.023	438.32
408.401	447.81
408.779	424.76
409.156	434.93
409.534	461.37
409.912	430.19
410.29	452.11
410.667	461.37
411.045	455.72
411.422	456.63
411.8	446.68
412.178	456.4
412.555	479.9
412.933	467.02
413.31	485.1
413.687	495.95
414.065	451.43
414.442	481.71
414.819	491.2
415.197	513.12
415.574	484.42
415.951	488.04
416.328	509.05
416.705	510.18
417.082	493.69
417.46	502.73
417.837	512.9
418.214	513.35
418.591	528.26
418.967	515.16
419.344	533.01
419.721	530.52
420.098	527.58
420.475	525.78
420.852	528.49
421.228	521.94
421.605	544.31
421.982	554.25
422.358	547.47
422.735	557.41
423.111	571.88
423.488	551.99
423.864	553.57
424.241	561.26
424.617	556.74
424.994	562.16
425.37	569.62
425.746	574.82
426.123	575.72
426.499	573.23
426.875	578.66
427.251	589.73
427.627	590.41
428.003	606.45
428.379	602.16
428.756	588.83
429.132	610.29
429.507	612.55
429.883	617.75
430.259	648.03
430.635	638.77
431.011	640.35
431.387	654.36
431.763	630.86
432.138	631.09
432.514	662.27
432.89	641.93
433.265	667.92
433.641	697.52
434.016	685.09
434.392	679.22
434.767	687.35
435.143	687.13
435.518	702.27
435.894	710.41
436.269	730.07
436.644	711.99
437.02	725.55
437.395	718.77
437.77	750.18
438.145	735.26
438.52	745.88
438.895	745.21
439.271	762.38
439.646	770.97
440.021	771.19
440.395	766.67
440.77	778.43
441.145	779.78
441.52	786.56
441.895	787.24
442.27	779.78
442.645	808.48
443.019	787.92
443.394	796.05
443.769	798.09
444.143	782.72
444.518	814.81
444.892	796.96
445.267	841.7
445.641	835.6
446.016	831.76
446.39	829.5
446.764	818.88
447.139	825.66
447.513	831.08
447.887	838.99
448.262	862.49
448.636	831.76
449.01	881.93
449.384	862.72
449.758	867.24
450.132	902.72
450.506	874.02
450.88	881.47
451.254	926.67
451.628	907.01
452.002	910.63
452.376	905.88
452.75	913.56
453.123	917.63
453.497	950.17
453.871	951.75
454.244	963.96
454.618	959.44
454.992	987.01
455.365	950.17
455.739	991.3
456.112	1001.7
456.486	1006.22
456.859	983.62
457.232	1024.52
457.606	1007.12
457.979	1010.28
458.352	1047.57
458.725	1070.62
459.099	1063.16
459.472	1081.92
459.845	1079.21
460.218	1109.26
460.591	1087.34
460.964	1083.95
461.337	1131.86
461.71	1142.03
462.083	1153.11
462.456	1165.76
462.829	1197.4
463.201	1170.96
463.574	1185.65
463.947	1207.79
464.32	1214.57
464.692	1241.01
465.065	1241.46
465.438	1254.35
465.81	1249.15
466.183	1277.17
466.555	1306.55
466.928	1301.8
467.3	1323.27
467.672	1314.23
468.045	1328.24
468.417	1371.63
468.789	1362.59
469.161	1381.35
469.534	1376.6
469.906	1379.31
470.278	1436.71
470.65	1422.25
471.022	1467.22
471.394	1503.83
471.766	1493.66
472.138	1512.19
472.51	1511.97
472.882	1541.34
473.253	1561.68
473.625	1596.71
473.997	1575.92
474.369	1600.33
474.74	1645.3
475.112	1683.71
475.484	1676.71
475.855	1697.05
476.227	1709.02
476.598	1777.5
476.97	1781.56
477.341	1775.91
477.713	1808.23
478.084	1809.59
478.455	1871.73
478.827	1896.36
479.198	1941.33
479.569	1900.2
479.94	1973.2
480.311	2017.26
480.682	2026.98
481.053	2120.31
481.424	2093.65
481.795	2117.15
482.166	2145.17
482.537	2163.25
482.908	2223.81
483.279	2282.12
483.65	2317.14
484.021	2335
484.391	2310.81
484.762	2377.25
485.133	2370.02
485.503	2407.99
485.874	2459.51
486.244	2455.44
486.615	2496.57
486.985	2551.71
487.356	2559.62
487.726	2575.21
488.097	2608.21
488.467	2658.83
488.837	2710.13
489.207	2746.28
489.578	2775.44
489.948	2783.8
490.318	2813.4
490.688	2863.57
491.058	2845.94
491.428	2889.33
491.798	2894.98
492.168	2986.96
492.538	2962.32
492.908	3031.7
493.278	3092.94
493.648	3096.33
494.017	3116.67
494.387	3157.8
494.757	3147.4
495.126	3202.09
495.496	3202.77
495.866	3214.75
496.235	3251.36
496.605	3282.31
496.974	3353.27
497.344	3377.68
497.713	3372.03
498.082	3378.36
498.452	3405.7
498.821	3447.06
499.19	3453.61
499.559	3425.36
499.928	3479.82
500.298	3537.9
500.667	3540.39
501.036	3527.28
501.405	3561.63
501.774	3592.82
502.143	3598.46
502.512	3656.99
502.88	3665.81
503.249	3665.36
503.618	3721.63
503.987	3754.84
504.356	3758.01
504.724	3796.43
505.093	3736.09
505.462	3819.7
505.83	3835.97
506.199	3845.46
506.567	3890.89
506.936	3937.89
507.304	3939.47
507.672	3962.97
508.041	4003.65
508.409	4024.89
508.777	4059.24
509.145	4073.03
509.514	4076.87
509.882	4140.82
510.25	4126.59
510.618	4168.39
510.986	4166.36
511.354	4231.22
511.722	4233.48
512.09	4252.01
512.458	4282.29
512.826	4339.46
513.193	4330.87
513.561	4357.99
513.929	4450.19
514.297	4468.5
514.664	4485.45
515.032	4494.03
515.4	4519.57
515.767	4561.83
516.135	4553.24
516.502	4574.26
516.869	4617.19
517.237	4614.71
517.604	4635.27
517.972	4695.61
518.339	4736.74
518.706	4737.19
519.073	4745.78
519.44	4846.57
519.808	4883.85
520.175	4859.22
520.542	4931.31
520.909	4930.18
521.276	4967.69
521.643	5047.24
522.009	5083.62
522.376	5069.84
522.743	5133.34
523.11	5161.36
523.477	5191.64
523.843	5217.41
524.21	5280.68
524.577	5306.44
524.943	5359.1
525.31	5398.19
525.676	5404.07
526.043	5483.39
526.409	5473.22
526.776	5566.55
527.142	5569.03
527.508	5593.44
527.874	5629.82
528.241	5690.61
528.607	5672.31
528.973	5680.9
529.339	5735.36
529.705	5830.04
530.071	5848.58
530.437	5883.15
530.803	5931.74
531.169	5944.17
531.535	5921.34
531.901	5928.8
532.267	5970.83
532.632	6020.55
532.998	6046.54
533.364	6155.69
533.73	6138.51
534.095	6135.8
534.461	6224.84
534.826	6253.99
535.192	6218.73
535.557	6321.56
535.923	6258.73
536.288	6295.79
536.653	6355.23
537.019	6340.54
537.384	6397.94
537.749	6411.95
538.114	6365.85
538.479	6436.36
538.845	6552.96
539.21	6456.92
539.575	6509.8
539.94	6536.47
540.305	6609.91
540.67	6527.43
541.034	6580.31
541.399	6629.35
541.764	6630.25
542.129	6666.63
542.494	6699.85
542.858	6702.34
543.223	6706.41
543.587	6808.32
543.952	6776.91
544.316	6834.31
544.681	6823.01
545.045	6845.38
545.41	6913.63
545.774	6897.14
546.138	6904.14
546.503	6974.2
546.867	6983.23
547.231	7056.23
547.595	7004.25
547.959	7054.87
548.324	7040.86
548.688	7105.27
549.052	7070.46
549.416	7075.44
549.779	7123.57
550.143	7100.29
550.507	7187.97
550.871	7240.63
551.235	7274.3
551.599	7248.54
551.962	7269.78
552.326	7295.09
552.689	7364.92
553.053	7377.57
553.417	7360.85
553.78	7521.98
554.143	7433.39
554.507	7452.83
554.87	7504.12
555.234	7554.29
555.597	7573.73
555.96	7556.55
556.323	7593.39
556.686	7614.4
557.05	7711.58
557.413	7680.39
557.776	7691.69
558.139	7782.31
558.502	7791.35
558.865	7757.9
559.228	7893.49
559.59	7883.55
559.953	7970.1
560.316	7956.32
560.679	7923.55
561.041	8058.23
561.404	8079.02
561.767	8106.59
562.129	8079.02
562.492	8209.64
562.854	8201.96
563.217	8185.24
563.579	8273.82
563.941	8289.87
564.304	8315.4
564.666	8424.1
565.028	8382.07
565.39	8473.59
565.753	8445.79
566.115	8562.63
566.477	8572.57
566.839	8585.23
567.201	8673.13
567.563	8625.68
567.925	8661.61
568.287	8691.21
568.648	8729.4
569.01	8737.76
569.372	8859.57
569.734	8826.8
570.095	8872.45
570.457	8944.76
570.819	8954.26
571.18	8936.18
571.542	9017.98
571.903	8996.97
572.265	9044.2
572.626	9035.84
572.987	9083.52
573.349	9119.68
573.71	9187.47
574.071	9141.6
574.432	9159.45
574.794	9276.73
575.155	9241.93
575.516	9188.6
575.877	9244.87
576.238	9270.18
576.599	9286.22
576.96	9360.35
577.32	9314.7
577.681	9285.77
578.042	9424.3
578.403	9353.57
578.763	9390.4
579.124	9417.07
579.485	9456.84
579.845	9453.9
580.206	9493.9
580.566	9467.91
580.927	9501.36
581.287	9551.3
581.648	9493.22
582.008	9557.4
582.368	9557.63
582.728	9616.16
583.089	9507.91
583.449	9507.69
583.809	9608.48
584.169	9622.04
584.529	9586.56
584.889	9594.47
585.249	9562.83
585.609	9481.25
585.969	9537.97
586.329	9528.25
586.688	9622.04
587.048	9606.89
587.408	9533.9
587.768	9583.17
588.127	9584.3
588.487	9539.78
588.846	9619.1
589.206	9550.85
589.565	9527.35
589.925	9657.51
590.284	9561.7
590.643	9593.79
591.003	9668.14
591.362	9621.13
591.721	9521.47
592.08	9576.39
592.44	9624.29
592.799	9637.18
593.158	9572.54
593.517	9624.97
593.876	9591.08
594.235	9636.05
594.593	9594.01
594.952	9638.76
595.311	9650.96
595.67	9705.42
596.029	9701.81
596.387	9633.56
596.746	9719.66
597.104	9633.11
597.463	9692.99
597.822	9747.91
598.18	9634.46
598.538	9669.72
598.897	9680.79
599.255	9615.71
599.613	9775.48
599.972	9714.46
600.33	9736.16
600.688	9745.65
601.046	9787.45
601.404	9790.62
601.762	9806.21
602.12	9815.02
602.478	9847.57
602.836	9834.46
603.194	9810.73
603.552	9781.58
603.91	9779.77
604.268	9820.45
604.625	9831.3
604.983	9830.17
605.341	9810.96
605.698	9902.25
606.056	9909.26
606.413	9888.24
606.771	9917.17
607.128	9904.51
607.485	9869.49
607.843	9866.55
608.2	9923.04
608.557	9923.72
608.914	9938.86
609.272	9947.45
609.629	10015.47
609.986	10003.72
610.343	10020.44
610.7	10045.98
611.057	9993.1
611.414	9991.06
611.771	10105.41
612.127	10083.94
612.484	10076.94
612.841	10119.2
613.198	10053.89
613.554	10062.93
613.911	10131.17
614.267	10142.02
614.624	10070.61
614.98	10059.09
615.337	10192.87
615.693	10147.9
616.05	10182.7
616.406	10231.96
616.762	10090.95
617.118	10222.02
617.475	10189.48
617.831	10257.05
618.187	10222.7
618.543	10236.26
618.899	10293.2
619.255	10278.97
619.611	10263.83
619.967	10310.15
620.323	10305.63
620.678	10251.62
621.034	10244.84
621.39	10236.93
621.746	10256.14
622.101	10318.74
622.457	10273.09
622.812	10332.52
623.168	10315.35
623.523	10311.06
623.879	10317.16
624.234	10299.53
624.589	10323.26
624.945	10419.98
625.3	10300.66
625.655	10343.37
626.01	10323.94
626.365	10285.07
626.72	10291.62
627.075	10363.26
627.43	10324.62
627.785	10251.17
628.14	10330.49
628.495	10278.06
628.85	10266.09
629.205	10262.24
629.559	10304.73
629.914	10336.59
630.269	10234.22
630.623	10235.13
630.978	10238.52
631.332	10335.46
631.687	10278.06
632.041	10241
632.396	10274
632.75	10234.9
633.104	10268.35
633.459	10142.7
633.813	10190.61
634.167	10250.27
634.521	10155.81
634.875	10191.74
635.229	10116.49
635.583	10132.3
635.937	10165.3
636.291	10156.48
636.645	10116.71
636.999	10142.47
637.352	10143.38
637.706	10048.01
638.06	10115.36
638.413	10071.51
638.767	9948.58
639.121	9994.68
639.474	9968.01
639.828	9944.74
640.181	10030.84
640.534	9969.14
640.888	9938.86
641.241	9914.91
641.594	10011.86
641.947	9922.82
642.301	9903.84
642.654	9923.04
643.007	9869.49
643.36	9905.64
643.713	9874.68
644.066	9940.67
644.419	9833.55
644.771	9732.77
645.124	9688.25
645.477	9666.55
645.83	9587.01
646.182	9605.09
646.535	9562.15
646.888	9562.15
647.24	9500.68
647.593	9526.67
647.945	9584.75
648.298	9469.27
648.65	9469.5
649.002	9437.18
649.355	9422.27
649.707	9517.63
650.059	9479.21
650.411	9620.68
650.763	9670.17
651.115	9700.9
651.467	9611.41
651.819	9603.05
652.171	9641.92
652.523	9600.11
652.875	9576.39
653.227	9549.72
653.578	9631.07
653.93	9600.57
654.282	9516.5
654.633	9526.9
654.985	9596.5
655.337	9565.99
655.688	9600.11
656.039	9548.82
656.391	9522.6
656.742	9488.71
657.094	9511.53
657.445	9563.28
657.796	9477.63
658.147	9511.53
658.498	9487.8
658.849	9523.96
659.2	9465.2
659.551	9446.67
659.902	9478.76
660.253	9484.86
660.604	9507.46
660.955	9466.78
661.306	9497.74
661.656	9499.55
662.007	9487.8
662.358	9452.55
662.708	9468.14
663.059	9488.71
663.409	9384.98
663.76	9413.68
664.11	9456.39
664.461	9507.24
664.811	9484.19
665.161	9433.34
665.511	9443.51
665.862	9445.54
666.212	9474.47
666.562	9432.66
666.912	9452.55
667.262	9389.5
667.612	9378.65
667.962	9394.7
668.312	9381.14
668.662	9413.23
669.011	9410.52
669.361	9453
669.711	9406.9
670.06	9360.57
670.41	9358.99
670.76	9324.42
671.109	9353.12
671.459	9355.83
671.808	9312.89
672.157	9388.37
672.507	9250.75
672.856	9273.34
673.205	9391.76
673.554	9316.51
673.904	9262.5
674.253	9307.69
674.602	9337.75
674.951	9194.7
675.3	9125.78
675.649	9249.39
675.998	9246.9
676.346	9237.86
676.695	9209.62
677.044	9173.01
677.393	9229.96
677.741	9205.32
678.09	9187.47
678.438	9195.83
678.787	9163.29
679.135	9171.2
679.484	9161.48
679.832	9158.09
680.181	9085.1
680.529	9165.1
680.877	9163.74
681.225	9063.41
681.573	9131.88
681.922	9090.3
682.27	9042.39
682.618	9059.56
682.966	9014.59
683.314	8974.37
683.661	9031.77
684.009	9011.66
684.357	8958.32
684.705	8902.51
685.053	8944.54
685.4	8928.27
685.748	8882.39
686.095	8850.98
686.443	8863.86
686.79	8819.12
687.138	8825.45
687.485	8761.04
687.832	8814.37
688.18	8788.38
688.527	8798.1
688.874	8781.15
689.221	8692.34
689.568	8700.48
689.915	8758.78
690.262	8742.28
690.609	8731.66
690.956	8618.67
691.303	8664.77
691.65	8545
691.997	8626.36
692.344	8476.08
692.69	8542.29
693.037	8588.39
693.383	8467.26
693.73	8496.42
694.077	8461.39
694.423	8441.28
694.769	8467.72
695.116	8394.95
695.462	8395.85
695.808	8352.69
696.155	8348.62
696.501	8346.14
696.847	8307.72
697.193	8305.23
697.539	8324.44
697.885	8147.27
698.231	8226.14
698.577	8181.85
698.923	8264.78
699.269	8124.9
699.614	8102.75
699.96	8185.24
700.306	8092.81
700.651	8098.23
700.997	8048.74
701.342	8064.56
701.688	8006.03
702.033	7942.98
702.379	7961.06
702.724	8001.06
703.069	8018.01
703.415	7917.22
703.76	7945.7
704.105	7911.12
704.45	7842.65
704.795	7857.79
705.14	7785.02
705.485	7808.98
705.83	7741.63
706.175	7832.25
706.52	7727.17
706.865	7806.72
707.209	7760.16
707.554	7680.62
707.899	7637.68
708.243	7586.61
708.588	7643.1
708.932	7650.11
709.277	7589.32
709.621	7608.3
709.966	7615.08
710.31	7563.11
710.654	7526.95
710.998	7542.77
711.342	7547.97
711.687	7510.45
712.031	7442.88
712.375	7466.61
712.719	7470.45
713.063	7383.45
713.407	7474.52
713.75	7400.62
714.094	7357.46
714.438	7372.83
714.782	7391.59
715.125	7220.52
715.469	7334.86
715.812	7314.07
716.156	7278.37
716.499	7306.62
716.843	7338.48
717.186	7236.79
717.53	7284.92
717.873	7178.48
718.216	7292.83
718.559	7164.47
718.902	7081.99
719.246	7195.88
719.589	7099.39
719.932	7187.52
720.275	7133.06
720.617	7156.56
720.96	7195.88
721.303	7105.49
721.646	7187.75
721.989	7118.82
722.331	7193.4
722.674	7070.01
723.016	7100.75
723.359	7106.4
723.701	7073.63
724.044	6988.43
724.386	6956.57
724.729	6998.6
725.071	7003.57
725.413	6927.64
725.755	6927.64
726.097	6983.91
726.439	6913.41
726.782	6944.14
727.124	6951.14
727.465	6957.7
727.807	6932.61
728.149	6881.77
728.491	6856.46
728.833	6871.6
729.175	6869.34
729.516	6857.81
729.858	6781.88
730.199	6873.18
730.541	6832.28
730.882	6808.55
731.224	6803.8
731.565	6774.65
731.906	6820.3
732.248	6783.92
732.589	6733.07
732.93	6717.48
733.271	6716.57
733.612	6800.41
733.953	6739.85
734.294	6686.52
734.635	6658.95
734.976	6740.08
735.317	6675.67
735.658	6681.1
735.999	6633.41
736.339	6658.27
736.68	6668.44
737.021	6617.14
737.361	6623.24
737.702	6624.6
738.042	6623.24
738.383	6586.86
738.723	6605.62
739.063	6552.74
739.404	6587.76
739.744	6558.84
740.084	6564.71
740.424	6547.31
740.764	6549.35
741.104	6541.21
741.444	6511.16
741.784	6475.9
742.124	6470.71
742.464	6481.33
742.804	6454.89
743.143	6486.98
743.483	6439.07
743.823	6370.14
744.162	6448.11
744.502	6489.24
744.841	6387.32
745.181	6404.72
745.52	6373.76
745.86	6379.63
746.199	6426.41
746.538	6348.22
746.877	6362.23
747.216	6367.43
747.556	6325.85
747.895	6343.03
748.234	6320.65
748.573	6318.85
748.911	6262.35
749.25	6337.15
749.589	6237.04
749.928	6259.64
750.267	6295.57
750.605	6267.32
750.944	6220.09
751.283	6165.4
751.621	6232.97
751.96	6208.11
752.298	6154.78
752.636	6165.63
752.975	6164.5
753.313	6124.95
753.651	6058.96
753.989	6115.23
754.327	6095.8
754.666	6100.77
755.004	6162.69
755.342	6056.03
755.679	6070.49
756.017	6020.77
756.355	6035.69
756.693	6038.4
757.031	6043.6
757.368	6034.56
757.706	6003.37
758.044	5977.16
758.381	5898.74
758.719	5923.38
759.056	5947.33
759.394	5891.06
759.731	5848.12
760.068	5847.45
760.405	5819.2
760.743	5815.36
761.08	5828.91
761.417	5837.05
761.754	5844.06
762.091	5749.59
762.428	5792.76
762.765	5709.6
763.102	5739.88
763.438	5743.95
763.775	5711.86
764.112	5710.95
764.449	5664.17
764.785	5663.27
765.122	5601.8
765.458	5605.19
765.795	5606.32
766.131	5566.77
766.467	5576.72
766.804	5561.8
767.14	5520
767.476	5530.17
767.812	5480.45
768.148	5520.45
768.485	5446.55
768.821	5428.7
769.157	5463.05
769.492	5390.28
769.828	5406.33
770.164	5347.8
770.5	5384.86
770.836	5376.5
771.171	5337.63
771.507	5307.35
771.842	5302.15
772.178	5313.45
772.513	5279.1
772.849	5204.98
773.184	5214.24
773.519	5179.67
773.855	5221.92
774.19	5158.42
774.525	5124.53
774.86	5127.92
775.195	5178.54
775.53	5174.02
775.865	5080.46
776.2	5091.98
776.535	5009.95
776.87	5017.41
777.205	4981.71
777.539	5008.15
777.874	5043.4
778.209	4941.71
778.543	4953.68
778.878	4941.03
779.212	4931.99
779.547	4880.46
779.881	4912.1
780.215	4862.61
780.55	4866.45
780.884	4868.04
781.218	4823.97
781.552	4852.89
781.886	4808.38
782.22	4805.66
782.554	4745.33
782.888	4730.41
783.222	4725.21
783.556	4688.38
783.889	4718.89
784.223	4649.96
784.557	4651.09
784.89	4650.64
785.224	4635.95
785.557	4618.32
785.891	4612
786.224	4541.49
786.558	4523.86
786.891	4563.41
787.224	4516.86
787.557	4537.88
787.891	4493.81
788.224	4467.37
788.557	4498.55
788.89	4494.71
789.223	4446.8
789.556	4434.37
789.888	4400.7
790.221	4381.95
790.554	4393.92
790.887	4362.74
791.219	4363.42
791.552	4336.3
791.884	4335.85
792.217	4289.52
792.549	4303.53
792.882	4293.36
793.214	4277.54
793.546	4261.05
793.879	4244.32
794.211	4226.47
794.543	4255.4
794.875	4215.85
795.207	4194.61
795.539	4214.27
795.871	4200.48
796.203	4135.4
796.535	4193.48
796.867	4142.63
797.198	4095.63
797.53	4103.99
797.862	4112.12
798.193	4096.53
798.525	4067.6
798.856	4074.16
799.188	4014.05
799.519	4025.35
799.85	4002.3
800.182	4026.93
800.513	4028.06
800.844	3976.76
801.175	4036.19
801.506	4036.42
801.837	3950.32
802.168	3947.38
802.499	3967.49
802.83	3948.29
803.161	3942.86
803.491	3885.91
803.822	3902.19
804.153	3895.41
804.483	3851.11
804.814	3846.14
805.145	3856.76
805.475	3838.01
805.805	3801.62
806.136	3824
806.466	3827.39
806.796	3839.59
807.126	3785.58
807.457	3774.05
807.787	3756.65
808.117	3753.26
808.447	3744.22
808.777	3783.54
809.107	3772.7
809.436	3763.66
809.766	3733.38
810.096	3707.16
810.426	3701.06
810.755	3708.07
811.085	3649.08
811.414	3665.36
811.744	3638.24
812.073	3665.81
812.403	3666.94
812.732	3635.98
813.061	3627.62
813.39	3619.03
813.719	3622.19
814.049	3599.82
814.378	3602.53
814.707	3602.98
815.036	3580.61
815.365	3552.59
815.693	3554.17
816.022	3551.23
816.351	3550.1
816.68	3564.57
817.008	3513.5
817.337	3527.51
817.665	3509.2
817.994	3496.77
818.322	3488.86
818.651	3532.48
818.979	3493.38
819.307	3484.57
819.636	3444.12
819.964	3449.32
820.292	3492.93
820.62	3441.18
820.948	3450.9
821.276	3421.07
821.604	3460.84
821.932	3468.07
822.259	3474.4
822.587	3446.83
822.915	3420.39
823.243	3472.82
823.57	3462.65
823.898	3450.22
824.225	3409.32
824.553	3426.27
824.88	3442.31
825.207	3414.51
825.535	3424.68
825.862	3411.58
826.189	3415.64
826.516	3418.81
826.843	3459.49
827.17	3414.74
827.497	3454.51
827.824	3417.9
828.151	3469.43
828.478	3423.1
828.805	3435.08
829.131	3453.84
829.458	3439.82
829.785	3370.67
830.111	3430.11
830.438	3434.63
830.764	3394.18
831.09	3440.28
831.417	3390.79
831.743	3410.67
832.069	3449.09
832.395	3389.43
832.722	3407.06
833.048	3443.89
833.374	3365.48
833.7	3379.71
834.026	3380.62
834.351	3367.06
834.677	3385.14
835.003	3425.81
835.329	3367.06
835.654	3380.39
835.98	3354.86
836.306	3358.25
836.631	3343.1
836.956	3363.67
837.282	3378.58
837.607	3333.39
837.932	3356.66
838.258	3319.38
838.583	3338.13
838.908	3303.11
839.233	3305.82
839.558	3318.25
839.883	3322.31
840.208	3311.24
840.533	3292.48
840.858	3318.47
841.182	3315.99
841.507	3277.8
841.832	3309.21
842.156	3274.41
842.481	3297.91
842.805	3305.37
843.13	3287.51
843.454	3267.4
843.778	3273.28
844.103	3253.84
844.427	3248.19
844.751	3247.51
845.075	3244.8
845.399	3215.2
845.723	3216.78
846.047	3245.25
846.371	3217.91
846.695	3184.01
847.019	3142.21
847.343	3164.58
847.666	3141.98
847.99	3119.16
848.313	3104.24
848.637	3098.82
848.96	3114.64
849.284	3037.12
849.607	3071.25
849.931	3048.2
850.254	3032.6
850.577	3026.05
850.9	2995.09
851.223	3007.52
851.546	3011.14
851.869	2987.86
852.192	2957.13
852.515	2934.08
852.838	2924.58
853.161	2936.79
853.483	2986.96
853.806	2887.75
854.129	2916
854.451	2915.54
854.774	2868.99
855.096	2881.65
855.419	2869.67
855.741	2911.7
856.063	2872.16
856.385	2866.05
856.708	2821.99
857.03	2839.61
857.352	2838.71
857.674	2801.2
857.996	2827.64
858.318	2828.54
858.64	2831.93
858.961	2805.27
859.283	2804.59
859.605	2775.21
859.926	2813.4
860.248	2788.54
860.57	2788.09
860.891	2764.36
861.212	2766.85
861.534	2769.56
861.855	2754.87
862.176	2756
862.498	2737.24
862.819	2735.89
863.14	2707.19
863.461	2694.53
863.782	2725.04
864.103	2686.85
864.424	2697.47
864.745	2732.5
865.065	2717.36
865.386	2692.95
865.707	2685.95
866.027	2678.94
866.348	2677.36
866.668	2697.02
866.989	2681.88
867.309	2645.95
867.63	2671.71
867.95	2640.07
868.27	2681.43
868.59	2658.83
868.91	2623.12
869.23	2641.65
869.55	2628.77
869.87	2633.07
870.19	2641.2
870.51	2636.46
870.83	2633.07
871.15	2624.03
871.469	2628.77
871.789	2641.88
872.109	2609.34
872.428	2609.56
872.748	2611.37
873.067	2630.35
873.386	2640.07
873.706	2608.43
874.025	2542.9
874.344	2585.84
874.663	2582.45
874.982	2596.68
875.301	2589
875.62	2568.21
875.939	2575.89
876.258	2536.8
876.577	2541.54
876.896	2567.98
877.214	2555.33
877.533	2544.48
877.852	2581.54
878.17	2519.62
878.489	2545.84
878.807	2539.74
879.125	2528.89
879.444	2512.62
879.762	2573.63
880.08	2493.18
880.398	2499.51
880.716	2507.65
881.034	2509
881.352	2505.16
881.67	2473.3
881.988	2488.44
882.306	2465.84
882.624	2467.87
882.941	2508.78
883.259	2444.37
883.577	2473.52
883.894	2447.53
884.212	2458.16
884.529	2455.67
884.846	2420.64
885.164	2445.5
885.481	2414.77
885.798	2445.73
886.115	2422.22
886.432	2398.72
886.75	2400.3
887.067	2405.73
887.383	2389
887.7	2422
888.017	2383.13
888.334	2400.98
888.651	2380.87
888.967	2401.89
889.284	2385.39
889.6	2350.59
889.917	2367.31
890.233	2369.34
890.55	2350.36
890.866	2359.4
891.182	2367.99
891.498	2331.83
891.815	2316.92
892.131	2330.25
892.447	2304.26
892.763	2321.44
893.079	2328.22
893.395	2311.49
893.71	2267.65
894.026	2300.19
894.342	2290.7
894.657	2222.68
894.973	2237.14
895.289	2308.33
895.604	2259.74
895.92	2258.61
896.235	2249.57
896.55	2255.22
896.865	2236.92
897.181	2241.89
897.496	2240.99
897.811	2231.04
898.126	2194.21
898.441	2195.56
898.756	2197.37
899.071	2221.1
899.386	2229.01
899.7	2190.14
900.015	2181.78
900.33	2153.53
900.644	2146.75
900.959	2143.14
901.273	2163.02
901.588	2157.82
901.902	2132.51
902.216	2139.07
902.531	2132.74
902.845	2113.53
903.159	2131.84
903.473	2084.83
903.787	2050.48
904.101	2094.78
904.415	2109.92
904.729	2073.99
905.042	2061.1
905.356	2092.29
905.67	2078.73
905.984	2047.55
906.297	2055
906.611	2037.38
906.924	2035.12
907.237	2025.17
907.551	2037.83
907.864	2019.07
908.177	2005.29
908.491	1993.31
908.804	1975.68
909.117	1998.05
909.43	1983.82
909.743	1965.06
910.056	1971.39
910.368	1936.59
910.681	1953.54
910.994	1920.77
911.307	1905.18
911.619	1939.75
911.932	1903.82
912.244	1937.94
912.557	1919.19
912.869	1904.05
913.181	1913.76
913.494	1874.89
913.806	1868.11
914.118	1881
914.43	1883.26
914.742	1843.71
915.054	1864.72
915.366	1843.26
915.678	1855.69
915.99	1844.84
916.302	1849.36
916.613	1842.8
916.925	1835.8
917.236	1817.04
917.548	1827.89
917.859	1790.6
918.171	1803.03
918.482	1794.9
918.794	1779.98
919.105	1775.91
919.416	1780.43
919.727	1748.8
920.038	1751.96
920.349	1769.36
920.66	1787.21
920.971	1745.18
921.282	1753.77
921.593	1690.27
921.903	1719.19
922.214	1713.09
922.525	1699.98
922.835	1725.52
923.146	1718.97
923.456	1707.21
923.767	1701.57
924.077	1694.56
924.387	1684.84
924.697	1656.37
925.008	1679.87
925.318	1652.75
925.628	1657.05
925.938	1628.35
926.248	1638.74
926.558	1608.01
926.867	1619.76
927.177	1611.4
927.487	1626.99
927.796	1608.91
928.106	1607.33
928.416	1609.59
928.725	1582.47
929.034	1606.2
929.344	1571.17
929.653	1594.45
929.962	1568.69
930.271	1539.31
930.581	1531.63
930.89	1548.35
931.199	1544.51
931.508	1575.47
931.817	1526.43
932.125	1554.68
932.434	1516.49
932.743	1523.04
933.051	1581.34
933.36	1543.6
933.669	1501.34
933.977	1515.58
934.286	1487.33
934.594	1483.72
934.902	1500.89
935.21	1470.39
935.519	1451.4
935.827	1470.39
936.135	1489.14
936.443	1452.76
936.751	1464.28
937.059	1470.84
937.367	1436.26
937.674	1417.28
937.982	1453.66
938.29	1434.45
938.597	1451.85
938.905	1412.99
939.213	1414.34
939.52	1408.47
939.827	1415.47
940.135	1443.49
940.442	1415.92
940.749	1396.71
941.056	1363.27
941.363	1389.26
941.67	1381.35
941.977	1372.31
942.284	1363.27
942.591	1370.5
942.898	1345.19
943.205	1361.69
943.511	1344.29
943.818	1349.26
944.125	1349.26
944.431	1341.8
944.738	1345.87
945.044	1325.08
945.35	1324.4
945.657	1304.29
945.963	1298.19
946.269	1321.01
946.575	1295.47
946.881	1328.47
947.187	1305.42
947.493	1312.2
947.799	1306.77
948.105	1287.11
948.41	1286.21
948.716	1288.47
949.022	1262.93
949.327	1292.08
949.633	1262.25
949.938	1246.66
950.244	1241.46
950.549	1253.22
950.854	1255.7
951.16	1237.62
951.465	1219.09
951.77	1241.24
952.075	1230.39
952.38	1229.71
952.685	1215.48
952.99	1186.55
953.294	1242.59
953.599	1227.45
953.904	1203.27
954.209	1205.31
954.513	1184.06
954.818	1190.62
955.122	1175.7
955.426	1180.22
955.731	1177.51
956.035	1156.04
956.339	1162.82
956.643	1145.2
956.948	1162.82
957.252	1146.1
957.556	1131.64
957.86	1148.13
958.163	1166.66
958.467	1131.64
958.771	1122.15
959.075	1130.06
959.378	1123.5
959.682	1127.57
959.985	1138.64
960.289	1123.73
960.592	1132.54
960.896	1105.65
961.199	1122.15
961.502	1105.42
961.805	1102.94
962.108	1107
962.411	1100
962.714	1087.12
963.017	1085.76
963.32	1099.77
963.623	1088.7
963.926	1097.74
964.228	1076.05
964.531	1057.74
964.833	1090.28
965.136	1052.54
965.438	1048.7
965.741	1055.25
966.043	1077.85
966.345	1023.62
966.648	1042.15
966.95	1052.32
967.252	1043.96
967.554	1053.45
967.856	1055.93
968.158	1033.56
968.46	1057.51
968.761	987.23
969.063	1016.84
969.365	1015.93
969.666	1036.27
969.968	1012.54
970.269	1007.12
970.571	997.63
970.872	988.14
971.174	996.27
971.475	989.49
971.776	982.49
972.077	1011.41
972.378	996.27
972.679	1010.51
972.98	993.11
973.281	980.68
973.582	969.16
973.883	963.96
974.183	961.7
974.484	953.56
974.785	963.05
975.085	960.34
975.386	945.43
975.686	960.79
975.986	952.21
976.287	955.6
976.587	929.38
976.887	942.04
977.187	974.13
977.487	935.03
977.787	920.12
978.087	907.91
978.387	941.59
978.687	937.52
978.987	931.42
979.286	904.75
979.586	929.38
979.885	890.97
980.185	909.5
980.484	911.3
980.784	894.81
981.083	907.69
981.382	884.86
981.682	867.69
981.981	893.9
982.28	903.39
982.579	898.87
982.878	866.56
983.177	888.25
983.475	867.92
983.774	876.28
984.073	877.86
984.372	870.63
984.67	864.3
984.969	855.26
985.267	873.79
985.566	882.15
985.864	858.88
986.162	884.41
986.461	871.08
986.759	850.29
987.057	828.37
987.355	840.35
987.653	825.66
987.951	818.65
988.249	845.54
988.547	837.63
988.844	818.42
989.142	854.58
989.44	859.33
989.737	807.35
990.035	806.45
990.332	848.03
990.63	798.99
990.927	821.14
991.224	815.49
991.521	812.55
991.819	811.65
992.116	792.89
992.413	820.68
992.71	816.39
993.006	802.83
993.303	791.76
993.6	780.46
993.897	769.16
994.193	777.97
994.49	758.99
994.787	772.55
995.083	769.84
995.379	786.11
995.676	779.1
995.972	773.23
996.268	752.21
996.565	754.92
996.861	744.3
997.157	762.61
997.453	743.17
997.749	770.06
998.044	715.83
998.34	742.04
998.636	726.22
998.932	743.4
999.227	720.57
999.523	723.06
999.818	723.51
1000.114	731.42
1000.409	729.61
1000.704	731.42
1001	731.42
1001.295	716.51
1001.59	716.73
1001.885	711.76
1002.18	713.34
1002.475	693
1002.77	694.59
1003.065	702.95
1003.359	707.24
1003.654	710.41
1003.949	715.38
1004.243	691.42
1004.538	681.25
1004.832	720.12
1005.127	702.72
1005.421	698.65
1005.715	684.87
1006.009	687.35
1006.304	686.45
1006.598	681.48
1006.892	678.54
1007.186	679.9
1007.48	657.98
1007.773	673.34
1008.067	684.87
1008.361	648.71
1008.655	648.03
1008.948	683.51
1009.242	653.91
1009.535	661.59
1009.829	654.59
1010.122	672.89
1010.415	642.38
1010.708	631.76
1011.001	644.19
1011.295	630.18
1011.588	641.25
1011.881	644.64
1012.173	640.35
1012.466	625.89
1012.759	634.02
1013.052	619.33
1013.344	630.63
1013.637	632.89
1013.93	649.39
1014.222	614.81
1014.514	626.79
1014.807	612.55
1015.099	611.42
1015.391	607.81
1015.683	601.71
1015.976	604.19
1016.268	593.8
1016.56	607.81
1016.851	607.58
1017.143	614.81
1017.435	588.6
1017.727	599.22
1018.018	608.26
1018.31	585.21
1018.602	594.02
1018.893	579.34
1019.185	584.98
1019.476	575.95
1019.767	590.41
1020.058	590.86
1020.35	594.02
1020.641	583.4
1020.932	577.75
1021.223	583.63
1021.514	573.69
1021.804	572.1
1022.095	551.31
1022.386	560.8
1022.677	558.09
1022.967	530.3
1023.258	552.9
1023.548	551.99
1023.839	530.75
1024.129	575.49
1024.419	551.99
1024.709	527.58
1025	538.88
1025.29	536.4
1025.58	539.79
1025.87	546.79
1026.16	549.73
1026.449	538.66
1026.739	532.33
1027.029	533.01
1027.319	519.68
1027.608	512.9
1027.898	531.65
1028.187	539.34
1028.477	515.38
1028.766	511.31
1029.055	544.08
1029.344	493.24
1029.634	529.84
1029.923	506.34
1030.212	521.48
1030.501	525.55
1030.79	521.94
1031.078	498.89
1031.367	518.77
1031.656	508.15
1031.945	501.6
1032.233	489.17
1032.522	473.8
1032.81	510.41
1033.099	493.91
1033.387	478.55
1033.675	468.6
1033.963	495.27
1034.251	484.87
1034.54	496.4
1034.828	481.48
1035.116	493.46
1035.403	500.47
1035.691	472.22
1035.979	459.56
1036.267	461.15
1036.554	480.13
1036.842	480.13
1037.129	474.25
1037.417	478.09
1037.704	482.61
1037.992	481.48
1038.279	461.82
1038.566	469.73
1038.853	469.73
1039.14	469.73
