Data from black_metal_pc_casing_FLMS001491_00016.txt Node
Date: Wed Feb 08 14:32:03 GMT 2017
User: dcchb
Spectrometer: FLMS00149
Trigger mode: 0
Integration Time (sec): 2.000000E-2
Scans to average: 10
Electric dark correction enabled: true
Nonlinearity correction enabled: false
Boxcar width: 0
XAxis mode: Wavelengths
Number of Pixels in Spectrum: 2048
>>>>>Begin Spectral Data<<<<<
341.393	-5.18
341.776	-5.18
342.16	-5.18
342.543	-56.48
342.927	-79.98
343.31	-66.2
343.693	-61.68
344.077	-69.36
344.46	-51.06
344.843	-56.48
345.226	-46.09
345.61	-31.4
345.993	0.92
346.376	-14.9
346.759	0.47
347.142	26.91
347.525	40.92
347.908	49.73
348.291	67.58
348.674	98.32
349.057	112.33
349.44	110.97
349.823	137.41
350.206	152.78
350.588	175.38
350.971	176.73
351.354	201.59
351.737	214.92
352.119	233.68
352.502	234.13
352.884	239.1
353.267	268.48
353.65	264.41
354.032	271.19
354.414	298.99
354.797	300.8
355.179	297.41
355.562	305.54
355.944	270.74
356.326	314.36
356.709	298.54
357.091	311.19
357.473	312.77
357.855	304.41
358.238	320.91
358.62	329.95
359.002	325.43
359.384	312.55
359.766	316.16
360.148	316.84
360.53	320.23
360.912	336.5
361.294	305.09
361.676	323.4
362.057	297.18
362.439	307.12
362.821	291.08
363.203	297.41
363.584	304.86
363.966	310.06
364.348	287.01
364.729	310.97
365.111	300.57
365.493	305.09
365.874	296.5
366.256	288.14
366.637	312.77
367.019	294.02
367.4	291.08
367.781	292.89
368.163	307.35
368.544	312.55
368.925	304.41
369.306	307.12
369.688	306.22
370.069	294.02
370.45	306.67
370.831	279.78
371.212	297.41
371.593	301.02
371.974	293.57
372.355	300.8
372.736	298.09
373.117	298.31
373.498	295.37
373.879	298.99
374.26	302.61
374.641	301.02
375.021	284.53
375.402	320.46
375.783	298.31
376.163	313.9
376.544	316.39
376.925	312.77
377.305	311.42
377.686	301.93
378.066	291.76
378.447	301.7
378.827	314.81
379.208	321.81
379.588	315.94
379.968	314.58
380.349	341.7
380.729	326.79
381.109	314.58
381.489	290.63
381.87	306.22
382.25	329.72
382.63	323.62
383.01	303.73
383.39	324.3
383.77	338.54
384.15	322.49
384.53	299.89
384.91	330.63
385.29	329.72
385.67	321.36
386.049	336.95
386.429	346.67
386.809	322.27
387.189	340.34
387.568	330.4
387.948	353.9
388.328	341.7
388.707	349.16
389.087	346.45
389.466	346.9
389.846	338.31
390.225	341.25
390.605	353
390.984	353.23
391.363	344.86
391.743	360
392.122	341.47
392.501	349.38
392.881	353.68
393.26	379.67
393.639	372.21
394.018	369.72
394.397	338.31
394.776	365.2
395.155	355.03
395.534	369.27
395.913	350.51
396.292	351.87
396.671	400.23
397.05	365.65
397.429	386.9
397.808	387.8
398.186	377.18
398.565	372.89
398.944	378.76
399.323	375.82
399.701	378.08
400.08	384.64
400.458	375.37
400.837	383.96
401.215	378.08
401.594	381.02
401.972	383.73
402.351	395.03
402.729	400.46
403.107	409.49
403.486	394.13
403.864	415.37
404.242	390.06
404.62	409.72
404.999	414.01
405.377	416.27
405.755	401.36
406.133	433.45
406.511	423.51
406.889	399.78
407.267	435.48
407.645	427.8
408.023	415.37
408.401	435.03
408.779	434.13
409.156	447.23
409.534	451.53
409.912	443.84
410.29	426.22
410.667	456.05
411.045	447.69
411.422	436.39
411.8	477.97
412.178	430.96
412.555	463.5
412.933	481.81
413.31	466.67
413.687	485.65
414.065	475.93
414.442	447.23
414.819	492.88
415.197	481.36
415.574	467.35
415.951	497.18
416.328	500.79
416.705	478.87
417.082	482.04
417.46	505.31
417.837	510.28
418.214	504.41
418.591	532.43
418.967	524.97
419.344	536.05
419.721	500.34
420.098	512.54
420.475	523.62
420.852	532.2
421.228	513.45
421.605	529.94
421.982	526.78
422.358	539.43
422.735	517.74
423.111	522.71
423.488	545.31
423.864	553.22
424.241	537.85
424.617	583.73
424.994	565.87
425.37	569.49
425.746	573.78
426.123	563.62
426.499	544.18
426.875	572.43
427.251	583.05
427.627	576.5
428.003	591.41
428.379	613.33
428.756	605.2
429.132	629.15
429.507	603.16
429.883	611.75
430.259	634.35
430.635	626.44
431.011	615.37
431.387	641.58
431.763	653.33
432.138	655.36
432.514	644.97
432.89	663.73
433.265	654.23
433.641	669.15
434.016	667.79
434.392	680
434.767	674.57
435.143	686.78
435.518	697.17
435.894	693.33
436.269	712.99
436.644	694.91
437.02	722.71
437.395	729.03
437.77	726.77
438.145	715.48
438.52	730.84
438.895	745.31
439.271	737.4
439.646	767.68
440.021	772.42
440.395	764.74
440.77	777.39
441.145	765.42
441.52	783.72
441.895	767.45
442.27	770.84
442.645	773.1
443.019	784.85
443.394	813.78
443.769	795.25
444.143	778.3
444.518	816.49
444.892	797.96
445.267	811.52
445.641	837.51
446.016	801.35
446.39	824.17
446.764	847.22
447.139	828.24
447.513	847.9
447.887	840.67
448.262	841.35
448.636	858.75
449.01	862.82
449.384	870.95
449.758	868.47
450.132	857.17
450.506	877.51
450.88	860.1
451.254	910.27
451.628	879.77
452.002	892.42
452.376	903.95
452.75	902.36
453.123	932.64
453.497	927.9
453.871	917.96
454.244	952.76
454.618	909.59
454.992	972.19
455.365	963.6
455.739	984.85
456.112	964.96
456.486	993.21
456.859	1005.41
457.232	1013.55
457.606	1016.48
457.979	1039.53
458.352	1046.77
458.725	1054
459.099	1059.87
459.472	1077.5
459.845	1090.38
460.218	1080.66
460.591	1104.39
460.964	1091.74
461.337	1118.85
461.71	1143.26
462.083	1153.88
462.456	1178.29
462.829	1162.92
463.201	1155.01
463.574	1144.62
463.947	1194.56
464.32	1220.55
464.692	1206.76
465.065	1216.25
465.438	1242.47
465.81	1240.66
466.183	1285.4
466.555	1285.86
466.928	1286.08
467.3	1302.8
467.672	1299.64
468.045	1313.43
468.417	1336.25
468.789	1347.32
469.161	1398.17
469.534	1409.69
469.906	1414.89
470.278	1376.7
470.65	1440.43
471.022	1444.04
471.394	1455.8
471.766	1491.5
472.138	1477.72
472.51	1502.12
472.882	1541.67
473.253	1550.93
473.625	1546.19
473.997	1608.79
474.369	1593.42
474.74	1633.19
475.112	1669.12
475.484	1685.39
475.855	1701.66
476.227	1719.74
476.598	1759.29
476.97	1774.88
477.341	1794.32
477.713	1819.18
478.084	1851.72
478.455	1868.89
478.827	1869.12
479.198	1963.8
479.569	1928.78
479.94	1956.8
480.311	1991.83
480.682	2043.35
481.053	2067.98
481.424	2077.47
481.795	2130.13
482.166	2171.26
482.537	2183.23
482.908	2230.01
483.279	2244.47
483.65	2287.86
484.021	2310.01
484.391	2327.41
484.762	2345.26
485.133	2358.14
485.503	2406.96
485.874	2425.71
486.244	2430.91
486.615	2512.26
486.985	2518.37
487.356	2527.63
487.726	2579.38
488.097	2616.67
488.467	2644.24
488.837	2724.46
489.207	2736.44
489.578	2755.2
489.948	2780.73
490.318	2815.31
490.688	2808.75
491.058	2853.5
491.428	2934.85
491.798	2917
492.168	2958.81
492.538	2994.74
492.908	3020.73
493.278	3057.11
493.648	3024.79
494.017	3101.63
494.387	3152.7
494.757	3159.93
495.126	3129.2
495.496	3216.88
495.866	3230.21
496.235	3270.89
496.605	3288.29
496.974	3309.98
497.344	3337.55
497.713	3350.89
498.082	3392.92
498.452	3432.69
498.821	3389.76
499.19	3452.35
499.559	3459.81
499.928	3462.97
500.298	3515.18
500.667	3538
501.036	3528.51
501.405	3575.06
501.774	3585
502.143	3663.42
502.512	3583.65
502.88	3643.99
503.249	3694.15
503.618	3715.4
503.987	3693.93
504.356	3713.36
504.724	3744.77
505.093	3758.56
505.462	3796.98
505.83	3820.93
506.199	3900.02
506.567	3878.78
506.936	3888.95
507.304	3982.73
507.672	3967.59
508.041	3982.06
508.409	3972.11
508.777	4077.42
509.145	4073.81
509.514	4073.13
509.882	4133.01
510.25	4093.47
510.618	4137.08
510.986	4176.63
511.354	4204.88
511.722	4238.55
512.09	4285.55
512.458	4283.74
512.826	4336.4
513.193	4344.98
513.561	4340.01
513.929	4397.19
514.297	4420.01
514.664	4481.93
515.032	4505.66
515.4	4506.34
515.767	4569.84
516.135	4574.13
516.502	4556.28
516.869	4608.93
517.237	4662.26
517.604	4667.46
517.972	4709.27
518.339	4742.94
518.706	4715.82
519.073	4755.6
519.44	4792.66
519.808	4872.65
520.175	4851.19
520.542	4887.57
520.909	4962.14
521.276	4916.95
521.643	5007.34
522.009	5049.82
522.376	5108.35
522.743	5109.26
523.11	5148.13
523.477	5227.22
523.843	5203.04
524.21	5290.27
524.577	5320.1
524.943	5342.25
525.31	5355.58
525.676	5416.59
526.043	5465.86
526.409	5486.42
526.776	5525.52
527.142	5581.34
527.508	5538.63
527.874	5571.62
528.241	5676.7
528.607	5682.35
528.973	5713.54
529.339	5756.25
529.705	5805.29
530.071	5842.8
530.437	5872.4
530.803	5893.64
531.169	5931.61
531.535	5947.65
531.901	5932.97
532.267	5984.04
532.632	6047.31
532.998	6036.69
533.364	6084.37
533.73	6135.45
534.095	6175.22
534.461	6239.4
534.826	6245.5
535.192	6257.93
535.557	6294.99
535.923	6277.59
536.288	6332.73
536.653	6381.54
537.019	6339.06
537.384	6364.82
537.749	6459.73
538.114	6401.43
538.479	6440.3
538.845	6467.19
539.21	6421.99
539.575	6498.37
539.94	6560.07
540.305	6555.1
540.67	6554.87
541.034	6610.01
541.399	6663.57
541.764	6623.79
542.129	6698.14
542.494	6689.33
542.858	6669.67
543.223	6687.97
543.587	6798.25
543.952	6782.89
544.316	6843.68
544.681	6777.24
545.045	6815.88
545.41	6898.14
545.774	6919.83
546.138	6892.26
546.503	6889.1
546.867	6960.74
547.231	6977.91
547.595	7018.59
547.959	7056.1
548.324	6948.08
548.688	7054.52
549.052	7090.45
549.416	7110.56
549.779	7129.32
550.143	7127.74
550.507	7189.66
550.871	7196.21
551.235	7198.47
551.599	7257.9
551.962	7250.9
552.326	7292.93
552.689	7349.88
553.053	7307.17
553.417	7381.97
553.78	7451.12
554.143	7400.72
554.507	7504.22
554.87	7496.31
555.234	7501.74
555.597	7478.69
555.96	7583.77
556.323	7656.54
556.686	7581.74
557.05	7740.6
557.413	7635.52
557.776	7636.88
558.139	7724.56
558.502	7784.89
558.865	7755.52
559.228	7862.86
559.59	7890.2
559.953	7913.7
560.316	7985.57
560.679	8075.28
561.041	8059.46
561.404	8127.48
561.767	8100.37
562.129	8151.89
562.492	8231.21
562.854	8212.91
563.217	8229.85
563.579	8253.81
563.941	8306.69
564.304	8329.74
564.666	8401.38
565.028	8405.44
565.39	8431.88
565.753	8454.26
566.115	8507.81
566.477	8542.16
566.839	8558.43
567.201	8616.96
567.563	8654.02
567.925	8672.1
568.287	8717.07
568.648	8712.1
569.01	8750.52
569.372	8878.2
569.734	8743.29
570.095	8844.98
570.457	8939.44
570.819	8903.96
571.18	8961.59
571.542	8970.85
571.903	9017.18
572.265	9018.76
572.626	9096.27
572.987	9039.78
573.349	9073.9
573.71	9153.45
574.071	9137.4
574.432	9179.21
574.794	9267.57
575.155	9238.64
575.516	9207.46
575.877	9269.83
576.238	9285.19
576.599	9347.56
576.96	9287.91
577.32	9291.07
577.681	9337.85
578.042	9374
578.403	9385.98
578.763	9333.55
579.124	9398.86
579.485	9476.38
579.845	9423.95
580.206	9442.93
580.566	9475.02
580.927	9492.42
581.287	9569.71
581.648	9482.25
582.008	9527.22
582.368	9527.67
582.728	9504.85
583.089	9538.52
583.449	9477.73
583.809	9559.76
584.169	9561.57
584.529	9515.47
584.889	9620.78
585.249	9461.23
585.609	9529.26
585.969	9592.98
586.329	9551.63
586.688	9612.87
587.048	9568.8
587.408	9545.3
587.768	9561.12
588.127	9530.61
588.487	9527.67
588.846	9551.4
589.206	9537.39
589.565	9548.92
589.925	9663.71
590.284	9549.82
590.643	9611.29
591.003	9577.39
591.362	9639.08
591.721	9600.21
592.08	9634.79
592.44	9616.94
592.799	9611.74
593.158	9565.19
593.517	9607.9
593.876	9611.96
594.235	9658.29
594.593	9601.8
594.952	9610.16
595.311	9660.55
595.67	9626.43
596.029	9652.19
596.387	9666.43
596.746	9781.45
597.104	9684.05
597.463	9694
597.822	9710.49
598.18	9707.78
598.538	9640.21
598.897	9744.16
599.255	9671.62
599.613	9834.78
599.972	9812.41
600.33	9770.38
600.688	9706.88
601.046	9767.67
601.404	9799.3
601.762	9720.44
602.12	9802.92
602.478	9798.17
602.836	9846.76
603.194	9742.81
603.552	9799.08
603.91	9770.38
604.268	9844.05
604.625	9820.09
604.983	9861.9
605.341	9840.43
605.698	9802.02
606.056	9881.34
606.413	9838.63
606.771	9856.03
607.128	9925.85
607.485	9830.26
607.843	9896.03
608.2	9917.49
608.557	9944.39
608.914	9905.06
609.272	9905.97
609.629	9983.71
609.986	10021.22
610.343	10028.23
610.7	10060.31
611.057	9997.27
611.414	10024.38
611.771	10043.37
612.127	10089.01
612.484	10024.16
612.841	10112.29
613.198	10069.58
613.554	10067.77
613.911	10130.6
614.267	10141.44
614.624	10168.33
614.98	10126.75
615.337	10176.92
615.693	10168.33
616.05	10098.28
616.406	10204.04
616.762	10207.88
617.118	10155.23
617.475	10218.73
617.831	10265.73
618.187	10227.54
618.543	10229.35
618.899	10307.31
619.255	10302.57
619.611	10265.05
619.967	10282.91
620.323	10275.45
620.678	10315.22
621.034	10300.53
621.39	10233.87
621.746	10287.65
622.101	10319.06
622.457	10267.77
622.812	10367.2
623.168	10289.46
623.523	10284.72
623.879	10301.44
624.234	10283.81
624.589	10255.56
624.945	10321.32
625.3	10331.04
625.655	10296.47
626.01	10333.53
626.365	10349.12
626.72	10369.23
627.075	10273.42
627.43	10339.4
627.785	10325.84
628.14	10259.86
628.495	10356.13
628.85	10300.53
629.205	10235.45
629.559	10355.22
629.914	10241.78
630.269	10273.87
630.623	10204.72
630.978	10210.37
631.332	10301.21
631.687	10314.32
632.041	10227.99
632.396	10221.21
632.75	10199.29
633.104	10321.55
633.459	10166.98
633.813	10098.51
634.167	10145.06
634.521	10202.01
634.875	10180.31
635.229	10139.41
635.583	10097.15
635.937	10130.14
636.291	10088.56
636.645	10059.64
636.999	10034.33
637.352	10113.42
637.706	9994.1
638.06	10055.12
638.413	9942.13
638.767	10056.7
639.121	10050.82
639.474	9915.23
639.828	9989.13
640.181	10033.87
640.534	9990.26
640.888	9924.5
641.241	9888.79
641.594	9959.75
641.947	9945.06
642.301	9939.64
642.654	9929.47
643.007	9881.79
643.36	9924.05
643.713	9877.04
644.066	9955.01
644.419	9859.42
644.771	9736.03
645.124	9630.27
645.477	9634.34
645.83	9564.28
646.182	9555.7
646.535	9551.4
646.888	9529.26
647.24	9459.65
647.593	9546.43
647.945	9570.38
648.298	9459.43
648.65	9524.96
649.002	9386.66
649.355	9418.52
649.707	9447
650.059	9474.57
650.411	9640.21
650.763	9632.08
651.115	9735.35
651.467	9599.54
651.819	9662.81
652.171	9594.56
652.523	9587.33
652.875	9577.62
653.227	9547.56
653.578	9642.47
653.93	9601.34
654.282	9481.8
654.633	9499.43
654.985	9540.1
655.337	9488.8
655.688	9527.67
656.039	9518.41
656.391	9482.25
656.742	9516.15
657.094	9553.66
657.445	9596.6
657.796	9510.27
658.147	9458.75
658.498	9473.66
658.849	9524.06
659.2	9515.92
659.551	9454.45
659.902	9494
660.253	9452.65
660.604	9488.13
660.955	9465.3
661.306	9463.04
661.656	9450.16
662.007	9403.16
662.358	9483.15
662.708	9413.1
663.059	9419.43
663.409	9465.53
663.76	9464.4
664.11	9416.72
664.461	9439.31
664.811	9437.73
665.161	9463.49
665.511	9435.92
665.862	9385.76
666.212	9540.33
666.562	9370.62
666.912	9407.68
667.262	9360.22
667.612	9431.18
667.962	9405.64
668.312	9391.86
668.662	9420.33
669.011	9424.63
669.361	9357.73
669.711	9276.15
670.06	9399.54
670.41	9331.07
670.76	9248.36
671.109	9420.11
671.459	9391.86
671.808	9256.49
672.157	9350.05
672.507	9298.98
672.856	9277.51
673.205	9282.48
673.554	9368.58
673.904	9316.15
674.253	9337.62
674.602	9316.38
674.951	9139.21
675.3	9157.06
675.649	9281.58
675.998	9273.67
676.346	9228.47
676.695	9304.85
677.044	9141.02
677.393	9229.83
677.741	9255.82
678.09	9187.8
678.438	9192.99
678.787	9227.79
679.135	9183.5
679.484	9063.05
679.832	9143.95
680.181	9169.04
680.529	9165.42
680.877	9074.58
681.225	9087.46
681.573	9116.16
681.922	9063.5
682.27	9064.18
682.618	9004.98
682.966	9047.91
683.314	9097.4
683.661	9025.31
684.009	8955.94
684.357	9000.91
684.705	8909.61
685.053	9011.98
685.4	8972.43
685.748	8877.07
686.095	8920.91
686.443	8849.27
686.79	8786.22
687.138	8808.37
687.485	8874.36
687.832	8758.43
688.18	8837.3
688.527	8769.95
688.874	8778.54
689.221	8734.93
689.568	8750.07
689.915	8748.71
690.262	8701.93
690.609	8644.76
690.956	8657.87
691.303	8650.86
691.65	8586
691.997	8575.16
692.344	8550.52
692.69	8498.55
693.037	8559.56
693.383	8453.35
693.73	8501.03
694.077	8442.73
694.423	8502.16
694.769	8349.85
695.116	8380.81
695.462	8403.86
695.808	8331.77
696.155	8398.66
696.501	8366.8
696.847	8259.68
697.193	8262.62
697.539	8310.98
697.885	8191.21
698.231	8263.07
698.577	8213.81
698.923	8199.35
699.269	8170.87
699.614	8095.85
699.96	8097.65
700.306	8111.44
700.651	8054.94
700.997	8056.98
701.342	8037.32
701.688	7989.86
702.033	8006.36
702.379	8000.71
702.724	7974.27
703.069	7951.9
703.415	7902.86
703.76	7889.52
704.105	7885.68
704.45	7958.22
704.795	7818.34
705.14	7830.77
705.485	7792.35
705.83	7744.22
706.175	7795.74
706.52	7732.47
706.865	7731.56
707.209	7620.38
707.554	7714.84
707.899	7696.08
708.243	7739.92
708.588	7618.57
708.932	7564.79
709.277	7589.65
709.621	7550.78
709.966	7531.34
710.31	7510.33
710.654	7475.52
710.998	7508.52
711.342	7539.25
711.687	7452.93
712.031	7511.23
712.375	7475.98
712.719	7502.19
713.063	7409.76
713.407	7426.49
713.75	7349.88
714.094	7390.1
714.438	7316.21
714.782	7336.54
715.125	7308.97
715.469	7369.31
715.812	7301.52
716.156	7325.25
716.499	7258.13
716.843	7315.98
717.186	7255.19
717.53	7227.62
717.873	7258.58
718.216	7240.5
718.559	7211.58
718.902	7188.3
719.246	7219.94
719.589	7180.16
719.932	7180.62
720.275	7166.61
720.617	7139.26
720.96	7142.88
721.303	7132.71
721.646	7121.18
721.989	7124.57
722.331	7154.63
722.674	7047.51
723.016	7118.92
723.359	7024.46
723.701	7057.68
724.044	6991.24
724.386	6998.93
724.729	7011.58
725.071	7013.62
725.413	6933.84
725.755	6975.2
726.097	6940.85
726.439	6869.44
726.782	6879.38
727.124	6928.19
727.465	6919.38
727.807	6913.96
728.149	6892.04
728.491	6826.95
728.833	6833.96
729.175	6847.97
729.516	6785.37
729.858	6800.29
730.199	6845.71
730.541	6776.79
730.882	6787.86
731.224	6812.49
731.565	6786.28
731.906	6757.8
732.248	6715.09
732.589	6682.32
732.93	6762.55
733.271	6690.01
733.612	6758.93
733.953	6755.99
734.294	6685.71
734.635	6711.48
734.976	6697.24
735.317	6642.1
735.658	6641.87
735.999	6642.1
736.339	6643.23
736.68	6628.54
737.021	6646.39
737.361	6580.18
737.702	6583.12
738.042	6572.72
738.383	6534.98
738.723	6598.26
739.063	6532.95
739.404	6574.76
739.744	6565.27
740.084	6557.81
740.424	6551.71
740.764	6494.76
741.104	6539.5
741.444	6496.11
741.784	6478.04
742.124	6506.74
742.464	6503.12
742.804	6461.77
743.143	6421.31
743.483	6466.06
743.823	6417.47
744.162	6382.22
744.502	6404.37
744.841	6330.24
745.181	6415.66
745.52	6421.77
745.86	6393.74
746.199	6393.07
746.538	6330.92
746.877	6327.31
747.216	6376.57
747.556	6330.02
747.895	6338.6
748.234	6319.62
748.573	6301.77
748.911	6322.33
749.25	6297.02
749.589	6264.26
749.928	6247.53
750.267	6256.8
750.605	6280.75
750.944	6229.23
751.283	6203.92
751.621	6203.69
751.96	6180.64
752.298	6191.72
752.636	6160.53
752.975	6080.76
753.313	6102
753.651	6165.95
753.989	6074.66
754.327	6083.24
754.666	6074.43
755.004	6107.2
755.342	6052.96
755.679	6076.46
756.017	6031.04
756.355	6008.22
756.693	5986.07
757.031	5967.99
757.368	5983.13
757.706	5993.75
758.044	5959.18
758.381	5888.67
758.719	5930.03
759.056	5927.99
759.394	5875.11
759.731	5844.15
760.068	5768.9
760.405	5843.25
760.743	5794.66
761.08	5842.8
761.417	5792.86
761.754	5756.25
762.091	5781.56
762.428	5724.38
762.765	5680.99
763.102	5680.32
763.438	5686.19
763.775	5648
764.112	5658.4
764.449	5668.57
764.785	5689.36
765.122	5637.15
765.458	5616.14
765.795	5600.09
766.131	5572.97
766.467	5566.2
766.804	5536.82
767.14	5511.06
767.476	5531.39
767.812	5449.81
768.148	5465.63
768.485	5464.73
768.821	5464.28
769.157	5472.19
769.492	5381.57
769.828	5362.13
770.164	5370.27
770.5	5347.44
770.836	5346.77
771.171	5287.78
771.507	5325.98
771.842	5248.46
772.178	5291.63
772.513	5266.54
772.849	5304.96
773.184	5212.98
773.519	5210.05
773.855	5161.91
774.19	5153.1
774.525	5135.47
774.86	5171.63
775.195	5146.55
775.53	5091.41
775.865	5074.68
776.2	5066.32
776.535	5014.57
776.87	5009.83
777.205	4970.5
777.539	5001.92
777.874	5010.5
778.209	4941.58
778.543	4974.35
778.878	4884.41
779.212	4887.57
779.547	4874.91
779.881	4883.05
780.215	4865.2
780.55	4824.97
780.884	4823.62
781.218	4815.25
781.552	4842.37
781.886	4776.61
782.22	4760.11
782.554	4716.27
782.888	4708.59
783.222	4717.63
783.556	4704.98
783.889	4678.54
784.223	4645.77
784.557	4618.42
784.89	4627.01
785.224	4580.68
785.557	4622.94
785.891	4613.9
786.224	4531.19
786.558	4572.55
786.891	4530.29
787.224	4539.33
787.557	4510.18
787.891	4504.75
788.224	4493
788.557	4481.25
788.89	4452.33
789.223	4452.55
789.556	4435.38
789.888	4388.37
790.221	4372.33
790.554	4347.24
790.887	4353.57
791.219	4315.83
791.552	4332.78
791.884	4317.64
792.217	4286.23
792.549	4313.35
792.882	4274.03
793.214	4246.91
793.546	4237.64
793.879	4232.67
794.211	4189.51
794.543	4194.48
794.875	4189.51
795.207	4187.47
795.539	4199.23
795.871	4191.32
796.203	4156.97
796.535	4132.79
796.867	4173.01
797.198	4142.73
797.53	4116.97
797.862	4071.09
798.193	4074.26
798.525	4073.81
798.856	4100.92
799.188	4052.79
799.519	4006.69
799.85	3983.41
800.182	3997.2
800.513	4043.52
800.844	3980.93
801.175	3979.12
801.506	4036.74
801.837	3968.72
802.168	3934.83
802.499	3935.28
802.83	3960.59
803.161	3959.46
803.491	3882.85
803.822	3901.15
804.153	3894.15
804.483	3873.36
804.814	3902.96
805.145	3845.34
805.475	3835.39
805.805	3793.36
806.136	3811.67
806.466	3827.71
806.796	3809.63
807.126	3791.33
807.457	3765.11
807.787	3782.06
808.117	3761.72
808.447	3722.18
808.777	3733.48
809.107	3709.52
809.436	3740.71
809.766	3736.41
810.096	3685.11
810.426	3697.54
810.755	3720.82
811.085	3702.52
811.414	3693.48
811.744	3631.33
812.073	3663.87
812.403	3655.74
812.732	3653.03
813.061	3600.82
813.39	3609.86
813.719	3608.73
814.049	3614.16
814.378	3599.24
814.707	3597.66
815.036	3562.18
815.365	3566.47
815.693	3540.94
816.022	3548.4
816.351	3545.68
816.68	3477.66
817.008	3505.91
817.337	3482.18
817.665	3470.21
817.994	3477.44
818.322	3458
818.651	3482.63
818.979	3454.16
819.307	3446.7
819.636	3466.14
819.964	3434.73
820.292	3461.17
820.62	3437.21
820.948	3436.53
821.276	3449.87
821.604	3467.49
821.932	3431.79
822.259	3451.9
822.587	3461.17
822.915	3404.67
823.243	3424.1
823.57	3472.69
823.898	3428.85
824.225	3403.54
824.553	3401.05
824.88	3454.39
825.207	3366.48
825.535	3426.36
825.862	3446.25
826.189	3369.87
826.516	3420.72
826.843	3387.5
827.17	3407.61
827.497	3407.16
827.824	3406.7
828.151	3461.84
828.478	3383.65
828.805	3424.78
829.131	3425.46
829.458	3399.25
829.785	3382.3
830.111	3403.54
830.438	3408.74
830.764	3407.83
831.09	3405.57
831.417	3416.42
831.743	3428.62
832.069	3428.17
832.395	3356.54
832.722	3428.4
833.048	3405.8
833.374	3378.91
833.7	3365.35
834.026	3383.65
834.351	3393.37
834.677	3372.35
835.003	3381.17
835.329	3360.15
835.654	3338.01
835.98	3337.1
836.306	3376.2
836.631	3372.58
836.956	3372.81
837.282	3371.68
837.607	3324.9
837.932	3358.12
838.258	3316.09
838.583	3338.91
838.908	3322.64
839.233	3311.34
839.558	3294.39
839.883	3313.37
840.208	3279.02
840.533	3326.03
840.858	3270.89
841.182	3265.69
841.507	3287.84
841.832	3284
842.156	3251
842.481	3273.6
842.805	3220.04
843.13	3281.74
843.454	3228.86
843.778	3261.85
844.103	3250.32
844.427	3218.23
844.751	3244.67
845.075	3188.18
845.399	3210.1
845.723	3204.22
846.047	3199.03
846.371	3173.72
846.695	3192.7
847.019	3131.68
847.343	3148.41
847.666	3089.42
847.99	3146.37
848.313	3102.76
848.637	3121.74
848.96	3107.96
849.284	3103.66
849.607	3036.77
849.931	3064.34
850.254	3036.09
850.577	3024.79
850.9	3008.3
851.223	3015.98
851.546	2972.59
851.869	3008.07
852.192	3001.52
852.515	2951.12
852.838	2940.5
853.161	2947.96
853.483	2928.75
853.806	2885.81
854.129	2888.75
854.451	2900.05
854.774	2889.43
855.096	2876.32
855.419	2884.68
855.741	2857.79
856.063	2863.89
856.385	2885.59
856.708	2864.8
857.03	2850.11
857.352	2827.06
857.674	2833.39
857.996	2813.73
858.318	2777.34
858.64	2780.51
858.961	2767.4
859.283	2775.31
859.605	2790
859.926	2760.62
860.248	2745.25
860.57	2750.68
860.891	2760.85
861.212	2743.22
861.534	2782.31
861.855	2761.3
862.176	2734.41
862.498	2763.56
862.819	2728.3
863.14	2713.62
863.461	2716.1
863.782	2720.85
864.103	2729.43
864.424	2712.71
864.745	2674.29
865.065	2690.56
865.386	2717
865.707	2684.92
866.027	2686.95
866.348	2718.59
866.668	2703.9
866.989	2711.58
867.309	2672.49
867.63	2650.57
867.95	2665.25
868.27	2650.79
868.59	2697.12
868.91	2660.06
869.23	2664.8
869.55	2624.58
869.87	2618.48
870.19	2651.02
870.51	2655.99
870.83	2623.22
871.15	2604.47
871.469	2619.15
871.789	2605.82
872.109	2584.13
872.428	2597.01
872.748	2591.13
873.067	2600.4
873.386	2603.79
873.706	2562.43
874.025	2584.8
874.344	2575.09
874.663	2576.9
874.982	2564.47
875.301	2560.62
875.62	2543.45
875.939	2543.22
876.258	2538.93
876.577	2518.82
876.896	2529.89
877.214	2538.7
877.533	2534.18
877.852	2527.41
878.17	2523.11
878.489	2540.51
878.807	2542.77
879.125	2554.3
879.444	2534.41
879.762	2553.17
880.08	2522.21
880.398	2504.13
880.716	2504.81
881.034	2497.12
881.352	2504.81
881.67	2505.48
881.988	2444.92
882.306	2478.82
882.624	2476.11
882.941	2466.62
883.259	2471.14
883.577	2446.5
883.894	2477.69
884.212	2434.75
884.529	2471.59
884.846	2447.86
885.164	2431.59
885.481	2424.58
885.798	2430.46
886.115	2398.82
886.432	2412.15
886.75	2385.26
887.067	2424.58
887.383	2397.01
887.7	2416.45
888.017	2402.66
888.334	2398.14
888.651	2383.68
888.967	2386.84
889.284	2373.29
889.6	2376.22
889.917	2357.69
890.233	2361.31
890.55	2352.95
890.866	2382.78
891.182	2322.66
891.498	2367.86
891.815	2340.97
892.131	2317.92
892.447	2300.29
892.763	2355.66
893.079	2283.34
893.395	2300.52
893.71	2293.51
894.026	2298.94
894.342	2288.32
894.657	2251.48
894.973	2262.1
895.289	2253.51
895.604	2250.35
895.92	2260.07
896.235	2235.66
896.55	2236.79
896.865	2229.11
897.181	2237.7
897.496	2232.27
897.811	2199.28
898.126	2206.96
898.441	2210.8
898.756	2190.69
899.071	2185.27
899.386	2170.8
899.7	2142.33
900.015	2169
900.33	2148.21
900.644	2135.55
900.959	2169
901.273	2109.11
901.588	2151.14
901.902	2094.42
902.216	2110.02
902.531	2112.05
902.845	2090.35
903.159	2079.06
903.473	2091.94
903.787	2094.87
904.101	2080.86
904.415	2058.04
904.729	2063.91
905.042	2049.45
905.356	2079.96
905.67	2058.49
905.984	2060.3
906.297	2022.56
906.611	2044.93
906.924	2005.16
907.237	2007.42
907.551	1997.48
907.864	2021.43
908.177	2013.97
908.491	1991.83
908.804	1981.2
909.117	1970.36
909.43	1982.33
909.743	1967.65
910.056	1987.31
910.368	1943.47
910.681	1946.86
910.994	1939.17
911.307	1925.61
911.619	1929.91
911.932	1925.39
912.244	1906.86
912.557	1920.19
912.869	1907.53
913.181	1904.82
913.494	1891.26
913.806	1877.25
914.118	1859.4
914.43	1865.95
914.742	1851.04
915.054	1852.17
915.366	1836.35
915.678	1837.93
915.99	1827.76
916.302	1836.58
916.613	1809.46
916.925	1805.62
917.236	1837.93
917.548	1788.22
917.859	1817.82
918.171	1785.73
918.482	1789.35
918.794	1773.98
919.105	1787.99
919.416	1741.89
919.727	1750.48
920.038	1769.46
920.349	1731.27
920.66	1738.05
920.971	1751.38
921.282	1743.92
921.593	1742.12
921.903	1712.74
922.214	1685.85
922.525	1680.2
922.835	1707.31
923.146	1679.52
923.456	1662.12
923.767	1690.59
924.077	1653.98
924.387	1671.16
924.697	1677.94
925.008	1673.19
925.318	1643.81
925.628	1674.32
925.938	1652.17
926.248	1641.78
926.558	1627.32
926.867	1594.77
927.177	1626.64
927.487	1633.87
927.796	1613.76
928.106	1610.59
928.416	1590.25
928.725	1577.83
929.034	1593.19
929.344	1571.27
929.653	1594.77
929.962	1561.33
930.271	1536.47
930.581	1533.31
930.89	1552.06
931.199	1510.26
931.508	1534.21
931.817	1548.45
932.125	1529.01
932.434	1523.82
932.743	1507.32
933.051	1511.84
933.36	1506.19
933.669	1523.36
933.977	1482.91
934.286	1482.91
934.594	1508.9
934.902	1479.3
935.21	1456.7
935.519	1482.91
935.827	1459.41
936.135	1453.76
936.443	1485.62
936.751	1436.81
937.059	1463.25
937.367	1428
937.674	1447.21
937.982	1457.83
938.29	1430.71
938.597	1423.03
938.905	1420.54
939.213	1416.7
939.52	1407.66
939.827	1398.17
940.135	1386.87
940.442	1383.48
940.749	1423.48
941.056	1370.83
941.363	1387.32
941.67	1375.12
941.977	1353.42
942.284	1359.98
942.591	1328.11
942.898	1362.24
943.205	1353.42
943.511	1354.78
943.818	1320.43
944.125	1337.83
944.431	1308.23
944.738	1324.5
945.044	1300.09
945.35	1323.82
945.657	1308
945.963	1304.16
946.269	1326.76
946.575	1295.35
946.881	1313.2
947.187	1286.76
947.493	1309.13
947.799	1307.1
948.105	1284.5
948.41	1265.74
948.716	1279.98
949.022	1254.22
949.327	1257.16
949.633	1247.44
949.938	1272.3
950.244	1237.27
950.549	1243.37
950.854	1243.82
951.16	1227.33
951.465	1210.15
951.77	1208.57
952.075	1214.9
952.38	1209.47
952.685	1225.07
952.99	1195.46
953.294	1201.11
953.599	1193.88
953.904	1191.4
954.209	1185.52
954.513	1189.59
954.818	1189.81
955.122	1185.75
955.426	1183.03
955.731	1142.81
956.035	1154.56
956.339	1142.81
956.643	1173.09
956.948	1151.4
957.252	1142.81
957.556	1145.07
957.86	1159.53
958.163	1136.71
958.467	1137.39
958.771	1122.7
959.075	1111.85
959.378	1106.88
959.682	1128.8
959.985	1115.01
960.289	1115.69
960.592	1124.28
960.896	1111.85
961.199	1149.81
961.502	1100.1
961.805	1091.51
962.108	1089.25
962.411	1078.18
962.714	1091.28
963.017	1075.47
963.32	1079.08
963.623	1073.66
963.926	1051.51
964.228	1073.21
964.531	1077.27
964.833	1071.62
965.136	1045.64
965.438	1082.47
965.741	1055.13
966.043	1013.32
966.345	1027.33
966.648	1032.08
966.95	1053.09
967.252	1030.27
967.554	1051.96
967.856	1014.68
968.158	1031.4
968.46	1037.05
968.761	999.08
969.063	992.08
969.365	1030.04
969.666	1023.26
969.968	983.27
970.269	995.47
970.571	991.4
970.872	1002.25
971.174	991.4
971.475	990.72
971.776	985.52
972.077	995.69
972.378	975.81
972.679	971.74
972.98	972.42
973.281	985.52
973.582	956.15
973.883	950.05
974.183	966.54
974.484	965.19
974.785	948.69
975.085	947.56
975.386	964.51
975.686	942.14
975.986	928.35
976.287	942.36
976.587	959.08
976.887	929.26
977.187	942.81
977.487	929.93
977.787	927.67
978.087	920.67
978.387	926.32
978.687	907.11
978.987	904.62
979.286	908.46
979.586	914.34
979.885	937.39
980.185	904.85
980.484	911.18
980.784	887.45
981.083	897.39
981.382	889.71
981.682	891.52
981.981	875.92
982.28	884.96
982.579	873.66
982.878	878.41
983.177	874.12
983.475	879.77
983.774	859.88
984.073	862.82
984.372	862.82
984.67	874.79
984.969	853.55
985.267	834.34
985.566	859.2
985.864	845.19
986.162	844.06
986.461	845.64
986.759	820.11
987.057	811.97
987.355	835.7
987.653	853.78
987.951	837.96
988.249	848.13
988.547	822.59
988.844	845.64
989.142	811.29
989.44	803.16
989.737	816.49
990.035	817.17
990.332	830.95
990.63	816.94
990.927	804.96
991.224	788.47
991.521	784.63
991.819	787.11
992.116	797.28
992.413	768.36
992.71	789.6
993.006	792.08
993.303	806.32
993.6	772.2
993.897	790.73
994.193	760.22
994.49	766.1
994.787	778.3
995.083	784.85
995.379	764.51
995.676	764.74
995.972	759.99
996.268	770.62
996.565	764.06
996.861	739.88
997.157	740.11
997.453	737.85
997.749	730.16
998.044	753.89
998.34	741.24
998.636	733.55
998.932	735.14
999.227	739.43
999.523	729.03
999.818	721.58
1000.114	725.87
1000.409	704.4
1000.704	717.06
1001	725.87
1001.295	730.84
1001.59	702.82
1001.885	720.9
1002.18	710.28
1002.475	688.58
1002.77	686.55
1003.065	679.77
1003.359	695.14
1003.654	703.27
1003.949	692.65
1004.243	680.22
1004.538	679.77
1004.832	684.29
1005.127	686.1
1005.421	692.88
1005.715	656.95
1006.009	700.33
1006.304	662.37
1006.598	674.12
1006.892	650.84
1007.186	665.53
1007.48	667.79
1007.773	684.74
1008.067	659.88
1008.361	656.95
1008.655	675.25
1008.948	654.01
1009.242	656.95
1009.535	643.16
1009.829	650.39
1010.122	659.66
1010.415	656.27
1010.708	644.29
1011.001	614.91
1011.295	624.18
1011.588	640.22
1011.881	614.91
1012.173	624.18
1012.466	636.38
1012.759	650.84
1013.052	638.87
1013.344	626.89
1013.637	648.36
1013.93	618.08
1014.222	606.33
1014.514	604.29
1014.807	623.5
1015.099	605.87
1015.391	623.05
1015.683	606.78
1015.976	600.45
1016.268	616.27
1016.56	609.94
1016.851	597.29
1017.143	596.61
1017.435	590.51
1017.727	612.65
1018.018	594.12
1018.31	572.43
1018.602	590.51
1018.893	586.21
1019.185	570.85
1019.476	588.47
1019.767	579.66
1020.058	565.42
1020.35	552.54
1020.641	563.62
1020.932	574.91
1021.223	562.49
1021.514	551.64
1021.804	550.51
1022.095	566.1
1022.386	570.62
1022.677	539.89
1022.967	559.32
1023.258	543.05
1023.548	531.07
1023.839	523.16
1024.129	543.95
1024.419	558.19
1024.709	534.01
1025	549.38
1025.29	531.07
1025.58	534.69
1025.87	528.81
1026.16	526.1
1026.449	513.22
1026.739	527.91
1027.029	501.7
1027.319	525.42
1027.608	522.71
1027.898	516.61
1028.187	509.15
1028.477	520.45
1028.766	518.19
1029.055	512.09
1029.344	510.96
1029.634	529.94
1029.923	511.19
1030.212	503.73
1030.501	497.4
1030.79	510.96
1031.078	501.92
1031.367	487.91
1031.656	486.1
1031.945	498.53
1032.233	524.75
1032.522	489.27
1032.81	492.66
1033.099	474.35
1033.387	469.83
1033.675	473
1033.963	476.84
1034.251	475.26
1034.54	458.08
1034.828	462.15
1035.116	465.99
1035.403	479.1
1035.691	468.93
1035.979	496.5
1036.267	467.12
1036.554	463.96
1036.842	484.75
1037.129	465.54
1037.417	453.56
1037.704	468.93
1037.992	473.9
1038.279	446.56
1038.566	465.99
1038.853	465.99
1039.14	465.99
