Data from black_metal_pc_casing_FLMS001491_00059.txt Node
Date: Wed Feb 08 14:33:05 GMT 2017
User: dcchb
Spectrometer: FLMS00149
Trigger mode: 0
Integration Time (sec): 2.000000E-2
Scans to average: 10
Electric dark correction enabled: true
Nonlinearity correction enabled: false
Boxcar width: 0
XAxis mode: Wavelengths
Number of Pixels in Spectrum: 2048
>>>>>Begin Spectral Data<<<<<
341.393	-6.79
341.776	-6.79
342.16	-6.79
342.543	-48.83
342.927	-66.45
343.31	-72.55
343.693	-56.96
344.077	-53.8
344.46	-54.93
344.843	-49.5
345.226	-40.24
345.61	-33.23
345.993	-22.84
346.376	-21.93
346.759	14.9
347.142	34.79
347.525	39.31
347.908	46.31
348.291	77.27
348.674	90.15
349.057	103.26
349.44	127.21
349.823	149.36
350.206	157.95
350.588	176.7
350.971	201.11
351.354	211.51
351.737	231.62
352.119	244.05
352.502	238.62
352.884	244.05
353.267	280.43
353.65	261.22
354.032	281.56
354.414	286.53
354.797	311.16
355.179	308.9
355.562	315.68
355.944	318.85
356.326	324.72
356.709	319.53
357.091	325.63
357.473	333.54
357.855	309.81
358.238	329.92
358.62	308.68
359.002	309.36
359.384	327.43
359.766	329.24
360.148	327.43
360.53	333.54
360.912	339.86
361.294	299.41
361.676	320.66
362.057	300.99
362.439	314.55
362.821	303.93
363.203	334.67
363.584	304.38
363.966	320.66
364.348	304.16
364.729	318.62
365.111	307.55
365.493	307.77
365.874	302.58
366.256	313.42
366.637	299.86
367.019	306.87
367.4	316.36
367.781	303.03
368.163	298.96
368.544	311.39
368.925	291.73
369.306	309.36
369.688	300.99
370.069	288.11
370.45	308.23
370.831	295.8
371.212	314.55
371.593	319.75
371.974	298.51
372.355	309.58
372.736	307.55
373.117	304.84
373.498	313.65
373.879	292.41
374.26	307.55
374.641	306.42
375.021	318.85
375.402	313.88
375.783	325.18
376.163	296.93
376.544	325.18
376.925	345.29
377.305	314.55
377.686	322.24
378.066	345.74
378.447	336.25
378.827	319.75
379.208	344.61
379.588	340.54
379.968	319.3
380.349	328.56
380.729	331.73
381.109	348.9
381.489	337.6
381.87	324.5
382.25	354.1
382.63	352.07
383.01	356.13
383.39	351.39
383.77	353.42
384.15	348.23
384.53	351.39
384.91	361.11
385.29	370.37
385.67	352.52
386.049	366.76
386.429	344.84
386.809	361.11
387.189	382.57
387.568	373.54
387.948	370.82
388.328	385.96
388.707	392.52
389.087	370.37
389.466	372.63
389.846	347.1
390.225	384.16
390.605	379.86
390.984	373.31
391.363	373.31
391.743	378.73
392.122	410.82
392.501	391.16
392.881	379.18
393.26	395.46
393.639	403.14
394.018	402.91
394.397	415.12
394.776	385.29
395.155	396.36
395.534	401.33
395.913	428.22
396.292	407.43
396.671	418.73
397.05	423.48
397.429	425.74
397.808	411.95
398.186	420.99
398.565	414.66
398.944	432.06
399.323	420.77
399.701	403.59
400.08	423.25
400.458	439.75
400.837	452.18
401.215	440.2
401.594	434.32
401.972	434.55
402.351	452.63
402.729	436.81
403.107	444.95
403.486	476.13
403.864	451.73
404.242	452.4
404.62	462.12
404.999	439.52
405.377	465.74
405.755	468.9
406.133	457.83
406.511	478.84
406.889	491.5
407.267	470.26
407.645	497.83
408.023	478.39
408.401	496.47
408.779	508.45
409.156	510.03
409.534	509.13
409.912	496.7
410.29	508.9
410.667	527.66
411.045	512.74
411.422	523.36
411.8	532.85
412.178	540.08
412.555	560.2
412.933	564.94
413.31	540.54
413.687	559.29
414.065	555
414.442	545.73
414.819	571.27
415.197	559.07
415.574	588.22
415.951	547.77
416.328	586.64
416.705	566.3
417.082	563.36
417.46	570.82
417.837	568.56
418.214	599.29
418.591	602.68
418.967	598.39
419.344	616.24
419.721	608.78
420.098	594.55
420.475	619.86
420.852	613.08
421.228	627.31
421.605	639.52
421.982	627.77
422.358	638.61
422.735	648.78
423.111	655.11
423.488	643.58
423.864	646.3
424.241	668.89
424.617	674.77
424.994	677.26
425.37	685.39
425.746	672.06
426.123	704.15
426.499	703.02
426.875	672.28
427.251	695.56
427.627	707.99
428.003	715.67
428.379	713.87
428.756	719.06
429.132	739.63
429.507	731.94
429.883	764.94
430.259	756.35
430.635	780.98
431.011	788.89
431.387	774.88
431.763	773.75
432.138	796.12
432.514	771.72
432.89	783.69
433.265	801.09
433.641	790.25
434.016	818.95
434.392	834.09
434.767	834.31
435.143	832.28
435.518	816.69
435.894	878.61
436.269	879.51
436.644	887.42
437.02	877.93
437.395	897.14
437.77	883.58
438.145	912.28
438.52	913.86
438.895	901.88
439.271	923.8
439.646	927.87
440.021	946.4
440.395	942.33
440.77	937.36
441.145	959.51
441.52	959.51
441.895	951.37
442.27	982.56
442.645	955.44
443.019	976.01
443.394	985.95
443.769	972.39
444.143	995.21
444.518	1006.74
444.892	988.21
445.267	1025.27
445.641	1030.02
446.016	1023.46
446.39	1040.41
446.764	1021.43
447.139	1037.47
447.513	1041.54
447.887	1049
448.262	1047.42
448.636	1023.24
449.01	1082.44
449.384	1095.1
449.758	1085.61
450.132	1083.8
450.506	1108.21
450.88	1088.77
451.254	1134.19
451.628	1124.7
452.002	1122.89
452.376	1155.44
452.75	1121.31
453.123	1154.76
453.497	1150.46
453.871	1187.53
454.244	1212.16
454.618	1217.81
454.992	1234.76
455.365	1249.22
455.739	1235.43
456.112	1259.16
456.486	1293.51
456.859	1263
457.232	1302.55
457.606	1281.08
457.979	1325.15
458.352	1342.78
458.725	1346.39
459.099	1352.72
459.472	1367.41
459.845	1378.71
460.218	1367.86
460.591	1417.35
460.964	1393.17
461.337	1451.02
461.71	1471.13
462.083	1500.29
462.456	1460.74
462.829	1492.38
463.201	1503.45
463.574	1506.84
463.947	1521.75
464.32	1587.29
464.692	1571.02
465.065	1586.84
465.438	1632.49
465.81	1626.38
466.183	1627.29
466.555	1688.98
466.928	1668.42
467.3	1641.98
467.672	1691.92
468.045	1714.52
468.417	1757.45
468.789	1732.6
469.161	1779.83
469.534	1828.19
469.906	1816.89
470.278	1832.71
470.65	1862.31
471.022	1901.86
471.394	1936.66
471.766	1914.96
472.138	1957
472.51	2009.65
472.882	2008.52
473.253	2018.92
473.625	2055.53
473.997	2086.48
474.369	2093.26
474.74	2156.77
475.112	2168.52
475.484	2187.27
475.855	2240.6
476.227	2234.96
476.598	2309.76
476.97	2331.22
477.341	2375.29
477.713	2370.77
478.084	2434.5
478.455	2442.41
478.827	2501.84
479.198	2546.81
479.569	2552.69
479.94	2649.63
480.311	2628.62
480.682	2676.3
481.053	2754.72
481.424	2768.27
481.795	2809.18
482.166	2854.83
482.537	2887.37
482.908	2930.53
483.279	2957.87
483.65	2993.35
484.021	3056.4
484.391	3089.17
484.762	3125.78
485.133	3181.15
485.503	3204.2
485.874	3252.33
486.244	3327.13
486.615	3347.47
486.985	3382.5
487.356	3459.56
487.726	3483.28
488.097	3541.59
488.467	3542.94
488.837	3578.87
489.207	3635.82
489.578	3682.6
489.948	3777.51
490.318	3764.18
490.688	3757.4
491.058	3852.77
491.428	3891.41
491.798	3898.87
492.168	3993.33
492.538	3984.29
492.908	4064.96
493.278	4111.52
493.648	4131.18
494.017	4161.23
494.387	4186.99
494.757	4284.62
495.126	4261.12
495.496	4272.42
495.866	4313.32
496.235	4339.76
496.605	4398.74
496.974	4417.27
497.344	4480.09
497.713	4480.77
498.082	4517.16
498.452	4555.8
498.821	4617.94
499.19	4621.56
499.559	4672.63
499.928	4667.89
500.298	4699.07
500.667	4744.04
501.036	4757.15
501.405	4819.07
501.774	4813.87
502.143	4861.33
502.512	4886.64
502.88	4923.47
503.249	4913.3
503.618	4990.59
503.987	4987.65
504.356	5058.38
504.724	5063.13
505.093	5066.97
505.462	5132.28
505.83	5116.91
506.199	5224.26
506.567	5263.8
506.936	5278.72
507.304	5328.66
507.672	5363.23
508.041	5317.13
508.409	5404.82
508.777	5492.27
509.145	5488.43
509.514	5511.48
509.882	5549.44
510.25	5557.13
510.618	5613.17
510.986	5612.27
511.354	5702.43
511.722	5755.77
512.09	5795.99
512.458	5738.59
512.826	5834.18
513.193	5921.86
513.561	5889.32
513.929	5959.15
514.297	5951.92
514.664	6016.55
515.032	6058.13
515.4	6139.03
515.767	6122.76
516.135	6155.3
516.502	6188.52
516.869	6257.67
517.237	6282.76
517.604	6282.31
517.972	6447.05
518.339	6425.58
518.706	6430.1
519.073	6496.99
519.44	6504.9
519.808	6632.81
520.175	6562.3
520.542	6733.37
520.909	6688.4
521.276	6722.75
521.643	6798.23
522.009	6847.94
522.376	6910.31
522.743	6974.49
523.11	7029.86
523.477	7067.82
523.843	7179.46
524.21	7193.92
524.577	7196.41
524.943	7296.74
525.31	7288.83
525.676	7435.04
526.043	7445.21
526.409	7462.39
526.776	7485.89
527.142	7617.64
527.508	7633.46
527.874	7689.5
528.241	7679.11
528.607	7754.13
528.973	7782.38
529.339	7865.09
529.705	7963.84
530.071	8018.76
530.437	7997.52
530.803	8073.45
531.169	8103.95
531.535	8162.71
531.901	8170.39
532.267	8195.48
532.632	8262.14
532.998	8282.93
533.364	8339.2
533.73	8355.47
534.095	8402.7
534.461	8447.22
534.826	8488.58
535.192	8529.71
535.557	8608.8
535.923	8606.54
536.288	8623.94
536.653	8689.93
537.019	8668.46
537.384	8761.56
537.749	8772.64
538.114	8808.79
538.479	8853.99
538.845	8828.45
539.21	8852.86
539.575	8891.73
539.94	8879.98
540.305	9006.53
540.67	8979.18
541.034	9001.33
541.399	9131.5
541.764	9087.43
542.129	9163.13
542.494	9154.55
542.858	9214.88
543.223	9214.66
543.587	9252.85
543.952	9290.14
544.316	9362.23
544.681	9368.55
545.045	9379.17
545.41	9482
545.774	9492.62
546.138	9442.22
546.503	9495.1
546.867	9536.23
547.231	9634.76
547.595	9649.22
547.959	9592.05
548.324	9747.07
548.688	9683.12
549.052	9726.96
549.416	9764.02
549.779	9765.38
550.143	9846.51
550.507	9895.32
550.871	9913.85
551.235	9790.01
551.599	9948.42
551.962	10031.13
552.326	10009.44
552.689	10050.8
553.053	10039.95
553.417	10082.43
553.78	10262.99
554.143	10176.22
554.507	10259.15
554.87	10280.62
555.234	10458.02
555.597	10338.7
555.96	10325.36
556.323	10466.83
556.686	10449.43
557.05	10493.04
557.413	10635.86
557.776	10591.8
558.139	10633.6
558.502	10713.6
558.865	10752.92
559.228	10783.88
559.59	10833.37
559.953	10899.81
560.316	10980.26
560.679	10911.56
561.041	11019.13
561.404	11087.83
561.767	11112.24
562.129	11175.06
562.492	11291.89
562.854	11253.48
563.217	11324.66
563.579	11394.94
563.941	11464.54
564.304	11482.4
564.666	11558.55
565.028	11548.61
565.39	11640.36
565.753	11661.6
566.115	11711.32
566.477	11785.44
566.839	11777.53
567.201	11923.97
567.563	11897.53
567.925	11941.82
568.287	11882.39
568.648	12005.55
569.01	12039.9
569.372	12088.26
569.734	12010.52
570.095	12192.66
570.457	12205.54
570.819	12228.14
571.18	12283.96
571.542	12435.82
571.903	12435.37
572.265	12455.25
572.626	12420.9
572.987	12534.35
573.349	12582.93
573.71	12625.19
574.071	12597.62
574.432	12606.21
574.794	12729.37
575.155	12684.17
575.516	12700.22
575.877	12787.22
576.238	12762.14
576.599	12804.62
576.96	12783.38
577.32	12845.07
577.681	12991.73
578.042	12918.97
578.403	12947.67
578.763	12946.76
579.124	12899.99
579.485	13050.26
579.845	13079.19
580.206	13061.34
580.566	13092.97
580.927	13041.45
581.287	13091.85
581.648	13045.07
582.008	13117.83
582.368	13191.73
582.728	13145.18
583.089	13079.64
583.449	13144.95
583.809	13204.16
584.169	13138.4
584.529	13213.65
584.889	13298.39
585.249	13138.85
585.609	13125.52
585.969	13274.21
586.329	13227.21
586.688	13204.84
587.048	13243.03
587.408	13103.37
587.768	13174.78
588.127	13182.46
588.487	13163.71
588.846	13281.22
589.206	13198.51
589.565	13171.16
589.925	13171.16
590.284	13169.81
590.643	13234.67
591.003	13215.68
591.362	13322.8
591.721	13249.13
592.08	13260.65
592.44	13301.78
592.799	13245.97
593.158	13230.37
593.517	13264.27
593.876	13266.3
594.235	13334.1
594.593	13302.91
594.952	13292.74
595.311	13280.09
595.67	13374.32
596.029	13418.84
596.387	13378.39
596.746	13436.24
597.104	13357.15
597.463	13349.92
597.822	13421.78
598.18	13283.48
598.538	13319.64
598.897	13435.79
599.255	13295.68
599.613	13555.34
599.972	13446.19
600.33	13445.28
600.688	13457.26
601.046	13450.03
601.404	13551.72
601.762	13474.89
602.12	13603.47
602.478	13562.79
602.836	13485.06
603.194	13537.03
603.552	13539.06
603.91	13480.31
604.268	13598.95
604.625	13555.34
604.983	13673.07
605.341	13534.55
605.698	13657.93
606.056	13667.88
606.413	13624.03
606.771	13662.45
607.128	13752.84
607.485	13640.98
607.843	13680.98
608.2	13720.76
608.557	13810.24
608.914	13764.82
609.272	13806.4
609.629	13839.17
609.986	13927.08
610.343	13771.6
610.7	13852.05
611.057	13831.94
611.414	13888.66
611.771	13943.35
612.127	13881.2
612.484	13967.98
612.841	13937.02
613.198	13887.76
613.554	13962.56
613.911	14039.62
614.267	14079.62
614.624	14000.52
614.98	13974.31
615.337	14076.68
615.693	13928.66
616.05	13930.47
616.406	14056.34
616.762	14063.12
617.118	14029.67
617.475	14054.31
617.831	14096.79
618.187	14103.57
618.543	14114.19
618.899	14280.97
619.255	14164.13
619.611	14128.88
619.967	14124.81
620.323	14259.27
620.678	14211.14
621.034	14120.07
621.39	14179.95
621.746	14121.2
622.101	14378.14
622.457	14235.09
622.812	14226.73
623.168	14186.51
623.523	14236
623.879	14230.12
624.234	14149.67
624.589	14243
624.945	14213.17
625.3	14213.62
625.655	14252.04
626.01	14243
626.365	14279.61
626.72	14214.08
627.075	14229.22
627.43	14261.98
627.785	14190.57
628.14	14301.76
628.495	14222.44
628.85	14137.24
629.205	14269.22
629.559	14277.58
629.914	14168.2
630.269	14199.39
630.623	14199.16
630.978	14115.32
631.332	14202.55
631.687	14159.39
632.041	14125.49
632.396	14120.97
632.75	13998.49
633.104	14110.12
633.459	14094.08
633.813	14035.32
634.167	14078.26
634.521	14075.1
634.875	14092.5
635.229	14047.53
635.583	13996
635.937	13968.66
636.291	13922.56
636.645	13907.42
636.999	13909.68
637.352	13950.81
637.706	13875.55
638.06	13880.52
638.413	13908.09
638.767	13826.06
639.121	13970.24
639.474	13874.42
639.828	13796.91
640.181	13818.15
640.534	13768.66
640.888	13778.15
641.241	13751.26
641.594	13774.31
641.947	13797.36
642.301	13730.7
642.654	13753.97
643.007	13693.19
643.36	13646.63
643.713	13607.31
644.066	13663.58
644.419	13651.15
644.771	13536.13
645.124	13323.25
645.477	13340.43
645.83	13260.43
646.182	13245.06
646.535	13213.88
646.888	13183.59
647.24	13109.92
647.593	13188.57
647.945	13179.07
648.298	13075.35
648.65	13085.97
649.002	13125.97
649.355	13048
649.707	12994.67
650.059	13145.63
650.411	13299.98
650.763	13307.88
651.115	13386.75
651.467	13419.97
651.819	13354.44
652.171	13342.91
652.523	13308.79
652.875	13250.71
653.227	13242.8
653.578	13323.03
653.93	13271.5
654.282	13225.85
654.633	13222.69
654.985	13266.08
655.337	13235.34
655.688	13269.24
656.039	13229.69
656.391	13057.27
656.742	13135.69
657.094	13086.42
657.445	13185.18
657.796	13167.32
658.147	13126.65
658.498	13160.77
658.849	13078.29
659.2	13125.74
659.551	13072.64
659.902	13144.95
660.253	13078.96
660.604	13157.83
660.955	13077.83
661.306	13136.59
661.656	12997.16
662.007	13042.13
662.358	13055.46
662.708	13116.93
663.059	13053.2
663.409	12965.97
663.76	12988.8
664.11	13035.12
664.461	13014.11
664.811	13024.73
665.161	12979.53
665.511	12965.07
665.862	13028.8
666.212	12990.83
666.562	12972.75
666.912	12965.97
667.262	12997.61
667.612	12887.1
667.962	13033.99
668.312	12878.97
668.662	13016.37
669.011	12962.13
669.361	12882.58
669.711	12892.3
670.06	12925.97
670.41	12911.74
670.76	12918.74
671.109	12897.27
671.459	12894.34
671.808	12810.04
672.157	12832.42
672.507	12817.05
672.856	12804.62
673.205	12759.2
673.554	12808.69
673.904	12806.43
674.253	12849.82
674.602	12819.54
674.951	12614.34
675.3	12484.4
675.649	12770.05
675.998	12711.29
676.346	12741.35
676.695	12821.8
677.044	12703.38
677.393	12633.1
677.741	12728.24
678.09	12686.88
678.438	12646.21
678.787	12679.2
679.135	12707.67
679.484	12613.21
679.832	12695.02
680.181	12557.85
680.529	12571.41
680.877	12562.37
681.225	12528.24
681.573	12644.63
681.922	12501.13
682.27	12501.8
682.618	12528.47
682.966	12431.07
683.314	12438.75
683.661	12464.97
684.009	12391.75
684.357	12352.43
684.705	12329.38
685.053	12346.1
685.4	12333.67
685.748	12308.14
686.095	12237.86
686.443	12276.95
686.79	12269.49
687.138	12204.41
687.485	12285.31
687.832	12125.54
688.18	12230.4
688.527	12110.18
688.874	12091.65
689.221	12126.67
689.568	12042.83
689.915	12027.92
690.262	12007.35
690.609	11996.51
690.956	11971.42
691.303	11885.1
691.65	11878.09
691.997	11897.53
692.344	11772.78
692.69	11781.82
693.037	11806.46
693.383	11648.04
693.73	11707.93
694.077	11666.35
694.423	11607.14
694.769	11529.17
695.116	11568.27
695.462	11632.45
695.808	11577.76
696.155	11558.33
696.501	11403.08
696.847	11454.37
697.193	11429.29
697.539	11408.95
697.885	11369.63
698.231	11250.99
698.577	11280.59
698.923	11276.75
699.269	11159.92
699.614	11136.19
699.96	11176.42
700.306	11146.36
700.651	11095.06
700.997	11107.94
701.342	11002.86
701.688	11014.84
702.033	10992.47
702.379	11004.67
702.724	10980.49
703.069	10924.9
703.415	10835.18
703.76	10885.12
704.105	10764.67
704.45	10804.22
704.795	10732.59
705.14	10651.01
705.485	10716.31
705.83	10662.98
706.175	10704.79
706.52	10607.84
706.865	10597.45
707.209	10630.89
707.554	10536.66
707.899	10601.74
708.243	10535.3
708.588	10489.43
708.932	10445.59
709.277	10435.64
709.621	10452.82
709.966	10434.97
710.31	10334.63
710.654	10266.61
710.998	10339.15
711.342	10320.62
711.687	10314.52
712.031	10322.2
712.375	10224.12
712.719	10289.66
713.063	10201.53
713.407	10270.45
713.75	10233.39
714.094	10136.22
714.438	10143.45
714.782	10163.56
715.125	10085.82
715.469	10149.55
715.812	10083.56
716.156	10011.7
716.499	9996.33
716.843	10055.09
717.186	10028.2
717.53	9968.76
717.873	9977.8
718.216	9977.58
718.559	9894.87
718.902	9828.88
719.246	9962.21
719.589	9870.23
719.932	9796.56
720.275	9771.03
720.617	9791.82
720.96	9722.44
721.303	9818.26
721.646	9728.32
721.989	9708.66
722.331	9723.35
722.674	9764.93
723.016	9651.48
723.359	9685.15
723.701	9702.78
724.044	9628.66
724.386	9582.11
724.729	9676.34
725.071	9597.47
725.413	9615.55
725.755	9596.57
726.097	9521.77
726.439	9534.42
726.782	9453.3
727.124	9522.22
727.465	9519.51
727.807	9471.38
728.149	9510.47
728.491	9477.7
728.833	9479.28
729.175	9448.1
729.516	9425.05
729.858	9410.81
730.199	9438.38
730.541	9351.38
730.882	9356.35
731.224	9341.89
731.565	9284.04
731.906	9282
732.248	9356.35
732.589	9280.19
732.93	9211.95
733.271	9247.88
733.612	9190.93
733.953	9254.66
734.294	9203.36
734.635	9151.38
734.976	9232.29
735.317	9086.75
735.658	9166.75
735.999	9131.27
736.339	9088.79
736.68	9196.58
737.021	9109.58
737.361	9081.1
737.702	9073.42
738.042	9161.33
738.383	9048.56
738.723	9032.74
739.063	8976.92
739.404	8959.07
739.744	9033.87
740.084	8950.94
740.424	8994.1
740.764	8979.18
741.104	8985.29
741.444	8994.78
741.784	8956.81
742.124	8903.03
742.464	8942.8
742.804	8895.12
743.143	8852.63
743.483	8824.39
743.823	8767.44
744.162	8795.69
744.502	8782.58
744.841	8792.07
745.181	8853.31
745.52	8801.34
745.86	8771.28
746.199	8740.55
746.538	8729.7
746.877	8704.39
747.216	8677.5
747.556	8642.24
747.895	8669.81
748.234	8637.95
748.573	8576.03
748.911	8673.43
749.25	8574.9
749.589	8561.57
749.928	8583.26
750.267	8619.65
750.605	8556.37
750.944	8553.89
751.283	8458.75
751.621	8534.9
751.96	8465.98
752.298	8456.49
752.636	8484.06
752.975	8418.52
753.313	8438.18
753.651	8404.96
753.989	8404.51
754.327	8402.02
754.666	8310.5
755.004	8365.19
755.342	8401.35
755.679	8302.37
756.017	8278.86
756.355	8311.63
756.693	8267.57
757.031	8302.14
757.368	8196.15
757.706	8248.36
758.044	8223.27
758.381	8232.09
758.719	8149.38
759.056	8172.2
759.394	8104.41
759.731	8050.85
760.068	8065.54
760.405	8007.91
760.743	7991.41
761.08	7930.17
761.417	7951.87
761.754	7901.7
762.091	7901.25
762.428	7913.45
762.765	7851.3
763.102	7853.34
763.438	7801.36
763.775	7769.05
764.112	7744.42
764.449	7801.14
764.785	7762.72
765.122	7657.41
765.458	7623.06
765.795	7611.31
766.131	7713.23
766.467	7634.59
766.804	7589.62
767.14	7508.94
767.476	7530.64
767.812	7451.32
768.148	7488.38
768.485	7503.29
768.821	7500.81
769.157	7435.04
769.492	7421.71
769.828	7419.9
770.164	7299.45
770.5	7330.41
770.836	7330.87
771.171	7284.31
771.507	7215.62
771.842	7245.22
772.178	7224.2
772.513	7147.59
772.849	7167.71
773.184	7105.34
773.519	7111.89
773.855	7094.71
774.19	7077.77
774.525	7065.11
774.86	7022.17
775.195	6957.54
775.53	6909.41
775.865	6973.59
776.2	6898.11
776.535	6844.55
776.87	6872.8
777.205	6834.16
777.539	6816.98
777.874	6743.76
778.209	6769.98
778.543	6682.07
778.878	6663.31
779.212	6760.26
779.547	6705.35
779.881	6663.09
780.215	6635.07
780.55	6663.77
780.884	6558.01
781.218	6565.01
781.552	6572.02
781.886	6505.35
782.22	6541.96
782.554	6470.78
782.888	6434.39
783.222	6406.37
783.556	6412.7
783.889	6392.36
784.223	6310.33
784.557	6328.18
784.89	6289.09
785.224	6265.81
785.557	6251.12
785.891	6297.45
786.224	6247.96
786.558	6251.35
786.891	6134.74
787.224	6102.2
787.557	6144.46
787.891	6146.26
788.224	6128.86
788.557	6124.12
788.89	6067.62
789.223	6035.76
789.556	6036.44
789.888	6055.87
790.221	5974.07
790.554	5965.03
790.887	5986.04
791.219	5936.1
791.552	5919.6
791.884	5849.32
792.217	5858.59
792.549	5822.88
792.882	5807.06
793.214	5801.19
793.546	5795.31
793.879	5728.87
794.211	5739.04
794.543	5749.67
794.875	5745.15
795.207	5727.52
795.539	5705.6
795.871	5623.34
796.203	5658.14
796.535	5644.58
796.867	5605.71
797.198	5616.56
797.53	5541.31
797.862	5572.27
798.193	5602.32
798.525	5529.78
798.856	5534.08
799.188	5500.18
799.519	5474.42
799.85	5469.67
800.182	5425.61
800.513	5374.76
800.844	5407.3
801.175	5419.5
801.506	5383.57
801.837	5396
802.168	5412.27
802.499	5361.88
802.83	5302.22
803.161	5313.07
803.491	5267.87
803.822	5315.55
804.153	5264.48
804.483	5197.14
804.814	5236.23
805.145	5215.22
805.475	5199.62
805.805	5137.7
806.136	5205.5
806.466	5153.3
806.796	5162.56
807.126	5120.08
807.457	5090.47
807.787	5164.37
808.117	5080.98
808.447	5042.34
808.777	5144.94
809.107	5048.44
809.436	5058.84
809.766	5067.42
810.096	5000.31
810.426	4954.66
810.755	4983.81
811.085	4979.97
811.414	4983.13
811.744	4924.38
812.073	4940.19
812.403	4900.65
812.732	4906.3
813.061	4943.58
813.39	4862.91
813.719	4877.82
814.049	4867.65
814.378	4892.96
814.707	4874.89
815.036	4850.03
815.365	4818.16
815.693	4816.36
816.022	4793.53
816.351	4762.35
816.68	4734.55
817.008	4787.88
817.337	4713.76
817.665	4737.71
817.994	4707.66
818.322	4717.15
818.651	4713.99
818.979	4700.2
819.307	4684.16
819.636	4668.11
819.964	4614.1
820.292	4655.91
820.62	4642.8
820.948	4672.86
821.276	4662.46
821.604	4650.94
821.932	4680.31
822.259	4638.06
822.587	4652.29
822.915	4646.42
823.243	4641.22
823.57	4625.17
823.898	4658.85
824.225	4608.9
824.553	4618.4
824.88	4586.08
825.207	4589.92
825.535	4644.16
825.862	4636.02
826.189	4612.97
826.516	4650.26
826.843	4665.85
827.17	4615.68
827.497	4665.85
827.824	4631.28
828.151	4666.53
828.478	4609.36
828.805	4636.25
829.131	4560.54
829.458	4608.23
829.785	4579.75
830.111	4637.15
830.438	4607.32
830.764	4577.04
831.09	4597.15
831.417	4579.98
831.743	4615.46
832.069	4598.74
832.395	4603.25
832.722	4637.6
833.048	4587.66
833.374	4606.42
833.7	4598.96
834.026	4562.13
834.351	4587.44
834.677	4537.04
835.003	4545.63
835.329	4604.84
835.654	4579.3
835.98	4574.33
836.306	4546.98
836.631	4496.36
836.956	4566.19
837.282	4569.58
837.607	4558.96
837.932	4506.99
838.258	4533.88
838.583	4513.99
838.908	4481.68
839.233	4473.31
839.558	4501.79
839.883	4468.57
840.208	4465.63
840.533	4451.85
840.858	4451.17
841.182	4488.68
841.507	4431.06
841.832	4436.48
842.156	4405.07
842.481	4411.4
842.805	4412.3
843.13	4423.6
843.454	4377.72
843.778	4359.42
844.103	4368.23
844.427	4346.09
844.751	4355.35
845.075	4388.12
845.399	4365.07
845.723	4316.03
846.047	4314.9
846.371	4287.33
846.695	4310.83
847.019	4219.08
847.343	4233.55
847.666	4207.11
847.99	4167.33
848.313	4184.28
848.637	4187.45
848.96	4153.32
849.284	4152.65
849.607	4137.96
849.931	4089.6
850.254	4060.9
850.577	4115.36
850.9	4072.2
851.223	4011.86
851.546	4035.13
851.869	3990.84
852.192	3991.29
852.515	3979.54
852.838	3992.65
853.161	3986.77
853.483	3964.18
853.806	3936.83
854.129	3919.88
854.451	3853.44
854.774	3875.82
855.096	3867.68
855.419	3900
855.741	3869.49
856.063	3835.37
856.385	3893.22
856.708	3868.13
857.03	3793.33
857.352	3821.81
857.674	3809.15
857.996	3765.99
858.318	3775.93
858.64	3736.61
858.961	3772.09
859.283	3743.39
859.605	3763.95
859.926	3732.32
860.248	3744.97
860.57	3701.13
860.891	3725.76
861.212	3714.24
861.534	3705.65
861.855	3693.45
862.176	3671.08
862.498	3651.42
862.819	3663.17
863.14	3684.18
863.461	3674.01
863.782	3615.26
864.103	3613.9
864.424	3643.73
864.745	3655.71
865.065	3602.38
865.386	3552.21
865.707	3583.39
866.027	3611.42
866.348	3581.81
866.668	3635.82
866.989	3628.82
867.309	3592.43
867.63	3572.32
867.95	3592.89
868.27	3550.63
868.59	3544.75
868.91	3503.85
869.23	3563.51
869.55	3537.07
869.87	3518.09
870.19	3523.51
870.51	3566.45
870.83	3556.05
871.15	3489.39
871.469	3494.58
871.789	3494.81
872.109	3523.28
872.428	3470.86
872.748	3501.81
873.067	3464.75
873.386	3474.92
873.706	3485.54
874.025	3459.56
874.344	3420.23
874.663	3495.26
874.982	3448.71
875.301	3434.7
875.62	3468.82
875.939	3444.42
876.258	3469.5
876.577	3436.28
876.896	3437.86
877.214	3392.67
877.533	3395.6
877.852	3373.46
878.17	3384.08
878.489	3433.12
878.807	3429.73
879.125	3399.22
879.444	3362.84
879.762	3354.25
880.08	3357.86
880.398	3372.1
880.716	3377.98
881.034	3338.88
881.352	3366.68
881.67	3314.02
881.988	3339.11
882.306	3322.84
882.624	3313.57
882.941	3299.56
883.259	3324.19
883.577	3323.74
883.894	3287.81
884.212	3323.29
884.529	3307.47
884.846	3258.88
885.164	3286.68
885.481	3264.08
885.798	3267.02
886.115	3249.39
886.432	3275.15
886.75	3228.38
887.067	3239.45
887.383	3244.87
887.7	3212.78
888.017	3183.63
888.334	3195.83
888.651	3170.75
888.967	3181.6
889.284	3219.34
889.6	3170.52
889.917	3138.21
890.233	3145.21
890.55	3137.3
890.866	3134.82
891.182	3138.89
891.498	3110.41
891.815	3093.69
892.131	3062.5
892.447	3069.28
892.763	3102.28
893.079	3067.7
893.395	3064.09
893.71	3072.22
894.026	3058.44
894.342	3055.27
894.657	3009.85
894.973	3037.42
895.289	3040.58
895.604	2976.18
895.92	2997.2
896.235	2977.53
896.55	2980.92
896.865	2979.34
897.181	2974.37
897.496	2981.83
897.811	2950.19
898.126	2957.65
898.441	2924.88
898.756	2911.55
899.071	2904.32
899.386	2909.29
899.7	2849.18
900.015	2893.7
900.33	2851.66
900.644	2874.26
900.959	2876.07
901.273	2861.15
901.588	2831.1
901.902	2806.47
902.216	2818.22
902.531	2818.67
902.845	2832.45
903.159	2758.56
903.473	2776.18
903.787	2815.96
904.101	2813.47
904.415	2785
904.729	2771.21
905.042	2709.97
905.356	2706.36
905.67	2706.13
905.984	2723.08
906.297	2696.64
906.611	2660.71
906.924	2713.81
907.237	2656.87
907.551	2700.71
907.864	2633.14
908.177	2646.24
908.491	2620.26
908.804	2601.5
909.117	2658.9
909.43	2611.22
909.743	2603.08
910.056	2585.68
910.368	2569.86
910.681	2579.58
910.994	2542.97
911.307	2566.02
911.619	2552.69
911.932	2547.72
912.244	2526.47
912.557	2524.67
912.869	2496.19
913.181	2546.13
913.494	2463.42
913.806	2501.39
914.118	2457.77
914.43	2460.26
914.742	2460.26
915.054	2444.44
915.366	2453.71
915.678	2423.88
915.99	2424.33
916.302	2394.05
916.613	2393.37
916.925	2399.02
917.236	2378
917.548	2370.09
917.859	2425.01
918.171	2348.62
918.482	2344.11
918.794	2333.71
919.105	2312.92
919.416	2340.72
919.727	2308.63
920.038	2314.28
920.349	2310.21
920.66	2289.87
920.971	2298
921.282	2277.89
921.593	2262.98
921.903	2227.5
922.214	2218.91
922.525	2215.75
922.835	2202.19
923.146	2220.49
923.456	2189.53
923.767	2196.09
924.077	2207.16
924.387	2200.83
924.697	2166.93
925.008	2186.6
925.318	2165.13
925.628	2165.8
925.938	2147.73
926.248	2138.91
926.558	2105.92
926.867	2105.24
927.177	2124
927.487	2109.53
927.796	2125.58
928.106	2094.17
928.416	2103.66
928.725	2101.63
929.034	2087.84
929.344	2058.01
929.653	2039.25
929.962	2082.42
930.271	2053.27
930.581	2060.27
930.89	2030.44
931.199	2037.45
931.508	2055.3
931.817	2011.01
932.125	1993.61
932.434	2023.21
932.743	1974.62
933.051	1972.82
933.36	1945.92
933.669	1936.66
933.977	1940.27
934.286	1942.08
934.594	1942.99
934.902	1921.29
935.21	1940.27
935.519	1942.08
935.827	1947.05
936.135	1896.89
936.443	1890.11
936.751	1921.74
937.059	1886.72
937.367	1848.75
937.674	1881.52
937.982	1858.02
938.29	1853.04
938.597	1829.54
938.905	1835.42
939.213	1830.45
939.52	1807.17
939.827	1836.32
940.135	1842.2
940.442	1807.4
940.749	1807.85
941.056	1814.85
941.363	1811.46
941.67	1818.24
941.977	1768.98
942.284	1767.17
942.591	1758.13
942.898	1743.67
943.205	1754.97
943.511	1736.44
943.818	1750.22
944.125	1733.5
944.431	1721.07
944.738	1713.16
945.044	1717.23
945.35	1679.04
945.657	1706.16
945.963	1694.4
946.269	1672.03
946.575	1660.51
946.881	1648.76
947.187	1690.56
947.493	1664.12
947.799	1647.17
948.105	1660.51
948.41	1618.47
948.716	1630.45
949.022	1621.64
949.327	1620.73
949.633	1592.26
949.938	1613.5
950.244	1567.85
950.549	1608.31
950.854	1588.42
951.16	1563.79
951.465	1603.56
951.77	1593.16
952.075	1580.51
952.38	1530.12
952.685	1566.72
952.99	1554.52
953.294	1538.02
953.599	1532.6
953.904	1533.96
954.209	1562.43
954.513	1528.31
954.818	1516.56
955.122	1523.56
955.426	1491.92
955.731	1518.14
956.035	1505.93
956.339	1478.59
956.643	1483.34
956.948	1473.39
957.252	1467.29
957.556	1471.36
957.86	1480.17
958.163	1462.32
958.467	1457.8
958.771	1436.78
959.075	1445.6
959.378	1445.6
959.682	1423
959.985	1420.74
960.289	1425.26
960.592	1405.37
960.896	1410.57
961.199	1406.28
961.502	1445.15
961.805	1430.91
962.108	1385.94
962.411	1394.98
962.714	1386.16
963.017	1388.65
963.32	1397.92
963.623	1364.02
963.926	1373.51
964.228	1356.56
964.531	1364.92
964.833	1326.5
965.136	1350.01
965.438	1346.39
965.741	1320.18
966.043	1340.52
966.345	1313.62
966.648	1347.75
966.95	1311.14
967.252	1295.77
967.554	1304.13
967.856	1314.75
968.158	1305.71
968.46	1312.49
968.761	1276.79
969.063	1281.31
969.365	1279.5
969.666	1276.34
969.968	1280.18
970.269	1251.48
970.571	1255.77
970.872	1248.99
971.174	1254.19
971.475	1259.61
971.776	1245.83
972.077	1224.36
972.378	1231.14
972.679	1233.85
972.98	1230.46
973.281	1230.24
973.582	1229.78
973.883	1232.27
974.183	1214.19
974.484	1182.78
974.785	1177.36
975.085	1231.82
975.386	1196.34
975.686	1189.11
975.986	1182.78
976.287	1199.95
976.587	1173.06
976.887	1178.26
977.187	1168.09
977.487	1175.1
977.787	1142.1
978.087	1156.79
978.387	1138.04
978.687	1147.07
978.987	1133.97
979.286	1121.54
979.586	1161.31
979.885	1150.24
980.185	1125.38
980.484	1143.46
980.784	1112.95
981.083	1109.11
981.382	1099.39
981.682	1123.57
981.981	1114.53
982.28	1089.22
982.579	1103.01
982.878	1085.61
983.177	1084.03
983.475	1086.06
983.774	1092.61
984.073	1092.61
984.372	1079.28
984.67	1089.22
984.969	1077.02
985.267	1095.1
985.566	1055.55
985.864	1070.92
986.162	1057.81
986.461	1039.51
986.759	1046.51
987.057	1032.5
987.355	1055.55
987.653	1002.45
987.951	1023.46
988.249	993.63
988.547	993.41
988.844	1034.76
989.142	1024.82
989.44	1022.33
989.737	999.96
990.035	999.51
990.332	999.96
990.63	1037.25
990.927	984.37
991.224	990.92
991.521	961.54
991.819	975.33
992.116	995.89
992.413	999.51
992.71	962.9
993.006	989.56
993.303	964.03
993.6	971.71
993.897	955.67
994.193	954.31
994.49	985.27
994.787	934.65
995.083	925.16
995.379	940.07
995.676	925.61
995.972	900.75
996.268	924.26
996.565	914.31
996.861	900.98
997.157	898.72
997.453	933.07
997.749	931.49
998.044	907.31
998.34	916.12
998.636	907.08
998.932	894.43
999.227	908.21
999.523	901.66
999.818	882.45
1000.114	891.49
1000.409	889
1000.704	885.61
1001	870.47
1001.295	877.93
1001.59	872.96
1001.885	864.14
1002.18	869.12
1002.475	852.39
1002.77	845.61
1003.065	844.71
1003.359	863.01
1003.654	866.18
1003.949	843.13
1004.243	844.48
1004.538	825.27
1004.832	815.56
1005.127	808.1
1005.421	827.76
1005.715	817.37
1006.009	824.37
1006.304	816.91
1006.598	801.77
1006.892	801.77
1007.186	815.78
1007.48	796.12
1007.773	794.32
1008.067	810.36
1008.361	779.63
1008.655	829.57
1008.948	784.82
1009.242	782.79
1009.535	777.82
1009.829	780.3
1010.122	759.51
1010.415	740.98
1010.708	774.2
1011.001	776.24
1011.295	765.16
1011.588	750.47
1011.881	778.95
1012.173	770.59
1012.466	756.12
1012.759	729.46
1013.052	753.64
1013.344	743.02
1013.637	724.26
1013.93	719.74
1014.222	721.55
1014.514	724.03
1014.807	748.67
1015.099	704.6
1015.391	698.95
1015.683	718.61
1015.976	697.14
1016.268	706.41
1016.56	688.56
1016.851	707.54
1017.143	684.94
1017.435	701.89
1017.727	688.56
1018.018	715.22
1018.31	683.36
1018.602	698.72
1018.893	692.62
1019.185	669.12
1019.476	660.53
1019.767	668.89
1020.058	668.22
1020.35	648.56
1020.641	662.34
1020.932	661.89
1021.223	646.3
1021.514	680.87
1021.804	633.42
1022.095	668.22
1022.386	662.34
1022.677	640.65
1022.967	647.88
1023.258	623.7
1023.548	637.94
1023.839	640.65
1024.129	608.33
1024.419	621.44
1024.709	617.37
1025	641.1
1025.29	631.38
1025.58	618.5
1025.87	615.79
1026.16	609.46
1026.449	606.07
1026.739	589.12
1027.029	608.56
1027.319	598.39
1027.608	606.98
1027.898	600.2
1028.187	585.73
1028.477	592.29
1028.766	573.53
1029.055	595.68
1029.344	583.47
1029.634	580.54
1029.923	575.34
1030.212	566.75
1030.501	593.87
1030.79	572.85
1031.078	554.77
1031.367	565.62
1031.656	570.82
1031.945	571.5
1032.233	565.85
1032.522	545.28
1032.81	559.75
1033.099	559.97
1033.387	568.56
1033.675	558.62
1033.963	526.3
1034.251	542.12
1034.54	535.57
1034.828	534.44
1035.116	550.93
1035.403	533.31
1035.691	522.68
1035.979	547.54
1036.267	513.42
1036.554	515.68
1036.842	531.72
1037.129	525.85
1037.417	519.97
1037.704	530.82
1037.992	514.1
1038.279	525.17
1038.566	512.74
1038.853	512.74
1039.14	512.74
