Data from black_metal_pc_casing_FLMS001491_00098.txt Node
Date: Wed Feb 08 14:33:48 GMT 2017
User: dcchb
Spectrometer: FLMS00149
Trigger mode: 0
Integration Time (sec): 2.000000E-2
Scans to average: 10
Electric dark correction enabled: true
Nonlinearity correction enabled: false
Boxcar width: 0
XAxis mode: Wavelengths
Number of Pixels in Spectrum: 2048
>>>>>Begin Spectral Data<<<<<
341.393	-17.74
341.776	-17.74
342.16	-17.74
342.543	-44.41
342.927	-67.46
343.31	-82.37
343.693	-66.55
344.077	-58.42
344.46	-57.51
344.843	-27.68
345.226	-49.38
345.61	-36.5
345.993	-19.32
346.376	-5.31
346.759	5.76
347.142	12.32
347.525	37.63
347.908	63.61
348.291	92.54
348.674	85.31
349.057	105.87
349.44	139.09
349.823	148.81
350.206	151.97
350.588	189.94
350.971	212.99
351.354	223.38
351.737	222.71
352.119	245.98
352.502	250.95
352.884	280.33
353.267	261.35
353.65	294.34
354.032	283.72
354.414	281.91
354.797	302.7
355.179	332.53
355.562	330.5
355.944	312.42
356.326	306.09
356.709	314
357.091	322.59
357.473	337.96
357.855	330.95
358.238	341.12
358.62	341.35
359.002	323.49
359.384	332.76
359.766	334.57
360.148	331.18
360.53	318.3
360.912	347.22
361.294	329.37
361.676	335.47
362.057	329.14
362.439	319.43
362.821	336.15
363.203	315.36
363.584	310.61
363.966	319.88
364.348	317.62
364.729	322.59
365.111	313.1
365.493	323.49
365.874	318.97
366.256	337.05
366.637	322.36
367.019	314.91
367.4	332.99
367.781	324.85
368.163	329.6
368.544	330.5
368.925	324.62
369.306	340.89
369.688	333.66
370.069	297.96
370.45	316.94
370.831	324.17
371.212	312.65
371.593	313.1
371.974	320.33
372.355	313.78
372.736	328.69
373.117	310.39
373.498	311.07
373.879	313.33
374.26	320.56
374.641	322.82
375.021	333.89
375.402	331.86
375.783	309.71
376.163	341.12
376.544	359.65
376.925	337.51
377.305	346.54
377.686	327.79
378.066	354.91
378.447	339.99
378.827	341.8
379.208	335.92
379.588	327.56
379.968	336.6
380.349	351.52
380.729	343.83
381.109	374.57
381.489	344.96
381.87	355.81
382.25	366.21
382.63	364.17
383.01	369.82
383.39	368.24
383.77	351.29
384.15	375.7
384.53	362.59
384.91	369.59
385.29	354.23
385.67	369.37
386.049	375.47
386.429	382.25
386.809	384.51
387.189	387.9
387.568	378.41
387.948	385.41
388.328	383.15
388.707	388.58
389.087	383.83
389.466	390.16
389.846	398.07
390.225	398.07
390.605	380.44
390.984	398.97
391.363	410.5
391.743	391.29
392.122	397.16
392.501	403.72
392.881	403.04
393.26	423.38
393.639	413.89
394.018	416.83
394.397	415.47
394.776	426.77
395.155	434.68
395.534	416.15
395.913	405.75
396.292	432.64
396.671	422.02
397.05	422.93
397.429	449.14
397.808	460.44
398.186	440.33
398.565	438.29
398.944	441.46
399.323	450.27
399.701	443.72
400.08	440.33
400.458	463.38
400.837	494.56
401.215	464.28
401.594	456.6
401.972	462.25
402.351	480.78
402.729	464.06
403.107	452.3
403.486	473.09
403.864	459.08
404.242	481.68
404.62	478.52
404.999	487.33
405.377	509.93
405.755	483.04
406.133	482.81
406.511	510.61
406.889	513.09
407.267	507.22
407.645	501.34
408.023	512.19
408.401	512.87
408.779	529.36
409.156	531.85
409.534	529.82
409.912	522.13
410.29	545.86
410.667	560.78
411.045	552.64
411.422	580.89
411.8	557.84
412.178	559.65
412.555	575.92
412.933	587.22
413.31	573.88
413.687	595.58
414.065	589.02
414.442	611.17
414.819	607.78
415.197	602.81
415.574	632.41
415.951	629.93
416.328	620.66
416.705	633.54
417.082	625.18
417.46	641.23
417.837	648.91
418.214	652.3
418.591	647.33
418.967	660.21
419.344	652.07
419.721	659.76
420.098	670.6
420.475	659.76
420.852	681.23
421.228	681.23
421.605	698.17
421.982	691.39
422.358	693.43
422.735	712.18
423.111	708.79
423.488	699.53
423.864	723.71
424.241	729.59
424.617	725.29
424.994	718.96
425.37	727.55
425.746	740.21
426.123	737.27
426.499	746.31
426.875	759.19
427.251	776.14
427.627	791.28
428.003	783.6
428.379	785.18
428.756	789.24
429.132	806.19
429.507	810.71
429.883	844.84
430.259	818.85
430.635	843.03
431.011	829.47
431.387	852.75
431.763	861.33
432.138	878.06
432.514	900.88
432.89	907.21
433.265	898.85
433.641	923.25
434.016	926.19
434.392	937.72
434.767	943.14
435.143	937.94
435.518	964.16
435.894	970.71
436.269	973.65
436.644	983.14
437.02	990.6
437.395	989.01
437.77	1002.35
438.145	1024.27
438.52	1027.88
438.895	1046.64
439.271	1043.25
439.646	1066.3
440.021	1060.2
440.395	1074.21
440.77	1048
441.145	1078.73
441.52	1083.02
441.895	1087.77
442.27	1118.28
442.645	1111.95
443.019	1145.39
443.394	1104.26
443.769	1118.95
444.143	1115.11
444.518	1151.72
444.892	1118.28
445.267	1128.22
445.641	1156.69
446.016	1174.55
446.39	1166.41
446.764	1162.57
447.139	1198.27
447.513	1174.32
447.887	1201.89
448.262	1210.02
448.636	1225.17
449.01	1254.09
449.384	1212.74
449.758	1211.61
450.132	1227.65
450.506	1247.76
450.88	1258.84
451.254	1235.11
451.628	1257.03
452.002	1287.54
452.376	1261.55
452.75	1322.11
453.123	1350.81
453.497	1332.51
453.871	1340.19
454.244	1375.67
454.618	1395.56
454.992	1430.58
455.365	1398.27
455.739	1409.57
456.112	1418.38
456.486	1484.37
456.859	1478.27
457.232	1493.18
457.606	1464.03
457.979	1516.01
458.352	1507.64
458.725	1552.39
459.099	1546.51
459.472	1598.94
459.845	1596.68
460.218	1608.43
460.591	1586.74
460.964	1624.48
461.337	1666.06
461.71	1680.97
462.083	1718.49
462.456	1683.68
462.829	1726.85
463.201	1748.77
463.574	1770.91
463.947	1760.52
464.32	1814.75
464.692	1807.3
465.065	1805.26
465.438	1861.98
465.81	1882.1
466.183	1920.29
466.555	1945.82
466.928	1958.25
467.3	1931.14
467.672	1959.38
468.045	2021.75
468.417	2005.03
468.789	2028.08
469.161	2076.22
469.534	2107.4
469.906	2111.47
470.278	2129.77
470.65	2162.77
471.022	2199.6
471.394	2290.22
471.766	2251.35
472.138	2281.41
472.51	2322.31
472.882	2354.18
473.253	2418.13
473.625	2429.65
473.997	2476.66
474.369	2479.37
474.74	2503.78
475.112	2563.89
475.484	2618.35
475.855	2609.76
476.227	2620.84
476.598	2729.76
476.97	2743.54
477.341	2826.48
477.713	2844.56
478.084	2876.65
478.455	2923.65
478.827	2922.75
479.198	3030.54
479.569	3050.43
479.94	3133.59
480.311	3113.7
480.682	3229.41
481.053	3260.37
481.424	3295.62
481.795	3329.97
482.166	3374.04
482.537	3409.51
482.908	3487.48
483.279	3537.2
483.65	3571.32
484.021	3643.63
484.391	3645.21
484.762	3717.3
485.133	3775.38
485.503	3797.08
485.874	3849.5
486.244	3928.82
486.615	3961.59
486.985	4033
487.356	4124.07
487.726	4140.8
488.097	4201.81
488.467	4224.63
488.837	4308.7
489.207	4339.66
489.578	4360.9
489.948	4482.93
490.318	4540.78
490.688	4534.68
491.058	4571.97
491.428	4638.18
491.798	4720.44
492.168	4797.95
492.538	4782.36
492.908	4843.83
493.278	4938.06
493.648	4985.74
494.017	4996.82
494.387	5024.84
494.757	5089.24
495.126	5193.2
495.496	5184.16
495.866	5199.3
496.235	5250.82
496.605	5290.14
496.974	5286.98
497.344	5358.62
497.713	5415.79
498.082	5472.74
498.452	5522.68
498.821	5577.59
499.19	5533.07
499.559	5623.24
499.928	5643.81
500.298	5724.71
500.667	5769.9
501.036	5722
501.405	5797.93
501.774	5829.11
502.143	5884.93
502.512	5878.38
502.88	5964.7
503.249	5931.93
503.618	5980.29
503.987	6078.82
504.356	6049.45
504.724	6157.92
505.093	6117.47
505.462	6207.63
505.83	6167.18
506.199	6270.68
506.567	6334.41
506.936	6399.04
507.304	6395.65
507.672	6439.94
508.041	6476.55
508.409	6526.95
508.777	6598.13
509.145	6610.56
509.514	6733.04
509.882	6712.25
510.25	6734.63
510.618	6771.91
510.986	6827.96
511.354	6873.6
511.722	6947.5
512.09	7011.23
512.458	6977.56
512.826	7044.45
513.193	7084.45
513.561	7203.99
513.929	7199.25
514.297	7318.79
514.664	7333.48
515.032	7370.31
515.4	7426.58
515.767	7450.54
516.135	7477.2
516.502	7505.68
516.869	7658.67
517.237	7645.79
517.604	7684.88
517.972	7738.44
518.339	7825.22
518.706	7749.06
519.073	7892.33
519.44	7944.08
519.808	7991.09
520.175	8023.18
520.542	8145.44
520.909	8156.96
521.276	8153.57
521.643	8264.75
522.009	8357.63
522.376	8423.62
522.743	8466.56
523.11	8531.19
523.477	8617.06
523.843	8602.37
524.21	8710.17
524.577	8854.57
524.943	8801.01
525.31	8980.67
525.676	9028.8
526.043	9021.12
526.409	9159.65
526.776	9229.25
527.142	9249.36
527.508	9266.31
527.874	9405.29
528.241	9465.85
528.607	9528.22
528.973	9470.6
529.339	9615.91
529.705	9719.63
530.071	9723.25
530.437	9770.48
530.803	9822.45
531.169	9875.56
531.535	9874.2
531.901	9916.46
532.267	9968.66
532.632	10103.12
532.998	10099.51
533.364	10162.33
533.73	10189.45
534.095	10245.72
534.461	10290.46
534.826	10372.5
535.192	10410.69
535.557	10488.88
535.923	10483.68
536.288	10537.24
536.653	10612.04
537.019	10590.34
537.384	10682.77
537.749	10727.74
538.114	10752.37
538.479	10845.03
538.845	10804.12
539.21	10896.55
539.575	10930.67
539.94	10933.61
540.305	10995.53
540.67	11017.9
541.034	11029.43
541.399	11054.96
541.764	11129.31
542.129	11154.85
542.494	11222.64
542.858	11202.08
543.223	11243.66
543.587	11264
543.952	11311.91
544.316	11474.61
544.681	11369.98
545.045	11428.51
545.41	11576.76
545.774	11524.33
546.138	11493.82
546.503	11677.09
546.867	11617.89
547.231	11783.76
547.595	11793.48
547.959	11820.14
548.324	11861.04
548.688	11842.97
549.052	11827.6
549.416	11873.93
549.779	11892.46
550.143	12004.09
550.507	12082.51
550.871	12098.78
551.235	12067.37
551.599	12113.01
551.962	12234.82
552.326	12237.53
552.689	12380.13
553.053	12277.76
553.417	12365.89
553.78	12489.95
554.143	12457.86
554.507	12633.45
554.87	12576.51
555.234	12674.36
555.597	12613.34
555.96	12721.81
556.323	12728.37
556.686	12785.54
557.05	12920.68
557.413	12936.95
557.776	12947.34
558.139	13008.36
558.502	13113.21
558.865	13149.37
559.228	13260.78
559.59	13261.01
559.953	13293.32
560.316	13468.01
560.679	13333.55
561.041	13536.48
561.404	13586.2
561.767	13690.6
562.129	13605.86
562.492	13852.86
562.854	13730.6
563.217	13864.61
563.579	13830.03
563.941	13961.1
564.304	14014.89
564.666	14114.09
565.028	14160.64
565.39	14238.61
565.753	14345.05
566.115	14304.37
566.477	14366.74
566.839	14344.14
567.201	14484.93
567.563	14540.75
567.925	14631.82
568.287	14628.65
568.648	14685.6
569.01	14771.25
569.372	14813.06
569.734	14831.36
570.095	14946.84
570.457	14959.27
570.819	15081.52
571.18	14996.1
571.542	15158.36
571.903	15241.29
572.265	15173.73
572.626	15299.37
572.987	15296.66
573.349	15369.65
573.71	15437.45
574.071	15445.13
574.432	15451.68
574.794	15533.72
575.155	15645.13
575.516	15521.51
575.877	15691.68
576.238	15572.58
576.599	15700.27
576.96	15594.05
577.32	15657.1
577.681	15743.2
578.042	15763.54
578.403	15843.09
578.763	15861.62
579.124	15833.37
579.485	15985.91
579.845	15988.62
580.206	15901.62
580.566	15985.23
580.927	15949.75
581.287	16037.88
581.648	15985.91
582.008	16136.86
582.368	16015.74
582.728	16097.32
583.089	16059.13
583.449	16019.35
583.809	15999.92
584.169	16202.4
584.529	16122.85
584.889	16145.23
585.249	16095.51
585.609	16081.05
585.969	16077.88
586.329	16078.56
586.688	16135.73
587.048	16180.7
587.408	16166.47
587.768	16108.62
588.127	16102.29
588.487	16133.25
588.846	16274.04
589.206	16118.79
589.565	16094.38
589.925	16213.92
590.284	16146.58
590.643	16238.56
591.003	16271.32
591.362	16302.51
591.721	16181.61
592.08	16222.06
592.44	16289.4
592.799	16285.56
593.158	16324.43
593.517	16228.16
593.876	16259.57
594.235	16300.48
594.593	16294.37
594.952	16239.46
595.311	16173.47
595.67	16381.6
596.029	16456.86
596.387	16372.79
596.746	16355.84
597.104	16330.31
597.463	16334.6
597.822	16457.08
598.18	16364.2
598.538	16355.39
598.897	16499.11
599.255	16345.45
599.613	16598.09
599.972	16487.82
600.33	16500.47
600.688	16486.91
601.046	16509.28
601.404	16523.29
601.762	16491.66
602.12	16641.03
602.478	16605.1
602.836	16576.17
603.194	16564.2
603.552	16589.96
603.91	16589.06
604.268	16585.44
604.625	16702.05
604.983	16648.26
605.341	16674.25
605.698	16747.24
606.056	16768.49
606.413	16703.4
606.771	16811.87
607.128	16761.48
607.485	16640.58
607.843	16783.4
608.2	16780.69
608.557	16964.64
608.914	16766.9
609.272	16913.79
609.629	16982.49
609.986	16946.33
610.343	16897.3
610.7	17118.76
611.057	17045.54
611.414	16993.34
611.771	16944.53
612.127	17161.7
612.484	17107.46
612.841	17098.87
613.198	17030.85
613.554	17049.61
613.911	17098.42
614.267	17107.69
614.624	17119.66
614.98	17127.12
615.337	17230.39
615.693	17189.72
616.05	17205.76
616.406	17311.75
616.762	17153.79
617.118	17221.58
617.475	17283.5
617.831	17285.99
618.187	17303.84
618.543	17341.8
618.899	17440.33
619.255	17415.93
619.611	17400.11
619.967	17417.96
620.323	17462.93
620.678	17305.19
621.034	17403.27
621.39	17308.58
621.746	17455.47
622.101	17603.27
622.457	17332.99
622.812	17391.07
623.168	17473.33
623.523	17492.53
623.879	17584.28
624.234	17408.47
624.589	17556.49
624.945	17470.39
625.3	17522.59
625.655	17523.95
626.01	17472.2
626.365	17522.36
626.72	17452.99
627.075	17536.38
627.43	17539.99
627.785	17422.25
628.14	17465.42
628.495	17471.74
628.85	17382.93
629.205	17422.71
629.559	17565.98
629.914	17449.37
630.269	17431.52
630.623	17330.5
630.978	17295.25
631.332	17351.52
631.687	17433.55
632.041	17306.1
632.396	17328.24
632.75	17309.49
633.104	17222.49
633.459	17302.26
633.813	17314.46
634.167	17310.62
634.521	17356.49
634.875	17229.49
635.229	17172.09
635.583	17116.95
635.937	17111.08
636.291	17116.95
636.645	17204.18
636.999	17096.84
637.352	17106.78
637.706	17088.03
638.06	17026.78
638.413	16979.1
638.767	16989.5
639.121	16895.04
639.474	16902.27
639.828	16964.19
640.181	16878.09
640.534	16909.72
640.888	16912.21
641.241	16824.3
641.594	16952.89
641.947	16788.82
642.301	16820.01
642.654	16871.99
643.007	16785.89
643.36	16814.13
643.713	16770.29
644.066	16784.76
644.419	16689.84
644.771	16639
645.124	16461.38
645.477	16383.86
645.83	16281.27
646.182	16218.22
646.535	16149.74
646.888	16209.63
647.24	16099.12
647.593	16192.23
647.945	16198.78
648.298	16150.87
648.65	16064.78
649.002	15987.49
649.355	16028.39
649.707	16135.73
650.059	16116.07
650.411	16319.68
650.763	16249.86
651.115	16532.56
651.467	16368.5
651.819	16373.69
652.171	16315.16
652.523	16368.27
652.875	16312.23
653.227	16278.56
653.578	16300.93
653.93	16334.15
654.282	16270.87
654.633	16198.78
654.985	16201.49
655.337	16173.25
655.688	16173.25
656.039	16292.79
656.391	16228.39
656.742	16191.1
657.094	16290.76
657.445	16202.62
657.796	16234.04
658.147	16139.58
658.498	16132.8
658.849	16135.96
659.2	16110.42
659.551	16058.45
659.902	16186.81
660.253	16065.91
660.604	16116.75
660.955	16030.43
661.306	16058
661.656	15989.98
662.007	16022.74
662.358	16015.96
662.708	15993.14
663.059	15967.6
663.409	15835.4
663.76	15954.04
664.11	15987.49
664.461	16019.35
664.811	16061.39
665.161	16051.22
665.511	15847.83
665.862	16046.02
666.212	15923.99
666.562	15930.99
666.912	15925.8
667.262	16017.54
667.612	15899.13
667.962	15870.66
668.312	15900.71
668.662	15901.62
669.011	15914.5
669.361	15937.55
669.711	15889.86
670.06	15818
670.41	15831.11
670.76	15822.97
671.109	15841.73
671.459	15899.58
671.808	15793.14
672.157	15799.92
672.507	15706.59
672.856	15751.11
673.205	15755.86
673.554	15718.57
673.904	15651
674.253	15738
674.602	15717.21
674.951	15507.5
675.3	15440.38
675.649	15701.4
675.998	15694.39
676.346	15619.82
676.695	15638.12
677.044	15468.86
677.393	15603.32
677.741	15538.01
678.09	15458.92
678.438	15501.63
678.787	15500.95
679.135	15549.31
679.484	15473.6
679.832	15512.7
680.181	15358.35
680.529	15387.73
680.877	15366.71
681.225	15362.19
681.573	15498.69
681.922	15249.2
682.27	15331.69
682.618	15313.83
682.966	15381.63
683.314	15260.28
683.661	15241.07
684.009	15244.46
684.357	15140.96
684.705	15200.17
685.053	15171.01
685.4	15167.4
685.748	15013.5
686.095	15088.08
686.443	14994.97
686.79	14998.59
687.138	14985.48
687.485	14952.49
687.832	14972.15
688.18	14934.86
688.527	14808.31
688.874	14826.62
689.221	14838.37
689.568	14759.05
689.915	14761.53
690.262	14715.21
690.609	14619.39
690.956	14641.54
691.303	14577.81
691.65	14531.48
691.997	14548.43
692.344	14385.5
692.69	14387.31
693.037	14435.21
693.383	14387.53
693.73	14424.37
694.077	14274.31
694.423	14286.29
694.769	14232.96
695.116	14213.98
695.462	14212.39
695.808	14078.84
696.155	14199.97
696.501	14013.3
696.847	14087.65
697.193	13935.11
697.539	14020.54
697.885	13906.41
698.231	13904.38
698.577	13941.22
698.923	13808.56
699.269	13686.76
699.614	13753.42
699.96	13684.95
700.306	13669.81
700.651	13562.47
700.997	13571.06
701.342	13529.7
701.688	13508.01
702.033	13391.85
702.379	13595.91
702.724	13394.79
703.069	13505.97
703.415	13268.01
703.76	13395.92
704.105	13317.05
704.45	13291.74
704.795	13211.07
705.14	13189.82
705.485	13226.88
705.83	13079.09
706.175	13202.7
706.52	13054.01
706.865	13002.03
707.209	13011.97
707.554	12927.46
707.899	12963.61
708.243	12801.81
708.588	12918.64
708.932	12838.65
709.277	12844.75
709.621	12793.67
709.966	12741.25
710.31	12731.3
710.654	12640.46
710.998	12672.1
711.342	12682.49
711.687	12712.55
712.031	12546.45
712.375	12577.86
712.719	12586.22
713.063	12525.66
713.407	12596.39
713.75	12475.04
714.094	12502.16
714.438	12458.32
714.782	12533.12
715.125	12377.19
715.469	12458.09
715.812	12312.56
716.156	12229.62
716.499	12260.81
716.843	12219.45
717.186	12174.48
717.53	12233.69
717.873	12253.35
718.216	12123.64
718.559	12200.47
718.902	12134.48
719.246	12101.72
719.589	12057.2
719.932	12009.97
720.275	12061.04
720.617	12016.52
720.96	11942.4
721.303	11984.43
721.646	11956.86
721.989	11937.2
722.331	11966.58
722.674	11887.48
723.016	11929.06
723.359	11872.34
723.701	11854.49
724.044	11771.78
724.386	11758.45
724.729	11771.55
725.071	11867.37
725.413	11746.24
725.755	11767.26
726.097	11719.35
726.439	11663.99
726.782	11724.32
727.124	11697.88
727.465	11640.26
727.807	11610.2
728.149	11551.45
728.491	11578.79
728.833	11586.93
729.175	11539.7
729.516	11549.87
729.858	11461.28
730.199	11486.59
730.541	11485.01
730.882	11376.76
731.224	11423.54
731.565	11360.27
731.906	11439.36
732.248	11416.54
732.589	11375.41
732.93	11342.64
733.271	11304.9
733.612	11267.84
733.953	11362.98
734.294	11289.31
734.635	11227.61
734.976	11269.2
735.317	11201.85
735.658	11190.33
735.999	11227.39
736.339	11203.66
736.68	11207.5
737.021	11122.08
737.361	11099.48
737.702	11148.07
738.042	11152.14
738.383	11111.23
738.723	11117.33
739.063	11072.82
739.404	11123.21
739.744	11070.33
740.084	10973.16
740.424	11066.49
740.764	10991.46
741.104	11041.18
741.444	10945.81
741.784	10918.47
742.124	10921.86
742.464	10885.48
742.804	10880.96
743.143	10923.89
743.483	10955.53
743.823	10820.17
744.162	10803.44
744.502	10739.27
744.841	10793.73
745.181	10822.2
745.52	10815.87
745.86	10746.95
746.199	10795.76
746.538	10783.78
746.877	10784.69
747.216	10690.91
747.556	10679.83
747.895	10664.01
748.234	10638.25
748.573	10599.83
748.911	10600.96
749.25	10595.77
749.589	10539.5
749.928	10537.92
750.267	10581.08
750.605	10509.89
750.944	10527.75
751.283	10485.49
751.621	10400.97
751.96	10394.19
752.298	10349.9
752.636	10408.65
752.975	10274.42
753.313	10307.86
753.651	10275.78
753.989	10233.97
754.327	10270.8
754.666	10181.09
755.004	10195.1
755.342	10127.3
755.679	10236.45
756.017	10135.89
756.355	10133.86
756.693	10082.56
757.031	10093.63
757.368	10076.91
757.706	10058.83
758.044	10011.83
758.381	10002.34
758.719	9910.59
759.056	9896.35
759.394	9943.58
759.731	9808.67
760.068	9788.78
760.405	9846.63
760.743	9768.44
761.08	9816.8
761.417	9704.49
761.754	9725.96
762.091	9742.46
762.428	9566.42
762.765	9620.43
763.102	9623.59
763.438	9612.06
763.775	9463.59
764.112	9516.92
764.449	9527.32
764.785	9431.73
765.122	9425.63
765.458	9394.22
765.795	9363.93
766.131	9278.51
766.467	9277.84
766.804	9276.71
767.14	9196.93
767.476	9219.31
767.812	9142.25
768.148	9184.96
768.485	9091.4
768.821	9066.32
769.157	9063.83
769.492	9064.96
769.828	9074.9
770.164	9030.61
770.5	9008.69
770.836	8929.14
771.171	8886.21
771.507	8873.1
771.842	8805.98
772.178	8810.5
772.513	8754.69
772.849	8742.26
773.184	8714.91
773.519	8784.29
773.855	8664.97
774.19	8639.89
774.525	8616.61
774.86	8638.76
775.195	8583.62
775.53	8502.26
775.865	8555.82
776.2	8430.17
776.535	8415.26
776.87	8400.57
777.205	8360.12
777.539	8363.96
777.874	8275.38
778.209	8241.03
778.543	8285.77
778.878	8210.97
779.212	8205.32
779.547	8157.86
779.881	8200.12
780.215	8093.46
780.55	8117.19
780.884	8022.73
781.218	8066.79
781.552	8038.77
781.886	7979.56
782.22	7959.23
782.554	7879.91
782.888	7806.46
783.222	7799
783.556	7832.9
783.889	7745.67
784.223	7723.53
784.557	7765.78
784.89	7701.38
785.224	7692.57
785.557	7650.76
785.891	7547.94
786.224	7622.74
786.558	7582.74
786.891	7501.38
787.224	7507.71
787.557	7482.18
787.891	7515.4
788.224	7454.61
788.557	7479.69
788.89	7366.02
789.223	7392.69
789.556	7368.96
789.888	7408.05
790.221	7329.64
790.554	7276.53
790.887	7262.75
791.219	7191.11
791.552	7193.6
791.884	7165.35
792.217	7145.24
792.549	7176.2
792.882	7126.93
793.214	7052.81
793.546	7105.24
793.879	7045.13
794.211	6969.42
794.543	6934.39
794.875	7013.49
795.207	7011
795.539	6916.77
795.871	6951.57
796.203	6818.69
796.535	6845.13
796.867	6786.83
797.198	6867.28
797.53	6781.18
797.862	6707.06
798.193	6811.91
798.525	6764
798.856	6764.45
799.188	6649.2
799.519	6669.09
799.85	6589.09
800.182	6660.73
800.513	6588.19
800.844	6547.29
801.175	6639.49
801.506	6572.82
801.837	6592.93
802.168	6559.04
802.499	6584.8
802.83	6437.01
803.161	6425.25
803.491	6485.59
803.822	6465.25
804.153	6395.2
804.483	6338.7
804.814	6363.11
805.145	6337.35
805.475	6277.69
805.805	6340.74
806.136	6318.14
806.466	6341.19
806.796	6293.73
807.126	6298.25
807.457	6258.25
807.787	6201.08
808.117	6189.1
808.447	6163.57
808.777	6213.73
809.107	6117.01
809.436	6140.06
809.766	6152.04
810.096	6125.6
810.426	6083.57
810.755	6086.05
811.085	6081.99
811.414	6078.82
811.744	5999.05
812.073	5998.15
812.403	5980.52
812.732	5969.22
813.061	6013.74
813.39	5964.02
813.719	5915.66
814.049	5947.08
814.378	5935.32
814.707	5862.78
815.036	5883.35
815.365	5876.34
815.693	5801.77
816.022	5804.71
816.351	5790.02
816.68	5791.15
817.008	5790.47
817.337	5739.17
817.665	5769.45
817.994	5727.87
818.322	5700.98
818.651	5677.03
818.979	5665.73
819.307	5677.48
819.636	5692.84
819.964	5632.06
820.292	5599.74
820.62	5676.12
820.948	5632.28
821.276	5650.81
821.604	5605.62
821.932	5658.27
822.259	5616.24
822.587	5639.51
822.915	5664.14
823.243	5667.31
823.57	5621.66
823.898	5620.98
824.225	5592.96
824.553	5596.12
824.88	5595.9
825.207	5591.15
825.535	5635.9
825.862	5680.19
826.189	5641.32
826.516	5594.09
826.843	5621.21
827.17	5627.76
827.497	5626.63
827.824	5638.38
828.151	5612.39
828.478	5667.31
828.805	5622.11
829.131	5544.15
829.458	5621.89
829.785	5506.41
830.111	5623.47
830.438	5637.03
830.764	5629.57
831.09	5578.95
831.417	5639.51
831.743	5578.95
832.069	5622.34
832.395	5557.93
832.722	5618.5
833.048	5596.12
833.374	5569.23
833.7	5560.87
834.026	5496.69
834.351	5578.27
834.677	5523.13
835.003	5538.5
835.329	5571.94
835.654	5557.93
835.98	5510.02
836.306	5511.38
836.631	5520.65
836.956	5538.95
837.282	5503.92
837.607	5468.67
837.932	5472.74
838.258	5460.99
838.583	5470.93
838.908	5474.77
839.233	5467.09
839.558	5465.51
839.883	5433.87
840.208	5428.67
840.533	5384.83
840.858	5398.16
841.182	5382.57
841.507	5408.78
841.832	5355.23
842.156	5336.24
842.481	5359.52
842.805	5358.62
843.13	5344.15
843.454	5328.33
843.778	5356.13
844.103	5338.28
844.427	5320.43
844.751	5313.42
845.075	5316.81
845.399	5265.06
845.723	5258.28
846.047	5254.44
846.371	5214.67
846.695	5200.88
847.019	5168.11
847.343	5114.55
847.666	5131.5
847.99	5080.66
848.313	5105.06
848.637	5027.78
848.96	5044.05
849.284	5028.46
849.607	5018.29
849.931	5010.38
850.254	5004.5
850.577	4936.48
850.9	4911.85
851.223	4902.58
851.546	4805.18
851.869	4872.08
852.192	4875.24
852.515	4816.48
852.838	4831.62
853.161	4799.08
853.483	4760.89
853.806	4757.5
854.129	4748.01
854.451	4773.55
854.774	4743.27
855.096	4729.71
855.419	4691.52
855.741	4670.05
856.063	4676.6
856.385	4642.48
856.708	4648.13
857.03	4638.41
857.352	4655.81
857.674	4608.35
857.996	4618.3
858.318	4545.3
858.64	4591.86
858.961	4523.38
859.283	4538.98
859.605	4529.71
859.926	4533.1
860.248	4544.4
860.57	4512.08
860.891	4487.68
861.212	4448.81
861.534	4470.5
861.855	4452.65
862.176	4487
862.498	4468.92
862.819	4428.92
863.14	4454.01
863.461	4388.47
863.782	4422.37
864.103	4432.76
864.424	4415.59
864.745	4414.01
865.065	4381.24
865.386	4380.79
865.707	4364.52
866.027	4361.13
866.348	4378.75
866.668	4353.22
866.989	4360.9
867.309	4380.11
867.63	4317.74
867.95	4325.2
868.27	4316.16
868.59	4309.15
868.91	4338.76
869.23	4287.68
869.55	4283.16
869.87	4304.86
870.19	4292.88
870.51	4249.49
870.83	4260.57
871.15	4268.93
871.469	4249.49
871.789	4232.54
872.109	4197.52
872.428	4194.35
872.748	4219.44
873.067	4214.92
873.386	4209.95
873.706	4225.09
874.025	4190.51
874.344	4178.53
874.663	4163.85
874.982	4184.41
875.301	4199.1
875.62	4147.8
875.939	4162.26
876.258	4128.37
876.577	4089.72
876.896	4155.94
877.214	4138.08
877.533	4138.54
877.852	4127.91
878.17	4075.03
878.489	4075.94
878.807	4107.58
879.125	4142.83
879.444	4096.73
879.762	4115.26
880.08	4093.34
880.398	4072.55
880.716	4024.19
881.034	4039.33
881.352	4102.83
881.67	4087.92
881.988	4056.28
882.306	4048.59
882.624	4016.05
882.941	4008.14
883.259	4011.98
883.577	4008.82
883.894	4007.69
884.212	3972.66
884.529	3987.8
884.846	3969.27
885.164	3967.69
885.481	3921.59
885.798	3921.37
886.115	3935.83
886.432	3900.58
886.75	3903.74
887.067	3918.43
887.383	3913.91
887.7	3888.15
888.017	3840.24
888.334	3845.44
888.651	3852.67
888.967	3851.54
889.284	3868.49
889.6	3829.16
889.917	3815.38
890.233	3821.03
890.55	3780.35
890.866	3806.57
891.182	3788.94
891.498	3759.79
891.815	3727.92
892.131	3757.75
892.447	3703.74
892.763	3687.25
893.079	3691.99
893.395	3693.35
893.71	3703.07
894.026	3683.41
894.342	3665.78
894.657	3678.89
894.973	3666.91
895.289	3647.7
895.604	3623.75
895.92	3639.79
896.235	3635.72
896.55	3653.8
896.865	3631.2
897.181	3598.21
897.496	3555.27
897.811	3555.05
898.126	3538.1
898.441	3528.83
898.756	3578.32
899.071	3493.35
899.386	3528.16
899.7	3469.4
900.015	3500.81
900.33	3431.44
900.644	3448.61
900.959	3378.1
901.273	3440.93
901.588	3390.53
901.902	3401.38
902.216	3402.96
902.531	3373.58
902.845	3360.02
903.159	3339.91
903.473	3332.68
903.787	3313.47
904.101	3337.43
904.415	3300.37
904.729	3306.01
905.042	3291.33
905.356	3292.46
905.67	3264.89
905.984	3256.98
906.297	3235.06
906.611	3223.53
906.924	3241.84
907.237	3215.4
907.551	3228.95
907.864	3188.05
908.177	3198.22
908.491	3202.06
908.804	3173.59
909.117	3177.88
909.43	3158.22
909.743	3131.1
910.056	3156.41
910.368	3107.15
910.681	3083.87
910.994	3051.11
911.307	3084.55
911.619	3019.02
911.932	3049.07
912.244	3015.4
912.557	3011.56
912.869	3027.83
913.181	2966.81
913.494	3005.91
913.806	3018.11
914.118	2979.7
914.43	2940.15
914.742	2907.16
915.054	2947.38
915.366	2936.76
915.678	2897.66
915.99	2879.13
916.302	2893.14
916.613	2870.55
916.925	2807.5
917.236	2877.33
917.548	2843.65
917.859	2820.83
918.171	2814.95
918.482	2813.37
918.794	2829.19
919.105	2802.75
919.416	2804.33
919.727	2795.07
920.038	2741.51
920.349	2727.95
920.66	2745.13
920.971	2722.98
921.282	2755.07
921.593	2734.28
921.903	2672.36
922.214	2668.29
922.525	2671.68
922.835	2679.82
923.146	2662.42
923.456	2642.76
923.767	2647.5
924.077	2668.52
924.387	2652.47
924.697	2599.59
925.008	2578.58
925.318	2565.92
925.628	2612.7
925.938	2600.27
926.248	2572.25
926.558	2534.06
926.867	2565.7
927.177	2549.2
927.487	2534.51
927.796	2506.26
928.106	2486.38
928.416	2485.02
928.725	2483.66
929.034	2460.16
929.344	2471.69
929.653	2469.43
929.962	2457.9
930.271	2452.48
930.581	2426.04
930.89	2438.24
931.199	2381.75
931.508	2406.38
931.817	2394.17
932.125	2380.39
932.434	2350.79
932.743	2327.74
933.051	2343.1
933.36	2372.48
933.669	2289.54
933.977	2293.39
934.286	2298.81
934.594	2323.44
934.902	2307.85
935.21	2331.13
935.519	2325.48
935.827	2310.56
936.135	2262.43
936.443	2276.89
936.751	2260.84
937.059	2240.28
937.367	2226.04
937.674	2224.01
937.982	2209.09
938.29	2206.83
938.597	2208.64
938.905	2165.03
939.213	2166.84
939.52	2149.66
939.827	2194.18
940.135	2120.74
940.442	2148.53
940.749	2120.74
941.056	2128.87
941.363	2124.8
941.67	2131.13
941.977	2130.9
942.284	2118.7
942.591	2075.54
942.898	2083.67
943.205	2081.19
943.511	2066.95
943.818	2049.78
944.125	2061.3
944.431	2040.51
944.738	2013.62
945.044	2012.04
945.35	2022.21
945.657	2000.29
945.963	2027.86
946.269	2003.9
946.575	1995.77
946.881	1962.55
947.187	1974.98
947.493	1983.11
947.799	1946.28
948.105	1949.21
948.41	1947.18
948.716	1951.93
949.022	1924.81
949.327	1915.09
949.633	1899.95
949.938	1907.86
950.244	1903.34
950.549	1857.69
950.854	1881.65
951.16	1876
951.465	1912.38
951.77	1856.79
952.075	1867.41
952.38	1854.3
952.685	1849.56
952.99	1827.64
953.294	1814.3
953.599	1843.91
953.904	1799.39
954.209	1806.17
954.513	1784.47
954.818	1794.87
955.122	1781.54
955.426	1795.09
955.731	1796.22
956.035	1766.39
956.339	1774.53
956.643	1752.16
956.948	1733.4
957.252	1756.23
957.556	1722.55
957.86	1707.41
958.163	1739.28
958.467	1719.39
958.771	1704.47
959.075	1709.67
959.378	1670.13
959.682	1704.93
959.985	1709.67
960.289	1656.79
960.592	1675.32
960.896	1669.22
961.199	1689.33
961.502	1669.22
961.805	1645.49
962.108	1632.84
962.411	1651.14
962.714	1632.39
963.017	1632.39
963.32	1619.28
963.623	1605.04
963.926	1615.66
964.228	1598.94
964.531	1588.55
964.833	1609.34
965.136	1587.42
965.438	1590.35
965.741	1587.19
966.043	1588.32
966.345	1544.93
966.648	1537.7
966.95	1594.42
967.252	1556
967.554	1551.48
967.856	1536.34
968.158	1541.99
968.46	1530.24
968.761	1533.18
969.063	1528.21
969.365	1482.56
969.666	1513.75
969.968	1476.46
970.269	1479.17
970.571	1456.35
970.872	1459.96
971.174	1475.55
971.475	1457.25
971.776	1422.67
972.077	1486.18
972.378	1478.04
972.679	1447.76
972.98	1452.05
973.281	1422.67
973.582	1426.74
973.883	1414.09
974.183	1417.7
974.484	1405.5
974.785	1419.28
975.085	1403.47
975.386	1392.17
975.686	1388.78
975.986	1382
976.287	1410.25
976.587	1384.26
976.887	1363.47
977.187	1364.14
977.487	1381.55
977.787	1354.2
978.087	1361.43
978.387	1356.24
978.687	1335.9
978.987	1318.04
979.286	1347.2
979.586	1324.6
979.885	1315.11
980.185	1314.65
980.484	1319.4
980.784	1324.82
981.083	1308.1
981.382	1307.88
981.682	1261.77
981.981	1300.19
982.28	1274.43
982.579	1281.21
982.878	1252.06
983.177	1268.78
983.475	1273.75
983.774	1252.96
984.073	1262.9
984.372	1238.72
984.67	1238.5
984.969	1243.02
985.267	1231.49
985.566	1228.56
985.864	1224.04
986.162	1240.76
986.461	1212.06
986.759	1224.94
987.057	1222.91
987.355	1205.28
987.653	1198.05
987.951	1185.84
988.249	1196.69
988.547	1157.82
988.844	1178.84
989.142	1181.55
989.44	1185.84
989.737	1169.12
990.035	1141.55
990.332	1181.55
990.63	1147.2
990.927	1133.87
991.224	1147.65
991.521	1168.44
991.819	1121.89
992.116	1136.35
992.413	1100.2
992.71	1097.26
993.006	1081.89
993.303	1104.72
993.6	1134.77
993.897	1106.52
994.193	1107.65
994.49	1084.38
994.787	1084.83
995.083	1093.42
995.379	1086.41
995.676	1060.65
995.972	1065.85
996.268	1083.25
996.565	1063.36
996.861	1087.77
997.157	1092.74
997.453	1050.48
997.749	1046.87
998.044	1039.18
998.34	1037.6
998.636	1045.51
998.932	1021.56
999.227	1018.17
999.523	1025.4
999.818	1049.58
1000.114	1016.13
1000.409	1038.05
1000.704	997.37
1001	1033.08
1001.295	1045.51
1001.59	977.94
1001.885	990.6
1002.18	996.92
1002.475	978.17
1002.77	991.27
1003.065	987.66
1003.359	963.03
1003.654	987.21
1003.949	947.66
1004.243	977.49
1004.538	958.51
1004.832	949.92
1005.127	932.52
1005.421	938.85
1005.715	929.35
1006.009	937.26
1006.304	922.12
1006.598	914.67
1006.892	921.22
1007.186	930.48
1007.48	912.86
1007.773	925.51
1008.067	902.69
1008.361	890.94
1008.655	898.39
1008.948	867.21
1009.242	889.81
1009.535	883.03
1009.829	873.08
1010.122	863.37
1010.415	876.7
1010.708	886.87
1011.001	878.06
1011.295	862.46
1011.588	842.8
1011.881	857.72
1012.173	845.51
1012.466	849.58
1012.759	857.49
1013.052	859.07
1013.344	813.42
1013.637	850.49
1013.93	848.9
1014.222	839.64
1014.514	807.55
1014.807	797.15
1015.099	820.88
1015.391	794.89
1015.683	797.15
1015.976	791.5
1016.268	808.23
1016.56	812.97
1016.851	798.74
1017.143	795.35
1017.435	821.56
1017.727	767.32
1018.018	776.82
1018.31	791.05
1018.602	777.27
1018.893	772.97
1019.185	776.82
1019.476	772.97
1019.767	767.55
1020.058	745.18
1020.35	768.68
1020.641	744.95
1020.932	753.09
1021.223	723.48
1021.514	758.74
1021.804	751.73
1022.095	758.51
1022.386	744.5
1022.677	706.76
1022.967	748.12
1023.258	725.52
1023.548	704.95
1023.839	706.08
1024.129	706.76
1024.419	702.47
1024.709	699.98
1025	697.95
1025.29	682.81
1025.58	683.71
1025.87	685.52
1026.16	685.29
1026.449	673.99
1026.739	681
1027.029	664.05
1027.319	663.82
1027.608	669.93
1027.898	666.08
1028.187	669.47
1028.477	668.34
1028.766	659.76
1029.055	664.73
1029.344	643.71
1029.634	635.12
1029.923	638.74
1030.212	650.49
1030.501	633.99
1030.79	639.42
1031.078	638.97
1031.367	610.94
1031.656	655.24
1031.945	644.16
1032.233	623.15
1032.522	623.6
1032.81	618.63
1033.099	610.72
1033.387	605.29
1033.675	602.81
1033.963	601.91
1034.251	601.91
1034.54	581.11
1034.828	605.52
1035.116	601.23
1035.403	592.41
1035.691	572.53
1035.979	592.87
1036.267	572.98
1036.554	599.42
1036.842	571.62
1037.129	557.61
1037.417	560.32
1037.704	584.05
1037.992	575.47
1038.279	542.25
1038.566	542.02
1038.853	542.02
1039.14	542.02
