Data from black_metal_pc_casing_FLMS001491_00045.txt Node
Date: Wed Feb 08 14:32:45 GMT 2017
User: dcchb
Spectrometer: FLMS00149
Trigger mode: 0
Integration Time (sec): 2.000000E-2
Scans to average: 10
Electric dark correction enabled: true
Nonlinearity correction enabled: false
Boxcar width: 0
XAxis mode: Wavelengths
Number of Pixels in Spectrum: 2048
>>>>>Begin Spectral Data<<<<<
341.393	-13.21
341.776	-13.21
342.16	-13.21
342.543	-27.44
342.927	-74.45
343.31	-58.18
343.693	-69.25
344.077	-57.72
344.46	-49.14
344.843	-57.72
345.226	-34
345.61	-32.87
345.993	1.71
346.376	3.52
346.759	4.87
347.142	17.3
347.525	28.6
347.908	48.26
348.291	72.44
348.674	81.71
349.057	100.46
349.44	107.47
349.823	158.09
350.206	149.73
350.588	161.03
350.971	188.82
351.354	214.58
351.737	242.83
352.119	236.73
352.502	257.3
352.884	251.42
353.267	259.78
353.65	275.15
354.032	288.48
354.414	290.51
354.797	301.14
355.179	303.17
355.562	313.11
355.944	313.11
356.326	311.53
356.709	312.89
357.091	310.85
357.473	329.84
357.855	322.15
358.238	329.16
358.62	308.37
359.002	342.49
359.384	332.32
359.766	339.78
360.148	318.76
360.53	311.98
360.912	329.84
361.294	309.27
361.676	297.52
362.057	296.84
362.439	304.75
362.821	331.87
363.203	292.77
363.584	303.17
363.966	318.31
364.348	317.18
364.729	321.7
365.111	281.02
365.493	302.49
365.874	304.07
366.256	285.09
366.637	291.87
367.019	284.19
367.4	287.58
367.781	310.63
368.163	287.8
368.544	273.79
368.925	307.92
369.306	292.1
369.688	299.33
370.069	311.08
370.45	287.13
370.831	305.2
371.212	301.59
371.593	298.88
371.974	284.64
372.355	282.61
372.736	289.39
373.117	274.47
373.498	293.23
373.879	291.87
374.26	290.29
374.641	325.99
375.021	308.14
375.402	317.41
375.783	302.27
376.163	311.76
376.544	303.85
376.925	313.57
377.305	308.37
377.686	301.81
378.066	300.01
378.447	320.12
378.827	331.42
379.208	322.83
379.588	310.18
379.968	316.95
380.349	315.37
380.729	303.85
381.109	344.98
381.489	314.92
381.87	293.68
382.25	311.76
382.63	340.01
383.01	331.64
383.39	320.12
383.77	334.58
384.15	338.42
384.53	348.59
384.91	330.97
385.29	331.87
385.67	325.77
386.049	334.36
386.429	335.94
386.809	348.59
387.189	350.17
387.568	321.25
387.948	344.07
388.328	346.78
388.707	332.55
389.087	350.4
389.466	355.37
389.846	338.65
390.225	355.15
390.605	329.84
390.984	357.86
391.363	336.84
391.743	365.09
392.122	368.03
392.501	349.04
392.881	364.86
393.26	365.77
393.639	347.01
394.018	347.01
394.397	359.21
394.776	384.75
395.155	376.39
395.534	381.13
395.913	359.67
396.292	368.48
396.671	376.84
397.05	396.5
397.429	381.59
397.808	374.81
398.186	354.69
398.565	397.63
398.944	376.84
399.323	369.16
399.701	397.63
400.08	403.73
400.458	406.22
400.837	379.33
401.215	392.21
401.594	383.85
401.972	380
402.351	397.63
402.729	397.63
403.107	406.22
403.486	402.83
403.864	378.2
404.242	394.92
404.62	396.27
404.999	413.9
405.377	397.18
405.755	421.36
406.133	407.12
406.511	424.75
406.889	411.19
407.267	416.61
407.645	407.8
408.023	447.12
408.401	427.46
408.779	438.53
409.156	464.07
409.534	435.14
409.912	446.44
410.29	426.56
410.667	439.89
411.045	452.77
411.422	450.28
411.8	433.34
412.178	452.54
412.555	450.74
412.933	451.87
413.31	471.53
413.687	467.91
414.065	464.52
414.442	483.28
414.819	469.72
415.197	483.5
415.574	485.99
415.951	508.36
416.328	481.24
416.705	481.02
417.082	499.55
417.46	484.41
417.837	512.66
418.214	472.21
418.591	488.7
418.967	492.09
419.344	513.56
419.721	505.65
420.098	518.31
420.475	516.05
420.852	530.28
421.228	525.31
421.605	545.65
421.982	535.71
422.358	521.7
422.735	522.6
423.111	541.58
423.488	535.25
423.864	527.57
424.241	552.65
424.617	567.8
424.994	555.14
425.37	569.38
425.746	565.54
426.123	571.86
426.499	591.07
426.875	577.97
427.251	574.35
427.627	574.8
428.003	593.33
428.379	575.93
428.756	580.68
429.132	610.96
429.507	611.86
429.883	600.56
430.259	610.28
430.635	605.76
431.011	617.06
431.387	631.07
431.763	635.14
432.138	623.39
432.514	643.5
432.89	645.53
433.265	649.6
433.641	654.57
434.016	647.79
434.392	661.35
434.767	668.58
435.143	699.09
435.518	690.96
435.894	680.79
436.269	693.44
436.644	717.17
437.02	697.96
437.395	707.45
437.77	722.59
438.145	734.12
438.52	720.33
438.895	737.06
439.271	716.27
439.646	724.18
440.021	736.83
440.395	738.64
440.77	742.03
441.145	767.56
441.52	755.81
441.895	748.36
442.27	778.41
442.645	750.84
443.019	772.99
443.394	776.38
443.769	776.38
444.143	779.32
444.518	775.47
444.892	774.8
445.267	803.27
445.641	810.05
446.016	785.64
446.39	802.82
446.764	839.65
447.139	828.13
447.513	817.51
447.887	817.05
448.262	812.54
448.636	845.98
449.01	832.42
449.384	845.3
449.758	839.43
450.132	848.92
450.506	873.78
450.88	855.7
451.254	874.91
451.628	863.61
452.002	897.05
452.376	874.23
452.75	894.11
453.123	883.49
453.497	903.15
453.871	919.65
454.244	928.01
454.618	920.78
454.992	929.59
455.365	930.72
455.739	959.88
456.112	984.51
456.486	956.26
456.859	975.02
457.232	985.41
457.606	987.45
457.979	1000.1
458.352	1020.89
458.725	1041.46
459.099	998.07
459.472	1040.78
459.845	1071.96
460.218	1064.73
460.591	1078.29
460.964	1060.66
461.337	1121.45
461.71	1114.22
462.083	1101.79
462.456	1135.69
462.829	1111.51
463.201	1148.12
463.574	1157.16
463.947	1149.7
464.32	1158.29
464.692	1185.41
465.065	1199.87
465.438	1205.97
465.81	1215.46
466.183	1212.07
466.555	1233.77
466.928	1257.72
467.3	1253.2
467.672	1268.79
468.045	1316.02
468.417	1306.08
468.789	1311.28
469.161	1311.73
469.534	1339.53
469.906	1350.83
470.278	1382.24
470.65	1405.06
471.022	1415.23
471.394	1446.64
471.766	1435.8
472.138	1450.71
472.51	1489.13
472.882	1521.22
473.253	1527.32
473.625	1553.76
473.997	1548.79
474.369	1566.64
474.74	1589.01
475.112	1619.29
475.484	1632.17
475.855	1657.71
476.227	1655.22
476.598	1686.86
476.97	1704.49
477.341	1736.35
477.713	1765.05
478.084	1788.33
478.455	1817.48
478.827	1853.64
479.198	1848.89
479.569	1876.46
479.94	1932.73
480.311	1946.52
480.682	1977.02
481.053	2004.14
481.424	2004.82
481.795	2039.85
482.166	2092.73
482.537	2094.54
482.908	2128.88
483.279	2174.08
483.65	2217.92
484.021	2228.32
484.391	2236.68
484.762	2256.79
485.133	2304.02
485.503	2332.5
485.874	2354.42
486.244	2364.58
486.615	2458.14
486.985	2447.07
487.356	2485.94
487.726	2511.47
488.097	2579.49
488.467	2523.45
488.837	2636.67
489.207	2628.31
489.578	2683.9
489.948	2692.49
490.318	2751.24
490.688	2726.61
491.058	2767.06
491.428	2792.37
491.798	2786.95
492.168	2857.91
492.538	2895.64
492.908	2911.24
493.278	2973.38
493.648	2968.64
494.017	3044.57
494.387	3006.15
494.757	3044.57
495.126	3067.17
495.496	3073.27
495.866	3073.94
496.235	3151.23
496.605	3153.49
496.974	3174.28
497.344	3234.39
497.713	3224.45
498.082	3257.22
498.452	3280.04
498.821	3281.62
499.19	3286.82
499.559	3366.37
499.928	3358
500.298	3399.36
500.667	3408.17
501.036	3395.29
501.405	3461.51
501.774	3476.42
502.143	3493.37
502.512	3513.93
502.88	3569.3
503.249	3562.97
503.618	3579.92
503.987	3617.21
504.356	3596.87
504.724	3645.45
505.093	3667.38
505.462	3673.25
505.83	3696.3
506.199	3753.47
506.567	3751.44
506.936	3778.78
507.304	3816.75
507.672	3860.36
508.041	3877.09
508.409	3895.62
508.777	3907.59
509.145	3897.2
509.514	3888.16
509.882	3983.3
510.25	3951.21
510.618	4004.99
510.986	4014.71
511.354	4052
511.722	4070.53
512.09	4163.63
512.458	4091.32
512.826	4133.8
513.193	4162.73
513.561	4170.41
513.929	4231.65
514.297	4271.43
514.664	4263.97
515.032	4310.3
515.4	4342.61
515.767	4397.75
516.135	4396.62
516.502	4362.27
516.869	4472.1
517.237	4439.11
517.604	4482.04
517.972	4549.39
518.339	4596.39
518.706	4598.2
519.073	4613.57
519.44	4674.35
519.808	4723.17
520.175	4656.5
520.542	4737.18
520.909	4803.16
521.276	4796.84
521.643	4837.51
522.009	4862.15
522.376	4937.17
522.743	4919.77
523.11	4947.79
523.477	5062.82
523.843	5055.36
524.21	5099.65
524.577	5097.17
524.943	5167.67
525.31	5148.47
525.676	5186.43
526.043	5249.71
526.409	5269.14
526.776	5350.04
527.142	5341.46
527.508	5400.89
527.874	5424.84
528.241	5495.12
528.607	5476.14
528.973	5518.63
529.339	5558.17
529.705	5613.09
530.071	5622.35
530.437	5656.25
530.803	5672.75
531.169	5669.36
531.535	5723.82
531.901	5751.39
532.267	5784.38
532.632	5822.35
532.998	5843.36
533.364	5821.44
533.73	5851.05
534.095	5911.61
534.461	5904.6
534.826	5987.31
535.192	5931.27
535.557	5953.19
535.923	6013.3
536.288	6105.28
536.653	6082.91
537.019	6032.74
537.384	6110.47
537.749	6124.26
538.114	6168.33
538.479	6209.68
538.845	6218.72
539.21	6182.11
539.575	6213.98
539.94	6261.66
540.305	6364.93
540.67	6314.09
541.034	6420.52
541.399	6374.2
541.764	6354.08
542.129	6392.73
542.494	6376
542.858	6503.23
543.223	6467.08
543.587	6489.67
543.952	6538.49
544.316	6515.21
544.681	6482.67
545.045	6496.23
545.41	6578.71
545.774	6597.69
546.138	6612.83
546.503	6609.44
546.867	6603.8
547.231	6755.43
547.595	6723.34
547.959	6733.96
548.324	6716.56
548.688	6792.04
549.052	6793.39
549.416	6847.63
549.779	6847.63
550.143	6830.46
550.507	6824.35
550.871	6940.96
551.235	6936.22
551.599	6886.5
551.962	6979.83
552.326	6953.84
552.689	7042.88
553.053	7008.53
553.417	7089.43
553.78	7126.95
554.143	7067.06
554.507	7141.63
554.87	7172.59
555.234	7199.71
555.597	7196.32
555.96	7286.26
556.323	7253.72
556.686	7303.44
557.05	7296.88
557.413	7326.94
557.776	7354.96
558.139	7405.58
558.502	7467.28
558.865	7538.23
559.228	7529.42
559.59	7517.9
559.953	7565.58
560.316	7634.28
560.679	7698.91
561.041	7712.69
561.404	7776.19
561.767	7816.87
562.129	7738.91
562.492	7865.46
562.854	7797.44
563.217	7883.08
563.579	7886.47
563.941	7916.98
564.304	7959.47
564.666	8000.82
565.028	8045.79
565.39	8106.13
565.753	8107.48
566.115	8148.39
566.477	8235.16
566.839	8160.59
567.201	8258.44
567.563	8263.41
567.925	8270.87
568.287	8313.58
568.648	8315.16
569.01	8364.43
569.372	8405.33
569.734	8420.24
570.095	8515.61
570.457	8455.27
570.819	8553.57
571.18	8482.16
571.542	8593.57
571.903	8557.87
572.265	8631.76
572.626	8724.42
572.987	8608.26
573.349	8612.56
573.71	8716.28
574.071	8743.4
574.432	8760.35
574.794	8789.27
575.155	8799.67
575.516	8810.06
575.877	8777.3
576.238	8909.27
576.599	8890.51
576.96	8784.98
577.32	8881.25
577.681	8942.49
578.042	8996.73
578.403	8967.8
578.763	8932.77
579.124	8914.69
579.485	8998.76
579.845	9041.02
580.206	9007.35
580.566	9046.44
580.927	9023.84
581.287	9045.99
581.648	8989.27
582.008	9098.19
582.368	9020
582.728	9073.11
583.089	9029.72
583.449	9084.18
583.809	9088.93
584.169	9085.76
584.529	9065.65
584.889	9122.6
585.249	9106.33
585.609	9052.54
585.969	9229.94
586.329	9105.65
586.688	9098.87
587.048	9114.69
587.408	9058.19
587.768	9147.68
588.127	9064.3
588.487	9073.56
588.846	9165.99
589.206	9126.89
589.565	9128.7
589.925	9129.6
590.284	9085.31
590.643	9078.53
591.003	9170.28
591.362	9149.72
591.721	9143.84
592.08	9171.86
592.44	9169.6
592.799	9234.91
593.158	9212.31
593.517	9182.26
593.876	9182.03
594.235	9126.89
594.593	9232.65
594.952	9186.78
595.311	9218.87
595.67	9226.1
596.029	9324.85
596.387	9269.49
596.746	9271.07
597.104	9216.38
597.463	9193.11
597.822	9304.06
598.18	9214.35
598.538	9245.99
598.897	9301.13
599.255	9194.69
599.613	9364.17
599.972	9303.61
600.33	9278.08
600.688	9239.88
601.046	9245.31
601.404	9343.16
601.762	9330.05
602.12	9412.31
602.478	9322.14
602.836	9391.74
603.194	9361.46
603.552	9314.91
603.91	9285.53
604.268	9384.74
604.625	9421.57
604.983	9427.68
605.341	9297.51
605.698	9426.32
606.056	9374.12
606.413	9349.49
606.771	9414.34
607.128	9410.28
607.485	9374.57
607.843	9404.4
608.2	9495.24
608.557	9518.97
608.914	9464.29
609.272	9523.94
609.629	9545.41
609.986	9577.5
610.343	9516.49
610.7	9549.93
611.057	9565.75
611.414	9584.06
611.771	9553.77
612.127	9624.51
612.484	9603.04
612.841	9642.13
613.198	9537.96
613.554	9594.23
613.911	9678.29
614.267	9674.9
614.624	9618.18
614.98	9674
615.337	9687.78
615.693	9707.89
616.05	9711.96
616.406	9699.53
616.762	9651.17
617.118	9674.67
617.475	9652.53
617.831	9750.61
618.187	9777.72
618.543	9729.59
618.899	9764.84
619.255	9812.98
619.611	9781.34
619.967	9803.26
620.323	9791.96
620.678	9806.2
621.034	9733.43
621.39	9759.19
621.746	9768.46
622.101	9837.61
622.457	9732.75
622.812	9781.34
623.168	9857.27
623.523	9842.35
623.879	9768.46
624.234	9771.17
624.589	9798.51
624.945	9793.99
625.3	9865.63
625.655	9813.65
626.01	9835.8
626.365	9830.6
626.72	9804.84
627.075	9809.13
627.43	9807.1
627.785	9813.2
628.14	9837.83
628.495	9763.49
628.85	9754.67
629.205	9694.11
629.559	9771.4
629.914	9776.37
630.269	9775.46
630.623	9745.63
630.978	9713.09
631.332	9666.54
631.687	9812.98
632.041	9730.27
632.396	9715.58
632.75	9722.13
633.104	9706.54
633.459	9681
633.813	9696.37
634.167	9671.96
634.521	9667.9
634.875	9659.08
635.229	9631.96
635.583	9673.77
635.937	9597.39
636.291	9594.68
636.645	9604.17
636.999	9528.46
637.352	9599.2
637.706	9537.05
638.06	9596.26
638.413	9484.62
638.767	9501.8
639.121	9551.97
639.474	9508.13
639.828	9529.37
640.181	9469.03
640.534	9483.72
640.888	9455.92
641.241	9432.42
641.594	9491.4
641.947	9428.81
642.301	9380.22
642.654	9401.24
643.007	9440.1
643.36	9467.9
643.713	9373.67
644.066	9451.4
644.419	9314.68
644.771	9317.17
645.124	9236.95
645.477	9196.95
645.83	9175.03
646.182	9105.2
646.535	9094.58
646.888	9092.32
647.24	9012.77
647.593	9073.79
647.945	9018.42
648.298	9024.97
648.65	9010.29
649.002	8985.65
649.355	8983.39
649.707	8998.31
650.059	9047.35
650.411	9117.85
650.763	9142.94
651.115	9197.63
651.467	9190.85
651.819	9212.99
652.171	9226.55
652.523	9076.5
652.875	9118.31
653.227	9118.31
653.578	9159.43
653.93	9146.78
654.282	9085.31
654.633	9045.31
654.985	9069.04
655.337	9055.26
655.688	9100.68
656.039	9051.19
656.391	9075.37
656.742	8970.06
657.094	9059.78
657.445	9079.44
657.796	9069.49
658.147	9121.47
658.498	9052.54
658.849	9100.68
659.2	8991.3
659.551	8999.66
659.902	9034.92
660.253	9053.45
660.604	9014.35
660.955	8998.99
661.306	9002.6
661.656	8934.58
662.007	9012.32
662.358	9021.13
662.708	8994.69
663.059	8963.28
663.409	8966.45
663.76	8957.86
664.11	8971.87
664.461	8936.39
664.811	8973.45
665.161	8971.19
665.511	8898.42
665.862	8976.39
666.212	8969.61
666.562	9012.32
666.912	8912.89
667.262	8901.14
667.612	8967.8
667.962	8940.68
668.312	8874.24
668.662	8936.16
669.011	8938.88
669.361	8892.77
669.711	8909.05
670.06	8850.52
670.41	8879.89
670.76	8794.25
671.109	8909.72
671.459	8868.37
671.808	8803.96
672.157	8931.19
672.507	8764.87
672.856	8818.2
673.205	8817.97
673.554	8844.41
673.904	8785.66
674.253	8832.44
674.602	8774.36
674.951	8662.27
675.3	8663.18
675.649	8803.29
675.998	8792.44
676.346	8817.52
676.695	8820.69
677.044	8740.24
677.393	8794.47
677.741	8721.93
678.09	8744.98
678.438	8642.16
678.787	8697.3
679.135	8739.56
679.484	8691.2
679.832	8743.17
680.181	8605.1
680.529	8653.68
680.877	8704.76
681.225	8681.93
681.573	8726.23
681.922	8574.36
682.27	8574.36
682.618	8633.12
682.966	8652.33
683.314	8580.69
683.661	8527.81
684.009	8524.87
684.357	8495.95
684.705	8486.46
685.053	8517.87
685.4	8514.48
685.748	8457.08
686.095	8446.01
686.443	8407.36
686.79	8375.05
687.138	8397.87
687.485	8399.23
687.832	8418.21
688.18	8432
688.527	8304.99
688.874	8319.46
689.221	8282.62
689.568	8283.98
689.915	8290.98
690.262	8272
690.609	8236.52
690.956	8211.89
691.303	8154.49
691.65	8117.88
691.997	8152
692.344	8106.81
692.69	8077.88
693.037	8083.53
693.383	8085.34
693.73	8105.68
694.077	7986.81
694.423	8021.84
694.769	8008.28
695.116	7980.93
695.462	7933.25
695.808	7932.35
696.155	7951.33
696.501	7902.07
696.847	7892.12
697.193	7879.92
697.539	7921.73
697.885	7785.91
698.231	7811.9
698.577	7768.51
698.923	7795.18
699.269	7723.99
699.614	7693.26
699.96	7661.62
700.306	7683.31
700.651	7594.73
700.997	7653.03
701.342	7614.62
701.688	7594.05
702.033	7602.87
702.379	7588.85
702.724	7552.02
703.069	7551.12
703.415	7437.67
703.76	7495.3
704.105	7506.37
704.45	7553.83
704.795	7422.3
705.14	7416.2
705.485	7412.81
705.83	7376.43
706.175	7304.34
706.52	7319.03
706.865	7259.37
707.209	7278.35
707.554	7264.34
707.899	7271.35
708.243	7220.28
708.588	7216.66
708.932	7203.1
709.277	7244
709.621	7230.67
709.966	7176.44
710.31	7215.76
710.654	7154.06
710.998	7134.63
711.342	7166.72
711.687	7195.42
712.031	7075.2
712.375	7151.35
712.719	7107.06
713.063	7000.17
713.407	7090.34
713.75	7050.11
714.094	7041.07
714.438	6984.35
714.782	7018.93
715.125	6972.6
715.469	6992.71
715.812	6995.88
716.156	7008.08
716.499	6999.27
716.843	6969.21
717.186	6849.21
717.53	6866.84
717.873	6892.83
718.216	6903.67
718.559	6850.79
718.902	6844.92
719.246	6822.77
719.589	6881.53
719.932	6778.25
720.275	6755.43
720.617	6786.84
720.96	6791.81
721.303	6752.94
721.646	6725.6
721.989	6752.27
722.331	6727.18
722.674	6758.59
723.016	6741.42
723.359	6700.06
723.701	6740.97
724.044	6673.17
724.386	6669.33
724.729	6703.91
725.071	6657.13
725.413	6613.29
725.755	6637.01
726.097	6587.3
726.439	6559.05
726.782	6566.73
727.124	6572.16
727.465	6499.62
727.807	6545.94
728.149	6570.12
728.491	6490.8
728.833	6515.89
729.175	6479.73
729.516	6537.13
729.858	6515.66
730.199	6456
730.541	6420.3
730.882	6444.25
731.224	6464.59
731.565	6427.08
731.906	6442.44
732.248	6417.13
732.589	6382.56
732.93	6380.98
733.271	6399.96
733.612	6405.61
733.953	6420.3
734.294	6317.48
734.635	6312.96
734.976	6380.3
735.317	6314.54
735.658	6331.03
735.999	6351.37
736.339	6297.59
736.68	6307.31
737.021	6324.71
737.361	6236.57
737.702	6249.68
738.042	6235.22
738.383	6270.7
738.723	6266.18
739.063	6198.83
739.404	6242.22
739.744	6256.69
740.084	6276.8
740.424	6230.02
740.764	6144.6
741.104	6188.89
741.444	6157.71
741.784	6129.91
742.124	6138.27
742.464	6169.68
742.804	6123.58
743.143	6167.2
743.483	6155.45
743.823	6107.31
744.162	6099.63
744.502	6089.01
744.841	6046.52
745.181	6107.76
745.52	6044.26
745.86	6065.73
746.199	6098.27
746.538	6069.8
746.877	6048.78
747.216	6085.39
747.556	6032.74
747.895	6018.95
748.234	6005.84
748.573	5983.92
748.911	6008.56
749.25	5956.35
749.589	5963.36
749.928	5946.41
750.267	5931.27
750.605	5934.89
750.944	5934.66
751.283	5915.9
751.621	5932.85
751.96	5910.03
752.298	5891.27
752.636	5885.17
752.975	5850.37
753.313	5799.52
753.651	5840.43
753.989	5802.69
754.327	5791.39
754.666	5820.77
755.004	5811.95
755.342	5772.63
755.679	5827.77
756.017	5701.22
756.355	5743.25
756.693	5676.14
757.031	5721.33
757.368	5691.5
757.706	5729.92
758.044	5700.77
758.381	5663.71
758.719	5659.64
759.056	5613.31
759.394	5585.29
759.731	5573.54
760.068	5579.42
760.405	5536.25
760.743	5556.14
761.08	5592.3
761.417	5498.06
761.754	5479.31
762.091	5530.6
762.428	5547.78
762.765	5462.81
763.102	5503.49
763.438	5454.9
763.775	5448.57
764.112	5403.6
764.449	5402.24
764.785	5426.65
765.122	5392.53
765.458	5371.96
765.795	5309.59
766.131	5348.91
766.467	5266.2
766.804	5275.24
767.14	5255.81
767.476	5272.3
767.812	5217.39
768.148	5249.93
768.485	5248.58
768.821	5205.19
769.157	5227.11
769.492	5200.22
769.828	5186.88
770.164	5122.48
770.5	5155.25
770.836	5127.45
771.171	5100.33
771.507	5039.99
771.842	5026.66
772.178	4982.82
772.513	4972.43
772.849	5021.01
773.184	4961.8
773.519	5003.61
773.855	4914.35
774.19	4963.16
774.525	4903.95
774.86	4925.42
775.195	4888.13
775.53	4937.4
775.865	4850.85
776.2	4876.84
776.535	4793
776.87	4785.54
777.205	4734.69
777.539	4779.44
777.874	4788.48
778.209	4690.85
778.543	4770.62
778.878	4738.99
779.212	4686.11
779.547	4654.02
779.881	4671.87
780.215	4621.25
780.55	4641.14
780.884	4601.59
781.218	4582.15
781.552	4591.19
781.886	4558.43
782.22	4506.9
782.554	4591.19
782.888	4480.91
783.222	4500.35
783.556	4517.97
783.889	4449.05
784.223	4457.64
784.557	4414.25
784.89	4410.86
785.224	4425.1
785.557	4414.47
785.891	4377.64
786.224	4382.16
786.558	4338.77
786.891	4351.2
787.224	4322.5
787.557	4310.75
787.891	4258.32
788.224	4262.84
788.557	4257.42
788.89	4265.55
789.223	4253.35
789.556	4203.18
789.888	4206.57
790.221	4228.94
790.554	4202.28
790.887	4176.74
791.219	4189.62
791.552	4164.76
791.884	4127.7
792.217	4120.02
792.549	4135.61
792.882	4083.41
793.214	4103.75
793.546	4035.28
793.879	4054.94
794.211	4033.69
794.543	4051.09
794.875	4046.12
795.207	4036.41
795.539	4028.04
795.871	4004.09
796.203	3985.11
796.535	3968.38
796.867	3940.81
797.198	3921.15
797.53	3963.41
797.862	3921.38
798.193	3934.49
798.525	3878.44
798.856	3920.02
799.188	3883.64
799.519	3831.44
799.85	3852.91
800.182	3816.07
800.513	3850.87
800.844	3805.22
801.175	3838.22
801.506	3736.53
801.837	3824.66
802.168	3800.48
802.499	3810.2
802.83	3737.43
803.161	3725.23
803.491	3748.5
803.822	3728.39
804.153	3747.83
804.483	3705.57
804.814	3671.89
805.145	3641.61
805.475	3706.47
805.805	3645.68
806.136	3608.62
806.466	3633.25
806.796	3680.48
807.126	3617.89
807.457	3627.83
807.787	3601.39
808.117	3623.31
808.447	3541.73
808.777	3622.63
809.107	3629.86
809.436	3553.71
809.766	3574.27
810.096	3533.14
810.426	3536.08
810.755	3530.2
811.085	3510.54
811.414	3553.03
811.744	3473.93
812.073	3483.88
812.403	3497.89
812.732	3491.56
813.061	3452.69
813.39	3430.09
813.719	3475.74
814.049	3485.23
814.378	3458.79
814.707	3428.29
815.036	3444.1
815.365	3399.36
815.693	3417.21
816.022	3390.32
816.351	3394.16
816.68	3378.8
817.008	3375.86
817.337	3355.52
817.665	3352.81
817.994	3368.85
818.322	3332.47
818.651	3347.16
818.979	3306.48
819.307	3326.59
819.636	3343.77
819.964	3287.72
820.292	3309.42
820.62	3301.74
820.948	3275.52
821.276	3300.38
821.604	3303.77
821.932	3290.44
822.259	3277.78
822.587	3310.1
822.915	3311
823.243	3315.29
823.57	3294.73
823.898	3280.49
824.225	3295.86
824.553	3252.7
824.88	3275.75
825.207	3290.66
825.535	3289.53
825.862	3292.92
826.189	3305.8
826.516	3252.02
826.843	3307.38
827.17	3284.79
827.497	3270.1
827.824	3256.54
828.151	3332.02
828.478	3252.02
828.805	3282.07
829.131	3237.1
829.458	3259.7
829.785	3258.35
830.111	3272.13
830.438	3241.17
830.764	3308.06
831.09	3251.79
831.417	3214.05
831.743	3268.74
832.069	3257.67
832.395	3217.9
832.722	3258.12
833.048	3291.34
833.374	3271.68
833.7	3260.61
834.026	3208.18
834.351	3279.36
834.677	3275.52
835.003	3244.11
835.329	3242.75
835.654	3219.48
835.98	3221.51
836.306	3257.89
836.631	3243.43
836.956	3249.53
837.282	3207.05
837.607	3214.05
837.932	3191.91
838.258	3208.63
838.583	3211.34
838.908	3209.53
839.233	3157.56
839.558	3179.48
839.883	3182.19
840.208	3146.49
840.533	3148.97
840.858	3175.86
841.182	3127.28
841.507	3175.18
841.832	3120.95
842.156	3118.46
842.481	3141.74
842.805	3111.46
843.13	3114.17
843.454	3152.81
843.778	3101.06
844.103	3060.39
844.427	3093.15
844.751	3100.61
845.075	3102.64
845.399	3088.18
845.723	3047.73
846.047	3082.08
846.371	3047.73
846.695	3057
847.019	3019.48
847.343	3023.1
847.666	2991.91
847.99	2993.04
848.313	2940.39
848.637	2974.51
848.96	2960.28
849.284	2961.18
849.607	2928.86
849.931	2929.77
850.254	2929.54
850.577	2873.5
850.9	2872.82
851.223	2873.72
851.546	2861.97
851.869	2841.18
852.192	2834.18
852.515	2824.91
852.838	2794.18
853.161	2823.78
853.483	2850.45
853.806	2806.16
854.129	2772.71
854.451	2786.72
854.774	2794.63
855.096	2763.22
855.419	2751.69
855.741	2775.42
856.063	2750.56
856.385	2754.86
856.708	2713.73
857.03	2720.73
857.352	2701.98
857.674	2711.69
857.996	2695.65
858.318	2736.1
858.64	2704.91
858.961	2662.2
859.283	2701.75
859.605	2659.04
859.926	2677.57
860.248	2657.68
860.57	2637.57
860.891	2653.39
861.212	2655.42
861.534	2644.58
861.855	2648.42
862.176	2659.94
862.498	2613.17
862.819	2628.08
863.14	2635.99
863.461	2626.5
863.782	2552.6
864.103	2596.67
864.424	2599.38
864.745	2597.35
865.065	2610.45
865.386	2594.18
865.707	2586.73
866.027	2598.02
866.348	2593.96
866.668	2575.65
866.989	2575.88
867.309	2529.55
867.63	2565.71
867.95	2536.78
868.27	2527.52
868.59	2539.95
868.91	2527.07
869.23	2553.28
869.55	2543.11
869.87	2528.42
870.19	2551.02
870.51	2561.64
870.83	2518.93
871.15	2475.99
871.469	2497.69
871.789	2507.18
872.109	2512.83
872.428	2513.73
872.748	2469.89
873.067	2498.37
873.386	2497.01
873.706	2495.65
874.025	2488.65
874.344	2481.19
874.663	2490.01
874.982	2488.88
875.301	2468.54
875.62	2469.21
875.939	2489.33
876.258	2442.55
876.577	2446.16
876.896	2467.41
877.214	2453.85
877.533	2449.78
877.852	2447.07
878.17	2462.44
878.489	2457.69
878.807	2439.39
879.125	2461.76
879.444	2437.8
879.762	2442.32
880.08	2391.48
880.398	2413.62
880.716	2413.62
881.034	2398.93
881.352	2400.97
881.67	2366.84
881.988	2370.01
882.306	2403.68
882.624	2420.85
882.941	2385.15
883.259	2394.41
883.577	2373.4
883.894	2397.13
884.212	2382.89
884.529	2381.53
884.846	2388.31
885.164	2373.4
885.481	2372.72
885.798	2362.1
886.115	2360.07
886.432	2341.76
886.75	2309.44
887.067	2314.42
887.383	2308.54
887.7	2304.47
888.017	2300.41
888.334	2283
888.651	2330.24
888.967	2291.14
889.284	2301.99
889.6	2265.6
889.917	2271.03
890.233	2247.07
890.55	2252.72
890.866	2281.88
891.182	2244.36
891.498	2249.11
891.815	2272.38
892.131	2226.06
892.447	2234.87
892.763	2240.97
893.079	2196.45
893.395	2241.2
893.71	2230.35
894.026	2224.7
894.342	2230.8
894.657	2192.16
894.973	2205.27
895.289	2146.29
895.604	2184.02
895.92	2173.86
896.235	2151.93
896.55	2166.85
896.865	2174.31
897.181	2133.63
897.496	2134.99
897.811	2119.85
898.126	2118.94
898.441	2112.16
898.756	2117.13
899.071	2097.02
899.386	2085.27
899.7	2101.09
900.015	2097.93
900.33	2113.07
900.644	2051.82
900.959	2071.71
901.273	2049.79
901.588	2051.37
901.902	2063.35
902.216	2042.56
902.531	2051.6
902.845	2046.4
903.159	2034.65
903.473	2062.45
903.787	1997.81
904.101	1996.68
904.415	2001.66
904.729	2010.24
905.042	2004.37
905.356	1979.51
905.67	1964.37
905.984	1993.97
906.297	1954.65
906.611	1991.26
906.924	1973.86
907.237	1952.84
907.551	1970.7
907.864	1920.08
908.177	1939.06
908.491	1958.95
908.804	1900.42
909.117	1914.65
909.43	1902.68
909.743	1914.88
910.056	1899.06
910.368	1913.75
910.681	1895.44
910.994	1897.48
911.307	1856.12
911.619	1839.85
911.932	1857.25
912.244	1866.74
912.557	1848.44
912.869	1845.95
913.181	1840.53
913.494	1815.9
913.806	1806.86
914.118	1816.12
914.43	1816.8
914.742	1792.17
915.054	1801.44
915.366	1787.2
915.678	1758.5
915.99	1771.38
916.302	1766.18
916.613	1752.85
916.925	1791.94
917.236	1763.92
917.548	1745.62
917.859	1715.56
918.171	1749.46
918.482	1732.96
918.794	1761.44
919.105	1723.7
919.416	1708.56
919.727	1724.38
920.038	1743.81
920.349	1694.09
920.66	1671.72
920.971	1681.44
921.282	1718.05
921.593	1675.79
921.903	1650.03
922.214	1647.77
922.525	1682.12
922.835	1640.54
923.146	1630.14
923.456	1680.76
923.767	1651.84
924.077	1657.48
924.387	1632.17
924.697	1619.52
925.008	1622.68
925.318	1619.52
925.628	1602.57
925.938	1597.37
926.248	1571.16
926.558	1582.01
926.867	1587.66
927.177	1602.34
927.487	1574.1
927.796	1549.46
928.106	1563.48
928.416	1511.5
928.725	1511.73
929.034	1528.9
929.344	1561.67
929.653	1508.79
929.962	1527.77
930.271	1517.38
930.581	1508.34
930.89	1506.3
931.199	1516.25
931.508	1514.89
931.817	1508.79
932.125	1461.78
932.434	1471.5
932.743	1448.22
933.051	1494.33
933.36	1497.71
933.669	1454.33
933.977	1464.04
934.286	1440.77
934.594	1440.32
934.902	1420.65
935.21	1449.81
935.519	1434.44
935.827	1420.88
936.135	1433.76
936.443	1415.01
936.751	1398.73
937.059	1410.26
937.367	1411.62
937.674	1412.75
937.982	1403.25
938.29	1407.77
938.597	1403.25
938.905	1361.22
939.213	1378.62
939.52	1364.61
939.827	1366.42
940.135	1365.97
940.442	1356.25
940.749	1360.09
941.056	1351.96
941.363	1338.4
941.67	1354.67
941.977	1311.28
942.284	1313.54
942.591	1324.61
942.898	1312.41
943.205	1330.71
943.511	1337.95
943.818	1332.97
944.125	1278.51
944.431	1313.09
944.738	1298.85
945.044	1277.61
945.35	1293.65
945.657	1264.27
945.963	1269.47
946.269	1266.76
946.575	1273.09
946.881	1264.27
947.187	1245.97
947.493	1275.12
947.799	1252.52
948.105	1236.03
948.41	1252.98
948.716	1228.57
949.022	1245.29
949.327	1220.66
949.633	1214.33
949.938	1214.56
950.244	1230.6
950.549	1188.12
950.854	1181.34
951.16	1211.85
951.465	1186.76
951.77	1197.84
952.075	1192.41
952.38	1183.6
952.685	1162.58
952.99	1163.71
953.294	1165.52
953.599	1175.92
953.904	1165.75
954.209	1176.37
954.513	1157.16
954.818	1154
955.122	1142.24
955.426	1152.64
955.731	1130.72
956.035	1125.75
956.339	1142.47
956.643	1134.56
956.948	1131.85
957.252	1128.23
957.556	1123.04
957.86	1132.53
958.163	1106.54
958.467	1120.32
958.771	1112.41
959.075	1113.77
959.378	1095.69
959.682	1105.41
959.985	1097.5
960.289	1081
960.592	1104.96
960.896	1111.06
961.199	1071.06
961.502	1086.2
961.805	1094.11
962.108	1062.25
962.411	1077.39
962.714	1048.01
963.017	1048.46
963.32	1054.34
963.623	1050.72
963.926	1054.34
964.228	1062.02
964.531	1052.53
964.833	1032.42
965.136	1048.24
965.438	1014.56
965.741	1022.47
966.043	1018.18
966.345	1023.6
966.648	1015.24
966.95	994.68
967.252	1007.11
967.554	1017.05
967.856	989.93
968.158	993.77
968.46	992.42
968.761	1004.62
969.063	996.03
969.365	1005.3
969.666	979.76
969.968	995.36
970.269	961.91
970.571	990.38
970.872	972.76
971.174	975.02
971.475	954
971.776	960.33
972.077	939.76
972.378	946.99
972.679	945.86
972.98	938.86
973.281	975.92
973.582	946.99
973.883	927.79
974.183	937.5
974.484	953.1
974.785	923.72
975.085	935.47
975.386	931.85
975.686	923.04
975.986	935.02
976.287	926.2
976.587	918.75
976.887	932.08
977.187	908.8
977.487	931.18
977.787	907.22
978.087	894.34
978.387	914.68
978.687	895.47
978.987	896.6
979.286	887.79
979.586	878.3
979.885	896.37
980.185	871.29
980.484	863.16
980.784	887.34
981.083	880.33
981.382	863.38
981.682	860.9
981.981	847.56
982.28	874.91
982.579	874.68
982.878	853.66
983.177	864.51
983.475	855.02
983.774	846.43
984.073	859.09
984.372	850.27
984.67	838.52
984.969	859.09
985.267	855.25
985.566	836.72
985.864	832.87
986.162	859.77
986.461	817.51
986.759	830.16
987.057	810.28
987.355	828.58
987.653	807.34
987.951	847.34
988.249	804.85
988.547	817.05
988.844	815.7
989.142	804.4
989.44	810.73
989.737	821.8
990.035	791.74
990.332	786.55
990.63	793.78
990.927	785.87
991.224	814.34
991.521	788.81
991.819	792.42
992.116	773.89
992.413	817.73
992.71	798.3
993.006	786.32
993.303	786.55
993.6	759.66
993.897	787.23
994.193	762.82
994.49	781.58
994.787	756.49
995.083	765.08
995.379	754.46
995.676	736.38
995.972	745.87
996.268	758.75
996.565	745.42
996.861	721.24
997.157	721.01
997.453	729.6
997.749	720.33
998.044	723.72
998.34	738.41
998.636	735.7
998.932	727.34
999.227	717.4
999.523	731.63
999.818	721.92
1000.114	718.07
1000.409	703.84
1000.704	713.1
1001	719.88
1001.295	698.41
1001.59	679.88
1001.885	694.8
1002.18	700
1002.475	691.86
1002.77	685.98
1003.065	679.43
1003.359	714.01
1003.654	685.53
1003.949	696.61
1004.243	702.93
1004.538	716.49
1004.832	658.41
1005.127	684.4
1005.421	672.2
1005.715	660.67
1006.009	662.26
1006.304	646.44
1006.598	682.82
1006.892	659.32
1007.186	643.5
1007.48	664.06
1007.773	671.3
1008.067	638.98
1008.361	660.67
1008.655	643.05
1008.948	644.86
1009.242	652.99
1009.535	647.12
1009.829	648.25
1010.122	635.14
1010.415	631.07
1010.708	634.46
1011.001	621.35
1011.295	638.98
1011.588	602.15
1011.881	611.18
1012.173	612.54
1012.466	605.76
1012.759	635.14
1013.052	614.35
1013.344	589.26
1013.637	608.25
1013.93	615.48
1014.222	611.86
1014.514	589.49
1014.807	599.66
1015.099	593.33
1015.391	600.79
1015.683	595.82
1015.976	625.2
1016.268	581.13
1016.56	599.21
1016.851	586.1
1017.143	586.1
1017.435	591.52
1017.727	561.69
1018.018	588.81
1018.31	586.1
1018.602	605.99
1018.893	576.38
1019.185	584.52
1019.476	568.7
1019.767	575.71
1020.058	572.54
1020.35	549.49
1020.641	589.49
1020.932	566.21
1021.223	561.47
1021.514	574.58
1021.804	544.29
1022.095	555.82
1022.386	556.72
1022.677	530.06
1022.967	521.47
1023.258	545.42
1023.548	542.49
1023.839	545.2
1024.129	546.55
1024.419	542.94
1024.709	518.53
1025	535.71
1025.29	526.44
1025.58	540.9
1025.87	510.62
1026.16	522.37
1026.449	525.54
1026.739	513.79
1027.029	513.33
1027.319	506.33
1027.608	504.29
1027.898	501.36
1028.187	529.6
1028.477	518.76
1028.766	515.14
1029.055	523.28
1029.344	489.15
1029.634	482.83
1029.923	498.87
1030.212	508.81
1030.501	509.27
1030.79	509.94
1031.078	511.3
1031.367	516.72
1031.656	494.8
1031.945	478.53
1032.233	495.71
1032.522	506.33
1032.81	453.45
1033.099	470.17
1033.387	485.54
1033.675	477.18
1033.963	476.5
1034.251	485.76
1034.54	483.05
1034.828	470.17
1035.116	486.67
1035.403	492.32
1035.691	478.98
1035.979	474.92
1036.267	467.46
1036.554	464.52
1036.842	458.19
1037.129	457.29
1037.417	469.04
1037.704	468.59
1037.992	452.32
1038.279	435.14
1038.566	463.62
1038.853	463.62
1039.14	463.62
