Data from black_metal_pc_casing_FLMS001491_00063.txt Node
Date: Wed Feb 08 14:33:18 GMT 2017
User: dcchb
Spectrometer: FLMS00149
Trigger mode: 0
Integration Time (sec): 2.000000E-2
Scans to average: 10
Electric dark correction enabled: true
Nonlinearity correction enabled: false
Boxcar width: 0
XAxis mode: Wavelengths
Number of Pixels in Spectrum: 2048
>>>>>Begin Spectral Data<<<<<
341.393	-11.33
341.776	-11.33
342.16	-11.33
342.543	-48.61
342.927	-49.52
343.31	-54.72
343.693	-70.08
344.077	-69.18
344.46	-59.01
344.843	-57.2
345.226	-40.25
345.61	-30.54
345.993	-7.71
346.376	-2.29
346.759	-4.1
347.142	33.19
347.525	35.45
347.908	47.65
348.291	70.25
348.674	89.91
349.057	118.61
349.44	131.49
349.823	146.41
350.206	145.96
350.588	191.83
350.971	209.23
351.354	218.95
351.737	242.23
352.119	240.42
352.502	255.33
352.884	258.95
353.267	267.54
353.65	273.64
354.032	286.29
354.414	290.59
354.797	320.19
355.179	311.38
355.562	312.73
355.944	314.09
356.326	345.27
356.709	333.3
357.091	333.97
357.473	327.87
357.855	344.82
358.238	299.4
358.62	332.62
359.002	343.01
359.384	333.75
359.766	339.4
360.148	329.45
360.53	323.35
360.912	348.89
361.294	314.31
361.676	323.81
362.057	310.92
362.439	325.84
362.821	329.68
363.203	324.26
363.584	313.18
363.966	303.92
364.348	319.96
364.729	319.29
365.111	304.14
365.493	324.71
365.874	319.96
366.256	307.31
366.637	318.16
367.019	322.68
367.4	313.86
367.781	321.55
368.163	293.52
368.544	310.25
368.925	310.25
369.306	325.61
369.688	303.24
370.069	312.96
370.45	317.93
370.831	299.62
371.212	304.37
371.593	305.05
371.974	289
372.355	311.15
372.736	305.95
373.117	301.43
373.498	324.93
373.879	316.8
374.26	296.46
374.641	325.61
375.021	318.16
375.402	310.25
375.783	347.99
376.163	328.55
376.544	329.91
376.925	330.58
377.305	314.77
377.686	334.65
378.066	310.02
378.447	333.3
378.827	338.27
379.208	315.67
379.588	340.98
379.968	339.4
380.349	343.01
380.729	336.01
381.109	333.75
381.489	344.82
381.87	348.44
382.25	311.6
382.63	333.75
383.01	338.04
383.39	340.53
383.77	337.59
384.15	345.27
384.53	354.54
384.91	337.14
385.29	350.7
385.67	368.32
386.049	351.15
386.429	361.54
386.809	357.25
387.189	368.55
387.568	338.95
387.948	364.93
388.328	359.74
388.707	345.27
389.087	364.03
389.466	371.94
389.846	357.7
390.225	380.53
390.605	381.66
390.984	393.18
391.363	363.58
391.743	379.4
392.122	384.59
392.501	378.04
392.881	376.23
393.26	376.23
393.639	410.58
394.018	378.72
394.397	402.9
394.776	383.01
395.155	390.02
395.534	407.64
395.913	405.61
396.292	392.05
396.671	406.74
397.05	391.15
397.429	406.97
397.808	412.39
398.186	404.93
398.565	402.22
398.944	413.07
399.323	412.62
399.701	404.48
400.08	413.29
400.458	420.98
400.837	437.7
401.215	426.4
401.594	426.18
401.972	428.21
402.351	434.31
402.729	428.21
403.107	435.44
403.486	444.03
403.864	428.89
404.242	464.37
404.62	441.99
404.999	450.81
405.377	456.23
405.755	453.07
406.133	445.61
406.511	467.76
406.889	475.89
407.267	443.35
407.645	463.01
408.023	477.93
408.401	470.02
408.779	466.4
409.156	467.76
409.534	461.2
409.912	482.67
410.29	488.32
410.667	506.63
411.045	511.6
411.422	494.2
411.8	498.49
412.178	485.83
412.555	519.51
412.933	528.77
413.31	521.54
413.687	541.2
414.065	536.91
414.442	550.01
414.819	536.91
415.197	522.9
415.574	557.02
415.951	552.27
416.328	562.67
416.705	544.36
417.082	538.26
417.46	559.96
417.837	550.92
418.214	566.06
418.591	578.94
418.967	565.83
419.344	537.13
419.721	580.07
420.098	585.95
420.475	590.46
420.852	577.81
421.228	604.93
421.605	600.41
421.982	581.43
422.358	613.97
422.735	610.35
423.111	622.33
423.488	616.23
423.864	624.14
424.241	623.91
424.617	649.22
424.994	657.36
425.37	638.37
425.746	645.15
426.123	662.1
426.499	654.87
426.875	656.9
427.251	665.94
427.627	663.68
428.003	683.8
428.379	689.22
428.756	696.22
429.132	697.13
429.507	706.17
429.883	682.21
430.259	736.45
430.635	722.89
431.011	732.38
431.387	738.48
431.763	760.4
432.138	755.21
432.514	773.74
432.89	736.45
433.265	786.84
433.641	798.37
434.016	773.96
434.392	782.78
434.767	787.3
435.143	817.8
435.518	797.24
435.894	828.88
436.269	809.44
436.644	807.63
437.02	829.55
437.395	843.79
437.77	872.27
438.145	836.79
438.52	859.84
438.895	877.46
439.271	856.67
439.646	910.68
440.021	895.99
440.395	888.54
440.77	893.28
441.145	909.55
441.52	912.72
441.895	916.56
442.27	914.07
442.645	921.76
443.019	926.95
443.394	930.34
443.769	943
444.143	947.52
444.518	961.3
444.892	943.45
445.267	962.21
445.641	980.51
446.016	954.3
446.39	983.67
446.764	971.25
447.139	976.67
447.513	994.52
447.887	983.45
448.262	987.74
448.636	1008.31
449.01	1012.83
449.384	1030.23
449.758	1051.24
450.132	1020.96
450.506	1041.07
450.88	1040.17
451.254	1046.05
451.628	1069.55
452.002	1071.36
452.376	1076.1
452.75	1099.15
453.123	1088.08
453.497	1092.82
453.871	1100.06
454.244	1118.36
454.618	1153.84
454.992	1162.88
455.365	1172.37
455.739	1173.95
456.112	1192.03
456.486	1197.68
456.859	1188.64
457.232	1221.41
457.606	1211.01
457.979	1207.85
458.352	1229.09
458.725	1260.73
459.099	1286.72
459.472	1298.92
459.845	1309.99
460.218	1287.85
460.591	1343.67
460.964	1338.69
461.337	1349.77
461.71	1362.42
462.083	1386.83
462.456	1400.39
462.829	1408.07
463.201	1415.75
463.574	1424.12
463.947	1451.68
464.32	1460.27
464.692	1479.93
465.065	1476.54
465.438	1524.68
465.81	1496.88
466.183	1514.06
466.555	1549.54
466.928	1574.85
467.3	1591.34
467.672	1588.18
468.045	1621.85
468.417	1621.17
468.789	1621.4
469.161	1650.55
469.534	1670.21
469.906	1725.58
470.278	1723.77
470.65	1735.29
471.022	1784.56
471.394	1815.29
471.766	1815.97
472.138	1822.75
472.51	1876.98
472.882	1874.27
473.253	1917.44
473.625	1923.54
473.997	1961.5
474.369	1995.17
474.74	2000.15
475.112	2025.68
475.484	2062.06
475.855	2084.89
476.227	2119.46
476.598	2150.2
476.97	2150.88
477.341	2207.37
477.713	2258.44
478.084	2261.61
478.455	2281.27
478.827	2329.63
479.198	2382.28
479.569	2405.33
479.94	2439.23
480.311	2464.54
480.682	2490.3
481.053	2579.56
481.424	2572.56
481.795	2659.11
482.166	2676.29
482.537	2693.91
482.908	2769.16
483.279	2784.31
483.65	2826.79
484.021	2889.84
484.391	2924.64
484.762	2923.51
485.133	2912.21
485.503	2984.3
485.874	3055.26
486.244	3059.1
486.615	3152.43
486.985	3165.99
487.356	3194.69
487.726	3235.59
488.097	3271.3
488.467	3297.74
488.837	3384.06
489.207	3404.18
489.578	3454.12
489.948	3462.48
490.318	3512.42
490.688	3559.2
491.058	3591.74
491.428	3648.46
491.798	3656.6
492.168	3720.33
492.538	3762.13
492.908	3812.53
493.278	3843.49
493.648	3884.39
494.017	3877.38
494.387	3904.73
494.757	3961.68
495.126	4014.56
495.496	4035.35
495.866	4069.7
496.235	4077.38
496.605	4083.71
496.974	4167.55
497.344	4159.18
497.713	4191.27
498.082	4219.97
498.452	4218.17
498.821	4265.62
499.19	4303.81
499.559	4344.04
499.928	4379.07
500.298	4415.22
500.667	4462.68
501.036	4439.4
501.405	4473.53
501.774	4523.69
502.143	4551.26
502.512	4560.76
502.88	4626.52
503.249	4632.17
503.618	4631.49
503.987	4652.73
504.356	4733.18
504.724	4714.65
505.093	4740.64
505.462	4761.2
505.83	4797.36
506.199	4849.79
506.567	4864.48
506.936	4890.69
507.304	4967.98
507.672	4991.03
508.041	4979.05
508.409	5083.68
508.777	5099.5
509.145	5137.46
509.514	5130.91
509.882	5182.43
510.25	5170.46
510.618	5232.6
510.986	5219.72
511.354	5295.43
511.722	5349.89
512.09	5401.64
512.458	5395.54
512.826	5446.38
513.193	5492.71
513.561	5525.48
513.929	5591.01
514.297	5615.64
514.664	5622.42
515.032	5612.03
515.4	5734.06
515.767	5696.32
516.135	5796.88
516.502	5737.45
516.869	5847.73
517.237	5892.25
517.604	5847.5
517.972	5885.47
518.339	5995.97
518.706	6000.04
519.073	6010.21
519.44	6065.8
519.808	6197.77
520.175	6168.4
520.542	6246.59
520.909	6261.05
521.276	6285.46
521.643	6333.36
522.009	6420.37
522.376	6467.37
522.743	6492.46
523.11	6546.24
523.477	6631.89
523.843	6626.24
524.21	6687.48
524.577	6755.5
524.943	6757.99
525.31	6839.34
525.676	6893.8
526.043	6883.86
526.409	6957.53
526.776	7130.63
527.142	7068.03
527.508	7082.72
527.874	7118.43
528.241	7175.6
528.607	7186.45
528.973	7261.02
529.339	7273.23
529.705	7348.71
530.071	7394.13
530.437	7446.1
530.803	7531.3
531.169	7523.39
531.535	7521.81
531.901	7537.17
532.267	7607.46
532.632	7746.21
532.998	7694.23
533.364	7753.67
533.73	7743.72
534.095	7867.34
534.461	7880.44
534.826	7935.36
535.192	7920.67
535.557	8025.3
535.923	8030.72
536.288	8013.55
536.653	8151.17
537.019	8066.65
537.384	8092.64
537.749	8191.62
538.114	8242.01
538.479	8188.68
538.845	8158.63
539.21	8262.58
539.575	8313.88
539.94	8381.9
540.305	8390.03
540.67	8360.88
541.034	8396.14
541.399	8450.82
541.764	8423.25
542.129	8437.49
542.494	8442.69
542.858	8555.45
543.223	8587.09
543.587	8645.17
543.952	8592.51
544.316	8640.2
544.681	8613.98
545.045	8702.12
545.41	8739.4
545.774	8787.99
546.138	8778.72
546.503	8807.42
546.867	8771.94
547.231	8915.9
547.595	8865.05
547.959	8946.4
548.324	8952.28
548.688	8924.71
549.052	9026.63
549.416	9020.3
549.779	9075.21
550.143	9064.59
550.507	9121.31
550.871	9168.54
551.235	9207.19
551.599	9215.32
551.962	9274.53
552.326	9287.41
552.689	9355.88
553.053	9291.93
553.417	9400.4
553.78	9476.56
554.143	9347.52
554.507	9529.66
554.87	9551.36
555.234	9591.13
555.597	9589.78
555.96	9599.49
556.323	9722.65
556.686	9609.44
557.05	9747.06
557.413	9808.98
557.776	9822.76
558.139	9885.14
558.502	9913.38
558.865	9974.85
559.228	10018.69
559.59	10045.58
559.953	10100.5
560.316	10141.63
560.679	10160.38
561.041	10227.05
561.404	10254.84
561.767	10328.51
562.129	10288.74
562.492	10420.26
562.854	10429.53
563.217	10430.66
563.579	10476.31
563.941	10571.45
564.304	10578.45
564.666	10597.21
565.028	10691.22
565.39	10645.79
565.753	10815.73
566.115	10840.82
566.477	10813.02
566.839	10893.24
567.201	10890.98
567.563	10957.88
567.925	11056.63
568.287	11054.37
568.648	11014.6
569.01	11139.79
569.372	11214.14
569.734	11126.23
570.095	11147.7
570.457	11301.14
570.819	11309.05
571.18	11340.01
571.542	11349.05
571.903	11460.24
572.265	11448.03
572.626	11507.01
572.987	11511.76
573.349	11601.7
573.71	11593.79
574.071	11617.97
574.432	11601.25
574.794	11665.2
575.155	11678.99
575.516	11698.65
575.877	11774.58
576.238	11782.26
576.599	11828.81
576.96	11881.47
577.32	11868.13
577.681	11908.13
578.042	11886.66
578.403	11918.75
578.763	11885.31
579.124	12024.51
579.485	11996.72
579.845	12056.15
580.206	11917.62
580.566	11984.74
580.927	12061.8
581.287	12064.06
581.648	12022.48
582.008	12134.57
582.368	12031.97
582.728	12130.05
583.089	12055.47
583.449	12106.32
583.809	12118.75
584.169	12199.88
584.529	12065.87
584.889	12176.83
585.249	12116.49
585.609	12102.7
585.969	12133.44
586.329	12169.37
586.688	12183.61
587.048	12273.32
587.408	12127.56
587.768	12105.64
588.127	12170.05
588.487	12136.6
588.846	12217.5
589.206	12139.99
589.565	12166.88
589.925	12177.96
590.284	12217.28
590.643	12170.27
591.003	12188.35
591.362	12195.81
591.721	12278.74
592.08	12217.96
592.44	12277.62
592.799	12263.15
593.158	12274.9
593.517	12207.56
593.876	12238.52
594.235	12215.02
594.593	12238.07
594.952	12263.6
595.311	12144.74
595.67	12217.5
596.029	12368.01
596.387	12383.15
596.746	12330.04
597.104	12243.72
597.463	12318.97
597.822	12368.01
598.18	12257.5
598.538	12329.59
598.897	12392.19
599.255	12269.03
599.613	12494.78
599.972	12404.17
600.33	12437.38
600.688	12324.62
601.046	12457.72
601.404	12457.72
601.762	12455.24
602.12	12557.83
602.478	12536.14
602.836	12560.55
603.194	12489.13
603.552	12513.54
603.91	12419.76
604.268	12443.49
604.625	12466.31
604.983	12544.05
605.341	12508.8
605.698	12629.92
606.056	12521.22
606.413	12580.43
606.771	12570.49
607.128	12615.69
607.485	12563.71
607.843	12525.74
608.2	12644.61
608.557	12710.15
608.914	12645.97
609.272	12734.78
609.629	12709.92
609.986	12818.17
610.343	12653.65
610.7	12710.37
611.057	12681.45
611.414	12713.99
611.771	12807.77
612.127	12778.62
612.484	12855.68
612.841	12845.06
613.198	12835.79
613.554	12834.21
613.911	12938.84
614.267	12951.5
614.624	12988.1
614.98	12831.5
615.337	13013.64
615.693	12944.94
616.05	12993.75
616.406	13021.78
616.762	12961.21
617.118	12960.99
617.475	12935.22
617.831	12994.21
618.187	13107.88
618.543	13046.63
618.899	13132.73
619.255	13092.06
619.611	13053.19
619.967	13066.07
620.323	13197.82
620.678	13096.58
621.034	13140.87
621.39	13003.02
621.746	13102
622.101	13123.47
622.457	13062.23
622.812	13118.27
623.168	13135.9
623.523	13104.71
623.879	13102.23
624.234	13033.08
624.589	13110.36
624.945	13156.24
625.3	13193.3
625.655	13131.15
626.01	13192.62
626.365	13133.64
626.72	13106.97
627.075	13167.31
627.43	13111.94
627.785	13072.62
628.14	13142.45
628.495	13064.71
628.85	13093.86
629.205	13092.28
629.559	13191.72
629.914	13110.59
630.269	13068.78
630.623	13074.2
630.978	13019.74
631.332	13104.49
631.687	13052.74
632.041	12998.5
632.396	13017.93
632.75	12964.6
633.104	12954.21
633.459	12971.61
633.813	12898.62
634.167	12904.72
634.521	12882.8
634.875	12959.41
635.229	12912.4
635.583	12805.28
635.937	12784.95
636.291	12817.71
636.645	12846.87
636.999	12784.95
637.352	12790.82
637.706	12766.87
638.06	12785.85
638.413	12740.65
638.767	12722.12
639.121	12706.76
639.474	12727.32
639.828	12681.45
640.181	12699.3
640.534	12660.2
640.888	12642.13
641.241	12579.53
641.594	12648.9
641.947	12614.78
642.301	12615.69
642.654	12562.35
643.007	12638.06
643.36	12647.32
643.713	12563.94
644.066	12538.4
644.419	12523.26
644.771	12433.32
645.124	12253.21
645.477	12225.41
645.83	12313.55
646.182	12224.51
646.535	12118.75
646.888	12169.82
647.24	12102.7
647.593	12155.36
647.945	11977.06
648.298	12002.82
648.65	12051.86
649.002	11994.91
649.355	12026.55
649.707	12004.63
650.059	12017.51
650.411	12198.07
650.763	12254.56
651.115	12302.25
651.467	12245.07
651.819	12240.1
652.171	12305.64
652.523	12212.76
652.875	12179.76
653.227	12201.01
653.578	12302.25
653.93	12219.31
654.282	12116.94
654.633	12198.75
654.985	12191.29
655.337	12172.99
655.688	12163.72
656.039	12216.37
656.391	12051.41
656.742	12183.15
657.094	12097.73
657.445	12146.09
657.796	12131.4
658.147	12062.03
658.498	12099.77
658.849	12205.53
659.2	11928.02
659.551	12074.91
659.902	12123.04
660.253	12043.95
660.604	12123.95
660.955	11970.28
661.306	12049.6
661.656	12000.11
662.007	11954.69
662.358	12010.28
662.708	12020.67
663.059	12012.09
663.409	11941.35
663.76	11907
664.11	11916.27
664.461	11946.55
664.811	11962.6
665.161	11867.68
665.511	11915.59
665.862	11918.98
666.212	11946.32
666.562	11962.82
666.912	11874.91
667.262	11946.1
667.612	11974.8
667.962	11886.66
668.312	11854.12
668.662	11886.44
669.011	11909.72
669.361	11782.49
669.711	11846.44
670.06	11706.56
670.41	11808.02
670.76	11791.98
671.109	11882.15
671.459	11824.75
671.808	11830.85
672.157	11868.13
672.507	11797.4
672.856	11739.78
673.205	11808.93
673.554	11839.21
673.904	11749.95
674.253	11861.81
674.602	11716.27
674.951	11593.34
675.3	11538.2
675.649	11733.67
675.998	11740.23
676.346	11664.3
676.695	11735.03
677.044	11691.42
677.393	11738.42
677.741	11638.54
678.09	11638.08
678.438	11706.78
678.787	11669.72
679.135	11659.55
679.484	11597.18
679.832	11648.25
680.181	11541.82
680.529	11608.71
680.877	11602.15
681.225	11572.55
681.573	11622.27
681.922	11532.55
682.27	11514.47
682.618	11486.22
682.966	11430.41
683.314	11487.13
683.661	11341.37
684.009	11395.15
684.357	11329.62
684.705	11322.39
685.053	11333.23
685.4	11296.4
685.748	11261.82
686.095	11267.7
686.443	11192.67
686.79	11162.16
687.138	11279.22
687.485	11267.92
687.832	11197.42
688.18	11177.08
688.527	11144.76
688.874	11132.11
689.221	11166.01
689.568	11048.49
689.915	10996.74
690.262	11064.31
690.609	10977.54
690.956	10978.21
691.303	10926.69
691.65	10836.52
691.997	10873.36
692.344	10842.85
692.69	10780.03
693.037	10844.88
693.383	10735.73
693.73	10783.64
694.077	10658.22
694.423	10727.37
694.769	10659.58
695.116	10656.87
695.462	10644.44
695.808	10620.03
696.155	10595.4
696.501	10537.1
696.847	10516.76
697.193	10512.92
697.539	10488.74
697.885	10454.61
698.231	10402.18
698.577	10435.63
698.923	10351.79
699.269	10346.59
699.614	10311.34
699.96	10279.48
700.306	10314.5
700.651	10218.23
700.997	10159.93
701.342	10170.78
701.688	10179.82
702.033	10171
702.379	10091.91
702.724	10025.24
703.069	10112.7
703.415	10017.79
703.76	10056.88
704.105	9989.77
704.45	9937.79
704.795	9884.01
705.14	9910.45
705.485	9870.9
705.83	9831.8
706.175	9833.39
706.52	9812.6
706.865	9809.66
707.209	9793.39
707.554	9745.48
707.899	9756.33
708.243	9696.21
708.588	9660.73
708.932	9622.54
709.277	9634.29
709.621	9621.41
709.966	9544.58
710.31	9519.95
710.654	9457.58
710.998	9576.44
711.342	9483.34
711.687	9443.11
712.031	9430.91
712.375	9470.91
712.719	9381.87
713.063	9348.65
713.407	9425.26
713.75	9399.05
714.094	9383.91
714.438	9372.61
714.782	9384.13
715.125	9325.38
715.469	9319.73
715.812	9255.1
716.156	9237.69
716.499	9283.12
716.843	9221.65
717.186	9224.81
717.53	9207.41
717.873	9261.88
718.216	9140.97
718.559	9133.74
718.902	9113.18
719.246	9099.62
719.589	9117.25
719.932	9013.97
720.275	9115.66
720.617	9024.14
720.96	9012.84
721.303	8999.28
721.646	9025.95
721.989	8954.76
722.331	9023.24
722.674	9012.62
723.016	8944.14
723.359	8924.03
723.701	8939.17
724.044	8859.17
724.386	8869.12
724.729	8900.53
725.071	8861.21
725.413	8860.98
725.755	8883.81
726.097	8862.34
726.439	8756.13
726.782	8814.66
727.124	8752.28
727.465	8703.47
727.807	8780.76
728.149	8752.96
728.491	8715.22
728.833	8707.99
729.175	8690.14
729.516	8631.16
729.858	8589.8
730.199	8589.12
730.541	8605.85
730.882	8651.95
731.224	8594.1
731.565	8577.15
731.906	8586.86
732.248	8597.71
732.589	8530.82
732.93	8424.83
733.271	8468.22
733.612	8463.93
733.953	8492.18
734.294	8531.5
734.635	8476.13
734.976	8516.36
735.317	8444.27
735.658	8435.46
735.999	8379.64
736.339	8415.8
736.68	8376.02
737.021	8366.08
737.361	8430.94
737.702	8362.24
738.042	8441.11
738.383	8311.62
738.723	8320.88
739.063	8316.14
739.404	8291.05
739.744	8312.75
740.084	8273.65
740.424	8255.57
740.764	8289.02
741.104	8285.63
741.444	8187.1
741.784	8205.63
742.124	8214.22
742.464	8181.45
742.804	8235.91
743.143	8133.77
743.483	8118.18
743.823	8077.73
744.162	8117.27
744.502	8103.49
744.841	8054.45
745.181	8080.66
745.52	8037.95
745.86	8077.73
746.199	8114.56
746.538	8049.93
746.877	8062.13
747.216	8064.17
747.556	8011.29
747.895	7988.46
748.234	8000.67
748.573	7920.22
748.911	7900.78
749.25	7921.57
749.589	7888.35
749.928	7899.88
750.267	7930.38
750.605	7882.02
750.944	7874.79
751.283	7926.77
751.621	7909.37
751.96	7799.09
752.298	7785.08
752.636	7826.43
752.975	7806.09
753.313	7767.45
753.651	7777.62
753.989	7719.09
754.327	7691.52
754.666	7654.46
755.004	7669.37
755.342	7659.66
755.679	7662.14
756.017	7590.28
756.355	7569.72
756.693	7567.46
757.031	7639.54
757.368	7514.12
757.706	7573.11
758.044	7509.6
758.381	7540.56
758.719	7495.14
759.056	7519.32
759.394	7451.98
759.731	7442.04
760.068	7344.41
760.405	7357.52
760.743	7345.54
761.08	7336.05
761.417	7294.7
761.754	7296.28
762.091	7254.47
762.428	7226.22
762.765	7177.18
763.102	7298.08
763.438	7190.97
763.775	7191.87
764.112	7194.81
764.449	7179.67
764.785	7158.88
765.122	7066.9
765.458	7086.79
765.795	7062.84
766.131	7074.59
766.467	7052.89
766.804	7000.69
767.14	6908.72
767.476	6979.9
767.812	6852.45
768.148	6957.98
768.485	6826.01
768.821	6827.14
769.157	6837.08
769.492	6809.28
769.828	6750.53
770.164	6766.8
770.5	6759.57
770.836	6738.1
771.171	6681.38
771.507	6670.98
771.842	6616.07
772.178	6649.06
772.513	6599.35
772.849	6555.73
773.184	6528.61
773.519	6551.89
773.855	6514.83
774.19	6510.99
774.525	6497.65
774.86	6552.57
775.195	6461.04
775.53	6466.92
775.865	6350.54
776.2	6388.73
776.535	6298.11
776.87	6344.89
777.205	6311.22
777.539	6303.53
777.874	6285.23
778.209	6188.74
778.543	6202.52
778.878	6199.81
779.212	6151
779.547	6188.74
779.881	6163.43
780.215	6122.75
780.55	6137.21
780.884	6046.59
781.218	6079.81
781.552	6051.56
781.886	6001.85
782.22	5987.16
782.554	5965.92
782.888	5917.33
783.222	5895.64
783.556	5887.05
783.889	5868.74
784.223	5857.44
784.557	5837.56
784.89	5818.8
785.224	5810.67
785.557	5800.27
785.891	5791.46
786.224	5740.16
786.558	5717.34
786.891	5658.58
787.224	5684.34
787.557	5627.39
787.891	5611.8
788.224	5657.22
788.557	5658.35
788.89	5588.98
789.223	5624.91
789.556	5560.73
789.888	5569.09
790.221	5553.05
790.554	5525.25
790.887	5465.59
791.219	5466.95
791.552	5449.32
791.884	5426.27
792.217	5413.61
792.549	5436.21
792.882	5334.97
793.214	5342.2
793.546	5380.4
793.879	5315.99
794.211	5288.19
794.543	5286.61
794.875	5229.44
795.207	5357.12
795.539	5298.59
795.871	5246.39
796.203	5248.2
796.535	5207.97
796.867	5199.16
797.198	5163.9
797.53	5116
797.862	5151.93
798.193	5190.12
798.525	5120.29
798.856	5101.98
799.188	5051.82
799.519	5006.17
799.85	5034.19
800.182	5032.83
800.513	5012.5
800.844	4978.37
801.175	5030.57
801.506	5047.07
801.837	4997.35
802.168	4982.89
802.499	4949.9
802.83	4914.19
803.161	4878.49
803.491	4911.26
803.822	4926.4
804.153	4878.49
804.483	4824.25
804.814	4810.69
805.145	4869
805.475	4843.91
805.805	4787.64
806.136	4812.95
806.466	4818.6
806.796	4778.15
807.126	4742.22
807.457	4745.38
807.787	4702
808.117	4688.66
808.447	4717.81
808.777	4720.75
809.107	4686.18
809.436	4655.22
809.766	4676.23
810.096	4636.01
810.426	4614.77
810.755	4647.99
811.085	4642.34
811.414	4643.69
811.744	4564.82
812.073	4530.7
812.403	4541.1
812.732	4567.08
813.061	4493.19
813.39	4511.27
813.719	4514.88
814.049	4539.74
814.378	4518.27
814.707	4496.8
815.036	4506.52
815.365	4452.74
815.693	4452.96
816.022	4423.36
816.351	4434.21
816.68	4400.76
817.008	4398.5
817.337	4371.61
817.665	4380.87
817.994	4347.43
818.322	4349.01
818.651	4339.97
818.979	4298.39
819.307	4315.11
819.636	4358.95
819.964	4362.12
820.292	4341.33
820.62	4316.02
820.948	4296.36
821.276	4288.9
821.604	4307.2
821.932	4326.86
822.259	4323.47
822.587	4298.39
822.915	4299.29
823.243	4332.74
823.57	4282.57
823.898	4278.73
824.225	4266.75
824.553	4278.73
824.88	4313.76
825.207	4272.18
825.535	4280.76
825.862	4254.32
826.189	4280.99
826.516	4325.96
826.843	4292.51
827.17	4293.42
827.497	4302.46
827.824	4263.14
828.151	4292.29
828.478	4274.44
828.805	4283.25
829.131	4273.76
829.458	4256.13
829.785	4299.07
830.111	4298.39
830.438	4252.06
830.764	4269.46
831.09	4283.7
831.417	4267.66
831.743	4250.26
832.069	4238.96
832.395	4273.53
832.722	4292.74
833.048	4254.32
833.374	4260.65
833.7	4229.24
834.026	4275.11
834.351	4232.18
834.677	4258.16
835.003	4246.87
835.329	4225.4
835.654	4215.68
835.98	4182.46
836.306	4239.63
836.631	4181.1
836.956	4187.66
837.282	4199.18
837.607	4147.43
837.932	4158.51
838.258	4172.52
838.583	4150.37
838.908	4121.9
839.233	4198.51
839.558	4151.05
839.883	4107.21
840.208	4124.84
840.533	4099.3
840.858	4114.67
841.182	4104.04
841.507	4084.61
841.832	4120.77
842.156	4057.72
842.481	4067.44
842.805	4056.59
843.13	4065.85
843.454	4105.17
843.778	4038.74
844.103	4022.46
844.427	4016.14
844.751	4005.29
845.075	4006.65
845.399	3991.96
845.723	3986.76
846.047	3991.51
846.371	3943.37
846.695	3961
847.019	3956.03
847.343	3902.02
847.666	3910.38
847.99	3883.26
848.313	3902.02
848.637	3839.87
848.96	3866.08
849.284	3830.38
849.607	3817.05
849.931	3831.51
850.254	3799.87
850.577	3775.24
850.9	3784.73
851.223	3735.69
851.546	3732.53
851.869	3685.98
852.192	3732.98
852.515	3681.68
852.838	3668.8
853.161	3643.27
853.483	3627.45
853.806	3634.9
854.129	3639.65
854.451	3618.86
854.774	3612.76
855.096	3597.39
855.419	3602.36
855.741	3591.97
856.063	3577.5
856.385	3521.24
856.708	3532.53
857.03	3546.09
857.352	3521.69
857.674	3554.68
857.996	3478.3
858.318	3519.2
858.64	3462.03
858.961	3495.93
859.283	3468.58
859.605	3423.61
859.926	3492.99
860.248	3441.24
860.57	3463.16
860.891	3437.85
861.212	3407.57
861.534	3478.07
861.855	3431.07
862.176	3395.14
862.498	3420.45
862.819	3374.12
863.14	3381.35
863.461	3368.02
863.782	3363.95
864.103	3349.49
864.424	3364.18
864.745	3363.73
865.065	3382.26
865.386	3288.02
865.707	3318.98
866.027	3334.8
866.348	3290.05
866.668	3325.76
866.989	3320.11
867.309	3291.64
867.63	3306.1
867.95	3288.25
868.27	3268.13
868.59	3283.28
868.91	3293.67
869.23	3300.68
869.55	3258.19
869.87	3237.63
870.19	3228.81
870.51	3266.1
870.83	3284.41
871.15	3231.07
871.469	3241.02
871.789	3283.05
872.109	3267.68
872.428	3199.44
872.748	3219.55
873.067	3190.62
873.386	3192.2
873.706	3218.19
874.025	3182.71
874.344	3199.89
874.663	3187.23
874.982	3217.51
875.301	3189.27
875.62	3149.27
875.939	3146.78
876.258	3159.44
876.577	3157.4
876.896	3207.35
877.214	3145.43
877.533	3142.04
877.852	3136.16
878.17	3140.91
878.489	3169.61
878.807	3157.63
879.125	3154.47
879.444	3131.41
879.762	3146.1
880.08	3136.61
880.398	3128.7
880.716	3138.65
881.034	3116.73
881.352	3099.33
881.67	3088.25
881.988	3124.18
882.306	3089.16
882.624	3078.08
882.941	3067.46
883.259	3078.99
883.577	3064.52
883.894	3041.93
884.212	2984.07
884.529	3036.05
884.846	3032.66
885.164	3027.01
885.481	3001.25
885.798	3007.8
886.115	3013.45
886.432	3003.73
886.75	2969.39
887.067	2968.93
887.383	2968.71
887.7	2970.29
888.017	2912.21
888.334	2984.98
888.651	2934.58
888.967	2930.52
889.284	2926
889.6	2923.28
889.917	2922.83
890.233	2939.56
890.55	2900.91
890.866	2915.6
891.182	2875.15
891.498	2893.23
891.815	2910.63
892.131	2867.02
892.447	2850.74
892.763	2862.5
893.079	2844.42
893.395	2856.85
893.71	2820.46
894.026	2832.44
894.342	2805.32
894.657	2820.01
894.973	2811.65
895.289	2804.19
895.604	2776.17
895.92	2798.99
896.235	2757.87
896.55	2765.77
896.865	2758.09
897.181	2770.75
897.496	2751.54
897.811	2737.75
898.126	2715.38
898.441	2722.39
898.756	2706.57
899.071	2693.01
899.386	2736.85
899.7	2681.03
900.015	2659.11
900.33	2657.08
900.644	2684.42
900.959	2660.69
901.273	2605.33
901.588	2580.47
901.902	2591.32
902.216	2586.12
902.531	2609.85
902.845	2600.81
903.159	2611.88
903.473	2568.72
903.787	2573.46
904.101	2589.73
904.415	2560.36
904.729	2539.79
905.042	2545.89
905.356	2543.63
905.67	2491.43
905.984	2524.65
906.297	2539.79
906.611	2525.56
906.924	2505.44
907.237	2481.71
907.551	2488.49
907.864	2492.11
908.177	2452.79
908.491	2473.35
908.804	2454.6
909.117	2440.59
909.43	2413.24
909.743	2402.85
910.056	2422.73
910.368	2446.69
910.681	2404.88
910.994	2357.2
911.307	2376.41
911.619	2354.26
911.932	2363.98
912.244	2331.89
912.557	2340.48
912.869	2352.68
913.181	2351.55
913.494	2314.94
913.806	2323.07
914.118	2300.93
914.43	2283.53
914.742	2305.45
915.054	2243.3
915.366	2267.93
915.678	2264.09
915.99	2277.65
916.302	2256.86
916.613	2253.02
916.925	2202.4
917.236	2226.13
917.548	2209.18
917.859	2202.17
918.171	2207.37
918.482	2216.18
918.794	2172.34
919.105	2179.8
919.416	2165.79
919.727	2191.33
920.038	2183.87
920.349	2148.16
920.66	2158.11
920.971	2132.12
921.282	2123.31
921.593	2116.75
921.903	2133.7
922.214	2095.74
922.525	2086.7
922.835	2081.95
923.146	2095.74
923.456	2065
923.767	2058.67
924.077	2042.18
924.387	2061.16
924.697	2044.66
925.008	2054.16
925.318	2032.91
925.628	2027.72
925.938	2010.09
926.248	2004.89
926.558	1997.43
926.867	2000.15
927.177	2008.28
927.487	1975.06
927.796	1961.95
928.106	1967.6
928.416	1957.43
928.725	1934.38
929.034	1923.76
929.344	1923.99
929.653	1934.38
929.962	1904.78
930.271	1919.24
930.581	1901.84
930.89	1893.71
931.199	1885.57
931.508	1888.96
931.817	1906.81
932.125	1885.57
932.434	1882.86
932.743	1841.73
933.051	1836.53
933.36	1844.67
933.669	1836.99
933.977	1801.96
934.286	1808.29
934.594	1789.76
934.902	1816.65
935.21	1780.04
935.519	1815.74
935.827	1777.78
936.135	1798.57
936.443	1761.51
936.751	1749.76
937.059	1768.96
937.367	1744.33
937.674	1730.55
937.982	1733.26
938.29	1744.56
938.597	1743.43
938.905	1700.04
939.213	1714.73
939.52	1667.5
939.827	1722.41
940.135	1674.05
940.442	1691.68
940.749	1687.16
941.056	1669.53
941.363	1679.48
941.67	1686.71
941.977	1675.41
942.284	1666.82
942.591	1666.59
942.898	1626.37
943.205	1627.27
943.511	1627.73
943.818	1627.95
944.125	1622.75
944.431	1637.44
944.738	1602.42
945.044	1604.45
945.35	1588.18
945.657	1589.99
945.963	1625.01
946.269	1595.64
946.575	1586.82
946.881	1599.25
947.187	1552.93
947.493	1577.11
947.799	1540.04
948.105	1560.83
948.41	1541.4
948.716	1530.1
949.022	1516.54
949.327	1552.93
949.633	1507.28
949.938	1519.93
950.244	1535.07
950.549	1524.45
950.854	1502.98
951.16	1488.29
951.465	1481.97
951.77	1497.79
952.075	1457.33
952.38	1430.44
952.685	1454.85
952.99	1445.36
953.294	1448.3
953.599	1430.67
953.904	1418.24
954.209	1409.65
954.513	1443.32
954.818	1420.5
955.122	1394.96
955.426	1422.53
955.731	1425.25
956.035	1407.84
956.339	1392.48
956.643	1422.76
956.948	1382.99
957.252	1385.47
957.556	1397.45
957.86	1396.09
958.163	1380.5
958.467	1335.53
958.771	1367.17
959.075	1360.61
959.378	1362.42
959.682	1362.2
959.985	1352.7
960.289	1357.68
960.592	1323.55
960.896	1321.97
961.199	1335.76
961.502	1324.91
961.805	1319.26
962.108	1309.54
962.411	1319.71
962.714	1310.67
963.017	1285.81
963.32	1312.93
963.623	1248.53
963.926	1288.53
964.228	1271.12
964.531	1291.46
964.833	1264.8
965.136	1269.77
965.438	1262.09
965.741	1269.32
966.043	1235.65
966.345	1240.39
966.648	1260.05
966.95	1244.68
967.252	1251.46
967.554	1246.72
967.856	1238.36
968.158	1205.14
968.46	1223.67
968.761	1205.59
969.063	1235.19
969.365	1230.45
969.666	1223.44
969.968	1195.65
970.269	1218.02
970.571	1217.34
970.872	1188.19
971.174	1177.12
971.475	1194.06
971.776	1177.57
972.077	1189.32
972.378	1154.07
972.679	1162.88
972.98	1148.19
973.281	1140.73
973.582	1145.93
973.883	1149.77
974.183	1128.53
974.484	1150.45
974.785	1162.43
975.085	1128.3
975.386	1138.02
975.686	1133.5
975.986	1094.86
976.287	1141.64
976.587	1110.9
976.887	1085.14
977.187	1101.86
977.487	1111.35
977.787	1068.42
978.087	1090.11
978.387	1073.39
978.687	1079.49
978.987	1076.55
979.286	1080.17
979.586	1088.08
979.885	1045.37
980.185	1049.89
980.484	1088.3
980.784	1068.19
981.083	1057.8
981.382	1055.99
981.682	1066.16
981.981	1048.98
982.28	1036.1
982.579	1028.42
982.878	1031.13
983.177	1047.4
983.475	990.23
983.774	999.04
984.073	1007.63
984.372	996.33
984.67	1019.38
984.969	1014.41
985.267	1003.34
985.566	1012.15
985.864	973.28
986.162	990
986.461	998.14
986.759	987.29
987.057	995.65
987.355	978.93
987.653	1012.37
987.951	964.92
988.249	958.59
988.547	943.68
988.844	936.67
989.142	973.05
989.44	952.72
989.737	952.49
990.035	974.86
990.332	970.12
990.63	953.84
990.927	974.41
991.224	943
991.521	956.56
991.819	932.38
992.116	940.74
992.413	910.91
992.71	931.47
993.006	930.79
993.303	902.77
993.6	905.26
993.897	917.91
994.193	903
994.49	922.66
994.787	898.25
995.083	895.99
995.379	893.51
995.676	908.2
995.972	876.11
996.268	904.58
996.565	909.1
996.861	899.84
997.157	877.01
997.453	881.08
997.749	882.89
998.044	894.64
998.34	874.3
998.636	857.12
998.932	871.59
999.227	852.6
999.523	866.16
999.818	862.1
1000.114	850.34
1000.409	837.01
1000.704	839.27
1001	840.18
1001.295	836.11
1001.59	838.82
1001.885	817.13
1002.18	834.53
1002.475	826.84
1002.77	817.58
1003.065	816.9
1003.359	803.11
1003.654	803.79
1003.949	796.56
1004.243	796.79
1004.538	803.79
1004.832	803.79
1005.127	759.5
1005.421	765.83
1005.715	771.25
1006.009	782.55
1006.304	765.83
1006.598	763.12
1006.892	787.75
1007.186	778.26
1007.48	783.23
1007.773	774.41
1008.067	773.06
1008.361	782.55
1008.655	755.21
1008.948	767.41
1009.242	750.91
1009.535	759.5
1009.829	762.89
1010.122	749.33
1010.415	718.37
1010.708	722.89
1011.001	750.46
1011.295	727.41
1011.588	728.99
1011.881	702.1
1012.173	721.53
1012.466	715.66
1012.759	708.43
1013.052	712.5
1013.344	683.8
1013.637	713.17
1013.93	700.97
1014.222	696.9
1014.514	691.03
1014.807	709.56
1015.099	698.26
1015.391	691.03
1015.683	697.58
1015.976	672.95
1016.268	690.35
1016.56	678.82
1016.851	675.43
1017.143	647.19
1017.435	667.98
1017.727	666.39
1018.018	667.52
1018.31	664.59
1018.602	651.03
1018.893	633.18
1019.185	675.43
1019.476	647.86
1019.767	653.06
1020.058	644.47
1020.35	626.85
1020.641	636.11
1020.932	646.06
1021.223	625.27
1021.514	617.58
1021.804	618.94
1022.095	611.93
1022.386	631.59
1022.677	645.83
1022.967	640.86
1023.258	629.56
1023.548	601.54
1023.839	599.5
1024.129	627.07
1024.419	608.09
1024.709	605.15
1025	603.12
1025.29	610.35
1025.58	608.09
1025.87	606.74
1026.16	590.01
1026.449	606.96
1026.739	601.99
1027.029	596.57
1027.319	602.44
1027.608	578.04
1027.898	580.07
1028.187	591.37
1028.477	550.92
1028.766	577.81
1029.055	586.17
1029.344	580.97
1029.634	560.86
1029.923	564.25
1030.212	554.53
1030.501	578.04
1030.79	570.35
1031.078	554.99
1031.367	544.82
1031.656	560.18
1031.945	562.22
1032.233	532.16
1032.522	543.91
1032.81	526.51
1033.099	554.99
1033.387	537.36
1033.675	531.26
1033.963	553.86
1034.251	546.4
1034.54	532.84
1034.828	538.49
1035.116	537.13
1035.403	524.25
1035.691	511.6
1035.979	518.83
1036.267	508.43
1036.554	529.22
1036.842	535.78
1037.129	510.69
1037.417	505.04
1037.704	532.84
1037.992	526.96
1038.279	519.51
1038.566	510.01
1038.853	510.01
1039.14	510.01
