Data from black_metal_pc_casing_FLMS001491_00017.txt Node
Date: Wed Feb 08 14:32:03 GMT 2017
User: dcchb
Spectrometer: FLMS00149
Trigger mode: 0
Integration Time (sec): 2.000000E-2
Scans to average: 10
Electric dark correction enabled: true
Nonlinearity correction enabled: false
Boxcar width: 0
XAxis mode: Wavelengths
Number of Pixels in Spectrum: 2048
>>>>>Begin Spectral Data<<<<<
341.393	-19.67
341.776	-19.67
342.16	-19.67
342.543	-50.63
342.927	-66.45
343.31	-71.65
343.693	-62.16
344.077	-54.25
344.46	-62.61
344.843	-67.58
345.226	-36.4
345.61	-31.88
345.993	-12.22
346.376	-16.96
346.759	18.06
347.142	23.94
347.525	33.88
347.908	45.41
348.291	87.89
348.674	97.16
349.057	109.36
349.44	104.84
349.823	129.25
350.206	167.44
350.588	173.77
350.971	196.36
351.354	204.5
351.737	213.54
352.119	241.11
352.502	222.35
352.884	242.24
353.267	272.97
353.65	272.3
354.032	280.2
354.414	272.75
354.797	305.51
355.179	285.85
355.562	299.64
355.944	306.19
356.326	319.3
356.709	333.31
357.091	327.66
357.473	312.07
357.855	309.81
358.238	324.95
358.62	341.9
359.002	324.27
359.384	319.75
359.766	327.21
360.148	335.34
360.53	333.54
360.912	314.33
361.294	333.31
361.676	333.76
362.057	319.3
362.439	309.58
362.821	319.75
363.203	310.26
363.584	342.35
363.966	312.52
364.348	309.81
364.729	304.61
365.111	316.59
365.493	330.15
365.874	309.58
366.256	300.99
366.637	315.46
367.019	296.02
367.4	282.46
367.781	308.45
368.163	298.06
368.544	295.35
368.925	285.4
369.306	303.93
369.688	299.41
370.069	305.29
370.45	288.34
370.831	292.18
371.212	305.06
371.593	287.44
371.974	301.67
372.355	313.2
372.736	310.49
373.117	303.93
373.498	312.75
373.879	277.94
374.26	298.74
374.641	294.89
375.021	299.41
375.402	297.83
375.783	283.37
376.163	322.92
376.544	326.08
376.925	323.37
377.305	310.94
377.686	327.21
378.066	314.1
378.447	311.84
378.827	342.8
379.208	319.98
379.588	306.64
379.968	324.05
380.349	323.14
380.729	320.88
381.109	338.06
381.489	320.43
381.87	333.08
382.25	320.43
382.63	347.32
383.01	344.16
383.39	319.3
383.77	343.48
384.15	320.66
384.53	328.56
384.91	323.82
385.29	326.98
385.67	327.89
386.049	362.24
386.429	341.45
386.809	348.9
387.189	328.34
387.568	350.71
387.948	351.84
388.328	341.9
388.707	345.74
389.087	369.02
389.466	353.42
389.846	355.68
390.225	363.82
390.605	370.15
390.984	359.07
391.363	343.71
391.743	376.7
392.122	347.32
392.501	376.93
392.881	376.25
393.26	385.74
393.639	373.31
394.018	380.77
394.397	384.61
394.776	344.84
395.155	384.38
395.534	371.5
395.913	401.56
396.292	375.8
396.671	371.05
397.05	373.31
397.429	405.4
397.808	367.21
398.186	389.13
398.565	387.55
398.944	376.47
399.323	402.01
399.701	385.29
400.08	375.8
400.458	393.2
400.837	408.79
401.215	412.18
401.594	424.83
401.972	414.89
402.351	409.92
402.729	400.2
403.107	412.18
403.486	403.14
403.864	410.37
404.242	409.24
404.62	415.34
404.999	423.93
405.377	418.28
405.755	416.47
406.133	424.16
406.511	420.31
406.889	434.1
407.267	429.13
407.645	449.47
408.023	430.26
408.401	425.06
408.779	438.62
409.156	442.01
409.534	443.14
409.912	447.88
410.29	432.29
410.667	440.2
411.045	468.9
411.422	475
411.8	457.83
412.178	471.16
412.555	485.17
412.933	479.07
413.31	479.52
413.687	485.85
414.065	468
414.442	512.29
414.819	483.36
415.197	486.75
415.574	498.96
415.951	489.69
416.328	507.32
416.705	508.45
417.082	501.22
417.46	498.05
417.837	520.65
418.214	503.25
418.591	498.73
418.967	538.95
419.344	539.86
419.721	524.94
420.098	538.73
420.475	538.28
420.852	548.9
421.228	547.32
421.605	537.6
421.982	543.93
422.358	558.84
422.735	573.76
423.111	547.99
423.488	557.94
423.864	554.77
424.241	590.25
424.617	555.68
424.994	559.52
425.37	554.32
425.746	573.76
426.123	589.8
426.499	566.52
426.875	595.45
427.251	595
427.627	606.07
428.003	611.95
428.379	595.45
428.756	604.49
429.132	621.44
429.507	606.98
429.883	618.5
430.259	630.03
430.635	646.97
431.011	649.46
431.387	652.62
431.763	648.56
432.138	628.67
432.514	651.04
432.89	656.24
433.265	681.78
433.641	684.04
434.016	676.13
434.392	667.54
434.767	690.14
435.143	707.76
435.518	708.44
435.894	714.32
436.269	708.89
436.644	732.62
437.02	738.27
437.395	730.36
437.77	712.51
438.145	753.41
438.52	757.93
438.895	733.75
439.271	744.15
439.646	757.48
440.021	763.13
440.395	752.51
440.77	773.52
441.145	785.05
441.52	750.47
441.895	772.85
442.27	781.43
442.645	779.85
443.019	790.25
443.394	786.41
443.769	797.03
444.143	797.48
444.518	816.46
444.892	823.69
445.267	799.96
445.641	823.69
446.016	835.9
446.39	838.61
446.764	825.27
447.139	844.71
447.513	857.59
447.887	856.46
448.262	843.35
448.636	861.66
449.01	860.3
449.384	861.21
449.758	868.44
450.132	891.04
450.506	900.75
450.88	899.85
451.254	877.93
451.628	899.85
452.002	898.95
452.376	938.27
452.75	929
453.123	917.48
453.497	938.94
453.871	945.95
454.244	950.02
454.618	955.67
454.992	955.21
455.365	970.58
455.739	972.16
456.112	1012.39
456.486	998.38
456.859	978.49
457.232	1012.61
457.606	1009.45
457.979	1047.64
458.352	1059.39
458.725	1065.04
459.099	1053.74
459.472	1062.56
459.845	1077.92
460.218	1085.16
460.591	1130.13
460.964	1101.2
461.337	1162.89
461.71	1136
462.083	1137.81
462.456	1159.28
462.829	1150.69
463.201	1172.16
463.574	1194.76
463.947	1184.81
464.32	1211.48
464.692	1244.92
465.065	1232.95
465.438	1271.14
465.81	1246.73
466.183	1256.45
466.555	1279.73
466.928	1292.61
467.3	1285.15
467.672	1303.45
468.045	1337.13
468.417	1339.84
468.789	1338.93
469.161	1362.44
469.534	1397.46
469.906	1426.39
470.278	1414.19
470.65	1417.35
471.022	1445.6
471.394	1489.66
471.766	1483.56
472.138	1498.03
472.51	1519.04
472.882	1568.31
473.253	1578.02
473.625	1580.06
473.997	1602.2
474.369	1623.45
474.74	1629.77
475.112	1644.01
475.484	1668.87
475.855	1725.82
476.227	1723.1
476.598	1757.68
476.97	1765.59
477.341	1787.96
477.713	1799.49
478.084	1836.1
478.455	1879.03
478.827	1887.85
479.198	1930.56
479.569	1953.38
479.94	2001.06
480.311	2002.65
480.682	2064.56
481.053	2078.8
481.424	2116.99
481.795	2145.47
482.166	2135.97
482.537	2161.06
482.908	2210.55
483.279	2211.23
483.65	2282.64
484.021	2298.91
484.391	2319.47
484.762	2350.88
485.133	2357.44
485.503	2416.42
485.874	2457.1
486.244	2435.63
486.615	2518.56
486.985	2554.27
487.356	2590.2
487.726	2618
488.097	2627.94
488.467	2676.3
488.837	2686.02
489.207	2765.11
489.578	2784.09
489.948	2823.87
490.318	2817.31
490.688	2845.33
491.058	2864.09
491.428	2906.35
491.798	2927.82
492.168	2998.55
492.538	3016.63
492.908	3030.41
493.278	3046.01
493.648	3068.15
494.017	3092.33
494.387	3132.56
494.757	3148.38
495.126	3218.88
495.496	3237.41
495.866	3248.26
496.235	3286.23
496.605	3290.97
496.974	3311.31
497.344	3307.24
497.713	3360.58
498.082	3357.19
498.452	3369.61
498.821	3412.55
499.19	3467.92
499.559	3479.22
499.928	3471.31
500.298	3536.84
500.667	3544.75
501.036	3541.59
501.405	3548.37
501.774	3565.99
502.143	3624.75
502.512	3677.4
502.88	3696.39
503.249	3691.19
503.618	3724.63
503.987	3714.24
504.356	3744.52
504.724	3770.06
505.093	3775.93
505.462	3808.47
505.83	3849.38
506.199	3858.19
506.567	3878.75
506.936	3915.36
507.304	3906.32
507.672	3992.88
508.041	4000.78
508.409	4019.09
508.777	4062.7
509.145	4087.79
509.514	4050.27
509.882	4139.09
510.25	4146.32
510.618	4131.63
510.986	4180.89
511.354	4218.63
511.722	4217.5
512.09	4297.95
512.458	4279.65
512.826	4309.7
513.193	4351.28
513.561	4354.9
513.929	4399.19
514.297	4477.16
514.664	4490.94
515.032	4466.76
515.4	4582.69
515.767	4570.49
516.135	4539.53
516.502	4547.89
516.869	4638.73
517.237	4688
517.604	4633.99
517.972	4678.28
518.339	4716.47
518.706	4771.39
519.073	4786.53
519.44	4809.8
519.808	4849.12
520.175	4903.36
520.542	4884.83
520.909	4955.79
521.276	4935.45
521.643	5054.99
522.009	5102.22
522.376	5066.29
522.743	5113.52
523.11	5170.7
523.477	5158.49
523.843	5259.06
524.21	5294.76
524.577	5322.78
524.943	5354.42
525.31	5368.66
525.676	5431.48
526.043	5462.22
526.409	5476.9
526.776	5597.58
527.142	5565.72
527.508	5558.94
527.874	5640.97
528.241	5692.72
528.607	5719.61
528.973	5757.57
529.339	5685.71
529.705	5833.73
530.071	5880.06
530.437	5862.2
530.803	5901.07
531.169	5984.69
531.535	5982.2
531.901	5973.61
532.267	5984.24
532.632	6026.72
532.998	6082.99
533.364	6087.74
533.73	6160.5
534.095	6229.65
534.461	6227.39
534.826	6235.53
535.192	6223.1
535.557	6317.33
535.923	6270.1
536.288	6361.4
536.653	6364.34
537.019	6332.02
537.384	6374.28
537.749	6384.22
538.114	6414.28
538.479	6419.03
538.845	6544.45
539.21	6459.25
539.575	6509.42
539.94	6516.65
540.305	6578.8
540.67	6600.72
541.034	6617.66
541.399	6643.43
541.764	6639.36
542.129	6645.46
542.494	6718.91
542.858	6727.94
543.223	6748.51
543.587	6795.74
543.952	6846.13
544.316	6789.86
544.681	6873.93
545.045	6832.8
545.41	6815.4
545.774	6891.1
546.138	6906.02
546.503	6978.79
546.867	6972.23
547.231	7001.16
547.595	7046.13
547.959	7007.49
548.324	7024.21
548.688	7103.53
549.052	7102.85
549.416	7118.44
549.779	7136.3
550.143	7203.64
550.507	7179.46
550.871	7216.52
551.235	7244.99
551.599	7296.97
551.962	7297.2
552.326	7332
552.689	7369.74
553.053	7390.75
553.417	7398.44
553.78	7506.68
554.143	7433.01
554.507	7491.99
554.87	7508.26
555.234	7584.19
555.597	7582.16
555.96	7602.05
556.323	7665.32
556.686	7574.02
557.05	7581.71
557.413	7698.09
557.776	7703.96
558.139	7739.44
558.502	7813.57
558.865	7850.85
559.228	7858.08
559.59	7908.93
559.953	7985.09
560.316	7956.61
560.679	7966.33
561.041	8035.48
561.404	8033.22
561.767	8186.89
562.129	8107.57
562.492	8227.57
562.854	8241.35
563.217	8209.26
563.579	8262.59
563.941	8310.05
564.304	8293.33
564.666	8426.43
565.028	8400.67
565.39	8465.98
565.753	8480.44
566.115	8512.3
566.477	8537.39
566.839	8584.62
567.201	8606.54
567.563	8666.42
567.925	8650.61
568.287	8624.39
568.648	8719.76
569.01	8800.43
569.372	8785.97
569.734	8783.03
570.095	8903.93
570.457	8916.36
570.819	8886.31
571.18	8953.87
571.542	8979.86
571.903	9027.09
572.265	9017.6
572.626	9028.22
572.987	9026.42
573.349	9161.33
573.71	9107.32
574.071	9106.64
574.432	9181.21
574.794	9262.34
575.155	9270.93
575.516	9255.11
575.877	9219.18
576.238	9262.79
576.599	9295.56
576.96	9393.41
577.32	9371.26
577.681	9374.65
578.042	9403.58
578.403	9405.16
578.763	9371.72
579.124	9395.67
579.485	9448.55
579.845	9470.7
580.206	9460.98
580.566	9385.95
580.927	9488.78
581.287	9504.37
581.648	9461.43
582.008	9536.23
582.368	9444.71
582.728	9516.57
583.089	9539.4
583.449	9477.02
583.809	9574.65
584.169	9561.32
584.529	9509.57
584.889	9627.08
585.249	9494.43
585.609	9549.11
585.969	9626.17
586.329	9555.44
586.688	9620.75
587.048	9583.24
587.408	9537.36
587.768	9562.22
588.127	9571.49
588.487	9479.28
588.846	9580.75
589.206	9542.33
589.565	9535.1
589.925	9595.21
590.284	9532.39
590.643	9597.93
591.003	9657.59
591.362	9599.96
591.721	9614.87
592.08	9649.22
592.44	9556.34
592.799	9653.07
593.158	9586.63
593.517	9627.98
593.876	9633.63
594.235	9604.71
594.593	9588.21
594.952	9734.87
595.311	9652.61
595.67	9690.8
596.029	9778.71
596.387	9732.39
596.746	9754.76
597.104	9683.12
597.463	9759.05
597.822	9701.88
598.18	9736.68
598.538	9697.81
598.897	9728.54
599.255	9659.62
599.613	9840.86
599.972	9773.06
600.33	9717.47
600.688	9718.37
601.046	9801.54
601.404	9834.53
601.762	9784.14
602.12	9845.15
602.478	9857.81
602.836	9825.26
603.194	9815.77
603.552	9819.39
603.91	9841.08
604.268	9825.94
604.625	9778.49
604.983	9850.35
605.341	9829.78
605.698	9935.09
606.056	9871.59
606.413	9897.35
606.771	9906.17
607.128	9912.72
607.485	9915.43
607.843	9891.48
608.2	9931.02
608.557	9937.35
608.914	9922.89
609.272	10014.64
609.629	9980.97
609.986	10000.4
610.343	10009.89
610.7	10072.49
611.057	10015.09
611.414	10033.17
611.771	9978.93
612.127	10060.06
612.484	10074.98
612.841	10113.39
613.198	10087.18
613.554	10057.35
613.911	10163.33
614.267	10142.77
614.624	10092.38
614.98	10214.41
615.337	10172.83
615.693	10182.54
616.05	10175.76
616.406	10269.32
616.762	10157.68
617.118	10195.42
617.475	10148.65
617.831	10272.03
618.187	10215.08
618.543	10262.99
618.899	10234.07
619.255	10276.1
619.611	10301.18
619.967	10230
620.323	10347.51
620.678	10225.48
621.034	10316.55
621.39	10355.87
621.746	10281.98
622.101	10332.82
622.457	10282.88
622.812	10274.07
623.168	10332.14
623.523	10277.46
623.879	10314.97
624.234	10295.08
624.589	10327.85
624.945	10335.76
625.3	10268.64
625.655	10287.62
626.01	10291.47
626.365	10307.96
626.72	10301.18
627.075	10271.35
627.43	10335.76
627.785	10265.93
628.14	10344.12
628.495	10308.19
628.85	10304.57
629.205	10206.5
629.559	10309.77
629.914	10248.76
630.269	10262.54
630.623	10259.83
630.978	10255.31
631.332	10345.02
631.687	10272.94
632.041	10251.92
632.396	10241.75
632.75	10199.49
633.104	10280.17
633.459	10172.83
633.813	10200.85
634.167	10182.32
634.521	10174.18
634.875	10187.51
635.229	10120.17
635.583	10145.26
635.937	10188.64
636.291	10073.85
636.645	10120.17
636.999	10070.46
637.352	10097.12
637.706	9972.83
638.06	10053.96
638.413	10036.11
638.767	10106.61
639.121	10046.05
639.474	9971.7
639.828	10021.64
640.181	9981.87
640.534	9983.68
640.888	9933.06
641.241	9973.28
641.594	10025.03
641.947	9980.51
642.301	9948.2
642.654	9918.14
643.007	9911.36
643.36	9898.48
643.713	9877.47
644.066	9862.1
644.419	9851.25
644.771	9736.9
645.124	9709.34
645.477	9668.88
645.83	9648.32
646.182	9564.03
646.535	9582.56
646.888	9582.33
647.24	9460.3
647.593	9570.81
647.945	9493.52
648.298	9512.28
648.65	9451.04
649.002	9401.32
649.355	9442.22
649.707	9484.93
650.059	9454.88
650.411	9581.88
650.763	9643.12
651.115	9683.8
651.467	9677.02
651.819	9644.48
652.171	9639.28
652.523	9601.99
652.875	9621.88
653.227	9599.06
653.578	9628.66
653.93	9547.08
654.282	9524.71
654.633	9542.33
654.985	9590.02
655.337	9602.45
655.688	9571.03
656.039	9592.95
656.391	9494.43
656.742	9492.62
657.094	9582.56
657.445	9566.29
657.796	9514.09
658.147	9499.4
658.498	9527.42
658.849	9519.96
659.2	9536.68
659.551	9478.61
659.902	9479.74
660.253	9531.94
660.604	9451.94
660.955	9484.03
661.306	9444.26
661.656	9507.76
662.007	9502.33
662.358	9473.18
662.708	9443.35
663.059	9423.01
663.409	9393.86
663.76	9470.25
664.11	9455.56
664.461	9492.84
664.811	9456.91
665.161	9430.7
665.511	9387.99
665.862	9491.26
666.212	9413.07
666.562	9428.44
666.912	9433.64
667.262	9434.77
667.612	9442.9
667.962	9386.63
668.312	9364.71
668.662	9350.93
669.011	9370.13
669.361	9399.74
669.711	9402.45
670.06	9380.53
670.41	9425.5
670.76	9361.32
671.109	9331.49
671.459	9342.34
671.808	9399.51
672.157	9382.79
672.507	9255.56
672.856	9316.8
673.205	9296.46
673.554	9352.51
673.904	9293.75
674.253	9331.04
674.602	9287.65
674.951	9182.12
675.3	9122.01
675.649	9255.34
675.998	9247.65
676.346	9207.2
676.695	9272.74
677.044	9185.06
677.393	9282
677.741	9209.24
678.09	9242.23
678.438	9185.73
678.787	9228.44
679.135	9188.9
679.484	9130.82
679.832	9146.19
680.181	9141.44
680.529	9182.57
680.877	9109.8
681.225	9100.54
681.573	9140.99
681.922	9042.23
682.27	9116.36
682.618	9053.31
682.966	9044.49
683.314	9054.44
683.661	9055.57
684.009	8998.39
684.357	8936.02
684.705	8962.24
685.053	8951.84
685.4	8950.94
685.748	8864.16
686.095	8853.09
686.443	8861.45
686.79	8850.37
687.138	8880.88
687.485	8806.08
687.832	8784.84
688.18	8823.48
688.527	8795.46
688.874	8761.11
689.221	8711.17
689.568	8708.23
689.915	8713.43
690.262	8701.68
690.609	8662.36
690.956	8663.71
691.303	8620.78
691.65	8565.18
691.997	8661
692.344	8533.32
692.69	8601.34
693.037	8566.54
693.383	8479.76
693.73	8531.06
694.077	8421.46
694.423	8362.03
694.769	8474.57
695.116	8379.65
695.462	8419.2
695.808	8295.36
696.155	8408.13
696.501	8305.53
696.847	8364.29
697.193	8314.34
697.539	8335.36
697.885	8236.61
698.231	8233.22
698.577	8181.01
698.923	8206.32
699.269	8075.25
699.614	8161.13
699.96	8145.53
700.306	8078.42
700.651	8105.54
700.997	8049.27
701.342	8006.78
701.688	8043.16
702.033	8025.31
702.379	7993.9
702.724	8015.82
703.069	7964.75
703.415	7892.89
703.76	7903.51
704.105	7949.38
704.45	7874.81
704.795	7807.46
705.14	7843.4
705.485	7769.05
705.83	7806.11
706.175	7782.61
706.52	7729.95
706.865	7728.82
707.209	7718.65
707.554	7751.42
707.899	7703.29
708.243	7653.57
708.588	7611.54
708.932	7616.28
709.277	7620.58
709.621	7686.11
709.966	7526.79
710.31	7588.26
710.654	7544.65
710.998	7571.09
711.342	7512.78
711.687	7527.92
712.031	7407.25
712.375	7502.39
712.719	7475.72
713.063	7464.65
713.407	7486.34
713.75	7391.2
714.094	7405.67
714.438	7393.24
714.782	7355.95
715.125	7332
715.469	7330.64
715.812	7274.82
716.156	7281.38
716.499	7256.52
716.843	7286.57
717.186	7274.37
717.53	7259
717.873	7264.65
718.216	7230.98
718.559	7158.67
718.902	7160.93
719.246	7186.69
719.589	7146.69
719.932	7093.58
720.275	7126.35
720.617	7161.38
720.96	7094.26
721.303	7168.16
721.646	7126.8
721.989	7067.37
722.331	7108.05
722.674	7052.91
723.016	7095.62
723.359	7065.34
723.701	7069.63
724.044	6943.08
724.386	6949.86
724.729	7061.72
725.071	7048.16
725.413	7049.07
725.755	6996.41
726.097	6956.19
726.439	6950.09
726.782	6955.74
727.124	6975.85
727.465	6891.56
727.807	6899.47
728.149	6900.37
728.491	6884.55
728.833	6865.12
729.175	6831.67
729.516	6833.03
729.858	6842.29
730.199	6819.92
730.541	6854.72
730.882	6837.55
731.224	6830.09
731.565	6808.62
731.906	6757.1
732.248	6787.83
732.589	6759.81
732.93	6709.19
733.271	6735.4
733.612	6715.97
733.953	6768.62
734.294	6687.27
734.635	6660.38
734.976	6704.67
735.317	6664.9
735.658	6611.79
735.999	6673.48
736.339	6661.05
736.68	6639.36
737.021	6600.04
737.361	6602.52
737.702	6622.18
738.042	6597.78
738.383	6602.07
738.723	6603.43
739.063	6619.47
739.404	6625.35
739.744	6542.86
740.084	6572.02
740.424	6518.68
740.764	6509.19
741.104	6529.08
741.444	6550.55
741.784	6466.03
742.124	6534.05
742.464	6536.09
742.804	6492.24
743.143	6515.29
743.483	6480.27
743.823	6409.53
744.162	6404.34
744.502	6420.38
744.841	6409.08
745.181	6391.68
745.52	6413.83
745.86	6374.96
746.199	6355.3
746.538	6382.19
746.877	6439.36
747.216	6354.17
747.556	6306.71
747.895	6313.49
748.234	6367.05
748.573	6341.97
748.911	6292.93
749.25	6264
749.589	6259.26
749.928	6310.78
750.267	6267.84
750.605	6222.42
750.944	6253.61
751.283	6256.54
751.621	6211.12
751.96	6193.04
752.298	6119.6
752.636	6171.58
752.975	6130.22
753.313	6165.02
753.651	6134.74
753.989	6101.97
754.327	6092.71
754.666	6051.13
755.004	6115.98
755.342	6099.94
755.679	6024.46
756.017	6011.58
756.355	6035.76
756.693	6004.8
757.031	6037.79
757.368	5983.33
757.706	5997.34
758.044	5945.82
758.381	5923.67
758.719	5926.16
759.056	5927.51
759.394	5941.52
759.731	5828.08
760.068	5871.7
760.405	5787.86
760.743	5798.48
761.08	5833.73
761.417	5802.09
761.754	5779.27
762.091	5793.73
762.428	5732.26
762.765	5740.85
763.102	5724.58
763.438	5730.46
763.775	5705.6
764.112	5669.22
764.449	5722.32
764.785	5648.2
765.122	5636.67
765.458	5627.18
765.795	5596.67
766.131	5573.85
766.467	5617.69
766.804	5515.1
767.14	5530.69
767.476	5472.61
767.812	5509.45
768.148	5518.26
768.485	5447.98
768.821	5427.87
769.157	5452.72
769.492	5392.16
769.828	5387.19
770.164	5360.75
770.5	5354.42
770.836	5338.6
771.171	5339.05
771.507	5280.52
771.842	5266.29
772.178	5273.52
772.513	5255.44
772.849	5268.32
773.184	5260.86
773.519	5157.36
773.855	5187.65
774.19	5164.82
774.525	5186.97
774.86	5151.04
775.195	5154.88
775.53	5117.37
775.865	5049.57
776.2	5041.89
776.535	5010.93
776.87	5006.18
777.205	5003.7
777.539	4993.53
777.874	4984.04
778.209	4949.69
778.543	5006.86
778.878	4904.49
779.212	4888.44
779.547	4886.19
779.881	4878.28
780.215	4872.85
780.55	4899.74
780.884	4828.79
781.218	4849.8
781.552	4819.52
781.886	4801.89
782.22	4770.93
782.554	4759.63
782.888	4736.13
783.222	4723.25
783.556	4676.47
783.889	4721.9
784.223	4638.96
784.557	4656.36
784.89	4645.06
785.224	4650.26
785.557	4649.13
785.891	4586.31
786.224	4577.49
786.558	4560.54
786.891	4525.06
787.224	4525.06
787.557	4522.13
787.891	4502.01
788.224	4443.03
788.557	4493.88
788.89	4451.62
789.223	4459.3
789.556	4429.02
789.888	4425.41
790.221	4376.14
790.554	4359.42
790.887	4384.05
791.219	4326.43
791.552	4341.34
791.884	4349.48
792.217	4318.97
792.549	4282.81
792.882	4301.34
793.214	4250.72
793.546	4234.9
793.879	4216.37
794.211	4242.36
794.543	4236.26
794.875	4190.61
795.207	4200.1
795.539	4157.39
795.871	4114.91
796.203	4165.98
796.535	4152.65
796.867	4124.4
797.198	4089.82
797.53	4116.49
797.862	4091.18
798.193	4104.96
798.525	4031.07
798.856	4035.59
799.188	4030.39
799.519	4042.14
799.85	4029.48
800.182	3993.33
800.513	4013.89
800.844	3976.38
801.175	3965.08
801.506	4021.35
801.837	3987.68
802.168	3974.57
802.499	3924.18
802.83	3969.37
803.161	3925.53
803.491	3935.02
803.822	3916.95
804.153	3909.49
804.483	3874.46
804.814	3817.29
805.145	3892.54
805.475	3845.53
805.805	3805.99
806.136	3847.12
806.466	3856.61
806.796	3821.13
807.126	3781.36
807.457	3768.47
807.787	3817.06
808.117	3775.48
808.447	3721.24
808.777	3733
809.107	3768.47
809.436	3759.89
809.766	3697.97
810.096	3720.34
810.426	3713.56
810.755	3739.1
811.085	3708.36
811.414	3710.85
811.744	3674.47
812.073	3651.64
812.403	3660.23
812.732	3634.69
813.061	3620.23
813.39	3574.36
813.719	3582.04
814.049	3638.53
814.378	3640.34
814.707	3574.13
815.036	3573.23
815.365	3569.16
815.693	3535.94
816.022	3541.59
816.351	3530.97
816.68	3496.62
817.008	3495.71
817.337	3485.32
817.665	3503.4
817.994	3527.12
818.322	3481.7
818.651	3462.95
818.979	3463.85
819.307	3469.5
819.636	3477.86
819.964	3467.01
820.292	3441.03
820.62	3429.95
820.948	3418.88
821.276	3466.79
821.604	3437.18
821.932	3456.39
822.259	3440.57
822.587	3481.25
822.915	3427.92
823.243	3425.43
823.57	3453.23
823.898	3433.12
824.225	3419.78
824.553	3422.72
824.88	3411.87
825.207	3444.64
825.535	3400.12
825.862	3419.78
826.189	3365.77
826.516	3389.73
826.843	3423.17
827.17	3446.22
827.497	3445.32
827.824	3488.26
828.151	3411.2
828.478	3500.46
828.805	3430.4
829.131	3401.93
829.458	3431.76
829.785	3398.54
830.111	3388.37
830.438	3422.49
830.764	3427.69
831.09	3407.13
831.417	3430.63
831.743	3403.51
832.069	3399.67
832.395	3395.6
832.722	3435.38
833.048	3394.92
833.374	3402.16
833.7	3397.86
834.026	3372.78
834.351	3330.97
834.677	3371.2
835.003	3351.76
835.329	3348.82
835.654	3340.46
835.98	3359.45
836.306	3375.04
836.631	3363.51
836.956	3432.44
837.282	3332.78
837.607	3373.23
837.932	3346.11
838.258	3326.23
838.583	3335.49
838.908	3305.89
839.233	3329.39
839.558	3313.12
839.883	3295.49
840.208	3305.44
840.533	3303.63
840.858	3289.84
841.182	3276.28
841.507	3315.38
841.832	3256.85
842.156	3252.1
842.481	3282.39
842.805	3286.68
843.13	3279
843.454	3259.56
843.778	3273.57
844.103	3226.79
844.427	3258.88
844.751	3229.51
845.075	3199
845.399	3228.15
845.723	3174.82
846.047	3199
846.371	3188.15
846.695	3193.8
847.019	3164.65
847.343	3130.75
847.666	3101.37
847.99	3121.49
848.313	3075.84
848.637	3080.13
848.96	3077.87
849.284	3084.42
849.607	3048.04
849.931	3042.17
850.254	3041.04
850.577	3066.8
850.9	3010.98
851.223	3001.71
851.546	3000.36
851.869	2999
852.192	2938.89
852.515	2967.59
852.838	2947.25
853.161	2928.27
853.483	2933.47
853.806	2905.22
854.129	2921.49
854.451	2899.34
854.774	2901.38
855.096	2915.39
855.419	2887.82
855.741	2893.02
856.063	2862.51
856.385	2887.59
856.708	2853.7
857.03	2811.66
857.352	2842.4
857.674	2834.94
857.996	2811.66
858.318	2806.69
858.64	2828.84
858.961	2796.97
859.283	2785
859.605	2753.13
859.926	2811.44
860.248	2745.45
860.57	2746.81
860.891	2774.6
861.212	2779.57
861.534	2763.98
861.855	2732.34
862.176	2750.42
862.498	2763.53
862.819	2749.52
863.14	2754.26
863.461	2721.04
863.782	2697.32
864.103	2723.3
864.424	2701.84
864.745	2723.76
865.065	2719.91
865.386	2674.27
865.707	2719.69
866.027	2693.02
866.348	2681.95
866.668	2680.82
866.989	2676.53
867.309	2652.35
867.63	2680.59
867.95	2677.2
868.27	2688.05
868.59	2691.44
868.91	2652.35
869.23	2662.29
869.55	2662.06
869.87	2670.2
870.19	2618.9
870.51	2639.01
870.83	2650.54
871.15	2609.86
871.469	2637.88
871.789	2619.35
872.109	2617.09
872.428	2611.89
872.748	2618.22
873.067	2594.49
873.386	2626.36
873.706	2610.99
874.025	2649.63
874.344	2613.93
874.663	2596.75
874.982	2570.09
875.301	2602.86
875.62	2572.12
875.939	2553.59
876.258	2565.79
876.577	2568.51
876.896	2549.75
877.214	2549.52
877.533	2538.22
877.852	2536.19
878.17	2538.68
878.489	2556.08
878.807	2552.69
879.125	2522.86
879.444	2548.85
879.762	2527.15
880.08	2500.26
880.398	2538.22
880.716	2507.04
881.034	2524.21
881.352	2523.99
881.67	2523.99
881.988	2506.59
882.306	2504.55
882.624	2506.36
882.941	2466.14
883.259	2470.43
883.577	2473.59
883.894	2467.04
884.212	2442.41
884.529	2462.75
884.846	2444.22
885.164	2442.41
885.481	2416.87
885.798	2422.75
886.115	2428.85
886.432	2443.76
886.75	2447.61
887.067	2427.94
887.383	2398.79
887.7	2410.09
888.017	2386.36
888.334	2374.39
888.651	2380.26
888.967	2380.94
889.284	2386.36
889.6	2378.68
889.917	2312.02
890.233	2347.27
890.55	2358.57
890.866	2388.62
891.182	2344.33
891.498	2317.21
891.815	2330.55
892.131	2330.77
892.447	2332.35
892.763	2332.81
893.079	2312.69
893.395	2318.79
893.71	2320.83
894.026	2287.84
894.342	2296.2
894.657	2252.13
894.973	2241.73
895.289	2267.04
895.604	2303.2
895.92	2244.9
896.235	2275.41
896.55	2217.55
896.865	2264.11
897.181	2221.62
897.496	2217.1
897.811	2199.02
898.126	2241.96
898.441	2221.17
898.756	2187.72
899.071	2182.53
899.386	2162.87
899.7	2208.29
900.015	2169.87
900.33	2151.34
900.644	2156.54
900.959	2139.59
901.273	2148.18
901.588	2143.21
901.902	2143.66
902.216	2130.33
902.531	2132.36
902.845	2082.64
903.159	2089.65
903.473	2104.56
903.787	2110.89
904.101	2056.88
904.415	2131.46
904.729	2072.7
905.042	2072.25
905.356	2095.3
905.67	2066.82
905.984	2058.46
906.297	1999.48
906.611	2045.81
906.924	2035.64
907.237	2018.69
907.551	2017.79
907.864	2034.28
908.177	2006.26
908.491	2014.17
908.804	1999.03
909.117	1971.23
909.43	2000.84
909.743	1954.74
910.056	1957.45
910.368	1965.36
910.681	1924.68
910.994	1947.73
911.307	1947.28
911.619	1929.2
911.932	1960.16
912.244	1920.84
912.557	1922.65
912.869	1899.82
913.181	1924
913.494	1880.84
913.806	1882.2
914.118	1852.37
914.43	1891.46
914.742	1859.37
915.054	1864.57
915.366	1860.28
915.678	1819.6
915.99	1849.2
916.302	1859.6
916.613	1807.4
916.925	1811.69
917.236	1831.58
917.548	1803.1
917.859	1813.95
918.171	1811.46
918.482	1795.64
918.794	1764.69
919.105	1798.13
919.416	1773.27
919.727	1739.38
920.038	1753.61
920.349	1784.57
920.66	1727.4
920.971	1747.06
921.282	1736.21
921.593	1744.35
921.903	1729.66
922.214	1706.61
922.525	1704.35
922.835	1719.71
923.146	1690.11
923.456	1693.05
923.767	1676.78
924.077	1707.96
924.387	1698.25
924.697	1705.25
925.008	1667.96
925.318	1667.06
925.628	1641.07
925.938	1643.11
926.248	1605.14
926.558	1622.09
926.867	1607.4
927.177	1623.9
927.487	1612.37
927.796	1598.81
928.106	1592.26
928.416	1578.93
928.725	1612.82
929.034	1591.58
929.344	1605.14
929.653	1574.18
929.962	1607.85
930.271	1575.99
930.581	1556.56
930.89	1569.89
931.199	1546.39
931.508	1550.23
931.817	1545.03
932.125	1547.06
932.434	1544.35
932.743	1484.24
933.051	1528.99
933.36	1516.33
933.669	1514.97
933.977	1488.99
934.286	1488.53
934.594	1507.74
934.902	1489.21
935.21	1489.66
935.519	1505.93
935.827	1499.83
936.135	1456.67
936.443	1441.98
936.751	1453.06
937.059	1446.5
937.367	1463.9
937.674	1439.04
937.982	1467.74
938.29	1424.13
938.597	1443.11
938.905	1418.48
939.213	1421.87
939.52	1425.71
939.827	1401.98
940.135	1414.64
940.442	1411.47
940.749	1413.96
941.056	1390.01
941.363	1373.06
941.67	1387.29
941.977	1385.94
942.284	1354.53
942.591	1385.49
942.898	1353.62
943.205	1349.33
943.511	1346.17
943.818	1343.91
944.125	1341.19
944.431	1324.24
944.738	1336.45
945.044	1330.12
945.35	1330.57
945.657	1311.59
945.963	1284.47
946.269	1314.53
946.575	1303.68
946.881	1282.66
947.187	1308.2
947.493	1288.31
947.799	1298.71
948.105	1284.92
948.41	1271.36
948.716	1301.65
949.022	1284.92
949.327	1274.53
949.633	1291.03
949.938	1240.86
950.244	1240.63
950.549	1241.76
950.854	1210.35
951.16	1235.43
951.465	1251.25
951.77	1230.01
952.075	1241.08
952.38	1206.28
952.685	1204.93
952.99	1227.75
953.294	1220.07
953.599	1206.73
953.904	1198.15
954.209	1182.33
954.513	1206.96
954.818	1175.77
955.122	1177.58
955.426	1148.2
955.731	1158.83
956.035	1170.12
956.339	1172.16
956.643	1159.05
956.948	1166.06
957.252	1141.65
957.556	1145.04
957.86	1164.48
958.163	1157.02
958.467	1151.37
958.771	1147.75
959.075	1140.97
959.378	1139.62
959.682	1133.74
959.985	1134.19
960.289	1124.93
960.592	1122.89
960.896	1135.1
961.199	1103.91
961.502	1101.2
961.805	1101.2
962.108	1090.13
962.411	1095.32
962.714	1081.77
963.017	1089.22
963.32	1112.95
963.623	1096.45
963.926	1062.33
964.228	1076.12
964.531	1066.85
964.833	1076.12
965.136	1077.02
965.438	1067.08
965.741	1046.96
966.043	1058.94
966.345	1054.87
966.648	1053.97
966.95	1037.02
967.252	1031.82
967.554	1031.37
967.856	1049.68
968.158	1036.34
968.46	1025.95
968.761	1019.39
969.063	978.94
969.365	1037.25
969.666	1013.29
969.968	1025.5
970.269	1007.19
970.571	1004.03
970.872	1013.07
971.174	966.51
971.475	994.54
971.776	976.23
972.077	987.76
972.378	978.27
972.679	973.52
972.98	964.03
973.281	968.32
973.582	956.12
973.883	943.24
974.183	945.5
974.484	961.77
974.785	953.63
975.085	965.84
975.386	978.94
975.686	947.76
975.986	943.24
976.287	969.23
976.587	929.68
976.887	938.04
977.187	957.47
977.487	916.8
977.787	939.17
978.087	925.61
978.387	915.89
978.687	931.49
978.987	925.61
979.286	910.24
979.586	900.08
979.885	912.05
980.185	917.7
980.484	907.53
980.784	936.23
981.083	891.49
981.382	863.69
981.682	897.59
981.981	888.55
982.28	874.09
982.579	893.52
982.878	881.09
983.177	870.47
983.475	873.86
983.774	875.44
984.073	867.53
984.372	878.38
984.67	859.85
984.969	884.48
985.267	847.87
985.566	853.3
985.864	855.33
986.162	839.06
986.461	859.17
986.759	850.36
987.057	844.94
987.355	815.11
987.653	835.67
987.951	827.53
988.249	821.89
988.547	834.54
988.844	840.64
989.142	811.26
989.44	818.72
989.737	819.85
990.035	825.95
990.332	830.47
990.63	802.9
990.927	825.27
991.224	802.45
991.521	790.25
991.819	799.29
992.116	805.61
992.413	792.51
992.71	784.82
993.006	783.24
993.303	783.69
993.6	785.5
993.897	774.88
994.193	778.95
994.49	811.94
994.787	785.05
995.083	802.45
995.379	757.93
995.676	760.87
995.972	768.33
996.268	749.8
996.565	771.72
996.861	760.64
997.157	753.64
997.453	755.9
997.749	743.92
998.044	752.06
998.34	741.89
998.636	746.18
998.932	724.49
999.227	741.21
999.523	746.41
999.818	725.16
1000.114	752.73
1000.409	731.49
1000.704	734.66
1001	730.14
1001.295	726.97
1001.59	720.87
1001.885	733.75
1002.18	714.77
1002.475	732.85
1002.77	695.11
1003.065	714.09
1003.359	698.72
1003.654	695.33
1003.949	675.22
1004.243	686.97
1004.538	709.8
1004.832	694.2
1005.127	677.93
1005.421	683.81
1005.715	684.49
1006.009	698.95
1006.304	694.88
1006.598	675
1006.892	676.58
1007.186	666.64
1007.48	662.57
1007.773	649.01
1008.067	675.45
1008.361	669.35
1008.655	674.32
1008.948	658.73
1009.242	650.14
1009.535	662.34
1009.829	643.36
1010.122	652.4
1010.415	631.38
1010.708	641.78
1011.001	666.64
1011.295	657.14
1011.588	641.78
1011.881	634.77
1012.173	642.45
1012.466	618.05
1012.759	630.25
1013.052	632.74
1013.344	615.34
1013.637	630.25
1013.93	612.17
1014.222	636.81
1014.514	613.53
1014.807	616.47
1015.099	614.21
1015.391	623.25
1015.683	618.05
1015.976	595
1016.268	608.78
1016.56	604.72
1016.851	612.17
1017.143	592.74
1017.435	599.52
1017.727	602.91
1018.018	580.76
1018.31	589.12
1018.602	606.3
1018.893	594.09
1019.185	608.78
1019.476	571.5
1019.767	567.65
1020.058	566.3
1020.35	572.4
1020.641	582.8
1020.932	570.37
1021.223	559.75
1021.514	561.33
1021.804	560.2
1022.095	561.55
1022.386	566.98
1022.677	568.56
1022.967	565.62
1023.258	531.5
1023.548	561.55
1023.839	543.47
1024.129	546.64
1024.419	540.76
1024.709	550.48
1025	549.8
1025.29	539.86
1025.58	543.93
1025.87	537.82
1026.16	547.99
1026.449	545.96
1026.739	515.68
1027.029	546.64
1027.319	526.07
1027.608	502.12
1027.898	509.13
1028.187	525.85
1028.477	512.06
1028.766	527.2
1029.055	510.93
1029.344	519.29
1029.634	519.97
1029.923	506.87
1030.212	521.1
1030.501	517.71
1030.79	492.18
1031.078	498.73
1031.367	497.6
1031.656	493.08
1031.945	508.22
1032.233	491.05
1032.522	516.58
1032.81	489.24
1033.099	508.9
1033.387	506.64
1033.675	502.12
1033.963	505.28
1034.251	477.71
1034.54	486.53
1034.828	463.25
1035.116	478.17
1035.403	476.81
1035.691	470.03
1035.979	484.94
1036.267	483.14
1036.554	457.83
1036.842	469.58
1037.129	468.9
1037.417	459.41
1037.704	457.6
1037.992	478.17
1038.279	456.47
1038.566	468.9
1038.853	468.9
1039.14	468.9
