Data from black_metal_pc_casing_FLMS001491_00066.txt Node
Date: Wed Feb 08 14:33:18 GMT 2017
User: dcchb
Spectrometer: FLMS00149
Trigger mode: 0
Integration Time (sec): 2.000000E-2
Scans to average: 10
Electric dark correction enabled: true
Nonlinearity correction enabled: false
Boxcar width: 0
XAxis mode: Wavelengths
Number of Pixels in Spectrum: 2048
>>>>>Begin Spectral Data<<<<<
341.393	0.23
341.776	0.23
342.16	0.23
342.543	-55.37
342.927	-69.38
343.31	-77.96
343.693	-59.21
344.077	-63.95
344.46	-59.21
344.843	-42.94
345.226	-41.81
345.61	-46.33
345.993	4.75
346.376	-13.11
346.759	24.41
347.142	42.71
347.525	42.48
347.908	36.84
348.291	77.06
348.674	82.94
349.057	93.33
349.44	126.55
349.823	128.13
350.206	140.34
350.588	182.82
350.971	207
351.354	218.53
351.737	236.6
352.119	199.09
352.502	247.23
352.884	265.98
353.267	259.88
353.65	290.16
354.032	287.68
354.414	304.85
354.797	299.43
355.179	298.98
355.562	314.12
355.944	302.36
356.326	309.82
356.709	325.87
357.091	327
357.473	327.68
357.855	318.41
358.238	336.71
358.62	334
359.002	322.93
359.384	334.68
359.766	310.5
360.148	316.38
360.53	301.24
360.912	310.73
361.294	310.5
361.676	316.6
362.057	334.91
362.439	313.66
362.821	312.53
363.203	311.63
363.584	305.53
363.966	322.48
364.348	308.47
364.729	332.65
365.111	288.35
365.493	310.27
365.874	306.21
366.256	324.74
366.637	291.29
367.019	299.2
367.4	299.2
367.781	288.13
368.163	309.14
368.544	290.39
368.925	294.68
369.306	284.06
369.688	303.27
370.069	304.17
370.45	312.99
370.831	304.17
371.212	305.98
371.593	318.41
371.974	303.27
372.355	290.61
372.736	334.91
373.117	321.8
373.498	293.1
373.879	296.49
374.26	309.82
374.641	306.66
375.021	309.14
375.402	313.89
375.783	307.56
376.163	301.46
376.544	296.94
376.925	319.31
377.305	323.38
377.686	323.83
378.066	316.6
378.447	317.73
378.827	335.81
379.208	329.48
379.588	317.73
379.968	335.36
380.349	347.56
380.729	332.19
381.109	333.32
381.489	322.25
381.87	344.62
382.25	338.97
382.63	356.37
383.01	355.24
383.39	335.81
383.77	356.6
384.15	348.47
384.53	353.44
384.91	342.36
385.29	346.66
385.67	346.43
386.049	345.98
386.429	340.33
386.809	337.84
387.189	361.8
387.568	363.61
387.948	352.99
388.328	343.95
388.707	374.68
389.087	362.48
389.466	373.55
389.846	366.09
390.225	371.74
390.605	359.54
390.984	371.74
391.363	360.89
391.743	377.84
392.122	357.73
392.501	378.3
392.881	401.35
393.26	398.41
393.639	383.27
394.018	390.27
394.397	412.64
394.776	399.54
395.155	397.73
395.534	402.25
395.913	404.28
396.292	402.02
396.671	410.61
397.05	423.27
397.429	400.89
397.808	406.54
398.186	400.89
398.565	388.92
398.944	406.32
399.323	407.9
399.701	414.9
400.08	388.01
400.458	410.84
400.837	440.89
401.215	431.63
401.594	411.29
401.972	425.3
402.351	425.98
402.729	417.84
403.107	432.98
403.486	436.82
403.864	446.54
404.242	440.89
404.62	431.85
404.999	448.12
405.377	433.43
405.755	453.1
406.133	474.56
406.511	464.39
406.889	450.38
407.267	463.94
407.645	463.94
408.023	482.47
408.401	477.05
408.779	467.11
409.156	492.42
409.534	488.8
409.912	481.8
410.29	501
410.667	479.31
411.045	466.65
411.422	495.81
411.8	522.02
412.178	510.95
412.555	527.22
412.933	511.17
413.31	532.19
413.687	529.93
414.065	518.86
414.442	518.18
414.819	550.72
415.197	550.49
415.574	532.19
415.951	526.54
416.328	560.44
416.705	540.1
417.082	546.88
417.46	553.21
417.837	561.34
418.214	551.17
418.591	559.08
418.967	570.38
419.344	577.39
419.721	595.92
420.098	582.36
420.475	572.19
420.852	628.01
421.228	600.66
421.605	609.7
421.982	600.21
422.358	590.72
422.735	624.62
423.111	602.47
423.488	631.85
423.864	606.09
424.241	621.68
424.617	630.49
424.994	626.65
425.37	645.86
425.746	643.6
426.123	631.85
426.499	626.2
426.875	660.77
427.251	672.07
427.627	686.54
428.003	665.97
428.379	675.01
428.756	673.65
429.132	696.93
429.507	698.96
429.883	713.65
430.259	706.2
430.635	717.27
431.011	735.8
431.387	757.04
431.763	736.25
432.138	740.77
432.514	755.01
432.89	748.45
433.265	751.39
433.641	776.25
434.016	773.76
434.392	785.29
434.767	803.37
435.143	790.94
435.518	806.31
435.894	811.05
436.269	804.72
436.644	831.39
437.02	843.59
437.395	836.36
437.77	840.66
438.145	858.96
438.52	866.19
438.895	876.59
439.271	884.95
439.646	878.39
440.021	892.18
440.395	893.08
440.77	885.17
441.145	889.92
441.52	906.87
441.895	899.41
442.27	926.53
442.645	904.38
443.019	909.35
443.394	944.61
443.769	930.82
444.143	942.8
444.518	944.38
444.892	924.04
445.267	955.46
445.641	977.15
446.016	968.79
446.39	971.73
446.764	990.26
447.139	979.64
447.513	973.76
447.887	998.39
448.262	1011.27
448.636	998.39
449.01	983.93
449.384	1011.05
449.758	1011.72
450.132	996.81
450.506	1035
450.88	1049.24
451.254	1072.51
451.628	1048.56
452.002	1047.88
452.376	1077.03
452.75	1095.34
453.123	1090.14
453.497	1102.34
453.871	1116.13
454.244	1139.41
454.618	1130.82
454.992	1141.66
455.365	1166.97
455.739	1173.53
456.112	1195
456.486	1184.15
456.859	1188.9
457.232	1226.18
457.606	1221.89
457.979	1232.28
458.352	1235.9
458.725	1258.27
459.099	1270.02
459.472	1311.83
459.845	1298.04
460.218	1305.73
460.591	1323.36
460.964	1340.3
461.337	1368.78
461.71	1366.74
462.083	1401.09
462.456	1389.79
462.829	1383.01
463.201	1432.96
463.574	1422.79
463.947	1437.48
464.32	1446.29
464.692	1475.67
465.065	1491.49
465.438	1504.59
465.81	1502.56
466.183	1518.6
466.555	1557.7
466.928	1581.65
467.3	1581.65
467.672	1606.74
468.045	1624.82
468.417	1630.69
468.789	1648.54
469.161	1662.56
469.534	1696.45
469.906	1701.2
470.278	1752.04
470.65	1708.2
471.022	1757.24
471.394	1790.46
471.766	1812.83
472.138	1840.18
472.51	1870.46
472.882	1847.64
473.253	1921.98
473.625	1906.39
473.997	1949.55
474.369	1952.49
474.74	2001.98
475.112	2019.83
475.484	2063.45
475.855	2061.64
476.227	2093.73
476.598	2171.92
476.97	2171.02
477.341	2191.81
477.713	2228.87
478.084	2244.23
478.455	2290.56
478.827	2337.57
479.198	2360.62
479.569	2380.05
479.94	2434.96
480.311	2472.03
480.682	2489.88
481.053	2556.77
481.424	2593.38
481.795	2587.73
482.166	2655.52
482.537	2677.22
482.908	2720.15
483.279	2777.55
483.65	2814.16
484.021	2890.32
484.391	2908.17
484.762	2924.22
485.133	2933.71
485.503	2961.28
485.874	3026.36
486.244	3044.89
486.615	3103.87
486.985	3153.14
487.356	3210.54
487.726	3231.55
488.097	3257.99
488.467	3269.29
488.837	3357.65
489.207	3371.44
489.578	3459.12
489.948	3470.42
490.318	3506.57
490.688	3489.85
491.058	3584.09
491.428	3619.79
491.798	3646.91
492.168	3707.25
492.538	3723.74
492.908	3747.47
493.278	3853.46
493.648	3831.09
494.017	3881.93
494.387	3908.6
494.757	3932.78
495.126	3973.91
495.496	4028.59
495.866	4050.29
496.235	4080.8
496.605	4088.93
496.974	4117.86
497.344	4179.33
497.713	4183.39
498.082	4253.22
498.452	4322.6
498.821	4292.32
499.19	4278.08
499.559	4375.25
499.928	4419.54
500.298	4397.4
500.667	4441.92
501.036	4422.26
501.405	4495.48
501.774	4539.77
502.143	4576.38
502.512	4609.6
502.88	4641.23
503.249	4586.77
503.618	4635.13
503.987	4676.04
504.356	4675.81
504.724	4693.89
505.093	4739.99
505.462	4755.58
505.83	4762.81
506.199	4867.44
506.567	4894.79
506.936	4928.68
507.304	4972.07
507.672	5009.36
508.041	4996.25
508.409	5054.78
508.777	5097.04
509.145	5154.21
509.514	5094.1
509.882	5165.29
510.25	5216.13
510.618	5232.18
510.986	5294.55
511.354	5315.57
511.722	5338.84
512.09	5381.55
512.458	5372.06
512.826	5479.63
513.193	5489.8
513.561	5482.12
513.929	5542.68
514.297	5604.37
514.664	5607.99
515.032	5605.73
515.4	5688.66
515.767	5707.65
516.135	5776.8
516.502	5739.96
516.869	5869.22
517.237	5870.35
517.604	5820.86
517.972	5951.93
518.339	5981.76
518.706	6019.95
519.073	5989.45
519.44	6081.65
519.808	6164.36
520.175	6103.12
520.542	6289.55
520.909	6223.79
521.276	6269.89
521.643	6337.23
522.009	6411.81
522.376	6403.22
522.743	6461.07
523.11	6535.2
523.477	6635.08
523.843	6611.13
524.21	6691.12
524.577	6715.08
524.943	6766.6
525.31	6728.41
525.676	6823.78
526.043	6876.66
526.409	6949.65
526.776	7007.5
527.142	7016.76
527.508	7061.06
527.874	7109.19
528.241	7233.93
528.607	7230.09
528.973	7260.6
529.339	7287.94
529.705	7340.15
530.071	7398.22
530.437	7442.52
530.803	7442.52
531.169	7482.74
531.535	7542.85
531.901	7505.34
532.267	7613.81
532.632	7647.71
532.998	7762.06
533.364	7685.45
533.73	7727.03
534.095	7865.78
534.461	7849.51
534.826	7880.24
535.192	7954.59
535.557	7961.6
535.923	8016.06
536.288	8024.42
536.653	8101.48
537.019	8041.37
537.384	8165.89
537.749	8139.22
538.114	8206.56
538.479	8177.41
538.845	8215.6
539.21	8216.28
539.575	8223.06
539.94	8325.2
540.305	8382.15
540.67	8359.1
541.034	8414.69
541.399	8437.52
541.764	8427.12
542.129	8463.73
542.494	8508.7
542.858	8583.28
543.223	8526.56
543.587	8610.4
543.952	8548.7
544.316	8627.34
544.681	8674.35
545.045	8696.27
545.41	8760.45
545.774	8723.16
546.138	8742.59
546.503	8820.33
546.867	8804.74
547.231	8889.03
547.595	8918.64
547.959	8887.68
548.324	8926.77
548.688	8952.98
549.052	9024.4
549.416	9028.24
549.779	9066.2
550.143	9060.78
550.507	9150.27
550.871	9116.37
551.235	9169.02
551.599	9246.76
551.962	9284.95
552.326	9296.03
552.689	9388.45
553.053	9323.82
553.417	9374.44
553.78	9476.81
554.143	9411.96
554.507	9433.65
554.87	9532.63
555.234	9735.34
555.597	9555.68
555.96	9585.51
556.323	9662.8
556.686	9602.46
557.05	9667.32
557.413	9803.36
557.776	9770.82
558.139	9810.59
558.502	9916.12
558.865	9921.55
559.228	10012.62
559.59	10041.09
559.953	10053.07
560.316	10130.81
560.679	10100.75
561.041	10217.13
561.404	10251.26
561.767	10309.11
562.129	10285.83
562.492	10414.64
562.854	10375.55
563.217	10434.75
563.579	10497.8
563.941	10514.07
564.304	10498.93
564.666	10598.37
565.028	10625.71
565.39	10681.75
565.753	10713.16
566.115	10817.34
566.477	10817.57
566.839	10828.42
567.201	10893.27
567.563	10935.08
567.925	11018.47
568.287	11006.49
568.648	11061.4
569.01	11181.63
569.372	11228.41
569.734	11116.54
570.095	11247.16
570.457	11287.61
570.819	11260.27
571.18	11325.13
571.542	11395.41
571.903	11333.26
572.265	11456.42
572.626	11497.32
572.987	11451.45
573.349	11573.71
573.71	11588.4
574.071	11603.31
574.432	11650.09
574.794	11744.78
575.155	11715.4
575.516	11752.91
575.877	11848.95
576.238	11726.92
576.599	11802.4
576.96	11845.56
577.32	11866.81
577.681	11868.16
578.042	11876.3
578.403	11964.88
578.763	11933.25
579.124	11926.24
579.485	12032.9
579.845	11962.85
580.206	11959.69
580.566	12032.9
580.927	12079
581.287	12095.73
581.648	11985.9
582.008	12096.86
582.368	12029.06
582.728	12078.33
583.089	12069.29
583.449	12031.55
583.809	12108.83
584.169	12157.19
584.529	12077.65
584.889	12169.85
585.249	12103.86
585.609	12081.72
585.969	12147.93
586.329	12180.92
586.688	12179.57
587.048	12082.17
587.408	12165.33
587.768	12102.05
588.127	12118.1
588.487	12087.82
588.846	12175.5
589.206	12068.84
589.565	12161.49
589.925	12308.6
590.284	12200.13
590.643	12153.13
591.003	12158.32
591.362	12214.59
591.721	12242.62
592.08	12239.9
592.44	12210.3
592.799	12275.38
593.158	12238.77
593.517	12163.75
593.876	12225.44
594.235	12248.49
594.593	12210.98
594.952	12257.98
595.311	12227.7
595.67	12277.87
596.029	12343.86
596.387	12399
596.746	12344.76
597.104	12284.42
597.463	12217.98
597.822	12335.72
598.18	12296.85
598.538	12304.08
598.897	12371.43
599.255	12274.48
599.613	12495.94
599.972	12432.44
600.33	12403.52
600.688	12433.35
601.046	12429.28
601.404	12434.48
601.762	12407.13
602.12	12472.67
602.478	12412.1
602.836	12552.44
603.194	12446.68
603.552	12471.99
603.91	12545.21
604.268	12561.93
604.625	12502.27
604.983	12554.92
605.341	12560.35
605.698	12614.36
606.056	12629.5
606.413	12623.17
606.771	12558.77
607.128	12609.61
607.485	12564.42
607.843	12550.18
608.2	12647.13
608.557	12643.06
608.914	12697.52
609.272	12733
609.629	12690.29
609.986	12795.6
610.343	12681.02
610.7	12847.35
611.057	12699.55
611.414	12758.31
611.771	12798.31
612.127	12887.34
612.484	12857.52
612.841	12804.41
613.198	12823.39
613.554	12913.11
613.911	12980.45
614.267	12933.9
614.624	12865.65
614.98	12971.86
615.337	13041.01
615.693	13008.92
616.05	12912.2
616.406	13035.14
616.762	12981.35
617.118	12945.65
617.475	13052.09
617.831	13093.44
618.187	13047.79
618.543	13007.79
618.899	13141.58
619.255	13042.37
619.611	13052.99
619.967	13038.98
620.323	13130.73
620.678	13036.72
621.034	13127.11
621.39	13079.88
621.746	13049.37
622.101	13154.23
622.457	13018.87
622.812	13143.61
623.168	13164.4
623.523	13140.9
623.879	13189.71
624.234	13053.67
624.589	13106.1
624.945	13139.09
625.3	13113.1
625.655	13121.01
626.01	13133.21
626.365	13159.88
626.72	13137.51
627.075	13083.5
627.43	13108.81
627.785	13082.59
628.14	13172.31
628.495	13124.63
628.85	13028.36
629.205	13104.97
629.559	13121.46
629.914	13044.18
630.269	13047.79
630.623	13009.6
630.978	13018.64
631.332	13101.12
631.687	13089.37
632.041	12955.14
632.396	12969.15
632.75	12975.03
633.104	13036.27
633.459	12940.22
633.813	12861.58
634.167	12888.93
634.521	12909.27
634.875	12935.25
635.229	12931.19
635.583	12819.32
635.937	12804.41
636.291	12748.59
636.645	12890.96
636.999	12802.38
637.352	12904.97
637.706	12676.28
638.06	12867.23
638.413	12707.24
638.767	12676.95
639.121	12822.26
639.474	12632.66
639.828	12685.54
640.181	12692.1
640.534	12728.25
640.888	12594.25
641.241	12593.57
641.594	12626.11
641.947	12660.46
642.301	12544.08
642.654	12580.91
643.007	12646.22
643.36	12537.52
643.713	12491.2
644.066	12589.5
644.419	12498.43
644.771	12384.53
645.124	12283.07
645.477	12245.1
645.83	12234.03
646.182	12177.53
646.535	12105.22
646.888	12150.41
647.24	12115.39
647.593	12053.02
647.945	12081.04
648.298	11997.65
648.65	11977.09
649.002	11949.97
649.355	12017.31
649.707	11973.24
650.059	12065.45
650.411	12234.25
650.763	12320.81
651.115	12372.33
651.467	12337.98
651.819	12304.99
652.171	12226.8
652.523	12230.64
652.875	12273.58
653.227	12119.23
653.578	12279.9
653.93	12238.1
654.282	12191.09
654.633	12136.18
654.985	12198.78
655.337	12144.09
655.688	12145.9
656.039	12266.57
656.391	12171.88
656.742	12161.94
657.094	12087.14
657.445	12187.93
657.796	12121.94
658.147	12022.28
658.498	12079.68
658.849	12038.1
659.2	12071.32
659.551	11961.27
659.902	12068.38
660.253	12088.5
660.604	12113.81
660.955	12026.35
661.306	12044.43
661.656	11995.39
662.007	12001.49
662.358	11993.81
662.708	11976.18
663.059	11977.99
663.409	11913.13
663.76	12003.3
664.11	11971.89
664.461	11934.83
664.811	11955.39
665.161	11943.87
665.511	11948.84
665.862	11891.89
666.212	11892.79
666.562	11957.43
666.912	11970.53
667.262	11928.73
667.612	11944.54
667.962	11978.44
668.312	11888.27
668.662	11924.66
669.011	11874.26
669.361	11864.09
669.711	11816.64
670.06	11865.45
670.41	11869.74
670.76	11813.47
671.109	11817.77
671.459	11861.84
671.808	11756.3
672.157	11863.19
672.507	11711.78
672.856	11703.65
673.205	11754.27
673.554	11778.45
673.904	11733.93
674.253	11714.04
674.602	11767.83
674.951	11552.46
675.3	11540.71
675.649	11755.4
675.998	11758.56
676.346	11644.44
676.695	11753.14
677.044	11603.08
677.393	11652.57
677.741	11659.58
678.09	11616.64
678.438	11698.68
678.787	11654.61
679.135	11635.17
679.484	11613.48
679.832	11667.26
680.181	11594.27
680.529	11595.85
680.877	11573.48
681.225	11515.86
681.573	11679.69
681.922	11479.02
682.27	11460.26
682.618	11583.65
682.966	11449.42
683.314	11476.08
683.661	11375.97
684.009	11437.21
684.357	11352.92
684.705	11337.1
685.053	11369.19
685.4	11323.54
685.748	11248.52
686.095	11261.62
686.443	11205.13
686.79	11264.79
687.138	11259.14
687.485	11175.3
687.832	11208.97
688.18	11219.59
688.527	11072.93
688.874	11086.49
689.221	11088.3
689.568	11033.38
689.915	10992.25
690.262	11050.33
690.609	11000.61
690.956	10996.32
691.303	10937.79
691.65	10861.18
691.997	10817.12
692.344	10835.42
692.69	10770.56
693.037	10832.26
693.383	10772.6
693.73	10768.98
694.077	10707.97
694.423	10704.8
694.769	10663.9
695.116	10626.16
695.462	10658.02
695.808	10611.02
696.155	10604.24
696.501	10604.47
696.847	10539.61
697.193	10450.57
697.539	10467.3
697.885	10401.53
698.231	10353.85
698.577	10354.53
698.923	10383.91
699.269	10311.37
699.614	10282.89
699.96	10276.11
700.306	10345.72
700.651	10294.19
700.997	10239.73
701.342	10173.52
701.688	10143.46
702.033	10051.71
702.379	10095.78
702.724	10103.69
703.069	10093.52
703.415	10003.8
703.76	10076.8
704.105	10015.33
704.45	9986.63
704.795	9992.96
705.14	9817.37
705.485	9834.09
705.83	9857.82
706.175	9856.69
706.52	9786.86
706.865	9809.91
707.209	9748.67
707.554	9715.22
707.899	9765.17
708.243	9691.5
708.588	9693.08
708.932	9641.78
709.277	9622.57
709.621	9604.72
709.966	9571.27
710.31	9613.76
710.654	9553.87
710.998	9541.22
711.342	9535.79
711.687	9487.21
712.031	9464.16
712.375	9384.39
712.719	9383.26
713.063	9435.01
713.407	9459.64
713.75	9368.34
714.094	9427.32
714.438	9408.57
714.782	9350.71
715.125	9262.81
715.469	9346.19
715.812	9217.61
716.156	9233.66
716.499	9248.57
716.843	9329.7
717.186	9235.69
717.53	9169.02
717.873	9233.43
718.216	9149.82
718.559	9166.09
718.902	9119.99
719.246	9079.31
719.589	9050.84
719.932	9045.19
720.275	9076.37
720.617	9051.29
720.96	9016.03
721.303	8968.8
721.646	9007.22
721.989	8960.22
722.331	9004.51
722.674	8943.49
723.016	8976.94
723.359	8960.44
723.701	8978.07
724.044	8860.33
724.386	8859.43
724.729	8894.91
725.071	8881.12
725.413	8869.82
725.755	8833.21
726.097	8821.24
726.439	8760.9
726.782	8732.43
727.124	8764.52
727.465	8744.4
727.807	8724.52
728.149	8705.31
728.491	8711.86
728.833	8719.32
729.175	8674.8
729.516	8622.37
729.858	8595.03
730.199	8618.08
730.541	8567.91
730.882	8566.78
731.224	8633.67
731.565	8588.7
731.906	8534.24
732.248	8551.19
732.589	8469.83
732.93	8454.02
733.271	8464.64
733.612	8460.57
733.953	8464.41
734.294	8538.98
734.635	8403.17
734.976	8453.34
735.317	8429.83
735.658	8441.81
735.999	8369.05
736.339	8451.53
736.68	8431.64
737.021	8370.85
737.361	8361.36
737.702	8371.53
738.042	8371.08
738.383	8348.48
738.723	8349.38
739.063	8201.82
739.404	8280.91
739.744	8294.7
740.084	8335.15
740.424	8267.58
740.764	8160.46
741.104	8260.35
741.444	8167.47
741.784	8245.88
742.124	8210.41
742.464	8176.28
742.804	8184.42
743.143	8121.14
743.483	8177.64
743.823	8124.98
744.162	8121.59
744.502	8104.65
744.841	8028.04
745.181	8083.86
745.52	7991.88
745.86	8019.9
746.199	8007.02
746.538	8033.01
746.877	8060.58
747.216	8054.48
747.556	8014.25
747.895	8006.8
748.234	7960.47
748.573	7936.29
748.911	8024.87
749.25	7926.12
749.589	7946.23
749.928	7908.27
750.267	7907.59
750.605	7882.05
750.944	7887.25
751.283	7812.45
751.621	7843.41
751.96	7834.6
752.298	7787.14
752.636	7789.4
752.975	7711.66
753.313	7742.62
753.651	7778.33
753.989	7729.97
754.327	7712.79
754.666	7701.49
755.004	7708.5
755.342	7662.62
755.679	7701.94
756.017	7595.05
756.355	7658.1
756.693	7607.03
757.031	7599.35
757.368	7596.18
757.706	7519.8
758.044	7516.19
758.381	7568.84
758.719	7487.94
759.056	7452.23
759.394	7466.24
759.731	7425.34
760.068	7393.03
760.405	7400.48
760.743	7341.05
761.08	7330.65
761.417	7327.94
761.754	7339.02
762.091	7290.66
762.428	7233.93
762.765	7245.01
763.102	7192.58
763.438	7256.31
763.775	7175.86
764.112	7153.71
764.449	7174.27
764.785	7157.78
765.122	7078.68
765.458	7089.98
765.795	7090.21
766.131	7060.83
766.467	7038.23
766.804	6961.17
767.14	6992.13
767.476	6909.65
767.812	6979.03
768.148	6948.74
768.485	6903.77
768.821	6827.17
769.157	6850.67
769.492	6875.07
769.828	6814.74
770.164	6750.56
770.5	6751.01
770.836	6713.27
771.171	6669.2
771.507	6675.08
771.842	6609.77
772.178	6625.81
772.513	6572.03
772.849	6596.21
773.184	6546.95
773.519	6608.87
773.855	6537
774.19	6467.4
774.525	6487.06
774.86	6451.13
775.195	6467.4
775.53	6404.8
775.865	6430.11
776.2	6357.35
776.535	6326.16
776.87	6341.75
777.205	6318.7
777.539	6266.28
777.874	6251.81
778.209	6239.16
778.543	6185.15
778.878	6187.41
779.212	6198.26
779.547	6183.34
779.881	6176.56
780.215	6121.42
780.55	6149.22
780.884	6056.56
781.218	6031.93
781.552	6065.38
781.886	6039.39
782.22	5975.44
782.554	5977.24
782.888	5907.19
783.222	5875.33
783.556	5875.33
783.889	5905.38
784.223	5835.55
784.557	5840.98
784.89	5854.99
785.224	5801.88
785.557	5817.25
785.891	5785.84
786.224	5742
786.558	5803.46
786.891	5663.58
787.224	5650.92
787.557	5634.2
787.891	5624.03
788.224	5577.48
788.557	5606.18
788.89	5614.54
789.223	5558.72
789.556	5564.15
789.888	5545.16
790.221	5539.52
790.554	5469.01
790.887	5512.85
791.219	5457.94
791.552	5454.77
791.884	5411.84
792.217	5386.3
792.549	5399.41
792.882	5375.9
793.214	5313.31
793.546	5398.95
793.879	5293.19
794.211	5312.18
794.543	5327.09
794.875	5281.44
795.207	5303.59
795.539	5250.71
795.871	5277.6
796.203	5244.16
796.535	5175.23
796.867	5195.34
797.198	5150.37
797.53	5146.76
797.862	5124.16
798.193	5108.79
798.525	5090.71
798.856	5146.31
799.188	5090.26
799.519	5043.26
799.85	4998.96
800.182	5019.76
800.513	5003.94
800.844	4963.03
801.175	5011.85
801.506	4980.89
801.837	4927.33
802.168	4915.58
802.499	4927.33
802.83	4949.02
803.161	4899.98
803.491	4852.53
803.822	4935.46
804.153	4896.59
804.483	4857.5
804.814	4835.13
805.145	4839.42
805.475	4818.86
805.805	4761.91
806.136	4765.98
806.466	4776.37
806.796	4793.55
807.126	4739.76
807.457	4714.45
807.787	4760.1
808.117	4709.25
808.447	4708.8
808.777	4718.97
809.107	4659.31
809.436	4671.52
809.766	4627
810.096	4654.34
810.426	4625.64
810.755	4639.65
811.085	4606.88
811.414	4598.98
811.744	4531.41
812.073	4545.42
812.403	4543.84
812.732	4537.96
813.061	4531.41
813.39	4500.45
813.719	4480.33
814.049	4527.79
814.378	4516.49
814.707	4473.1
815.036	4508.36
815.365	4528.47
815.693	4390.17
816.022	4400.79
816.351	4416.38
816.68	4369.83
817.008	4422.26
817.337	4350.62
817.665	4396.95
817.994	4381.35
818.322	4392.2
818.651	4361.02
818.979	4297.51
819.307	4346.55
819.636	4332.09
819.964	4272.2
820.292	4283.28
820.62	4326.21
820.948	4281.7
821.276	4319.89
821.604	4264.97
821.932	4274.24
822.259	4309.04
822.587	4278.98
822.915	4292.99
823.243	4303.62
823.57	4286.89
823.898	4264.29
824.225	4256.84
824.553	4270.85
824.88	4273.33
825.207	4302.94
825.535	4300
825.862	4278.08
826.189	4317.4
826.516	4280.57
826.843	4263.39
827.17	4292.77
827.497	4321.69
827.824	4290.06
828.151	4289.15
828.478	4293.67
828.805	4293.9
829.131	4278.08
829.458	4268.81
829.785	4255.71
830.111	4278.98
830.438	4266.55
830.764	4228.36
831.09	4292.09
831.417	4269.94
831.743	4278.98
832.069	4238.53
832.395	4271.53
832.722	4249.15
833.048	4200.34
833.374	4261.58
833.7	4230.85
834.026	4264.07
834.351	4250.06
834.677	4215.93
835.003	4216.39
835.329	4208.25
835.654	4217.29
835.98	4199.89
836.306	4210.28
836.631	4229.04
836.956	4190.85
837.282	4198.76
837.607	4163.51
837.932	4177.29
838.258	4226.78
838.583	4167.35
838.908	4149.5
839.233	4134.81
839.558	4111.76
839.883	4129.16
840.208	4077.86
840.533	4107.91
840.858	4094.58
841.182	4147.69
841.507	4080.57
841.832	4105.65
842.156	4068.82
842.481	4062.49
842.805	4050.97
843.13	4061.59
843.454	4052.55
843.778	4031.53
844.103	4055.94
844.427	4001.93
844.751	4010.29
845.075	3983.62
845.399	3975.49
845.723	3968.94
846.047	3951.31
846.371	3907.02
846.695	3942.95
847.019	3906.34
847.343	3903.17
847.666	3867.69
847.99	3881.71
848.313	3839.22
848.637	3851.42
848.96	3822.95
849.284	3884.87
849.607	3797.87
849.931	3773.01
850.254	3810.07
850.577	3770.3
850.9	3787.92
851.223	3739.79
851.546	3753.12
851.869	3655.5
852.192	3749.96
852.515	3667.02
852.838	3633.12
853.161	3651.66
853.483	3618.66
853.806	3630.86
854.129	3637.64
854.451	3634.48
854.774	3594.71
855.096	3592.45
855.419	3624.99
855.741	3582.28
856.063	3542.96
856.385	3594.93
856.708	3555.84
857.03	3526.91
857.352	3550.87
857.674	3548.83
857.996	3499.12
858.318	3478.55
858.64	3509.96
858.961	3475.16
859.283	3415.28
859.605	3456.41
859.926	3447.82
860.248	3473.58
860.57	3454.82
860.891	3399.68
861.212	3419.57
861.534	3453.92
861.855	3406.01
862.176	3384.77
862.498	3385.67
862.819	3367.37
863.14	3372.79
863.461	3378.22
863.782	3380.93
864.103	3346.58
864.424	3366.92
864.745	3371.89
865.065	3333.92
865.386	3356.75
865.707	3339.12
866.027	3366.69
866.348	3299.8
866.668	3313.13
866.989	3325.34
867.309	3265.45
867.63	3315.39
867.95	3291.44
868.27	3312.23
868.59	3334.15
868.91	3305.68
869.23	3257.77
869.55	3268.16
869.87	3312.68
870.19	3253.47
870.51	3264.77
870.83	3279.46
871.15	3195.85
871.469	3235.62
871.789	3265
872.109	3206.7
872.428	3212.8
872.748	3206.47
873.067	3260.71
873.386	3247.82
873.706	3217.77
874.025	3201.95
874.344	3173.25
874.663	3172.8
874.982	3147.94
875.301	3228.62
875.62	3172.12
875.939	3152.69
876.258	3160.37
876.577	3148.39
876.896	3166.7
877.214	3132.8
877.533	3142.74
877.852	3158.56
878.17	3182.52
878.489	3110.65
878.807	3157.43
879.125	3109.07
879.444	3124.21
879.762	3126.02
880.08	3109.3
880.398	3093.03
880.716	3114.49
881.034	3099.58
881.352	3039.47
881.67	3105.23
881.988	3059.58
882.306	3077.21
882.624	3089.86
882.941	3104.78
883.259	3062.07
883.577	3045.12
883.894	3035.4
884.212	3047.15
884.529	3033.82
884.846	3044.44
885.164	3053.93
885.481	3032.24
885.798	2977.77
886.115	3007.6
886.432	3018.68
886.75	2969.19
887.067	2971
887.383	2978.45
887.7	2959.24
888.017	2947.95
888.334	2954.27
888.651	2933.03
888.967	2954.72
889.284	2925.8
889.6	2946.36
889.917	2909.3
890.233	2889.19
890.55	2912.01
890.866	2909.98
891.182	2919.7
891.498	2877.66
891.815	2852.35
892.131	2865.91
892.447	2849.87
892.763	2846.7
893.079	2849.87
893.395	2846.03
893.71	2819.81
894.026	2850.09
894.342	2803.99
894.657	2805.35
894.973	2789.98
895.289	2798.34
895.604	2783.2
895.92	2775.52
896.235	2750.66
896.55	2772.58
896.865	2768.97
897.181	2698.23
897.496	2785.01
897.811	2698.91
898.126	2738.23
898.441	2686.03
898.756	2735.52
899.071	2720.38
899.386	2683.55
899.7	2668.63
900.015	2651
900.33	2671.79
900.644	2630.21
900.959	2636.54
901.273	2643.09
901.588	2615.52
901.902	2608.29
902.216	2636.09
902.531	2634.06
902.845	2583.43
903.159	2578.69
903.473	2575.98
903.787	2572.36
904.101	2568.97
904.415	2533.49
904.729	2554.51
905.042	2504.11
905.356	2516.54
905.67	2492.14
905.984	2541.63
906.297	2520.84
906.611	2512.02
906.924	2496.88
907.237	2499.37
907.551	2473.61
907.864	2485.81
908.177	2453.49
908.491	2448.52
908.804	2420.5
909.117	2425.47
909.43	2419.82
909.743	2428.41
910.056	2405.81
910.368	2396.55
910.681	2377.11
910.994	2366.27
911.307	2382.31
911.619	2335.08
911.932	2366.72
912.244	2340.05
912.557	2327.62
912.869	2326.27
913.181	2303.89
913.494	2322.2
913.806	2305.02
914.118	2306.61
914.43	2270.22
914.742	2301.18
915.054	2246.04
915.366	2246.49
915.678	2265.93
915.99	2238.59
916.302	2239.72
916.613	2229.77
916.925	2206.27
917.236	2204.46
917.548	2231.58
917.859	2232.94
918.171	2194.07
918.482	2194.29
918.794	2180.73
919.105	2201.75
919.416	2184.12
919.727	2170.11
920.038	2152.26
920.349	2136.44
920.66	2140.51
920.971	2165.82
921.282	2092.15
921.593	2095.99
921.903	2100.28
922.214	2090.11
922.525	2078.14
922.835	2074.3
923.146	2051.02
923.456	2064.58
923.767	2054.86
924.077	2062.77
924.387	2040.62
924.697	2050.57
925.008	2019.38
925.318	2021.87
925.628	2046.73
925.938	1985.48
926.248	1980.74
926.558	2001.53
926.867	1991.13
927.177	2003.34
927.487	1990.23
927.796	1971.02
928.106	1954.75
928.416	1968.99
928.725	1931.7
929.034	1933.73
929.344	1946.84
929.653	1906.62
929.962	1880.85
930.271	1910.46
930.581	1879.27
930.89	1883.79
931.199	1869.33
931.508	1860.52
931.817	1890.57
932.125	1852.83
932.434	1884.47
932.743	1844.02
933.051	1845.83
933.36	1845.83
933.669	1830.23
933.977	1827.3
934.286	1791.59
934.594	1804.47
934.902	1767.86
935.21	1785.72
935.519	1803.34
935.827	1784.59
936.135	1755.43
936.443	1737.13
936.751	1772.61
937.059	1780.97
937.367	1750.69
937.674	1756.56
937.982	1749.56
938.29	1723.57
938.597	1727.86
938.905	1719.05
939.213	1717.47
939.52	1721.99
939.827	1679.28
940.135	1691.48
940.442	1683.35
940.749	1710.69
941.056	1691.71
941.363	1679.05
941.67	1646.28
941.977	1642.89
942.284	1652.61
942.591	1643.8
942.898	1608.55
943.205	1635.44
943.511	1611.03
943.818	1615.1
944.125	1628.43
944.431	1583.91
944.738	1588.88
945.044	1581.88
945.35	1606.06
945.657	1601.54
945.963	1581.65
946.269	1551.15
946.575	1601.31
946.881	1543.69
947.187	1597.02
947.493	1529.23
947.799	1547.3
948.105	1534.65
948.41	1540.52
948.716	1527.19
949.022	1522.9
949.327	1519.28
949.633	1494.2
949.938	1497.81
950.244	1507.08
950.549	1512.05
950.854	1469.11
951.16	1480.64
951.465	1463.46
951.77	1458.94
952.075	1447.19
952.38	1464.82
952.685	1442.9
952.99	1449.68
953.294	1432.96
953.599	1443.13
953.904	1434.31
954.209	1412.62
954.513	1418.72
954.818	1427.31
955.122	1408.32
955.426	1420.75
955.731	1415.1
956.035	1410.13
956.339	1413.75
956.643	1431.15
956.948	1397.03
957.252	1392.28
957.556	1385.05
957.86	1384.6
958.163	1391.83
958.467	1373.75
958.771	1338.27
959.075	1348.21
959.378	1357.03
959.682	1343.47
959.985	1348.44
960.289	1379.62
960.592	1344.6
960.896	1306.63
961.199	1318.84
961.502	1333.07
961.805	1315.45
962.108	1314.09
962.411	1295.33
962.714	1273.64
963.017	1305.5
963.32	1259.4
963.623	1276.35
963.926	1284.71
964.228	1274.99
964.531	1280.64
964.833	1283.58
965.136	1260.98
965.438	1253.98
965.741	1253.98
966.043	1257.82
966.345	1227.76
966.648	1228.67
966.95	1230.7
967.252	1243.58
967.554	1231.83
967.856	1202.91
968.158	1209.69
968.46	1213.75
968.761	1195.22
969.063	1216.47
969.365	1186.18
969.666	1171.95
969.968	1192.51
970.269	1190.03
970.571	1182.34
970.872	1172.62
971.174	1208.78
971.475	1187.99
971.776	1165.62
972.077	1148.9
972.378	1169.01
972.679	1147.99
972.98	1171.49
973.281	1157.03
973.582	1167.88
973.883	1137.15
974.183	1143.47
974.484	1142.79
974.785	1155.68
975.085	1130.37
975.386	1111.84
975.686	1115.9
975.986	1129.46
976.287	1125.17
976.587	1101.44
976.887	1088.56
977.187	1085.62
977.487	1102.34
977.787	1075
978.087	1074.55
978.387	1098.5
978.687	1088.56
978.987	1071.16
979.286	1078.39
979.586	1058.05
979.885	1060.54
980.185	1070.71
980.484	1061.67
980.784	1053.98
981.083	1060.54
981.382	1030.03
981.682	1055.34
981.981	1041.55
982.28	1049.01
982.579	1036.36
982.878	1025.28
983.177	1034.55
983.475	1036.13
983.774	1024.38
984.073	1027.77
984.372	1003.36
984.67	995.91
984.969	1002.23
985.267	1018.28
985.566	1019.86
985.864	985.51
986.162	978.73
986.461	985.96
986.759	982.12
987.057	992.52
987.355	965.62
987.653	998.62
987.951	956.81
988.249	997.49
988.547	972.18
988.844	955.46
989.142	973.53
989.44	933.76
989.737	945.51
990.035	948.9
990.332	923.82
990.63	964.49
990.927	941.22
991.224	932.86
991.521	945.74
991.819	916.59
992.116	942.35
992.413	944.16
992.71	917.26
993.006	940.09
993.303	927.21
993.6	922.24
993.897	898.06
994.193	928.56
994.49	900.77
994.787	919.52
995.083	907.32
995.379	889.47
995.676	887.66
995.972	905.74
996.268	897.6
996.565	875.68
996.861	869.58
997.157	882.69
997.453	867.32
997.749	840.2
998.044	863.93
998.34	846.31
998.636	830.71
998.932	848.57
999.227	850.83
999.523	865.97
999.818	822.35
1000.114	842.01
1000.409	840.2
1000.704	832.07
1001	851.73
1001.295	833.65
1001.59	829.81
1001.885	820.32
1002.18	811.96
1002.475	803.82
1002.77	806.76
1003.065	805.18
1003.359	811.28
1003.654	808.11
1003.949	789.81
1004.243	793.65
1004.538	802.01
1004.832	790.26
1005.127	776.48
1005.421	780.54
1005.715	782.35
1006.009	781.45
1006.304	771.05
1006.598	774.44
1006.892	756.14
1007.186	758.17
1007.48	763.14
1007.773	772.64
1008.067	757.49
1008.361	740.09
1008.655	753.88
1008.948	758.62
1009.242	742.13
1009.535	740.77
1009.829	730.15
1010.122	734.44
1010.415	748.91
1010.708	724.95
1011.001	736.03
1011.295	734.44
1011.588	731.28
1011.881	718.85
1012.173	702.13
1012.466	707.78
1012.759	709.59
1013.052	714.78
1013.344	717.72
1013.637	671.85
1013.93	715.91
1014.222	688.57
1014.514	686.76
1014.807	695.57
1015.099	677.27
1015.391	682.24
1015.683	685.86
1015.976	686.54
1016.268	654.9
1016.56	668.46
1016.851	676.14
1017.143	671.85
1017.435	676.82
1017.727	659.42
1018.018	666.2
1018.31	641.79
1018.602	652.86
1018.893	626.88
1019.185	663.71
1019.476	658.51
1019.767	652.19
1020.058	646.99
1020.35	641.11
1020.641	628.46
1020.932	629.14
1021.223	632.3
1021.514	620.1
1021.804	616.48
1022.095	629.81
1022.386	610.83
1022.677	601.34
1022.967	602.24
1023.258	630.94
1023.548	607.67
1023.839	609.48
1024.129	599.76
1024.419	586.88
1024.709	592.3
1025	597.27
1025.29	573.54
1025.58	595.46
1025.87	610.83
1026.16	604.28
1026.449	613.32
1026.739	573.77
1027.029	582.36
1027.319	577.39
1027.608	588.69
1027.898	582.36
1028.187	570.38
1028.477	596.82
1028.766	562.92
1029.055	589.59
1029.344	555.01
1029.634	576.03
1029.923	565.41
1030.212	582.58
1030.501	556.82
1030.79	563.6
1031.078	573.09
1031.367	561.57
1031.656	544.39
1031.945	548.69
1032.233	564.96
1032.522	535.13
1032.81	536.26
1033.099	547.78
1033.387	544.39
1033.675	543.94
1033.963	532.87
1034.251	524.73
1034.54	544.84
1034.828	516.14
1035.116	497.61
1035.403	503.72
1035.691	519.53
1035.979	531.06
1036.267	538.52
1036.554	536.48
1036.842	524.05
1037.129	496.26
1037.417	500.33
1037.704	529.03
1037.992	501
1038.279	508.01
1038.566	511.85
1038.853	511.85
1039.14	511.85
