Data from black_metal_pc_casing_FLMS001491_00097.txt Node
Date: Wed Feb 08 14:33:48 GMT 2017
User: dcchb
Spectrometer: FLMS00149
Trigger mode: 0
Integration Time (sec): 2.000000E-2
Scans to average: 10
Electric dark correction enabled: true
Nonlinearity correction enabled: false
Boxcar width: 0
XAxis mode: Wavelengths
Number of Pixels in Spectrum: 2048
>>>>>Begin Spectral Data<<<<<
341.393	-5.95
341.776	-5.95
342.16	-5.95
342.543	-53.18
342.927	-78.71
343.31	-76.68
343.693	-79.84
344.077	-57.24
344.46	-65.83
344.843	-66.96
345.226	-30.58
345.61	-33.74
345.993	-21.76
346.376	-10.47
346.759	-0.75
347.142	36.54
347.525	68.18
347.908	51
348.291	70.66
348.674	116.54
349.057	100.94
349.44	112.69
349.823	132.36
350.206	167.83
350.588	177.33
350.971	204.67
351.354	209.42
351.737	242.63
352.119	238.34
352.502	258.91
352.884	250.09
353.267	254.39
353.65	292.58
354.032	282.63
354.414	304.33
354.797	300.03
355.179	316.08
355.562	315.18
355.944	317.89
356.326	335.29
356.709	326.25
357.091	307.94
357.473	330.77
357.855	320.15
358.238	346.36
358.62	347.72
359.002	325.57
359.384	325.57
359.766	340.94
360.148	339.36
360.53	338.9
360.912	326.7
361.294	321.28
361.676	313.14
362.057	336.64
362.439	326.47
362.821	324.44
363.203	314.5
363.584	323.31
363.966	323.76
364.348	323.54
364.729	309.98
365.111	301.39
365.493	336.87
365.874	331.45
366.256	338
366.637	314.27
367.019	316.31
367.4	307.04
367.781	307.94
368.163	327.38
368.544	315.85
368.925	312.69
369.306	320.82
369.688	300.71
370.069	319.24
370.45	319.24
370.831	315.4
371.212	335.97
371.593	330.99
371.974	310.66
372.355	322.18
372.736	316.08
373.117	326.7
373.498	330.32
373.879	329.86
374.26	325.34
374.641	320.6
375.021	329.19
375.402	318.57
375.783	318.57
376.163	342.29
376.544	327.6
376.925	334.84
377.305	326.7
377.686	327.15
378.066	338.45
378.447	339.81
378.827	326.7
379.208	346.59
379.588	342.29
379.968	361.28
380.349	327.6
380.729	343.42
381.109	367.15
381.489	348.85
381.87	349.07
382.25	344.78
382.63	375.29
383.01	360.15
383.39	358.79
383.77	365.8
384.15	378.68
384.53	354.5
384.91	364.89
385.29	368.96
385.67	394.95
386.049	381.61
386.429	388.85
386.809	383.87
387.189	394.72
387.568	392.01
387.948	390.88
388.328	370.09
388.707	374.38
389.087	379.13
389.466	408.28
389.846	392.91
390.225	383.65
390.605	397.21
390.984	396.3
391.363	420.71
391.743	400.6
392.122	401.95
392.501	426.81
392.881	397.66
393.26	426.81
393.639	396.3
394.018	416.64
394.397	409.18
394.776	410.09
395.155	421.61
395.534	409.64
395.913	440.37
396.292	445.12
396.671	444.66
397.05	442.63
397.429	428.17
397.808	444.66
398.186	420.94
398.565	442.63
398.944	452.8
399.323	445.12
399.701	448.51
400.08	431.1
400.458	474.95
400.837	457.77
401.215	450.09
401.594	470.2
401.972	470.43
402.351	472.01
402.729	484.21
403.107	497.54
403.486	461.61
403.864	489.18
404.242	492.8
404.62	481.95
404.999	493.93
405.377	501.84
405.755	478.56
406.133	514.04
406.511	489.63
406.889	523.08
407.267	519.01
407.645	522.4
408.023	518.11
408.401	531.21
408.779	531.21
409.156	526.02
409.534	565.11
409.912	524.21
410.29	542.97
410.667	536.86
411.045	566.47
411.422	534.38
411.8	561.04
412.178	555.17
412.555	568.95
412.933	577.77
413.31	595.62
413.687	595.85
414.065	577.99
414.442	615.51
414.819	601.27
415.197	625.9
415.574	619.35
415.951	631.78
416.328	632.46
416.705	634.71
417.082	627.71
417.46	634.94
417.837	638.78
418.214	644.88
418.591	649.86
418.967	655.73
419.344	637.65
419.721	665.9
420.098	643.98
420.475	678.56
420.852	655.73
421.228	655.05
421.605	663.87
421.982	680.14
422.358	656.64
422.735	685.79
423.111	700.25
423.488	708.39
423.864	704.09
424.241	710.42
424.617	700.93
424.994	735.05
425.37	736.41
425.746	728.5
426.123	757.65
426.499	748.61
426.875	750.87
427.251	785.45
427.627	772.56
428.003	795.84
428.379	817.31
428.756	808.95
429.132	784.09
429.507	802.62
429.883	827.48
430.259	857.99
430.635	852.34
431.011	824.77
431.387	861.83
431.763	871.77
432.138	869.06
432.514	907.48
432.89	865.9
433.265	899.34
433.641	933.24
434.016	905.44
434.392	946.57
434.767	951.99
435.143	934.14
435.518	958.55
435.894	981.82
436.269	972.56
436.644	953.58
437.02	991.09
437.395	1020.24
437.77	1028.6
438.145	1016.63
438.52	1035.38
438.895	1027.92
439.271	1006.68
439.646	1029.05
440.021	1084.42
440.395	1046.91
440.77	1057.75
441.145	1049.62
441.52	1084.87
441.895	1078.09
442.27	1072.9
442.645	1073.35
443.019	1128.94
443.394	1103.18
443.769	1120.35
444.143	1121.48
444.518	1126
444.892	1144.08
445.267	1134.36
445.641	1161.48
446.016	1160.8
446.39	1188.15
446.764	1182.72
447.139	1165.1
447.513	1186.11
447.887	1196.51
448.262	1171.2
448.636	1207.36
449.01	1225.21
449.384	1221.82
449.758	1233.12
450.132	1247.58
450.506	1250.97
450.88	1273.57
451.254	1273.57
451.628	1271.99
452.002	1293.23
452.376	1286.22
452.75	1299.78
453.123	1301.59
453.497	1329.61
453.871	1326
454.244	1375.03
454.618	1369.61
454.992	1401.7
455.365	1367.58
455.739	1443.06
456.112	1450.29
456.486	1438.99
456.859	1470.4
457.232	1504.97
457.606	1489.83
457.979	1513.34
458.352	1542.94
458.725	1557.4
459.099	1565.99
459.472	1592.2
459.845	1604.41
460.218	1626.55
460.591	1618.19
460.964	1612.99
461.337	1677.63
461.71	1694.12
462.083	1731.64
462.456	1688.47
462.829	1708.81
463.201	1762.14
463.574	1734.57
463.947	1781.13
464.32	1810.5
464.692	1835.14
465.065	1862.48
465.438	1874
465.81	1906.32
466.183	1887.56
466.555	1935.92
466.928	1950.16
467.3	1945.19
467.672	1989.26
468.045	2050.72
468.417	2025.41
468.789	2032.87
469.161	2103.15
469.534	2103.15
469.906	2158.74
470.278	2136.37
470.65	2158.29
471.022	2183.83
471.394	2238.06
471.766	2290.26
472.138	2281.23
472.51	2319.64
472.882	2370.04
473.253	2408.23
473.625	2436.48
473.997	2474.44
474.369	2511.5
474.74	2512.63
475.112	2517.6
475.484	2578.84
475.855	2623.82
476.227	2679.18
476.598	2743.36
476.97	2752.4
477.341	2791.04
477.713	2808.67
478.084	2843.7
478.455	2928.67
478.827	2957.37
479.198	3021.77
479.569	3037.82
479.94	3078.49
480.311	3147.42
480.682	3153.29
481.053	3267.64
481.424	3289.56
481.795	3287.98
482.166	3348.32
482.537	3436.68
482.908	3477.8
483.279	3544.24
483.65	3589.21
484.021	3668.31
484.391	3697.91
484.762	3729.77
485.133	3757.12
485.503	3827.17
485.874	3902.2
486.244	3894.29
486.615	4028.75
486.985	4038.02
487.356	4070.1
487.726	4143.1
488.097	4220.16
488.467	4195.3
488.837	4302.19
489.207	4364.56
489.578	4456.31
489.948	4524.78
490.318	4515.52
490.688	4550.32
491.058	4614.27
491.428	4685.91
491.798	4716.19
492.168	4795.28
492.538	4819.01
492.908	4839.8
493.278	4916.86
493.648	4986.24
494.017	4981.49
494.387	5050.64
494.757	5068.5
495.126	5169.51
495.496	5122.28
495.866	5163.86
496.235	5256.06
496.605	5354.59
496.974	5333.8
497.344	5387.81
497.713	5387.81
498.082	5451.09
498.452	5511.42
498.821	5523.17
499.19	5578.77
499.559	5598.2
499.928	5640.69
500.298	5691.53
500.667	5746.67
501.036	5744.41
501.405	5791.64
501.774	5795.26
502.143	5902.6
502.512	5911.41
502.88	5938.53
503.249	5965.65
503.618	5997.96
503.987	6025.31
504.356	6062.14
504.724	6127.45
505.093	6130.62
505.462	6215.36
505.83	6197.73
506.199	6291.74
506.567	6371.74
506.936	6368.58
507.304	6358.63
507.672	6494
508.041	6502.58
508.409	6590.04
508.777	6632.07
509.145	6641.56
509.514	6577.38
509.882	6731.05
510.25	6757.49
510.618	6793.65
510.986	6837.94
511.354	6914.1
511.722	6945.28
512.09	7049.46
512.458	6959.75
512.826	7068.22
513.193	7131.72
513.561	7107.77
513.929	7233.19
514.297	7323.58
514.664	7289
515.032	7370.81
515.4	7411.49
515.767	7456.91
516.135	7505.27
516.502	7481.99
516.869	7581.2
517.237	7634.53
517.604	7667.75
517.972	7769.44
518.339	7847.86
518.706	7864.13
519.073	7849.21
519.44	7940.96
519.808	8065.71
520.175	7995.43
520.542	8186.15
520.909	8238.13
521.276	8187.96
521.643	8297.11
522.009	8300.5
522.376	8438.13
522.743	8525.58
523.11	8509.99
523.477	8657.78
523.843	8587.73
524.21	8735.52
524.577	8791.79
524.943	8844.22
525.31	8921.95
525.676	9047.15
526.043	9077.2
526.409	9141.16
526.776	9239.46
527.142	9244.88
527.508	9340.47
527.874	9373.47
528.241	9423.41
528.607	9458.66
528.973	9542.28
529.339	9580.02
529.705	9627.25
530.071	9671.77
530.437	9781.82
530.803	9862.27
531.169	9931.87
531.535	9935.71
531.901	9958.09
532.267	9956.5
532.632	9986.11
532.998	10144.75
533.364	10137.06
533.73	10218.19
534.095	10289.38
534.461	10334.35
534.826	10333.67
535.192	10438.3
535.557	10535.92
535.923	10469.71
536.288	10496.6
536.653	10546.09
537.019	10496.83
537.384	10650.5
537.749	10669.25
538.114	10725.98
538.479	10772.53
538.845	10804.39
539.21	10833.54
539.575	10887.33
539.94	10972.52
540.305	11005.29
540.67	10971.84
541.034	11057.04
541.399	11092.07
541.764	11082.58
542.129	11148.79
542.494	11224.94
542.858	11192.4
543.223	11291.38
543.587	11310.59
543.952	11371.61
544.316	11396.92
544.681	11398.95
545.045	11434.43
545.41	11590.59
545.774	11545.39
546.138	11511.27
546.503	11539.29
546.867	11662.67
547.231	11759.39
547.595	11705.16
547.959	11740.86
548.324	11843.91
548.688	11840.3
549.052	11908.09
549.416	11885.94
549.779	11918.03
550.143	11921.2
550.507	12068.09
550.871	12170.23
551.235	12066.96
551.599	12203.9
551.962	12197.57
552.326	12266.73
552.689	12324.58
553.053	12280.96
553.417	12376.1
553.78	12585.59
554.143	12505.59
554.507	12612.03
554.87	12613.84
555.234	12897.9
555.597	12597.79
555.96	12686.83
556.323	12785.81
556.686	12790.78
557.05	12892.02
557.413	12893.83
557.776	12930.89
558.139	13100.38
558.502	13016.31
558.865	13120.71
559.228	13209.98
559.59	13191.9
559.953	13373.59
560.316	13387.83
560.679	13495.85
561.041	13525.45
561.404	13579.46
561.767	13776.29
562.129	13716.4
562.492	13805.89
562.854	13840.92
563.217	13790.08
563.579	13938.55
563.941	14062.38
564.304	14070.29
564.666	14210.86
565.028	14169.73
565.39	14206.79
565.753	14316.62
566.115	14317.07
566.477	14393.9
566.839	14372.66
567.201	14570.39
567.563	14515.25
567.925	14611.52
568.287	14738.52
568.648	14637.74
569.01	14764.51
569.372	14941.68
569.734	14781.46
570.095	14892.65
570.457	15083.6
570.819	15033.43
571.18	15040.66
571.542	15146.65
571.903	15144.62
572.265	15221.9
572.626	15264.16
572.987	15256.03
573.349	15414.89
573.71	15332.63
574.071	15411.73
574.432	15504.38
574.794	15556.81
575.155	15616.69
575.516	15498.28
575.877	15589.58
576.238	15601.55
576.599	15738.95
576.96	15747.76
577.32	15769.91
577.681	15788.21
578.042	15847.65
578.403	15798.61
578.763	15841.32
579.124	15855.78
579.485	15908.21
579.845	15899.85
580.206	15964.48
580.566	15932.84
580.927	16000.41
581.287	16006.51
581.648	16090.35
582.008	16073.18
582.368	15963.58
582.728	16137.13
583.089	16033.86
583.449	16052.84
583.809	16025.72
584.169	16138.71
584.529	16056.91
584.889	16189.56
585.249	16073.18
585.609	16058.04
585.969	16169.22
586.329	16096.23
586.688	16121.54
587.048	16123.57
587.408	16074.99
587.768	16108.88
588.127	16119.28
588.487	16193.85
588.846	16279.28
589.206	16157.02
589.565	16132.39
589.925	16165.61
590.284	16149.79
590.643	16262.55
591.003	16284.47
591.362	16236.34
591.721	16267.07
592.08	16271.82
592.44	16299.39
592.799	16338.93
593.158	16294.42
593.517	16231.37
593.876	16335.09
594.235	16227.98
594.593	16229.11
594.952	16349.1
595.311	16215.77
595.67	16217.13
596.029	16439.27
596.387	16411.48
596.746	16409.22
597.104	16338.03
597.463	16340.06
597.822	16432.04
598.18	16387.52
598.538	16445.82
598.897	16480.63
599.255	16385.94
599.613	16554.75
599.972	16497.35
600.33	16495.31
600.688	16402.44
601.046	16593.62
601.404	16611.92
601.762	16515.65
602.12	16625.71
602.478	16517.24
602.836	16629.32
603.194	16590.91
603.552	16503.9
603.91	16514.3
604.268	16690.79
604.625	16579.15
604.983	16604.01
605.341	16555.2
605.698	16666.61
606.056	16677.91
606.413	16726.04
606.771	16856.89
607.128	16719.94
607.485	16675.42
607.843	16677.23
608.2	16892.82
608.557	16900.95
608.914	16862.54
609.272	16978.24
609.629	16954.51
609.986	16948.86
610.343	16888.07
610.7	16972.59
611.057	17008.52
611.414	17056.2
611.771	17046.26
612.127	17026.15
612.484	17088.75
612.841	17198.12
613.198	17161.74
613.554	17092.81
613.911	17116.77
614.267	17092.59
614.624	17066.37
614.98	17221.4
615.337	17231.34
615.693	17321.96
616.05	17190.89
616.406	17395.86
616.762	17267.95
617.118	17239.02
617.475	17344.56
617.831	17308.17
618.187	17322.41
618.543	17342.98
618.899	17394.5
619.255	17356.99
619.611	17408.06
619.967	17446.02
620.323	17511.56
620.678	17449.19
621.034	17393.14
621.39	17333.48
621.746	17347.04
622.101	17522.41
622.457	17436.76
622.812	17401.96
623.168	17505.68
623.523	17420.04
623.879	17592.69
624.234	17434.73
624.589	17476.98
624.945	17429.08
625.3	17483.76
625.655	17526.93
626.01	17508.17
626.365	17517.66
626.72	17493.93
627.075	17434.05
627.43	17549.52
627.785	17451.45
628.14	17529.64
628.495	17545.91
628.85	17448.28
629.205	17335.74
629.559	17425.23
629.914	17291.9
630.269	17432.69
630.623	17328.74
630.978	17409.87
631.332	17379.13
631.687	17456.87
632.041	17349.76
632.396	17408.51
632.75	17231.79
633.104	17284.9
633.459	17285.35
633.813	17220.95
634.167	17211.91
634.521	17276.99
634.875	17110.67
635.229	17202.64
635.583	17110.21
635.937	17178.23
636.291	17132.36
636.645	17062.76
636.999	17039.71
637.352	17192.92
637.706	17080.38
638.06	17126.71
638.413	17030.44
638.767	17039.71
639.121	17027.28
639.474	16860.5
639.828	16853.05
640.181	16820.5
640.534	16932.59
640.888	16903.89
641.241	16730.34
641.594	16869.77
641.947	16822.09
642.301	16899.37
642.654	16832.71
643.007	16810.79
643.36	16855.31
643.713	16724.01
644.066	16787.28
644.419	16750
644.771	16566.73
645.124	16438.14
645.477	16374.87
645.83	16248.54
646.182	16270.69
646.535	16162.89
646.888	16238.82
647.24	16078.38
647.593	16215.77
647.945	16173.06
648.298	16112.5
648.65	16084.48
649.002	16103.46
649.355	16087.42
649.707	16190.01
650.059	16155.66
650.411	16258.26
650.763	16318.37
651.115	16509.78
651.467	16465.49
651.819	16331.03
652.171	16433.17
652.523	16265.49
652.875	16274.3
653.227	16226.62
653.578	16377.13
653.93	16300.07
654.282	16246.96
654.633	16210.58
654.985	16253.51
655.337	16256
655.688	16214.64
656.039	16332.61
656.391	16162.22
656.742	16184.14
657.094	16170.35
657.445	16190.24
657.796	16129.22
658.147	16148.88
658.498	16153.4
658.849	16177.58
659.2	16063.24
659.551	16040.86
659.902	16127.41
660.253	16129.22
660.604	16115.21
660.955	15997.02
661.306	16019.62
661.656	16020.98
662.007	15994.31
662.358	16066.4
662.708	15960.41
663.059	16053.97
663.409	15937.36
663.76	16011.03
664.11	15986.4
664.461	15992.28
664.811	15969
665.161	16030.47
665.511	16008.55
665.862	15912.28
666.212	15990.47
666.562	16003.8
666.912	15872.05
667.262	15917.48
667.612	15930.13
667.962	15912.05
668.312	15911.83
668.662	15996.34
669.011	15900.08
669.361	15886.07
669.711	15893.52
670.06	15853.98
670.41	15756.58
670.76	15807.65
671.109	15912.28
671.459	15814.43
671.808	15740.53
672.157	15838.16
672.507	15724.49
672.856	15699.4
673.205	15789.12
673.554	15734.2
673.904	15677.26
674.253	15747.31
674.602	15697.82
674.951	15519.97
675.3	15465.06
675.649	15631.16
675.998	15667.31
676.346	15669.57
676.695	15711.15
677.044	15527.88
677.393	15548.9
677.741	15671.61
678.09	15494.21
678.438	15515.68
678.787	15540.54
679.135	15482.69
679.484	15415.57
679.832	15502.57
680.181	15436.13
680.529	15455.12
680.877	15418.28
681.225	15415.12
681.573	15485.4
681.922	15328.34
682.27	15253.77
682.618	15301.45
682.966	15267.78
683.314	15370.37
683.661	15314.55
684.009	15206.31
684.357	15263.03
684.705	15232.52
685.053	15178.97
685.4	15117.27
685.748	15038.18
686.095	15025.52
686.443	14981.46
686.79	14955.92
687.138	14978.07
687.485	15001.79
687.832	14902.36
688.18	14950.95
688.527	14893.55
688.874	14820.78
689.221	14816.49
689.568	14824.62
689.915	14742.37
690.262	14752.31
690.609	14603.61
690.956	14622.6
691.303	14577.4
691.65	14528.59
691.997	14586.66
692.344	14426.67
692.69	14474.58
693.037	14477.74
693.383	14343.73
693.73	14458.76
694.077	14383.28
694.423	14295.82
694.769	14255.6
695.116	14181.03
695.462	14191.65
695.808	14145.77
696.155	14189.39
696.501	14048.83
696.847	14010.86
697.193	13901.94
697.539	13976.51
697.885	13844.31
698.231	13819.9
698.577	13843.41
698.923	13816.29
699.269	13723.18
699.614	13637.54
699.96	13756.86
700.306	13638.89
700.651	13645.45
700.997	13574.26
701.342	13552.34
701.688	13484.55
702.033	13500.37
702.379	13440.48
702.724	13375.4
703.069	13460.37
703.415	13297.43
703.76	13281.84
704.105	13283.42
704.45	13253.82
704.795	13182.63
705.14	13216.08
705.485	13158.45
705.83	13062.18
706.175	13099.25
706.52	13028.51
706.865	13021.28
707.209	12974.96
707.554	12952.81
707.899	12980.83
708.243	12871.91
708.588	12944.45
708.932	12840.27
709.277	12871.68
709.621	12868.29
709.966	12722.76
710.31	12720.05
710.654	12629.65
710.998	12679.82
711.342	12609.09
711.687	12674.85
712.031	12637.79
712.375	12567.28
712.719	12550.33
713.063	12497.45
713.407	12534.29
713.75	12457.45
714.094	12437.57
714.438	12438.47
714.782	12459.49
715.125	12417.68
715.469	12385.59
715.812	12338.81
716.156	12274.41
716.499	12267.4
716.843	12247.74
717.186	12154.19
717.53	12275.09
717.873	12245.48
718.216	12285.03
718.559	12167.52
718.902	12068.31
719.246	12071.7
719.589	12040.97
719.932	11976.11
720.275	12014.53
720.617	12014.98
720.96	11968.2
721.303	12015.43
721.646	12052.04
721.989	11866.06
722.331	11985.6
722.674	12005.26
723.016	11936.11
723.359	11806.85
723.701	11873.74
724.044	11816.57
724.386	11739.28
724.729	11784.25
725.071	11794.65
725.413	11761.65
725.755	11770.47
726.097	11689.34
726.439	11666.29
726.782	11664.48
727.124	11740.41
727.465	11570.92
727.807	11575.22
728.149	11596.46
728.491	11593.3
728.833	11586.29
729.175	11637.82
729.516	11596.69
729.858	11494.09
730.199	11577.48
730.541	11503.13
730.882	11447.76
731.224	11499.06
731.565	11426.52
731.906	11415.22
732.248	11335.9
732.589	11321.67
732.93	11318.5
733.271	11271.5
733.612	11362.12
733.953	11309.69
734.294	11299.52
734.635	11296.58
734.976	11324.6
735.317	11211.84
735.658	11207.32
735.999	11235.79
736.339	11198.28
736.68	11238.96
737.021	11148.56
737.361	11162.8
737.702	11170.71
738.042	11065.63
738.383	11098.85
738.723	11086.64
739.063	11052.75
739.404	11071.95
739.744	11060.66
740.084	10999.19
740.424	11094.1
740.764	10966.87
741.104	10979.98
741.444	11007.1
741.784	10909.7
742.124	10924.16
742.464	10844.62
742.804	10868.57
743.143	10884.16
743.483	10914.44
743.823	10834.67
744.162	10881.68
744.502	10824.73
744.841	10773.88
745.181	10852.3
745.52	10739.53
745.86	10749.48
746.199	10791.74
746.538	10736.82
746.877	10688.46
747.216	10633.32
747.556	10597.16
747.895	10643.04
748.234	10575.02
748.573	10597.62
748.911	10602.59
749.25	10604.85
749.589	10573.66
749.928	10507.22
750.267	10570.72
750.605	10450.28
750.944	10485.53
751.283	10403.5
751.621	10452.08
751.96	10341.35
752.298	10354.91
752.636	10319.43
752.975	10292.54
753.313	10276.04
753.651	10338.41
753.989	10235.37
754.327	10235.37
754.666	10158.76
755.004	10186.55
755.342	10227.91
755.679	10108.36
756.017	10187.46
756.355	10170.51
756.693	10114.69
757.031	10077.18
757.368	10027.01
757.706	10061.13
758.044	9964.64
758.381	9966.9
758.719	9976.84
759.056	10009.84
759.394	9926.22
759.731	9847.35
760.068	9808.49
760.405	9834.93
760.743	9740.69
761.08	9752.22
761.417	9654.82
761.754	9699.79
762.091	9681.93
762.428	9621.6
762.765	9584.76
763.102	9612.78
763.438	9593.12
763.775	9525.33
764.112	9548.38
764.449	9506.35
764.785	9502.96
765.122	9407.59
765.458	9364.88
765.795	9363.07
766.131	9260.7
766.467	9346.8
766.804	9271.78
767.14	9255.73
767.476	9194.72
767.812	9152.91
768.148	9203.98
768.485	9177.54
768.821	9058.22
769.157	9097.09
769.492	9046.02
769.828	9086.24
770.164	8942.52
770.5	8973.93
770.836	8941.84
771.171	8861.17
771.507	8855.74
771.842	8847.38
772.178	8798.34
772.513	8820.49
772.849	8722.19
773.184	8734.16
773.519	8692.36
773.855	8698.68
774.19	8605.58
774.525	8615.97
774.86	8673.6
775.195	8630.44
775.53	8571
775.865	8523.77
776.2	8496.43
776.535	8418.69
776.87	8410.33
777.205	8376.88
777.539	8323.55
777.874	8336.43
778.209	8252.37
778.543	8246.72
778.878	8222.99
779.212	8198.36
779.547	8161.3
779.881	8166.27
780.215	8084.01
780.55	8142.77
780.884	8030.45
781.218	8042.43
781.552	8049.89
781.886	8011.24
782.22	7997.46
782.554	7934.86
782.888	7832.49
783.222	7895.77
783.556	7820.74
783.889	7766.28
784.223	7758.6
784.557	7751.59
784.89	7757.92
785.224	7700.52
785.557	7600.63
785.891	7590.46
786.224	7626.62
786.558	7573.52
786.891	7518.6
787.224	7497.13
787.557	7495.55
787.891	7513.18
788.224	7484.48
788.557	7434.99
788.89	7424.37
789.223	7350.24
789.556	7280.19
789.888	7365.16
790.221	7294.2
790.554	7289
790.887	7314.09
791.219	7214.2
791.552	7243.13
791.884	7171.94
792.217	7164.94
792.549	7158.61
792.882	7079.29
793.214	7061.44
793.546	7138.72
793.879	7002.01
794.211	6947.77
794.543	6994.1
794.875	7009.46
795.207	7002.46
795.539	6952.29
795.871	6999.75
796.203	6956.13
796.535	6837.94
796.867	6937.15
797.198	6826.19
797.53	6793.65
797.862	6760.43
798.193	6736.7
798.525	6801.33
798.856	6760.43
799.188	6722.46
799.519	6630.49
799.85	6636.37
800.182	6640.88
800.513	6617.38
800.844	6543.26
801.175	6644.5
801.506	6587.78
801.837	6552.75
802.168	6515.01
802.499	6493.54
802.83	6481.11
803.161	6468.46
803.491	6457.61
803.822	6427.11
804.153	6393.89
804.483	6397.5
804.814	6362.02
805.145	6341.68
805.475	6368.8
805.805	6304.17
806.136	6330.84
806.466	6320.67
806.796	6297.84
807.126	6255.13
807.457	6253.78
807.787	6262.59
808.117	6211.97
808.447	6205.64
808.777	6207.22
809.107	6167.22
809.436	6187.79
809.766	6168.81
810.096	6151.18
810.426	6073.22
810.755	6046.78
811.085	6070.28
811.414	6015.82
811.744	6032.09
812.073	5956.61
812.403	5966.33
812.732	6002.94
813.061	5991.86
813.39	5924.52
813.719	5931.98
814.049	5957.51
814.378	5955.48
814.707	5908.7
815.036	5898.31
815.365	5865.54
815.693	5835.26
816.022	5767.46
816.351	5827.8
816.68	5772.88
817.008	5766.33
817.337	5729.04
817.665	5705.99
817.994	5709.84
818.322	5763.62
818.651	5713.45
818.979	5718.65
819.307	5708.71
819.636	5642.27
819.964	5646.79
820.292	5627.58
820.62	5600.23
820.948	5645.2
821.276	5683.17
821.604	5617.86
821.932	5640.91
822.259	5655.6
822.587	5632.55
822.915	5658.09
823.243	5648.14
823.57	5565.43
823.898	5603.62
824.225	5566.34
824.553	5587.58
824.88	5620.35
825.207	5603.17
825.535	5590.74
825.862	5677.07
826.189	5573.57
826.516	5647.24
826.843	5597.07
827.17	5627.13
827.497	5586.22
827.824	5633.91
828.151	5594.36
828.478	5576.96
828.805	5637.07
829.131	5582.16
829.458	5612.66
829.785	5582.61
830.111	5595.49
830.438	5622.83
830.764	5602.95
831.09	5580.8
831.417	5580.12
831.743	5549.39
832.069	5605.43
832.395	5627.8
832.722	5593.23
833.048	5533.8
833.374	5611.08
833.7	5525.43
834.026	5561.14
834.351	5542.83
834.677	5512.33
835.003	5550.07
835.329	5527.02
835.654	5557.75
835.98	5541.7
836.306	5568.37
836.631	5575.15
836.956	5541.48
837.282	5505.32
837.607	5480.92
837.932	5451.31
838.258	5478.66
838.583	5498.99
838.908	5451.99
839.233	5520.69
839.558	5455.15
839.883	5458.09
840.208	5406.79
840.533	5461.25
840.858	5458.99
841.182	5424.87
841.507	5388.94
841.832	5421.93
842.156	5310.98
842.481	5338.32
842.805	5353.01
843.13	5324.54
843.454	5320.47
843.778	5295.61
844.103	5304.2
844.427	5315.5
844.751	5328.6
845.075	5248.15
845.399	5237.08
845.723	5238.44
846.047	5256.29
846.371	5209.51
846.695	5159.34
847.019	5101.26
847.343	5104.65
847.666	5076.41
847.99	5106.46
848.313	5075.73
848.637	5043.19
848.96	5019.23
849.284	5014.26
849.607	5015.62
849.931	5016.75
850.254	4990.76
850.577	4913.25
850.9	4870.08
851.223	4896.3
851.546	4875.06
851.869	4857.43
852.192	4877.77
852.515	4819.69
852.838	4842.74
853.161	4807.26
853.483	4786.02
853.806	4733.59
854.129	4765.23
854.451	4732.69
854.774	4740.6
855.096	4684.1
855.419	4683.87
855.741	4664.67
856.063	4657.66
856.385	4720.03
856.708	4640.03
857.03	4647.04
857.352	4668.96
857.674	4638.45
857.996	4605.01
858.318	4598
858.64	4562.07
858.961	4607.04
859.283	4560.49
859.605	4561.17
859.926	4477.1
860.248	4494.05
860.57	4487.04
860.891	4491.11
861.212	4471.9
861.534	4504.9
861.855	4458.57
862.176	4463.54
862.498	4457.44
862.819	4422.19
863.14	4412.02
863.461	4420.83
863.782	4378.57
864.103	4377.22
864.424	4386.93
864.745	4440.04
865.065	4420.38
865.386	4376.09
865.707	4360.72
866.027	4360.04
866.348	4357.55
866.668	4385.58
866.989	4363.66
867.309	4325.01
867.63	4302.42
867.95	4328.63
868.27	4299.25
868.59	4275.07
868.91	4285.69
869.23	4315.3
869.55	4321.4
869.87	4319.36
870.19	4290.21
870.51	4258.57
870.83	4271
871.15	4227.84
871.469	4222.87
871.789	4250.44
872.109	4241.17
872.428	4183.1
872.748	4204.11
873.067	4211.34
873.386	4254.51
873.706	4193.04
874.025	4189.88
874.344	4127.5
874.663	4208.41
874.982	4158.92
875.301	4154.62
875.62	4172.48
875.939	4164.11
876.258	4147.62
876.577	4101.97
876.896	4162.53
877.214	4125.02
877.533	4129.31
877.852	4159.59
878.17	4136.09
878.489	4107.62
878.807	4072.14
879.125	4073.04
879.444	4122.08
879.762	4092.93
880.08	4120.27
880.398	4079.14
880.716	4063.1
881.034	4050.9
881.352	4034.4
881.67	4030.78
881.988	4073.49
882.306	4007.73
882.624	4013.84
882.941	4012.93
883.259	3987.62
883.577	3919.6
883.894	3949.66
884.212	3973.84
884.529	3950.11
884.846	3955.08
885.164	3941.07
885.481	3918.24
885.798	3925.25
886.115	3931.58
886.432	3899.26
886.75	3918.24
887.067	3931.13
887.383	3898.81
887.7	3883.9
888.017	3867.4
888.334	3864.46
888.651	3872.37
888.967	3857.23
889.284	3856.33
889.6	3833.05
889.917	3833.73
890.233	3812.71
890.55	3774.29
890.866	3850
891.182	3778.36
891.498	3783.33
891.815	3769.55
892.131	3712.83
892.447	3716.89
892.763	3706.27
893.079	3695.88
893.395	3667.4
893.71	3724.13
894.026	3672.83
894.342	3675.54
894.657	3652.49
894.973	3649.32
895.289	3685.93
895.604	3664.92
895.92	3642.32
896.235	3651.13
896.55	3595.99
896.865	3582.43
897.181	3553.28
897.496	3624.47
897.811	3553.96
898.126	3535.88
898.441	3521.42
898.756	3564.81
899.071	3486.62
899.386	3504.7
899.7	3503.34
900.015	3443.91
900.33	3467.41
900.644	3423.57
900.959	3438.71
901.273	3435.55
901.588	3430.8
901.902	3391.7
902.216	3400.29
902.531	3386.06
902.845	3391.48
903.159	3328.43
903.473	3321.42
903.787	3362.1
904.101	3320.97
904.415	3346.06
904.729	3304.93
905.042	3325.94
905.356	3297.7
905.67	3246.62
905.984	3271.93
906.297	3276.45
906.611	3207.3
906.924	3187.19
907.237	3208.43
907.551	3223.8
907.864	3170.02
908.177	3165.95
908.491	3183.8
908.804	3190.58
909.117	3183.35
909.43	3133.63
909.743	3146.97
910.056	3099.28
910.368	3100.64
910.681	3095.67
910.994	3048.44
911.307	3075.1
911.619	3082.79
911.932	3044.6
912.244	3004.37
912.557	3047.76
912.869	2987.42
913.181	3016.12
913.494	3016.12
913.806	2973.86
914.118	2976.57
914.43	2962.56
914.742	2931.6
915.054	2936.58
915.366	2914.2
915.678	2891.15
915.99	2941.32
916.302	2895.45
916.613	2895.22
916.925	2883.7
917.236	2859.74
917.548	2861.32
917.859	2876.69
918.171	2875.79
918.482	2805.73
918.794	2842.34
919.105	2829.23
919.416	2820.19
919.727	2794.43
920.038	2746.3
920.349	2763.92
920.66	2748.11
920.971	2742.91
921.282	2732.96
921.593	2704.94
921.903	2697.26
922.214	2663.59
922.525	2671.5
922.835	2668.79
923.146	2661.55
923.456	2665.85
923.767	2617.26
924.077	2673.98
924.387	2627.43
924.697	2597.83
925.008	2572.07
925.318	2615.23
925.628	2560.09
925.938	2546.53
926.248	2546.53
926.558	2556.02
926.867	2536.36
927.177	2528.68
927.487	2566.19
927.796	2543.59
928.106	2508.34
928.416	2508.79
928.725	2479.19
929.034	2476.7
929.344	2472.41
929.653	2474.21
929.962	2446.87
930.271	2452.75
930.581	2428.57
930.89	2397.15
931.199	2424.95
931.508	2418.62
931.817	2414.78
932.125	2405.52
932.434	2376.82
932.743	2367.32
933.051	2361.68
933.36	2337.27
933.669	2307.67
933.977	2353.77
934.286	2333.88
934.594	2316.03
934.902	2327.78
935.21	2297.04
935.519	2318.06
935.827	2279.42
936.135	2275.12
936.443	2234.22
936.751	2247.33
937.059	2232.64
937.367	2229.7
937.674	2241
937.982	2202.81
938.29	2212.07
938.597	2199.42
938.905	2152.42
939.213	2158.97
939.52	2153.77
939.827	2178.63
940.135	2135.01
940.442	2173.21
940.749	2133.66
941.056	2140.44
941.363	2117.84
941.67	2124.17
941.977	2106.99
942.284	2097.05
942.591	2080.1
942.898	2099.76
943.205	2077.61
943.511	2058.41
943.818	2073.32
944.125	2031.29
944.431	2038.07
944.738	2056.15
945.044	2020.89
945.35	2059.31
945.657	2026.09
945.963	1990.39
946.269	1994.23
946.575	1966.21
946.881	1985.64
947.187	1970.73
947.493	1973.21
947.799	1996.04
948.105	1956.04
948.41	1931.4
948.716	1934.12
949.022	1899.77
949.327	1904.06
949.633	1902.03
949.938	1915.13
950.244	1887.56
950.549	1919.43
950.854	1871.07
951.16	1873.55
951.465	1889.82
951.77	1866.77
952.075	1855.02
952.38	1852.99
952.685	1832.2
952.99	1870.84
953.294	1832.2
953.599	1852.99
953.904	1801.24
954.209	1843.5
954.513	1803.5
954.818	1807.34
955.122	1772.54
955.426	1783.61
955.731	1766.21
956.035	1775.7
956.339	1779.09
956.643	1761.46
956.948	1772.54
957.252	1759.88
957.556	1743.61
957.86	1751.07
958.163	1742.26
958.467	1729.6
958.771	1719.88
959.075	1754.01
959.378	1711.52
959.682	1721.24
959.985	1671.52
960.289	1695.48
960.592	1665.65
960.896	1677.4
961.199	1693.9
961.502	1663.61
961.805	1660.68
962.108	1632.2
962.411	1633.11
962.714	1590.62
963.017	1616.84
963.32	1623.84
963.623	1618.64
963.926	1645.54
964.228	1623.39
964.531	1602.6
964.833	1627.23
965.136	1575.71
965.438	1573.9
965.741	1598.76
966.043	1558.08
966.345	1535.03
966.648	1549.72
966.95	1573.22
967.252	1527.35
967.554	1558.08
967.856	1512.21
968.158	1534.8
968.46	1527.35
968.761	1494.13
969.063	1531.19
969.365	1513.34
969.666	1512.88
969.968	1470.63
970.269	1461.36
970.571	1468.37
970.872	1474.47
971.174	1480.57
971.475	1459.78
971.776	1472.43
972.077	1443.51
972.378	1451.87
972.679	1479.44
972.98	1451.42
973.281	1415.03
973.582	1417.29
973.883	1436.05
974.183	1416.39
974.484	1391.76
974.785	1405.99
975.085	1414.81
975.386	1370.97
975.686	1389.5
975.986	1374.58
976.287	1387.46
976.587	1366.45
976.887	1352.44
977.187	1400.12
977.487	1368.93
977.787	1341.36
978.087	1352.89
978.387	1349.95
978.687	1347.92
978.987	1322.38
979.286	1361.25
979.586	1328.26
979.885	1319.67
980.185	1313.79
980.484	1326.22
980.784	1311.76
981.083	1305.21
981.382	1333.23
981.682	1297.97
981.981	1283.29
982.28	1293.91
982.579	1269.73
982.878	1293.91
983.177	1280.12
983.475	1259.33
983.774	1260.24
984.073	1273.57
984.372	1235.6
984.67	1246
984.969	1236.28
985.267	1230.18
985.566	1251.42
985.864	1219.56
986.162	1230.63
986.461	1227.24
986.759	1203.29
987.057	1187.24
987.355	1176.85
987.653	1198.77
987.951	1216.17
988.249	1195.38
988.547	1206.68
988.844	1189.28
989.142	1172.33
989.44	1187.69
989.737	1147.92
990.035	1145.44
990.332	1162.84
990.63	1180.46
990.927	1147.47
991.224	1133.01
991.521	1133.01
991.819	1137.3
992.116	1130.97
992.413	1130.52
992.71	1131.88
993.006	1139.79
993.303	1109.28
993.6	1096.62
993.897	1103.63
994.193	1091.2
994.49	1119.67
994.787	1103.4
995.083	1083.29
995.379	1090.07
995.676	1078.55
995.972	1065.44
996.268	1090.97
996.565	1072.9
996.861	1076.29
997.157	1079.45
997.453	1061.6
997.749	1043.74
998.044	1063.63
998.34	1030.41
998.636	1029.05
998.932	1041.26
999.227	1039.22
999.523	1038.09
999.818	1022.5
1000.114	1006.68
1000.409	1050.98
1000.704	1024.76
1001	1010.3
1001.295	979.79
1001.59	989.28
1001.885	993.35
1002.18	992.22
1002.475	958.55
1002.77	976.85
1003.065	958.1
1003.359	961.49
1003.654	962.16
1003.949	989.51
1004.243	965.1
1004.538	966.46
1004.832	952.9
1005.127	945.44
1005.421	948.15
1005.715	939.11
1006.009	937.53
1006.304	957.64
1006.598	944.76
1006.892	905.67
1007.186	908.61
1007.48	915.39
1007.773	909.28
1008.067	886.69
1008.361	910.64
1008.655	906.12
1008.948	881.94
1009.242	900.7
1009.535	866.35
1009.829	881.71
1010.122	861.83
1010.415	858.21
1010.708	898.21
1011.001	875.84
1011.295	868.38
1011.588	854.14
1011.881	856.86
1012.173	849.62
1012.466	850.08
1012.759	843.52
1013.052	871.32
1013.344	840.13
1013.637	863.18
1013.93	836.74
1014.222	839.91
1014.514	824.31
1014.807	847.82
1015.099	813.24
1015.391	832.45
1015.683	806.01
1015.976	825.9
1016.268	798.55
1016.56	802.85
1016.851	802.39
1017.143	776.41
1017.435	782.51
1017.727	782.28
1018.018	792.68
1018.31	805.56
1018.602	788.61
1018.893	782.51
1019.185	763.75
1019.476	749.06
1019.767	780.7
1020.058	745.67
1020.35	739.8
1020.641	762.85
1020.932	751.32
1021.223	749.74
1021.514	744.99
1021.804	753.13
1022.095	717.2
1022.386	722.4
1022.677	742.28
1022.967	720.14
1023.258	707.93
1023.548	712
1023.839	717.42
1024.129	704.54
1024.419	692.11
1024.709	691.66
1025	706.13
1025.29	697.31
1025.58	686.01
1025.87	696.41
1026.16	661.83
1026.449	682.17
1026.739	685.11
1027.029	666.13
1027.319	658.9
1027.608	667.71
1027.898	656.18
1028.187	664.54
1028.477	662.74
1028.766	650.08
1029.055	659.12
1029.344	662.96
1029.634	665.45
1029.923	643.3
1030.212	660.48
1030.501	639.46
1030.79	622.96
1031.078	620.25
1031.367	649.4
1031.656	616.41
1031.945	614.6
1032.233	639.91
1032.522	619.12
1032.81	628.16
1033.099	603.98
1033.387	611.89
1033.675	600.14
1033.963	613.25
1034.251	591.78
1034.54	583.42
1034.828	597.65
1035.116	597.43
1035.403	570.54
1035.691	580.25
1035.979	609.86
1036.267	581.83
1036.554	590.65
1036.842	577.99
1037.129	575.51
1037.417	589.97
1037.704	566.92
1037.992	572.57
1038.279	577.09
1038.566	575.96
1038.853	575.96
1039.14	575.96
