Data from black_metal_pc_casing_FLMS001491_00047.txt Node
Date: Wed Feb 08 14:32:46 GMT 2017
User: dcchb
Spectrometer: FLMS00149
Trigger mode: 0
Integration Time (sec): 2.000000E-2
Scans to average: 10
Electric dark correction enabled: true
Nonlinearity correction enabled: false
Boxcar width: 0
XAxis mode: Wavelengths
Number of Pixels in Spectrum: 2048
>>>>>Begin Spectral Data<<<<<
341.393	-3.63
341.776	-3.63
342.16	-3.63
342.543	-63.52
342.927	-72.78
343.31	-75.27
343.693	-69.84
344.077	-66.68
344.46	-56.74
344.843	-36.85
345.226	-66.45
345.61	-29.62
345.993	-13.8
346.376	6.99
346.759	-6.57
347.142	23.94
347.525	35.47
347.908	55.8
348.291	84.05
348.674	99.64
349.057	115.92
349.44	133.77
349.823	151.62
350.206	173.54
350.588	184.84
350.971	187.33
351.354	209.7
351.737	232.3
352.119	230.49
352.502	256.02
352.884	255.35
353.267	265.74
353.65	279.07
354.032	284.27
354.414	301.9
354.797	298.06
355.179	318.62
355.562	291.28
355.944	309.13
356.326	326.76
356.709	304.61
357.091	328.11
357.473	330.82
357.855	347.55
358.238	332.63
358.62	328.34
359.002	329.92
359.384	321.33
359.766	326.76
360.148	337.6
360.53	325.18
360.912	321.56
361.294	341.67
361.676	323.14
362.057	348
362.439	317.27
362.821	313.65
363.203	320.88
363.584	307.77
363.966	298.96
364.348	331.95
364.729	315.46
365.111	301.67
365.493	327.66
365.874	317.72
366.256	306.87
366.637	303.71
367.019	299.86
367.4	299.64
367.781	307.32
368.163	307.1
368.544	310.03
368.925	286.31
369.306	304.38
369.688	318.62
370.069	301.22
370.45	314.78
370.831	294.67
371.212	305.97
371.593	277.04
371.974	305.51
372.355	303.03
372.736	309.36
373.117	324.95
373.498	312.29
373.879	309.36
374.26	302.35
374.641	302.58
375.021	292.86
375.402	297.15
375.783	348.9
376.163	325.85
376.544	324.95
376.925	316.81
377.305	315.23
377.686	308.23
378.066	317.27
378.447	325.85
378.827	324.05
379.208	333.54
379.588	307.1
379.968	317.94
380.349	339.41
380.729	325.63
381.109	312.07
381.489	322.24
381.87	328.79
382.25	330.37
382.63	328.11
383.01	325.63
383.39	324.72
383.77	322.92
384.15	328.34
384.53	351.62
384.91	342.8
385.29	352.07
385.67	331.05
386.049	318.17
386.429	354.78
386.809	334.67
387.189	342.58
387.568	360.2
387.948	359.07
388.328	344.61
388.707	334.89
389.087	365.63
389.466	356.59
389.846	362.01
390.225	376.47
390.605	377.15
390.984	343.03
391.363	364.72
391.743	372.63
392.122	360.88
392.501	370.15
392.881	369.47
393.26	391.39
393.639	363.59
394.018	359.52
394.397	350.03
394.776	362.91
395.155	376.47
395.534	368.34
395.913	378.28
396.292	376.02
396.671	370.82
397.05	388.68
397.429	363.59
397.808	407.43
398.186	395.91
398.565	390.48
398.944	369.02
399.323	380.54
399.701	400.43
400.08	385.51
400.458	398.85
400.837	398.62
401.215	408.56
401.594	404.72
401.972	408.79
402.351	409.47
402.729	410.6
403.107	404.72
403.486	403.37
403.864	418.73
404.242	413.08
404.62	410.82
404.999	411.05
405.377	431.16
405.755	407.43
406.133	398.62
406.511	422.12
406.889	423.7
407.267	432.06
407.645	421.67
408.023	429.81
408.401	431.84
408.779	434.1
409.156	422.12
409.534	435.68
409.912	446.53
410.29	439.07
410.667	461.44
411.045	433.87
411.422	451.05
411.8	475.68
412.178	455.12
412.555	462.12
412.933	486.07
413.31	484.94
413.687	468.67
414.065	469.8
414.442	467.09
414.819	498.96
415.197	496.24
415.574	503.48
415.951	502.57
416.328	482.91
416.705	496.02
417.082	501.44
417.46	521.1
417.837	497.83
418.214	505.51
418.591	499.63
418.967	493.53
419.344	527.43
419.721	504.15
420.098	515
420.475	526.07
420.852	520.88
421.228	523.36
421.605	531.05
421.982	523.59
422.358	531.05
422.735	559.29
423.111	545.06
423.488	538.5
423.864	562
424.241	538.28
424.617	562.46
424.994	585.06
425.37	565.62
425.746	550.25
426.123	545.96
426.499	549.12
426.875	592.29
427.251	568.33
427.627	588.67
428.003	581.67
428.379	603.13
428.756	559.97
429.132	579.41
429.507	616.24
429.883	625.96
430.259	613.3
430.635	645.84
431.011	624.38
431.387	642.91
431.763	636.58
432.138	633.64
432.514	664.83
432.89	656.69
433.265	654.43
433.641	660.53
434.016	657.6
434.392	682.23
434.767	686.75
435.143	695.11
435.518	693.07
435.894	694.88
436.269	702.57
436.644	725.84
437.02	694.88
437.395	724.49
437.77	705.5
438.145	721.32
438.52	743.47
438.895	722.9
439.271	759.97
439.646	748.67
440.021	733.75
440.395	740.08
440.77	735.11
441.145	761.32
441.52	771.49
441.895	780.76
442.27	769.23
442.645	786.63
443.019	805.84
443.394	783.69
443.769	783.69
444.143	790.93
444.518	784.37
444.892	800.19
445.267	806.74
445.641	825.05
446.016	804.03
446.39	806.52
446.764	828.89
447.139	830.02
447.513	827.76
447.887	837.25
448.262	831.6
448.636	851.94
449.01	847.87
449.384	852.39
449.758	853.52
450.132	845.16
450.506	870.7
450.88	873.86
451.254	878.83
451.628	882.22
452.002	885.16
452.376	908.89
452.75	879.74
453.123	897.36
453.497	921.09
453.871	910.24
454.244	951.15
454.618	932.16
454.992	946.63
455.365	981.88
455.739	964.48
456.112	964.25
456.486	988.21
456.859	970.13
457.232	1013.52
457.606	991.15
457.979	1003.58
458.352	1019.17
458.725	1008.09
459.099	1058.04
459.472	1041.99
459.845	1063.23
460.218	1049
460.591	1070.47
460.964	1070.01
461.337	1091.48
461.71	1091.03
462.083	1140.52
462.456	1109.56
462.829	1122.89
463.201	1128.77
463.574	1164.25
463.947	1182.55
464.32	1174.19
464.692	1221.2
465.065	1186.17
465.438	1213.51
465.81	1220.97
466.183	1236.56
466.555	1239.5
466.928	1272.49
467.3	1266.17
467.672	1297.8
468.045	1299.39
468.417	1296.22
468.789	1306.62
469.161	1353.62
469.534	1355.43
469.906	1402.21
470.278	1366.73
470.65	1399.27
471.022	1394.53
471.394	1449.44
471.766	1460.74
472.138	1476.56
472.51	1502.09
472.882	1546.61
473.253	1526.27
473.625	1546.16
473.997	1580.74
474.369	1550.91
474.74	1561.75
475.112	1621.64
475.484	1642.2
475.855	1670
476.227	1678.81
476.598	1718.58
476.97	1716.32
477.341	1730.11
477.713	1767.62
478.084	1778.24
478.455	1807.4
478.827	1836.32
479.198	1886.04
479.569	1881.07
479.94	1954.28
480.311	1946.38
480.682	1973.04
481.053	2020.72
481.424	2032.47
481.795	2079.25
482.166	2123.09
482.537	2131.68
482.908	2157.9
483.279	2187.27
483.65	2174.84
484.021	2231.11
484.391	2249.19
484.762	2274.73
485.133	2320.15
485.503	2341.39
485.874	2348.62
486.244	2412.58
486.615	2427.04
486.985	2479.47
487.356	2521.73
487.726	2507.49
488.097	2548.62
488.467	2561.5
488.837	2639.69
489.207	2646.7
489.578	2675.85
489.948	2694.6
490.318	2766.24
490.688	2707.03
491.058	2771.89
491.428	2785
491.798	2848.5
492.168	2866.35
492.538	2882.17
492.908	2928.72
493.278	2979.34
493.648	3008.72
494.017	3011.66
494.387	2993.13
494.757	3035.16
495.126	3117.42
495.496	3121.49
495.866	3112.22
496.235	3156.06
496.605	3187.7
496.974	3181.6
497.344	3242.84
497.713	3239.67
498.082	3306.79
498.452	3334.36
498.821	3328.71
499.19	3343.63
499.559	3374.13
499.928	3385.66
500.298	3365.32
500.667	3458.43
501.036	3473.57
501.405	3465.66
501.774	3441.25
502.143	3520.12
502.512	3496.17
502.88	3569.84
503.249	3523.06
503.618	3596.28
503.987	3622.72
504.356	3610.06
504.724	3633.56
505.093	3649.38
505.462	3660
505.83	3692.09
506.199	3745.42
506.567	3764.63
506.936	3732.77
507.304	3802.6
507.672	3825.87
508.041	3821.81
508.409	3867
508.777	3892.09
509.145	3935.48
509.514	3929.83
509.882	3956.94
510.25	4019.77
510.618	4019.99
510.986	4044.85
511.354	4018.19
511.722	4101.8
512.09	4131.4
512.458	4145.64
512.826	4154.23
513.193	4175.7
513.561	4187.67
513.929	4271.74
514.297	4267.22
514.664	4283.04
515.032	4337.95
515.4	4330.95
515.767	4368.01
516.135	4374.11
516.502	4399.19
516.869	4445.74
517.237	4471.05
517.604	4485.29
517.972	4534.33
518.339	4571.39
518.706	4565.06
519.073	4610.26
519.44	4665.4
519.808	4694.55
520.175	4669.92
520.542	4717.6
520.909	4781.78
521.276	4814.77
521.643	4843.25
522.009	4892.06
522.376	4904.04
522.743	4935
523.11	4990.36
523.477	5056.12
523.843	5035.79
524.21	5104.94
524.577	5144.71
524.943	5133.41
525.31	5172.96
525.676	5255.67
526.043	5264.93
526.409	5284.82
526.776	5393.52
527.142	5327.76
527.508	5434.87
527.874	5427.87
528.241	5431.26
528.607	5463.57
528.973	5491.82
529.339	5539.95
529.705	5599.84
530.071	5644.13
530.437	5706.73
530.803	5687.52
531.169	5676.45
531.535	5696.33
531.901	5714.64
532.267	5787.63
532.632	5829.89
532.998	5813.17
533.364	5826.05
533.73	5879.38
534.095	5907.63
534.461	5899.72
534.826	6004.8
535.192	5983.56
535.557	5975.87
535.923	6023.78
536.288	6068.07
536.653	6131.12
537.019	6129.77
537.384	6153.27
537.749	6104.91
538.114	6168.41
538.479	6172.93
538.845	6193.27
539.21	6212.93
539.575	6219.94
539.94	6307.16
540.305	6285.47
540.67	6302.42
541.034	6360.04
541.399	6388.97
541.764	6385.58
542.129	6407.95
542.494	6426.48
542.858	6430.78
543.223	6446.82
543.587	6452.92
543.952	6469.42
544.316	6531.34
544.681	6521.17
545.045	6546.03
545.41	6578.57
545.774	6640.72
546.138	6608.4
546.503	6690.66
546.867	6668.06
547.231	6682.52
547.595	6725.23
547.959	6679.13
548.324	6720.04
548.688	6742.63
549.052	6801.16
549.416	6835.06
549.779	6819.69
550.143	6890.2
550.507	6880.71
550.871	6951.67
551.235	6939.46
551.599	6997.54
551.962	6998.45
552.326	6998.22
552.689	7064.66
553.053	7053.59
553.417	7049.52
553.78	7109.18
554.143	7139.69
554.507	7143.75
554.87	7152.57
555.234	7196.63
555.597	7191.44
555.96	7220.36
556.323	7249.51
556.686	7317.53
557.05	7297.87
557.413	7411.54
557.776	7421.03
558.139	7385.1
558.502	7400.02
558.865	7480.47
559.228	7517.98
559.59	7533.57
559.953	7589.16
560.316	7663.51
560.679	7622.16
561.041	7668.48
561.404	7747.8
561.767	7762.72
562.129	7718.43
562.492	7849.95
562.854	7776.96
563.217	7887.24
563.579	7908.7
563.941	8001.58
564.304	7964.52
564.666	7970.4
565.028	8035.71
565.39	8026.22
565.753	8144.4
566.115	8099.66
566.477	8234.12
566.839	8219.2
567.201	8207.68
567.563	8244.06
567.925	8319.54
568.287	8270.95
568.648	8328.81
569.01	8395.47
569.372	8416.26
569.734	8414.23
570.095	8486.32
570.457	8484.73
570.819	8549.14
571.18	8597.05
571.542	8543.94
571.903	8583.71
572.265	8559.31
572.626	8616.03
572.987	8649.02
573.349	8684.73
573.71	8661.45
574.071	8777.83
574.432	8738.29
574.794	8837.49
575.155	8732.41
575.516	8773.09
575.877	8836.82
576.238	8882.01
576.599	8860.09
576.96	8868.91
577.32	8838.4
577.681	8899.19
578.042	8986.87
578.403	8904.84
578.763	8996.59
579.124	8951.61
579.485	9035.23
579.845	9029.13
580.206	8966.3
580.566	9054.89
580.927	9058.96
581.287	9016.02
581.648	9000.65
582.008	9046.08
582.368	9042.69
582.728	9046.75
583.089	9036.81
583.449	9076.36
583.809	9096.92
584.169	9062.8
584.529	9050.82
584.889	9145.96
585.249	9175.11
585.609	8995.23
585.969	9098.05
586.329	9079.07
586.688	9096.92
587.048	9117.49
587.408	9089.69
587.768	9135.56
588.127	9110.03
588.487	9071.16
588.846	9144.6
589.206	9064.61
589.565	9154.1
589.925	9124.94
590.284	9106.19
590.643	9112.51
591.003	9079.3
591.362	9094.21
591.721	9173.53
592.08	9219.86
592.44	9184.15
592.799	9190.93
593.158	9218.5
593.517	9222.79
593.876	9231.83
594.235	9193.19
594.593	9178.05
594.952	9205.17
595.311	9195
595.67	9243.81
596.029	9238.39
596.387	9276.58
596.746	9220.99
597.104	9261.89
597.463	9278.61
597.822	9320.64
598.18	9188.44
598.538	9159.52
598.897	9267.09
599.255	9153.42
599.613	9277.93
599.972	9227.31
600.33	9308.67
600.688	9309.8
601.046	9309.57
601.404	9335.56
601.762	9287.2
602.12	9356.58
602.478	9367.88
602.836	9404.48
603.194	9343.92
603.552	9376.24
603.91	9307.54
604.268	9335.11
604.625	9365.39
604.983	9427.08
605.341	9383.92
605.698	9408.33
606.056	9411.04
606.413	9426.86
606.771	9443.13
607.128	9430.02
607.485	9414.88
607.843	9400.87
608.2	9535.33
608.557	9447.65
608.914	9475.89
609.272	9514.99
609.629	9514.76
609.986	9562.22
610.343	9573.29
610.7	9565.61
611.057	9569.9
611.414	9576.46
611.771	9654.65
612.127	9616.68
612.484	9599.28
612.841	9553.41
613.198	9583.01
613.554	9615.1
613.911	9663.23
614.267	9620.07
614.624	9635.89
614.98	9728.54
615.337	9736.9
615.693	9676.79
616.05	9691.93
616.406	9757.7
616.762	9698.26
617.118	9686.51
617.475	9683.12
617.831	9757.02
618.187	9702.33
618.543	9748.2
618.899	9798.15
619.255	9797.69
619.611	9742.55
619.967	9866.62
620.323	9840.41
620.678	9785.49
621.034	9754.08
621.39	9809.9
621.746	9748.88
622.101	9888.99
622.457	9809.9
622.812	9761.76
623.168	9862.1
623.523	9819.61
623.879	9811.71
624.234	9813.51
624.589	9789.33
624.945	9817.13
625.3	9838.37
625.655	9822.1
626.01	9810.35
626.365	9833.4
626.72	9842.89
627.075	9864.59
627.43	9816
627.785	9818.71
628.14	9751.37
628.495	9795.89
628.85	9731.71
629.205	9775.77
629.559	9743.91
629.914	9747.75
630.269	9780.07
630.623	9788.43
630.978	9674.08
631.332	9808.77
631.687	9810.12
632.041	9752.72
632.396	9753.85
632.75	9755.66
633.104	9702.33
633.459	9757.7
633.813	9678.38
634.167	9704.59
634.521	9642.67
634.875	9660.3
635.229	9648.77
635.583	9606.74
635.937	9647.42
636.291	9578.27
636.645	9556.12
636.999	9598.83
637.352	9542.33
637.706	9530.36
638.06	9584.59
638.413	9535.78
638.767	9563.12
639.121	9532.16
639.474	9456.01
639.828	9515.67
640.181	9481.54
640.534	9527.64
640.888	9505.05
641.241	9418.27
641.594	9508.44
641.947	9443.35
642.301	9381.21
642.654	9424.82
643.007	9431.38
643.36	9389.8
643.713	9398.38
644.066	9399.06
644.419	9352.06
644.771	9254.21
645.124	9225.28
645.477	9230.48
645.83	9138.95
646.182	9152.97
646.535	9070.26
646.888	9059.63
647.24	9021.9
647.593	9045.17
647.945	9056.02
648.298	9011.05
648.65	8988.9
649.002	8965.63
649.355	9028.22
649.707	9036.36
650.059	8974.67
650.411	9119.29
650.763	9080.2
651.115	9164.04
651.467	9237.48
651.819	9150.71
652.171	9185.06
652.523	9123.81
652.875	9127.2
653.227	9070.93
653.578	9194.32
653.93	9094.89
654.282	9112.74
654.633	9030.48
654.985	9060.09
655.337	9119.07
655.688	9116.58
656.039	9137.37
656.391	8993.42
656.742	8993.2
657.094	9044.27
657.445	9073.65
657.796	9052.86
658.147	8990.71
658.498	9018.96
658.849	9139.63
659.2	8986.19
659.551	9073.19
659.902	9004.72
660.253	8992.07
660.604	8991.39
660.955	9039.52
661.306	9023.93
661.656	9014.66
662.007	9048.11
662.358	9012.4
662.708	8991.39
663.059	8952.07
663.409	8883.14
663.76	9003.59
664.11	8979.64
664.461	8991.84
664.811	9012.63
665.161	8945.06
665.511	8924.5
665.862	8942.35
666.212	8936.7
666.562	8978.28
666.912	8917.27
667.262	8906.42
667.612	8896.25
667.962	8997.26
668.312	8896.48
668.662	8905.51
669.011	8925.17
669.361	8928.34
669.711	8944.38
670.06	8893.99
670.41	8843.37
670.76	8826.19
671.109	8907.77
671.459	8803.37
671.808	8828.68
672.157	8850.15
672.507	8796.59
672.856	8811.28
673.205	8847.66
673.554	8856.93
673.904	8759.3
674.253	8813.31
674.602	8835.69
674.951	8708.01
675.3	8669.36
675.649	8805.63
675.998	8789.36
676.346	8799.08
676.695	8826.65
677.044	8710.94
677.393	8828.68
677.741	8756.82
678.09	8741
678.438	8804.05
678.787	8768.79
679.135	8698.74
679.484	8693.77
679.832	8663.49
680.181	8656.48
680.529	8666.2
680.877	8622.81
681.225	8676.59
681.573	8698.97
681.922	8633.43
682.27	8658.29
682.618	8615.58
682.966	8528.35
683.314	8594.79
683.661	8550.72
684.009	8540.33
684.357	8523.83
684.705	8511.17
685.053	8509.37
685.4	8517.5
685.748	8380.1
686.095	8416.71
686.443	8415.81
686.79	8358.86
687.138	8478.86
687.485	8437.28
687.832	8355.7
688.18	8359.54
688.527	8342.82
688.874	8297.85
689.221	8288.81
689.568	8251.75
689.915	8292.88
690.262	8330.84
690.609	8235.48
690.956	8218.3
691.303	8177.17
691.65	8191.18
691.997	8152.54
692.344	8119.32
692.69	8087.23
693.037	8113.67
693.383	8065.76
693.73	8005.65
694.077	8046.78
694.423	8031.87
694.769	7989.15
695.116	7962.04
695.462	7928.36
695.808	7978.08
696.155	7950.51
696.501	7911.64
696.847	7858.08
697.193	7816.5
697.539	7869.61
697.885	7794.13
698.231	7793.23
698.577	7720.01
698.923	7806.33
699.269	7750.29
699.614	7661.93
699.96	7708.71
700.306	7674.81
700.651	7710.97
700.997	7650.18
701.342	7669.61
701.688	7680.69
702.033	7608.37
702.379	7591.88
702.724	7553.91
703.069	7546.91
703.415	7510.07
703.76	7455.38
704.105	7497.19
704.45	7447.25
704.795	7466.23
705.14	7413.12
705.485	7407.93
705.83	7320.7
706.175	7400.92
706.52	7380.13
706.865	7339.91
707.209	7298.1
707.554	7291.55
707.899	7258.55
708.243	7208.61
708.588	7214.94
708.932	7197.31
709.277	7247.25
709.621	7248.38
709.966	7162.74
710.31	7235.73
710.654	7096.3
710.998	7163.64
711.342	7152.79
711.687	7134.71
712.031	7063.75
712.375	7070.99
712.719	7047.48
713.063	7073.25
713.407	7107.14
713.75	7057.88
714.094	7029.63
714.438	7045.9
714.782	7042.29
715.125	6954.38
715.469	6963.42
715.812	6902.4
716.156	6943.31
716.499	6904.44
716.843	6897.66
717.186	6917.77
717.53	6910.76
717.873	6957.77
718.216	6916.19
718.559	6830.99
718.902	6805
719.246	6827.83
719.589	6806.59
719.932	6838.22
720.275	6768.62
720.617	6823.76
720.96	6752.8
721.303	6816.08
721.646	6744.44
721.989	6747.61
722.331	6773.82
722.674	6788.73
723.016	6703.76
723.359	6698.79
723.701	6765.23
724.044	6640.49
724.386	6635.97
724.729	6656.76
725.071	6639.36
725.413	6678.68
725.755	6703.31
726.097	6583.09
726.439	6610.89
726.782	6592.58
727.124	6520.94
727.465	6517.1
727.807	6530.89
728.149	6574.28
728.491	6532.7
728.833	6541.73
729.175	6494.96
729.516	6481.4
729.858	6537.89
730.199	6540.38
730.541	6512.36
730.882	6432.36
731.224	6489.31
731.565	6466.26
731.906	6445.92
732.248	6431.46
732.589	6381.06
732.93	6414.51
733.271	6393.49
733.612	6373.38
733.953	6374.96
734.294	6351.91
734.635	6363.43
734.976	6357.11
735.317	6302.87
735.658	6349.65
735.999	6364.79
736.339	6335.64
736.68	6368.41
737.021	6316.43
737.361	6262.19
737.702	6330.89
738.042	6289.31
738.383	6240.05
738.723	6246.15
739.063	6231.69
739.404	6255.64
739.744	6239.82
740.084	6261.29
740.424	6257.67
740.764	6184.68
741.104	6191.01
741.444	6139.26
741.784	6163.89
742.124	6200.95
742.464	6161.41
742.804	6230.1
743.143	6141.07
743.483	6151.69
743.823	6140.16
744.162	6056.1
744.502	6082.09
744.841	6052.93
745.181	6102.42
745.52	6081.18
745.86	6095.19
746.199	6091.35
746.538	6077.34
746.877	6066.49
747.216	6071.69
747.556	6059.26
747.895	6028.08
748.234	6012.94
748.573	5962.54
748.911	5999.83
749.25	6008.87
749.589	5922.99
749.928	5922.09
750.267	5958.93
750.605	5913.28
750.944	5934.07
751.283	5862.43
751.621	5918.02
751.96	5885.48
752.298	5886.38
752.636	5870.34
752.975	5814.97
753.313	5803.9
753.651	5798.93
753.989	5862.2
754.327	5803.45
754.666	5785.82
755.004	5766.16
755.342	5758.93
755.679	5762.55
756.017	5782.43
756.355	5694.53
756.693	5688.42
757.031	5704.47
757.368	5647.3
757.706	5704.02
758.044	5688.2
758.381	5693.62
758.719	5643.45
759.056	5660.18
759.394	5630.35
759.731	5617.92
760.068	5592.83
760.405	5582.66
760.743	5549.9
761.08	5527.07
761.417	5525.49
761.754	5537.47
762.091	5501.76
762.428	5479.84
762.765	5465.83
763.102	5443.68
763.438	5433.52
763.775	5450.92
764.112	5437.13
764.449	5431.93
764.785	5383.12
765.122	5386.74
765.458	5340.86
765.795	5265.16
766.131	5286.63
766.467	5315.55
766.804	5293.41
767.14	5276.91
767.476	5262.67
767.812	5215.89
768.148	5259.28
768.485	5229.45
768.821	5202.33
769.157	5204.14
769.492	5203.92
769.828	5214.31
770.164	5119.17
770.5	5130.92
770.836	5059.97
771.171	5073.3
771.507	5038.72
771.842	5041.44
772.178	5024.49
772.513	5003.47
772.849	5026.52
773.184	5010.48
773.519	4995.33
773.855	4923.25
774.19	4900.42
774.525	4887.77
774.86	4915.56
775.195	4911.27
775.53	4901.55
775.865	4867.43
776.2	4828.33
776.535	4825.62
776.87	4812.74
777.205	4819.97
777.539	4769.13
777.874	4725.51
778.209	4751.27
778.543	4698.85
778.878	4663.37
779.212	4676.47
779.547	4627.21
779.881	4649.81
780.215	4673.76
780.55	4649.36
780.884	4617.72
781.218	4606.64
781.552	4620.2
781.886	4577.94
782.22	4593.31
782.554	4520.54
782.888	4535.23
783.222	4466.54
783.556	4454.78
783.889	4464.05
784.223	4456.37
784.557	4410.04
784.89	4430.6
785.224	4407.1
785.557	4395.35
785.891	4406.88
786.224	4316.48
786.558	4353.54
786.891	4341.34
787.224	4313.54
787.557	4308.57
787.891	4292.75
788.224	4290.95
788.557	4267.67
788.89	4198.52
789.223	4243.04
789.556	4258.18
789.888	4213.89
790.221	4239.65
790.554	4167.33
790.887	4169.59
791.219	4196.26
791.552	4191.74
791.884	4129.59
792.217	4148.58
792.549	4108.35
792.882	4115.36
793.214	4108.13
793.546	4067
793.879	4041.69
794.211	4036.49
794.543	4037.62
794.875	4024.96
795.207	4043.04
795.539	3984.06
795.871	4048.02
796.203	3968.92
796.535	3921.69
796.867	3965.53
797.198	4014.34
797.53	3973.44
797.862	3908.58
798.193	3914.46
798.525	3863.39
798.856	3904.97
799.188	3875.82
799.519	3857.29
799.85	3850.51
800.182	3829.72
800.513	3883.05
800.844	3785.88
801.175	3790.62
801.506	3783.16
801.837	3803.73
802.168	3758.08
802.499	3746.1
802.83	3736.61
803.161	3753.11
803.491	3758.08
803.822	3765.76
804.153	3728.48
804.483	3668.36
804.814	3691.41
805.145	3649.16
805.475	3660.45
805.805	3640.79
806.136	3661.36
806.466	3643.51
806.796	3636.73
807.126	3649.83
807.457	3617.52
807.787	3602.15
808.117	3581.81
808.447	3577.07
808.777	3625.65
809.107	3604.64
809.436	3583.62
809.766	3596.73
810.096	3546.79
810.426	3544.75
810.755	3535.49
811.085	3516.96
811.414	3521.93
811.744	3503.85
812.073	3483.51
812.403	3527.35
812.732	3489.84
813.061	3481.48
813.39	3409.61
813.719	3467.69
814.049	3488.71
814.378	3443.74
814.707	3465.43
815.036	3431.99
815.365	3450.06
815.693	3395.83
816.022	3406.45
816.351	3406.68
816.68	3411.65
817.008	3385.66
817.337	3368.03
817.665	3378.43
817.994	3396.28
818.322	3355.38
818.651	3339.33
818.979	3376.17
819.307	3342.72
819.636	3322.38
819.964	3361.71
820.292	3342.04
820.62	3338.43
820.948	3308.83
821.276	3297.07
821.604	3300.92
821.932	3309.73
822.259	3310.86
822.587	3278.54
822.915	3287.58
823.243	3322.16
823.57	3278.54
823.898	3309.28
824.225	3246
824.553	3245.32
824.88	3262.5
825.207	3258.43
825.535	3298.88
825.862	3299.56
826.189	3284.65
826.516	3305.21
826.843	3310.41
827.17	3284.42
827.497	3318.54
827.824	3249.39
828.151	3320.58
828.478	3276.06
828.805	3301.59
829.131	3297.53
829.458	3273.8
829.785	3243.06
830.111	3294.36
830.438	3275.38
830.764	3283.06
831.09	3308.37
831.417	3258.88
831.743	3258.43
832.069	3247.13
832.395	3243.97
832.722	3248.49
833.048	3264.98
833.374	3277.64
833.7	3223.4
834.026	3215.27
834.351	3280.13
834.677	3259.34
835.003	3266.34
835.329	3243.74
835.654	3286.23
835.98	3248.49
836.306	3259.56
836.631	3263.18
836.956	3296.85
837.282	3264.98
837.607	3191.99
837.932	3210.07
838.258	3230.18
838.583	3191.99
838.908	3164.42
839.233	3273.35
839.558	3183.18
839.883	3183.63
840.208	3150.41
840.533	3140.92
840.858	3189.73
841.182	3144.31
841.507	3153.58
841.832	3124.65
842.156	3144.76
842.481	3114.25
842.805	3129.62
843.13	3162.16
843.454	3110.86
843.778	3104.54
844.103	3086.01
844.427	3099.57
844.751	3097.08
845.075	3065.67
845.399	3072
845.723	3074.26
846.047	3089.17
846.371	3028.83
846.695	3046.91
847.019	3029.74
847.343	3004.65
847.666	3039.68
847.99	2993.13
848.313	2973.69
848.637	2979.79
848.96	2969.85
849.284	2998.33
849.607	2958.1
849.931	2907.48
850.254	2929.4
850.577	2879.23
850.9	2857.09
851.223	2858.89
851.546	2856.41
851.869	2834.04
852.192	2859.57
852.515	2817.54
852.838	2812.79
853.161	2836.97
853.483	2822.74
853.806	2809.18
854.129	2784.32
854.451	2802.85
854.774	2772.34
855.096	2812.12
855.419	2785.22
855.741	2796.07
856.063	2749.07
856.385	2724.66
856.708	2717.2
857.03	2733.93
857.352	2734.15
857.674	2735.06
857.996	2691.21
858.318	2732.57
858.64	2672.23
858.961	2707.26
859.283	2691.21
859.605	2671.1
859.926	2702.74
860.248	2681.05
860.57	2644.66
860.891	2635.4
861.212	2653.7
861.534	2662.97
861.855	2654.61
862.176	2647.37
862.498	2622.74
862.819	2635.17
863.14	2623.42
863.461	2624.1
863.782	2606.7
864.103	2615.74
864.424	2616.41
864.745	2623.42
865.065	2601.27
865.386	2608.5
865.707	2571.67
866.027	2590.88
866.348	2626.13
866.668	2619.35
866.989	2580.71
867.309	2548.39
867.63	2565.12
867.95	2544.1
868.27	2553.37
868.59	2540.71
868.91	2547.94
869.23	2577.55
869.55	2518.34
869.87	2536.42
870.19	2526.47
870.51	2554.95
870.83	2562.18
871.15	2524.67
871.469	2490.32
871.789	2512.91
872.109	2499.81
872.428	2529.86
872.748	2493.71
873.067	2506.13
873.386	2522.41
873.706	2484.21
874.025	2486.93
874.344	2511.11
874.663	2488.51
874.982	2493.93
875.301	2510.2
875.62	2456.42
875.939	2486.93
876.258	2458.9
876.577	2442.18
876.896	2497.32
877.214	2455.51
877.533	2422.07
877.852	2453.25
878.17	2437.89
878.489	2478.11
878.807	2478.56
879.125	2470.43
879.444	2434.95
879.762	2446.25
880.08	2424.78
880.398	2417.32
880.716	2459.13
881.034	2448.51
881.352	2420.26
881.67	2419.58
881.988	2441.73
882.306	2407.15
882.624	2431.11
882.941	2434.5
883.259	2392.92
883.577	2395.63
883.894	2394.5
884.212	2374.39
884.529	2396.98
884.846	2357.66
885.164	2389.53
885.481	2370.55
885.798	2397.66
886.115	2355.18
886.432	2349.98
886.75	2369.42
887.067	2339.36
887.383	2325.35
887.7	2292.13
888.017	2342.75
888.334	2293.48
888.651	2294.39
888.967	2313.6
889.284	2294.61
889.6	2292.58
889.917	2280.15
890.233	2294.84
890.55	2278.12
890.866	2284.45
891.182	2273.82
891.498	2273.37
891.815	2253.26
892.131	2255.52
892.447	2243.32
892.763	2215.29
893.079	2239.02
893.395	2193.6
893.71	2254.16
894.026	2262.53
894.342	2213.49
894.657	2169.87
894.973	2205.35
895.289	2201.28
895.604	2216.42
895.92	2185.92
896.235	2190.89
896.55	2164.9
896.865	2144.56
897.181	2162.41
897.496	2156.77
897.811	2143.43
898.126	2141.17
898.441	2097.78
898.756	2146.82
899.071	2133.04
899.386	2126.26
899.7	2065.92
900.015	2122.19
900.33	2087.16
900.644	2078.58
900.959	2084
901.273	2055.07
901.588	2049.42
901.902	2034.06
902.216	2079.93
902.531	2053.27
902.845	2034.28
903.159	2065.02
903.473	2006.71
903.787	1992.02
904.101	2015.75
904.415	1999.03
904.729	1987.05
905.042	1992.7
905.356	1982.98
905.67	1974.85
905.984	1977.34
906.297	1966.04
906.611	1978.24
906.924	1979.14
907.237	1949.99
907.551	1918.58
907.864	1954.51
908.177	1950.22
908.491	1911.57
908.804	1920.16
909.117	1937.11
909.43	1915.19
909.743	1909.77
910.056	1914.51
910.368	1935.3
910.681	1873.61
910.994	1877.9
911.307	1860.73
911.619	1882.42
911.932	1850.33
912.244	1827.96
912.557	1861.63
912.869	1853.04
913.181	1828.41
913.494	1841.07
913.806	1830.9
914.118	1803.1
914.43	1786.61
914.742	1824.8
915.054	1806.27
915.366	1794.51
915.678	1801.97
915.99	1779.83
916.302	1769.43
916.613	1758.58
916.925	1793.84
917.236	1751.58
917.548	1756.32
917.859	1756.32
918.171	1752.71
918.482	1739.38
918.794	1761.3
919.105	1753.84
919.416	1733.27
919.727	1731.47
920.038	1707.96
920.349	1714.07
920.66	1703.9
920.971	1702.09
921.282	1683.78
921.593	1675.2
921.903	1689.43
922.214	1680.17
922.525	1681.07
922.835	1664.35
923.146	1648.08
923.456	1664.57
923.767	1636.55
924.077	1615.99
924.387	1618.47
924.697	1643.33
925.008	1643.56
925.318	1630.9
925.628	1610.79
925.938	1590.23
926.248	1584.35
926.558	1593.16
926.867	1587.06
927.177	1590.23
927.487	1579.61
927.796	1548.42
928.106	1592.26
928.416	1568.53
928.725	1566.05
929.034	1557.91
929.344	1509.55
929.653	1540.96
929.962	1543.9
930.271	1537.35
930.581	1516.56
930.89	1503.22
931.199	1485.14
931.508	1496.9
931.817	1496.9
932.125	1477.69
932.434	1490.12
932.743	1498.25
933.051	1516.78
933.36	1473.39
933.669	1463.9
933.977	1486.95
934.286	1455.31
934.594	1462.32
934.902	1472.26
935.21	1436.11
935.519	1432.72
935.827	1437.24
936.135	1400.4
936.443	1418.93
936.751	1423.68
937.059	1419.84
937.367	1384.81
937.674	1403.34
937.982	1409.44
938.29	1381.87
938.597	1396.11
938.905	1381.87
939.213	1378.48
939.52	1374.86
939.827	1390.91
940.135	1365.37
940.442	1339.61
940.749	1360.85
941.056	1362.21
941.363	1334.41
941.67	1349.33
941.977	1337.13
942.284	1358.82
942.591	1327.63
942.898	1331.93
943.205	1350.68
943.511	1326.96
943.818	1302.55
944.125	1307.3
944.431	1283.12
944.738	1295.77
945.044	1313.17
945.35	1303.91
945.657	1287.18
945.963	1286.05
946.269	1264.13
946.575	1270.46
946.881	1270.46
947.187	1263.68
947.493	1265.26
947.799	1244.7
948.105	1273.4
948.41	1233.63
948.716	1254.87
949.022	1249.67
949.327	1246.51
949.633	1228.65
949.938	1223
950.244	1253.06
950.549	1222.55
950.854	1241.08
951.16	1225.72
951.465	1223
951.77	1193.63
952.075	1192.27
952.38	1179.62
952.685	1176.9
952.99	1205.38
953.294	1158.83
953.599	1197.92
953.904	1182.33
954.209	1145.04
954.513	1184.14
954.818	1141.42
955.122	1143.91
955.426	1155.89
955.731	1139.16
956.035	1155.89
956.339	1141.65
956.643	1140.29
956.948	1125.15
957.252	1121.54
957.556	1147.07
957.86	1134.65
958.163	1138.49
958.467	1108.66
958.771	1123.57
959.075	1093.29
959.378	1105.04
959.682	1098.71
959.985	1116.79
960.289	1095.78
960.592	1087.87
960.896	1085.38
961.199	1073.63
961.502	1083.12
961.805	1101.2
962.108	1052.84
962.411	1084.7
962.714	1070.47
963.017	1065.95
963.32	1062.33
963.623	1076.57
963.926	1047.42
964.228	1044.48
964.531	1037.7
964.833	1033.86
965.136	1035.44
965.438	1036.57
965.741	1027.3
966.043	1051.71
966.345	1020.52
966.648	1043.12
966.95	1041.09
967.252	1014.2
967.554	1033.41
967.856	999.73
968.158	992.73
968.46	1015.55
968.761	996.57
969.063	981.43
969.365	1008.77
969.666	1005.61
969.968	994.54
970.269	1003.12
970.571	1007.42
970.872	990.92
971.174	971.26
971.475	965.38
971.776	983.91
972.077	969.68
972.378	949.79
972.679	986.63
972.98	941.2
973.281	961.32
973.582	946.18
973.883	973.07
974.183	952.5
974.484	977.36
974.785	942.56
975.085	929.45
975.386	944.59
975.686	932.84
975.986	914.76
976.287	943.69
976.587	928.78
976.887	920.41
977.187	937.81
977.487	939.62
977.787	944.37
978.087	930.58
978.387	895.1
978.687	899.62
978.987	900.53
979.286	910.24
979.586	889
979.885	888.32
980.185	877.48
980.484	880.19
980.784	874.77
981.083	884.03
981.382	884.26
981.682	877.7
981.981	867.08
982.28	888.78
982.579	863.01
982.878	878.61
983.177	872.73
983.475	851.71
983.774	855.56
984.073	853.75
984.372	831.15
984.67	836.57
984.969	863.01
985.267	843.35
985.566	849.91
985.864	831.83
986.162	841.32
986.461	845.61
986.759	866.63
987.057	838.61
987.355	822.56
987.653	827.31
987.951	826.18
988.249	831.83
988.547	811.94
988.844	827.53
989.142	808.78
989.44	812.39
989.737	795.67
990.035	805.39
990.332	821.21
990.63	781.43
990.927	805.61
991.224	776.01
991.521	792.06
991.819	785.05
992.116	792.51
992.413	773.3
992.71	779.85
993.006	761.32
993.303	785.95
993.6	799.51
993.897	753.41
994.193	791.83
994.49	752.28
994.787	780.76
995.083	765.16
995.379	754.32
995.676	752.96
995.972	757.48
996.268	755.45
996.565	758.61
996.861	737.82
997.157	758.16
997.453	729.23
997.749	737.14
998.044	740.08
998.34	741.44
998.636	743.24
998.932	734.2
999.227	724.71
999.523	731.27
999.818	743.02
1000.114	726.07
1000.409	689.91
1000.704	718.16
1001	700.31
1001.295	712.96
1001.59	717.71
1001.885	724.71
1002.18	716.13
1002.475	685.62
1002.77	711.61
1003.065	709.35
1003.359	726.52
1003.654	694.66
1003.949	715.45
1004.243	694.88
1004.538	669.8
1004.832	692.85
1005.127	692.17
1005.421	667.54
1005.715	670.7
1006.009	681.32
1006.304	681.78
1006.598	670.25
1006.892	664.6
1007.186	662.57
1007.48	658.5
1007.773	667.09
1008.067	666.18
1008.361	653.53
1008.655	663.02
1008.948	639.07
1009.242	663.92
1009.535	653.53
1009.829	660.53
1010.122	672.74
1010.415	660.08
1010.708	616.01
1011.001	639.97
1011.295	630.93
1011.588	646.3
1011.881	600.2
1012.173	625.96
1012.466	632.29
1012.759	611.72
1013.052	630.48
1013.344	625.05
1013.637	628.44
1013.93	620.08
1014.222	619.86
1014.514	622.34
1014.807	616.92
1015.099	614.66
1015.391	604.26
1015.683	611.04
1015.976	594.77
1016.268	594.55
1016.56	596.81
1016.851	600.42
1017.143	584.15
1017.435	603.59
1017.727	588.22
1018.018	567.65
1018.31	570.37
1018.602	585.73
1018.893	572.17
1019.185	590.03
1019.476	585.73
1019.767	579.86
1020.058	600.2
1020.35	574.43
1020.641	565.62
1020.932	585.96
1021.223	600.2
1021.514	572.85
1021.804	574.89
1022.095	578.95
1022.386	544.15
1022.677	558.84
1022.967	553.87
1023.258	562.46
1023.548	534.66
1023.839	558.16
1024.129	563.59
1024.419	538.95
1024.709	517.26
1025	548.45
1025.29	548.67
1025.58	539.41
1025.87	544.15
1026.16	525.62
1026.449	535.34
1026.739	521.1
1027.029	536.24
1027.319	508.67
1027.608	514.77
1027.898	508.9
1028.187	502.35
1028.477	532.4
1028.766	556.58
1029.055	513.19
1029.344	499.63
1029.634	520.88
1029.923	498.73
1030.212	502.35
1030.501	502.8
1030.79	508.67
1031.078	503.25
1031.367	505.51
1031.656	516.81
1031.945	500.76
1032.233	493.31
1032.522	502.57
1032.81	493.53
1033.099	489.92
1033.387	486.53
1033.675	505.74
1033.963	507.09
1034.251	500.54
1034.54	479.07
1034.828	480.88
1035.116	477.49
1035.403	493.53
1035.691	478.84
1035.979	473.19
1036.267	498.05
1036.554	483.59
1036.842	478.62
1037.129	490.37
1037.417	484.49
1037.704	470.48
1037.992	475.91
1038.279	476.13
1038.566	473.65
1038.853	473.65
1039.14	473.65
