Data from black_metal_pc_casing_FLMS001491_00012.txt Node
Date: Wed Feb 08 14:32:02 GMT 2017
User: dcchb
Spectrometer: FLMS00149
Trigger mode: 0
Integration Time (sec): 2.000000E-2
Scans to average: 10
Electric dark correction enabled: true
Nonlinearity correction enabled: false
Boxcar width: 0
XAxis mode: Wavelengths
Number of Pixels in Spectrum: 2048
>>>>>Begin Spectral Data<<<<<
341.393	-4.28
341.776	-4.28
342.16	-4.28
342.543	-66.65
342.927	-48.8
343.31	-71.4
343.693	-41.57
344.077	-75.92
344.46	-69.36
344.843	-48.35
345.226	-43.37
345.61	-28.91
345.993	-26.88
346.376	-7.9
346.759	6.57
347.142	30.07
347.525	39.34
347.908	77.53
348.291	76.85
348.674	81.82
349.057	101.48
349.44	130.86
349.823	160.01
350.206	167.69
350.588	190.29
350.971	188.26
351.354	223.06
351.737	218.31
352.119	233.23
352.502	238.43
352.884	245.88
353.267	272.78
353.65	257.86
354.032	273.91
354.414	279.78
354.797	295.6
355.179	295.15
355.562	308.03
355.944	304.19
356.326	338.76
356.709	312.32
357.091	307.12
357.473	332.43
357.855	329.05
358.238	315.71
358.62	309.61
359.002	325.43
359.384	306.45
359.766	326.79
360.148	325.2
360.53	309.16
360.912	336.95
361.294	313.9
361.676	314.13
362.057	315.71
362.439	308.93
362.821	321.81
363.203	312.32
363.584	328.37
363.966	316.84
364.348	302.15
364.729	297.41
365.111	318.2
365.493	318.65
365.874	318.42
366.256	310.29
366.637	291.76
367.019	311.87
367.4	308.93
367.781	285.66
368.163	289.95
368.544	301.93
368.925	296.28
369.306	307.8
369.688	293.57
370.069	308.93
370.45	314.81
370.831	306.22
371.212	313.45
371.593	318.2
371.974	305.77
372.355	311.19
372.736	297.86
373.117	292.89
373.498	302.61
373.879	292.89
374.26	315.03
374.641	299.22
375.021	276.17
375.402	327.69
375.783	331.98
376.163	319.55
376.544	334.47
376.925	304.19
377.305	320.91
377.686	296.5
378.066	321.36
378.447	331.98
378.827	326.33
379.208	319.78
379.588	327.46
379.968	320.46
380.349	330.17
380.729	310.74
381.109	330.63
381.489	329.5
381.87	336.95
382.25	324.75
382.63	331.53
383.01	316.39
383.39	306.22
383.77	347.8
384.15	323.62
384.53	348.71
384.91	336.95
385.29	336.28
385.67	329.27
386.049	345.54
386.429	358.2
386.809	331.76
387.189	341.02
387.568	343.06
387.948	340.57
388.328	352.77
388.707	360
389.087	341.93
389.466	315.94
389.846	370.63
390.225	352.77
390.605	360.91
390.984	346.22
391.363	357.52
391.743	355.03
392.122	357.29
392.501	375.37
392.881	383.05
393.26	355.49
393.639	375.37
394.018	358.65
394.397	361.36
394.776	362.04
395.155	377.86
395.534	374.92
395.913	376.5
396.292	388.25
396.671	373.11
397.05	374.69
397.429	384.41
397.808	378.31
398.186	389.61
398.565	373.56
398.944	377.86
399.323	390.74
399.701	385.54
400.08	386.22
400.458	368.37
400.837	400.46
401.215	405.65
401.594	372.66
401.972	412.43
402.351	415.14
402.729	382.6
403.107	403.62
403.486	429.83
403.864	390.29
404.242	420.12
404.62	415.6
404.999	426.44
405.377	402.49
405.755	423.51
406.133	421.7
406.511	414.69
406.889	426.44
407.267	421.02
407.645	427.57
408.023	434.8
408.401	443.39
408.779	430.29
409.156	422.83
409.534	416.5
409.912	449.72
410.29	464.63
410.667	448.59
411.045	450.85
411.422	469.61
411.8	475.03
412.178	461.7
412.555	476.39
412.933	468.25
413.31	471.19
413.687	487.46
414.065	477.74
414.442	481.81
414.819	491.98
415.197	489.49
415.574	488.59
415.951	492.66
416.328	474.58
416.705	505.76
417.082	492.88
417.46	506.67
417.837	517.06
418.214	496.05
418.591	515.71
418.967	503.73
419.344	531.53
419.721	510.06
420.098	545.54
420.475	524.52
420.852	520.9
421.228	528.59
421.605	528.59
421.982	519.32
422.358	526.78
422.735	555.93
423.111	568.36
423.488	566.1
423.864	550.73
424.241	559.55
424.617	556.16
424.994	561.58
425.37	558.19
425.746	570.62
426.123	584.18
426.499	567.91
426.875	592.31
427.251	587.57
427.627	584.41
428.003	602.94
428.379	607.46
428.756	594.8
429.132	627.12
429.507	625.99
429.883	617.63
430.259	618.75
430.635	636.16
431.011	646.32
431.387	652.65
431.763	643.84
432.138	610.62
432.514	680.22
432.89	650.17
433.265	651.07
433.641	667.34
434.016	675.02
434.392	667.34
434.767	685.19
435.143	708.47
435.518	706.89
435.894	724.97
436.269	696.94
436.644	708.92
437.02	718.41
437.395	719.54
437.77	740.56
438.145	729.94
438.52	738.53
438.895	755.25
439.271	752.99
439.646	775.81
440.021	776.72
440.395	765.42
440.77	759.54
441.145	769.49
441.52	767.9
441.895	791.41
442.27	789.37
442.645	795.7
443.019	787.79
443.394	791.18
443.769	808.13
444.143	785.76
444.518	799.09
444.892	797.73
445.267	824.4
445.641	837.73
446.016	833.66
446.39	832.99
446.764	849.94
447.139	831.18
447.513	848.13
447.887	850.61
448.262	855.58
448.636	852.87
449.01	841.8
449.384	864.85
449.758	866.43
450.132	866.88
450.506	882.93
450.88	898.07
451.254	872.99
451.628	900.56
452.002	912.08
452.376	922.93
452.75	922.48
453.123	908.24
453.497	945.98
453.871	935.58
454.244	964.51
454.618	972.87
454.992	974.68
455.365	978.07
455.739	992.98
456.112	987.11
456.486	1009.48
456.859	985.75
457.232	1025.07
457.606	1032.76
457.979	1022.59
458.352	1064.39
458.725	1061.91
459.099	1061.46
459.472	1048.12
459.845	1086.31
460.218	1122.92
460.591	1116.82
460.964	1090.15
461.337	1147.55
461.71	1160.44
462.083	1157.27
462.456	1145.29
462.829	1152.53
463.201	1152.53
463.574	1164.5
463.947	1187.33
464.32	1202.24
464.692	1218.06
465.065	1237.72
465.438	1234.11
465.81	1260.55
466.183	1238.85
466.555	1273.43
466.928	1301.67
467.3	1285.18
467.672	1316.36
468.045	1358.85
468.417	1345.29
468.789	1375.57
469.161	1373.99
469.534	1376.25
469.906	1407.89
470.278	1440.43
470.65	1431.61
471.022	1445.4
471.394	1481.11
471.766	1474.78
472.138	1521.1
472.51	1520.65
472.882	1550.71
473.253	1549.35
473.625	1590.03
473.997	1613.76
474.369	1627.99
474.74	1646.3
475.112	1677.03
475.484	1697.14
475.855	1717.26
476.227	1712.51
476.598	1753.41
476.97	1798.61
477.341	1811.94
477.713	1824.15
478.084	1827.76
478.455	1887.2
478.827	1904.14
479.198	1923.35
479.569	1931.04
479.94	1995.44
480.311	2033.41
480.682	2034.76
481.053	2102.78
481.424	2100.3
481.795	2119.73
482.166	2134.65
482.537	2182.33
482.908	2218.71
483.279	2249.67
483.65	2255.1
484.021	2344.59
484.391	2364.7
484.762	2334.87
485.133	2382.1
485.503	2396.11
485.874	2458.25
486.244	2474.07
486.615	2471.36
486.985	2514.52
487.356	2561.75
487.726	2638.81
488.097	2665.03
488.467	2661.64
488.837	2716.33
489.207	2720.39
489.578	2763.56
489.948	2792.48
490.318	2846.94
490.688	2811.24
491.058	2865.7
491.428	2923.78
491.798	2924.46
492.168	2987.96
492.538	2988.86
492.908	3032.7
493.278	3074.96
493.648	3093.27
494.017	3128.29
494.387	3165.13
494.757	3133.94
495.126	3178.69
495.496	3205.58
495.866	3216.2
496.235	3269.31
496.605	3312.24
496.974	3308.4
497.344	3312.92
497.713	3345.01
498.082	3419.59
498.452	3402.64
498.821	3418.23
499.19	3441.51
499.559	3410.77
499.928	3514.95
500.298	3512.69
500.667	3577.1
501.036	3508.17
501.405	3581.39
501.774	3589.75
502.143	3615.29
502.512	3654.61
502.88	3647.15
503.249	3658.67
503.618	3739.12
503.987	3754.72
504.356	3776.64
504.724	3761.95
505.093	3761.95
505.462	3765.79
505.83	3800.59
506.199	3863.19
506.567	3924.88
506.936	3891.21
507.304	3966.46
507.672	3997.88
508.041	4012.79
508.409	4011.66
508.777	4043.07
509.145	4076.52
509.514	4073.81
509.882	4114.93
510.25	4140.24
510.618	4176.4
510.986	4229.28
511.354	4186.8
511.722	4236.96
512.09	4272.67
512.458	4244.65
512.826	4310.86
513.193	4375.72
513.561	4350.41
513.929	4408.49
514.297	4444.87
514.664	4470.18
515.032	4446.45
515.4	4517.86
515.767	4559.89
516.135	4558.76
516.502	4565.09
516.869	4619.33
517.237	4644.64
517.604	4644.41
517.972	4706.56
518.339	4728.7
518.706	4711.08
519.073	4749.49
519.44	4817.29
519.808	4891.41
520.175	4902.26
520.542	4918.98
520.909	4954.01
521.276	4986.32
521.643	5018.41
522.009	5057.73
522.376	5125.08
522.743	5107.45
523.11	5196.04
523.477	5217.5
523.843	5252.76
524.21	5255.92
524.577	5302.02
524.943	5295.69
525.31	5371.85
525.676	5436.26
526.043	5451.4
526.409	5542.69
526.776	5573.2
527.142	5550.38
527.508	5596.93
527.874	5687.32
528.241	5667.89
528.607	5713.08
528.973	5730.94
529.339	5738.85
529.705	5796.7
530.071	5883.25
530.437	5893.42
530.803	5905.17
531.169	5947.65
531.535	5975.45
531.901	5969.12
532.267	5996.24
532.632	6014.09
532.998	6039.86
533.364	6129.12
533.73	6101.32
534.095	6171.15
534.461	6193.07
534.826	6210.25
535.192	6244.14
535.557	6252.73
535.923	6323.92
536.288	6352.62
536.653	6316.91
537.019	6376.8
537.384	6360.75
537.749	6367.08
538.114	6429.45
538.479	6453.86
538.845	6420.86
539.21	6453.18
539.575	6459.51
539.94	6544.02
540.305	6567.07
540.67	6584.7
541.034	6593.74
541.399	6568.65
541.764	6655.88
542.129	6726.16
542.494	6690.46
542.858	6703.34
543.223	6734.3
543.587	6748.99
543.952	6727.07
544.316	6802.77
544.681	6853.39
545.045	6817.69
545.41	6819.95
545.774	6908.99
546.138	6945.82
546.503	6918.02
546.867	6945.59
547.231	6995.54
547.595	6959.38
547.959	6977.46
548.324	7054.52
548.688	7036.89
549.052	7078.02
549.416	7097.23
549.779	7175.87
550.143	7166.61
550.507	7254.06
550.871	7222.2
551.235	7228.07
551.599	7272.14
551.962	7310.56
552.326	7297.9
552.689	7365.47
553.053	7380.16
553.417	7385.81
553.78	7422.42
554.143	7434.39
554.507	7427.84
554.87	7487.5
555.234	7590.55
555.597	7475.98
555.96	7535.64
556.323	7619.25
556.686	7602.98
557.05	7688.4
557.413	7673.48
557.776	7647.27
558.139	7802.07
558.502	7722.97
558.865	7820.37
559.228	7786.25
559.59	7891.56
559.953	7919.35
560.316	8021.05
560.679	7994.38
561.041	8045.68
561.404	8058.56
561.767	8154.6
562.129	8150.08
562.492	8174.04
562.854	8178.1
563.217	8201.83
563.579	8270.53
563.941	8335.61
564.304	8371.32
564.666	8427.59
565.028	8372
565.39	8448.38
565.753	8510.75
566.115	8517.3
566.477	8536.29
566.839	8559.56
567.201	8639.11
567.563	8615.15
567.925	8704.19
568.287	8762.27
568.648	8752.78
569.01	8832.78
569.372	8856.96
569.734	8870.74
570.095	8868.26
570.457	8858.09
570.819	8883.17
571.18	8957.07
571.542	9019.89
571.903	8957.07
572.265	9049.04
572.626	9014.01
572.987	9037.52
573.349	9126.55
573.71	9202.71
574.071	9137.4
574.432	9193.44
574.794	9205.87
575.155	9263.5
575.516	9211.98
575.877	9237.96
576.238	9191.64
576.599	9234.12
576.96	9373.33
577.32	9339.43
577.681	9378.52
578.042	9455.13
578.403	9371.07
578.763	9381.91
579.124	9388.24
579.485	9477.96
579.845	9461.46
580.206	9439.31
580.566	9414.68
580.927	9439.09
581.287	9496.71
581.648	9499.88
582.008	9489.71
582.368	9468.47
582.728	9581.91
583.089	9515.47
583.449	9556.6
583.809	9549.37
584.169	9528.58
584.529	9565.64
584.889	9597.5
585.249	9547.11
585.609	9533.77
585.969	9541.68
586.329	9522.7
586.688	9583.49
587.048	9568.35
587.408	9563.15
587.768	9529.93
588.127	9569.71
588.487	9558.86
588.846	9600.21
589.206	9557.05
589.565	9528.8
589.925	9603.15
590.284	9589.82
590.643	9574.45
591.003	9609.93
591.362	9675.47
591.721	9634.34
592.08	9602.7
592.44	9623.94
592.799	9632.3
593.158	9643.83
593.517	9659.87
593.876	9694.22
594.235	9557.5
594.593	9595.02
594.952	9610.38
595.311	9629.14
595.67	9712.75
596.029	9712.98
596.387	9690.61
596.746	9762.47
597.104	9684.05
597.463	9724.96
597.822	9760.66
598.18	9631.85
598.538	9690.38
598.897	9683.15
599.255	9684.28
599.613	9768.8
599.972	9710.27
600.33	9714.33
600.688	9718.18
601.046	9816.48
601.404	9850.6
601.762	9743.26
602.12	9830.94
602.478	9859.64
602.836	9884.5
603.194	9656.71
603.552	9798.63
603.91	9789.81
604.268	9818.29
604.625	9783.03
604.983	9810.6
605.341	9861.68
605.698	9891.51
606.056	9868.68
606.413	9859.64
606.771	9853.77
607.128	9901.9
607.485	9889.02
607.843	9907.32
608.2	9955.01
608.557	9933.09
608.914	9894.22
609.272	9980.77
609.629	10004.27
609.986	10029.81
610.343	9952.07
610.7	10102.35
611.057	10024.16
611.414	9964.72
611.771	10013.76
612.127	10072.07
612.484	10101.44
612.841	10123.36
613.198	10084.04
613.554	10079.07
613.911	10114.55
614.267	10123.59
614.624	10131.73
614.98	10197.26
615.337	10194.32
615.693	10131.27
616.05	10195.45
616.406	10231.16
616.762	10213.3
617.118	10155.91
617.475	10194.55
617.831	10223.25
618.187	10200.88
618.543	10277.48
618.899	10294.43
619.255	10299.18
619.611	10212.4
619.967	10306.86
620.323	10307.09
620.678	10251.04
621.034	10301.21
621.39	10270.03
621.746	10242
622.101	10387.99
622.457	10320.65
622.812	10278.39
623.168	10339.63
623.523	10355.67
623.879	10376.46
624.234	10275.9
624.589	10290.37
624.945	10326.52
625.3	10359.74
625.655	10305.96
626.01	10361.32
626.365	10348.22
626.72	10365.39
627.075	10261.89
627.43	10300.53
627.785	10293.08
628.14	10331.04
628.495	10317.93
628.85	10291.72
629.205	10263.02
629.559	10344.37
629.914	10235.45
630.269	10267.54
630.623	10281.78
630.978	10214.66
631.332	10270.48
631.687	10330.82
632.041	10230.93
632.396	10295.79
632.75	10242.91
633.104	10262.8
633.459	10195.45
633.813	10173.53
634.167	10149.35
634.521	10066.64
634.875	10183.93
635.229	10162.91
635.583	10120.65
635.937	10122.46
636.291	10155.68
636.645	10141.89
636.999	10031.39
637.352	10063.03
637.706	10001.56
638.06	10020.32
638.413	10044.95
638.767	10010.37
639.121	10043.59
639.474	9983.93
639.828	9954.78
640.181	9952.97
640.534	10009.24
640.888	9952.29
641.241	9897.83
641.594	9964.5
641.947	9963.37
642.301	9933.99
642.654	9959.75
643.007	9943.48
643.36	9935.57
643.713	9832.3
644.066	9905.52
644.419	9853.99
644.771	9742.58
645.124	9673.66
645.477	9665.3
645.83	9591.17
646.182	9591.4
646.535	9572.64
646.888	9487.22
647.24	9524.06
647.593	9523.61
647.945	9470.05
648.298	9528.13
648.65	9491.29
649.002	9364.97
649.355	9454
649.707	9396.83
650.059	9538.07
650.411	9666.65
650.763	9585.07
651.115	9673.43
651.467	9649.7
651.819	9610.38
652.171	9675.24
652.523	9603.38
652.875	9647.44
653.227	9563.15
653.578	9583.26
653.93	9594.56
654.282	9515.92
654.633	9579.2
654.985	9524.96
655.337	9560.44
655.688	9480.67
656.039	9625.75
656.391	9528.35
656.742	9484.96
657.094	9512.31
657.445	9585.52
657.796	9495.58
658.147	9492.65
658.498	9475.02
658.849	9458.3
659.2	9543.72
659.551	9480.22
659.902	9492.42
660.253	9508.92
660.604	9469.37
660.955	9480.67
661.306	9447.45
661.656	9455.36
662.007	9466.43
662.358	9454.91
662.708	9416.94
663.059	9451.07
663.409	9398.86
663.76	9495.58
664.11	9438.64
664.461	9371.97
664.811	9511.85
665.161	9506.66
665.511	9434.79
665.862	9395.93
666.212	9452.87
666.562	9437.05
666.912	9392.08
667.262	9352.54
667.612	9398.19
667.962	9421.91
668.312	9403.83
668.662	9515.47
669.011	9456.26
669.361	9387.56
669.711	9364.29
670.06	9346.66
670.41	9298.98
670.76	9316.61
671.109	9327.45
671.459	9308.47
671.808	9350.28
672.157	9339.88
672.507	9286.78
672.856	9292.88
673.205	9306.66
673.554	9251.3
673.904	9300.33
674.253	9336.49
674.602	9312.31
674.951	9187.8
675.3	9145.76
675.649	9241.58
675.998	9282.48
676.346	9224.63
676.695	9238.42
677.044	9161.58
677.393	9222.37
677.741	9206.1
678.09	9142.6
678.438	9155.03
678.787	9226.89
679.135	9194.57
679.484	9068.7
679.832	9166.78
680.181	9100.11
680.529	9109.61
680.877	9061.47
681.225	9095.82
681.573	9150.51
681.922	9116.38
682.27	9059.44
682.618	9075.71
682.966	9006.56
683.314	9056.5
683.661	9029.83
684.009	8939.89
684.357	8988.03
684.705	8926.79
685.053	8956.84
685.4	8935.37
685.748	8922.04
686.095	8879.55
686.443	8828.03
686.79	8786.9
687.138	8821.25
687.485	8798.2
687.832	8790.52
688.18	8809.27
688.527	8799.1
688.874	8774.47
689.221	8710.75
689.568	8736.06
689.915	8702.61
690.262	8699.45
690.609	8652.67
690.956	8646.57
691.303	8626.23
691.65	8589.62
691.997	8562.05
692.344	8574.03
692.69	8520.02
693.037	8531.77
693.383	8477.08
693.73	8521.6
694.077	8457.64
694.423	8411.32
694.769	8401.83
695.116	8460.13
695.462	8383.3
695.808	8375.84
696.155	8409.96
696.501	8263.3
696.847	8264.43
697.193	8261.04
697.539	8297.88
697.885	8155.96
698.231	8254.71
698.577	8234.6
698.923	8181.72
699.269	8167.03
699.614	8178.56
699.96	8142.17
700.306	8106.24
700.651	8085
700.997	8023.31
701.342	8033.25
701.688	8035.74
702.033	8000.26
702.379	8023.53
702.724	7963.19
703.069	7958
703.415	7927.04
703.76	7915.96
704.105	7936.98
704.45	7875.06
704.795	7852.91
705.14	7884.1
705.485	7808.4
705.83	7759.58
706.175	7790.32
706.52	7759.13
706.865	7732.47
707.209	7753.26
707.554	7693.82
707.899	7655.86
708.243	7632.58
708.588	7629.87
708.932	7569.98
709.277	7595.97
709.621	7609.98
709.966	7544.22
710.31	7532.02
710.654	7461.06
710.998	7558.23
711.342	7488.18
711.687	7510.78
712.031	7426.94
712.375	7421.29
712.719	7464.45
713.063	7423.55
713.407	7467.84
713.75	7379.26
714.094	7409.76
714.438	7320.73
714.782	7375.41
715.125	7315.53
715.469	7282.08
715.812	7322.99
716.156	7319.14
716.499	7291.8
716.843	7310.78
717.186	7209.09
717.53	7262.87
717.873	7229.2
718.216	7220.62
718.559	7249.77
718.902	7152.59
719.246	7210.45
719.589	7175.42
719.932	7120.05
720.275	7114.4
720.617	7158.7
720.96	7211.8
721.303	7146.49
721.646	7108.98
721.989	7075.53
722.331	7080.96
722.674	7059.72
723.016	7084.57
723.359	7055.87
723.701	7062.65
724.044	7015.42
724.386	6923.9
724.729	6938.59
725.071	6998.47
725.413	7019.04
725.755	7003.22
726.097	6919.83
726.439	6944.01
726.782	6909.66
727.124	6996.44
727.465	6936.55
727.807	6880.74
728.149	6823.56
728.491	6843.9
728.833	6866.95
729.175	6819.5
729.516	6867.63
729.858	6808.65
730.199	6796.45
730.541	6821.3
730.882	6808.42
731.224	6854.98
731.565	6794.19
731.906	6731.36
732.248	6754.64
732.589	6789.44
732.93	6679.61
733.271	6777.01
733.612	6780.63
733.953	6720.97
734.294	6730.91
734.635	6647.97
734.976	6638.94
735.317	6611.14
735.658	6669.67
735.999	6686.17
736.339	6658.82
736.68	6678.03
737.021	6630.35
737.361	6602.1
737.702	6586.28
738.042	6596.9
738.383	6671.48
738.723	6561.65
739.063	6574.53
739.404	6506.51
739.744	6569.56
740.084	6495.66
740.424	6545.83
740.764	6499.73
741.104	6560.75
741.444	6489.34
741.784	6447.98
742.124	6552.16
742.464	6496.57
742.804	6459.28
743.143	6500.86
743.483	6497.02
743.823	6422.44
744.162	6400.3
744.502	6433.29
744.841	6374.99
745.181	6382.45
745.52	6404.59
745.86	6388.09
746.199	6339.28
746.538	6348.32
746.877	6369.34
747.216	6389
747.556	6354.2
747.895	6352.16
748.234	6306.74
748.573	6284.82
748.911	6328.66
749.25	6266.97
749.589	6256.8
749.928	6334.54
750.267	6278.49
750.605	6259.74
750.944	6253.18
751.283	6175.67
751.621	6247.53
751.96	6184.94
752.298	6165.05
752.636	6181.09
752.975	6188.78
753.313	6137.93
753.651	6141.32
753.989	6087.99
754.327	6103.81
754.666	6078.27
755.004	6100.87
755.342	6027.2
755.679	6051.61
756.017	6026.07
756.355	5998.73
756.693	6037.6
757.031	6020.87
757.368	5991.04
757.706	5948.33
758.044	5930.25
758.381	5939.52
758.719	5871.95
759.056	5880.31
759.394	5896.58
759.731	5858.84
760.068	5856.81
760.405	5838.5
760.743	5831.95
761.08	5828.34
761.417	5795.79
761.754	5799.64
762.091	5746.3
762.428	5764.38
762.765	5713.76
763.102	5740.2
763.438	5739.07
763.775	5646.65
764.112	5744.72
764.449	5695.23
764.785	5671.96
765.122	5655.91
765.458	5625.18
765.795	5627.21
766.131	5583.37
766.467	5589.92
766.804	5514.22
767.14	5513.32
767.476	5523.26
767.812	5464.73
768.148	5507.21
768.485	5497.04
768.821	5424.5
769.157	5446.2
769.492	5415.01
769.828	5368.91
770.164	5325.3
770.5	5364.84
770.836	5358.74
771.171	5306.54
771.507	5311.74
771.842	5295.47
772.178	5299.08
772.513	5306.54
772.849	5232.19
773.184	5246.66
773.519	5263.6
773.855	5215.92
774.19	5185.19
774.525	5165.3
774.86	5155.58
775.195	5147.45
775.53	5097.28
775.865	5092.08
776.2	5061.35
776.535	5005.76
776.87	4984.74
777.205	4978.19
777.539	4977.51
777.874	5002.14
778.209	4929.15
778.543	4946.32
778.878	4902.03
779.212	4920.79
779.547	4896.16
779.881	4897.06
780.215	4876.04
780.55	4855.71
780.884	4849.83
781.218	4814.58
781.552	4802.37
781.886	4739.32
782.22	4781.36
782.554	4745.65
782.888	4716.27
783.222	4739.78
783.556	4640.34
783.889	4665.65
784.223	4615.49
784.557	4667.24
784.89	4661.59
785.224	4591.08
785.557	4597.41
785.891	4568.26
786.224	4545.88
786.558	4578.88
786.891	4505.43
787.224	4556.5
787.557	4508.14
787.891	4532.78
788.224	4464.98
788.557	4459.78
788.89	4471.99
789.223	4444.64
789.556	4434.7
789.888	4432.44
790.221	4405.55
790.554	4344.53
790.887	4368.03
791.219	4355.38
791.552	4363.52
791.884	4324.42
792.217	4290.3
792.549	4267.7
792.882	4256.63
793.214	4277.87
793.546	4283.52
793.879	4230.19
794.211	4182.28
794.543	4192.9
794.875	4215.5
795.207	4179.34
795.539	4173.46
795.871	4182.73
796.203	4131.88
796.535	4136.63
796.867	4121.94
797.198	4139.57
797.53	4130.08
797.862	4092.56
798.193	4080.81
798.525	4054.82
798.856	4065.67
799.188	4010.76
799.519	4080.58
799.85	3984.77
800.182	4063.41
800.513	4034.26
800.844	3999.23
801.175	3968.27
801.506	4006.24
801.837	3997.65
802.168	3909.52
802.499	3963.75
802.83	3931.44
803.161	3951.1
803.491	3888.05
803.822	3877.88
804.153	3871.55
804.483	3875.84
804.814	3834.49
805.145	3871.78
805.475	3882.17
805.805	3834.94
806.136	3833.59
806.466	3847.37
806.796	3790.87
807.126	3809.41
807.457	3770.31
807.787	3785.23
808.117	3772.34
808.447	3747.71
808.777	3736.19
809.107	3714.72
809.436	3734.38
809.766	3719.46
810.096	3727.37
810.426	3704.55
810.755	3707.49
811.085	3663.65
811.414	3652.57
811.744	3699.13
812.073	3648.05
812.403	3691.22
812.732	3595.17
813.061	3653.93
813.39	3622.97
813.719	3593.37
814.049	3638.79
814.378	3606.7
814.707	3614.83
815.036	3585
815.365	3568.06
815.693	3527.38
816.022	3546.59
816.351	3529.86
816.68	3523.09
817.008	3528.73
817.337	3483.09
817.665	3514.72
817.994	3513.14
818.322	3509.75
818.651	3498.91
818.979	3443.54
819.307	3482.86
819.636	3470.21
819.964	3509.3
820.292	3515.18
820.62	3444.22
820.948	3448.74
821.276	3459.81
821.604	3452.35
821.932	3474.73
822.259	3401.28
822.587	3430.43
822.915	3436.31
823.243	3430.21
823.57	3438.57
823.898	3455.29
824.225	3432.69
824.553	3466.59
824.88	3412.81
825.207	3396.53
825.535	3429.3
825.862	3406.7
826.189	3415.29
826.516	3429.98
826.843	3485.57
827.17	3436.31
827.497	3448.51
827.824	3429.53
828.151	3446.48
828.478	3418.68
828.805	3431.11
829.131	3453.03
829.458	3441.73
829.785	3429.98
830.111	3421.17
830.438	3417.1
830.764	3396.31
831.09	3430.21
831.417	3402.86
831.743	3432.92
832.069	3399.47
832.395	3355.18
832.722	3389.3
833.048	3399.7
833.374	3385.69
833.7	3371.68
834.026	3380.72
834.351	3364.45
834.677	3343.88
835.003	3389.98
835.329	3322.41
835.654	3361.06
835.98	3357.67
836.306	3365.8
836.631	3405.35
836.956	3343.2
837.282	3363.54
837.607	3332.81
837.932	3347.27
838.258	3324.45
838.583	3357.67
838.908	3305.46
839.233	3316.31
839.558	3292.13
839.883	3282.19
840.208	3314.28
840.533	3339.59
840.858	3291.9
841.182	3299.59
841.507	3284.67
841.832	3280.38
842.156	3287.61
842.481	3243.09
842.805	3264.34
843.13	3259.59
843.454	3242.64
843.778	3286.48
844.103	3237.22
844.427	3225.92
844.751	3216.2
845.075	3252.13
845.399	3284.45
845.723	3217.78
846.047	3213.04
846.371	3174.39
846.695	3152.7
847.019	3161.06
847.343	3116.77
847.666	3158.58
847.99	3124.45
848.313	3118.12
848.637	3112.25
848.96	3094.62
849.284	3128.52
849.607	3043.78
849.931	3091.01
850.254	3033.38
850.577	3006.26
850.9	2991.8
851.223	3025.47
851.546	2991.35
851.869	2974.4
852.192	2987.73
852.515	2967.17
852.838	2959.48
853.161	2969.43
853.483	2926.49
853.806	2938.92
854.129	2910.9
854.451	2924.68
854.774	2906.38
855.096	2879.71
855.419	2921.29
855.741	2857.34
856.063	2861.63
856.385	2861.18
856.708	2814.86
857.03	2819.6
857.352	2816.66
857.674	2857.11
857.996	2839.26
858.318	2794.52
858.64	2823.22
858.961	2806.27
859.283	2797.68
859.605	2769.21
859.926	2818.25
860.248	2786.83
860.57	2783.44
860.891	2761.07
861.212	2741.18
861.534	2768.53
861.855	2754.97
862.176	2778.92
862.498	2756.55
862.819	2714.97
863.14	2694.86
863.461	2703.9
863.782	2724.24
864.103	2748.19
864.424	2710.45
864.745	2742.54
865.065	2714.97
865.386	2691.69
865.707	2685.37
866.027	2717.46
866.348	2680.4
866.668	2710.45
866.989	2677.46
867.309	2630.68
867.63	2644.92
867.95	2670.68
868.27	2646.05
868.59	2644.24
868.91	2640.4
869.23	2651.24
869.55	2644.01
869.87	2629.1
870.19	2644.24
870.51	2647.63
870.83	2624.13
871.15	2581.87
871.469	2646.72
871.789	2659.83
872.109	2625.03
872.428	2556.33
872.748	2626.84
873.067	2614.63
873.386	2621.19
873.706	2614.18
874.025	2598.36
874.344	2599.49
874.663	2589.1
874.982	2570.57
875.301	2584.13
875.62	2545.94
875.939	2584.13
876.258	2541.87
876.577	2573.05
876.896	2570.12
877.214	2550.46
877.533	2552.49
877.852	2556.56
878.17	2568.76
878.489	2557.91
878.807	2566.05
879.125	2517.01
879.444	2523.11
879.762	2520.4
880.08	2536.67
880.398	2500.74
880.716	2501.87
881.034	2500.06
881.352	2515.88
881.67	2491.25
881.988	2497.58
882.306	2485.15
882.624	2472.27
882.941	2485.15
883.259	2455.54
883.577	2464.81
883.894	2459.38
884.212	2451.7
884.529	2496.67
884.846	2454.86
885.164	2427.97
885.481	2401.98
885.798	2461.19
886.115	2408.54
886.432	2440.85
886.75	2407.86
887.067	2424.36
887.383	2413.06
887.7	2411.48
888.017	2415.09
888.334	2406.73
888.651	2354.3
888.967	2394.08
889.284	2392.04
889.6	2380.74
889.917	2336.22
890.233	2386.39
890.55	2370.12
890.866	2356.79
891.182	2334.87
891.498	2339.84
891.815	2329.67
892.131	2298.26
892.447	2304.59
892.763	2300.74
893.079	2297.13
893.395	2284.02
893.71	2282.21
894.026	2290.8
894.342	2312.72
894.657	2273.17
894.973	2254.42
895.289	2248.77
895.604	2258.03
895.92	2270.69
896.235	2242.22
896.55	2250.35
896.865	2281.76
897.181	2256.23
897.496	2249.45
897.811	2215.1
898.126	2208.09
898.441	2213.97
898.756	2197.24
899.071	2187.75
899.386	2175.55
899.7	2158.38
900.015	2194.76
900.33	2147.3
900.644	2166.96
900.959	2157.02
901.273	2135.55
901.588	2143.01
901.902	2148.21
902.216	2133.29
902.531	2140.97
902.845	2115.89
903.159	2101.2
903.473	2081.54
903.787	2091.71
904.101	2067.98
904.415	2088.77
904.729	2081.77
905.042	2062.78
905.356	2069.11
905.67	2070.47
905.984	2060.3
906.297	2040.41
906.611	2009.68
906.924	2037.47
907.237	2016.23
907.551	2001.54
907.864	2040.19
908.177	1983.01
908.491	2002.9
908.804	2009.9
909.117	1977.14
909.43	1984.14
909.743	1957.93
910.056	1975.33
910.368	1948.44
910.681	1943.01
910.994	1934.88
911.307	1912.96
911.619	1924.71
911.932	1932.62
912.244	1919.96
912.557	1919.29
912.869	1886.97
913.181	1873.86
913.494	1874.32
913.806	1865.73
914.118	1882.9
914.43	1831.15
914.742	1859.63
915.054	1863.92
915.366	1855.56
915.678	1809.91
915.99	1838.84
916.302	1830.93
916.613	1807.2
916.925	1836.12
917.236	1831.15
917.548	1792.28
917.859	1816.01
918.171	1811.49
918.482	1770.36
918.794	1775.56
919.105	1752.74
919.416	1771.49
919.727	1771.94
920.038	1743.47
920.349	1743.7
920.66	1777.82
920.971	1722.23
921.282	1750.48
921.593	1722.45
921.903	1732.17
922.214	1724.04
922.525	1679.29
922.835	1702.12
923.146	1683.59
923.456	1696.92
923.767	1703.7
924.077	1671.38
924.387	1672.06
924.697	1691.27
925.008	1670.03
925.318	1643.81
925.628	1655.56
925.938	1636.36
926.248	1638.84
926.558	1662.57
926.867	1632.51
927.177	1604.04
927.487	1594.32
927.796	1594.32
928.106	1606.98
928.416	1637.03
928.725	1614.21
929.034	1595.9
929.344	1555.68
929.653	1574.21
929.962	1555.23
930.271	1569.01
930.581	1571.95
930.89	1535.12
931.199	1534.66
931.508	1520.43
931.817	1578.96
932.125	1525.4
932.434	1534.21
932.743	1525.4
933.051	1500.77
933.36	1510.48
933.669	1494.66
933.977	1527.88
934.286	1522.01
934.594	1502.8
934.902	1469.81
935.21	1487.43
935.519	1512.06
935.827	1472.07
936.135	1448.79
936.443	1458.51
936.751	1464.16
937.059	1472.97
937.367	1446.08
937.674	1446.3
937.982	1431.16
938.29	1436.13
938.597	1434.33
938.905	1424.61
939.213	1429.58
939.52	1429.58
939.827	1421.9
940.135	1395.23
940.442	1413.99
940.749	1387.32
941.056	1382.58
941.363	1372.41
941.67	1366.76
941.977	1351.84
942.284	1361.79
942.591	1380.09
942.898	1334.22
943.205	1328.79
943.511	1338.74
943.818	1368.57
944.125	1331.5
944.431	1317.95
944.738	1352.29
945.044	1324.05
945.35	1313.88
945.657	1316.59
945.963	1319.75
946.269	1312.97
946.575	1301.45
946.881	1315.91
947.187	1308
947.493	1306.19
947.799	1301.45
948.105	1298.74
948.41	1258.29
948.716	1273.43
949.022	1284.95
949.327	1262.35
949.633	1268
949.938	1225.52
950.244	1237.5
950.549	1244.05
950.854	1212.41
951.16	1245.41
951.465	1228.23
951.77	1239.3
952.075	1218.29
952.38	1238.17
952.685	1230.72
952.99	1216.48
953.294	1178.74
953.599	1202.69
953.904	1211.51
954.209	1169.25
954.513	1203.82
954.818	1205.86
955.122	1179.42
955.426	1177.16
955.731	1189.59
956.035	1148.23
956.339	1158.18
956.643	1176.03
956.948	1181.68
957.252	1158.63
957.556	1187.55
957.86	1143.49
958.163	1141.45
958.467	1147.1
958.771	1139.19
959.075	1131.06
959.378	1117.5
959.682	1125.63
959.985	1112.75
960.289	1114.79
960.592	1117.95
960.896	1123.37
961.199	1095.13
961.502	1110.49
961.805	1100.1
962.108	1070.49
962.411	1096.26
962.714	1060.55
963.017	1109.36
963.32	1096.26
963.623	1079.08
963.926	1070.04
964.228	1085.64
964.531	1063.94
964.833	1071.4
965.136	1038.18
965.438	1058.52
965.741	1054.22
966.043	1031.85
966.345	1053.77
966.648	1051.29
966.95	1046.09
967.252	1067.33
967.554	1037.27
967.856	1015.58
968.158	1021.46
968.46	1015.13
968.761	1031.4
969.063	1002.02
969.365	1015.13
969.666	1017.16
969.968	998.63
970.269	1020.78
970.571	998.63
970.872	989.37
971.174	992.53
971.475	987.33
971.776	987.33
972.077	986.43
972.378	1001.34
972.679	972.87
972.98	991.17
973.281	981.23
973.582	959.54
973.883	953.89
974.183	995.02
974.484	939.65
974.785	964.96
975.085	945.3
975.386	970.16
975.686	948.46
975.986	952.08
976.287	946.88
976.587	901.23
976.887	952.31
977.187	918.18
977.487	930.16
977.787	937.84
978.087	932.19
978.387	929.71
978.687	909.37
978.987	927.22
979.286	929.93
979.586	892.65
979.885	916.15
980.185	903.49
980.484	906.2
980.784	911.18
981.083	892.87
981.382	886.32
981.682	892.42
981.981	883.15
982.28	879.09
982.579	889.71
982.878	873.66
983.177	903.49
983.475	886.32
983.774	889.03
984.073	855.36
984.372	871.18
984.67	865.3
984.969	837.73
985.267	866.66
985.566	841.8
985.864	834.79
986.162	871.63
986.461	846.55
986.759	843.38
987.057	828.69
987.355	851.29
987.653	837.96
987.951	855.36
988.249	824.4
988.547	820.33
988.844	858.07
989.142	821.91
989.44	831.86
989.737	838.18
990.035	816.72
990.332	813.33
990.63	807.22
990.927	816.26
991.224	802.25
991.521	799.77
991.819	793.44
992.116	816.04
992.413	803.61
992.71	789.37
993.006	795.47
993.303	795.7
993.6	783.04
993.897	784.63
994.193	788.92
994.49	784.85
994.787	781.91
995.083	776.26
995.379	770.84
995.676	774.23
995.972	755.7
996.268	769.03
996.565	760.67
996.861	784.4
997.157	754.34
997.453	751.41
997.749	746.66
998.044	734.91
998.34	732.65
998.636	736.72
998.932	757.51
999.227	747.34
999.523	725.42
999.818	719.09
1000.114	730.62
1000.409	711.18
1000.704	726.1
1001	719.77
1001.295	716.61
1001.59	706.66
1001.885	713.44
1002.18	703.05
1002.475	720.45
1002.77	699.88
1003.065	706.66
1003.359	715.48
1003.654	686.55
1003.949	697.4
1004.243	695.14
1004.538	666.44
1004.832	691.07
1005.127	669.6
1005.421	698.07
1005.715	671.63
1006.009	671.86
1006.304	684.52
1006.598	693.56
1006.892	681.58
1007.186	664.4
1007.48	669.6
1007.773	665.08
1008.067	673.22
1008.361	632.99
1008.655	645.19
1008.948	663.5
1009.242	646.1
1009.535	646.1
1009.829	649.26
1010.122	645.87
1010.415	635.48
1010.708	645.65
1011.001	640.9
1011.295	645.65
1011.588	630.05
1011.881	612.2
1012.173	644.29
1012.466	627.57
1012.759	641.58
1013.052	629.6
1013.344	633.67
1013.637	618.3
1013.93	611.3
1014.222	643.16
1014.514	625.99
1014.807	601.81
1015.099	627.57
1015.391	641.35
1015.683	613.11
1015.976	592.31
1016.268	596.16
1016.56	607.91
1016.851	594.35
1017.143	603.16
1017.435	573.78
1017.727	589.83
1018.018	589.83
1018.31	565.87
1018.602	581.02
1018.893	599.77
1019.185	582.82
1019.476	557.29
1019.767	585.31
1020.058	596.61
1020.35	573.11
1020.641	571.98
1020.932	588.7
1021.223	567.91
1021.514	557.29
1021.804	573.78
1022.095	562.03
1022.386	548.47
1022.677	554.35
1022.967	564.97
1023.258	551.41
1023.548	556.84
1023.839	545.54
1024.129	560.23
1024.419	558.64
1024.709	530.62
1025	548.7
1025.29	529.49
1025.58	532.43
1025.87	533.33
1026.16	535.82
1026.449	526.55
1026.739	532.66
1027.029	542.82
1027.319	523.84
1027.608	508.48
1027.898	512.99
1028.187	530.4
1028.477	529.49
1028.766	518.87
1029.055	498.76
1029.344	503.96
1029.634	490.4
1029.923	521.58
1030.212	509.15
1030.501	507.57
1030.79	520
1031.078	492.43
1031.367	489.04
1031.656	498.53
1031.945	487.46
1032.233	486.56
1032.522	507.35
1032.81	505.54
1033.099	499.44
1033.387	471.87
1033.675	503.73
1033.963	483.62
1034.251	487.01
1034.54	476.39
1034.828	475.03
1035.116	486.56
1035.403	473.9
1035.691	458.76
1035.979	478.42
1036.267	465.99
1036.554	461.92
1036.842	466.67
1037.129	497.18
1037.417	468.93
1037.704	479.32
1037.992	488.59
1038.279	448.59
1038.566	456.5
1038.853	456.5
1039.14	456.5
