Data from black_plastic_tray_FLMS001491_082.txt Node
Date: Tue Feb 07 10:40:51 GMT 2017
User: dcchb
Spectrometer: FLMS00149
Trigger mode: 0
Integration Time (sec): 2.000000E-2
Scans to average: 10
Electric dark correction enabled: true
Nonlinearity correction enabled: false
Boxcar width: 0
XAxis mode: Wavelengths
Number of Pixels in Spectrum: 2048
>>>>>Begin Spectral Data<<<<<
341.393	-21.65
341.776	-21.65
342.16	-21.65
342.543	-63.91
342.927	-87.86
343.31	-68.66
343.693	-53.06
344.077	-68.66
344.46	-60.07
344.843	-63.91
345.226	-45.15
345.61	-44.02
345.993	-41.09
346.376	9.31
346.759	23.09
347.142	26.93
347.525	35.3
347.908	55.41
348.291	63.54
348.674	117.33
349.057	113.71
349.44	122.3
349.823	137.89
350.206	143.32
350.588	175.63
350.971	166.59
351.354	205.23
351.737	225.8
352.119	220.15
352.502	254.27
352.884	262.18
353.267	276.19
353.65	282.97
354.032	284.55
354.414	287.27
354.797	287.27
355.179	305.8
355.562	312.12
355.944	313.03
356.326	323.88
356.709	318.23
357.091	332.46
357.473	319.13
357.855	322.75
358.238	315.74
358.62	326.59
359.002	343.54
359.384	338.79
359.766	326.36
360.148	314.61
360.53	332.01
360.912	334.27
361.294	320.26
361.676	309.64
362.057	329.3
362.439	310.32
362.821	334.27
363.203	317.55
363.584	311.9
363.966	321.84
364.348	320.49
364.729	312.35
365.111	306.7
365.493	306.93
365.874	305.8
366.256	324.55
366.637	318.68
367.019	305.35
367.4	308.28
367.781	298.34
368.163	312.58
368.544	292.46
368.925	295.63
369.306	321.62
369.688	291.79
370.069	309.86
370.45	327.72
370.831	324.55
371.212	319.81
371.593	299.24
371.974	321.62
372.355	325.68
372.736	303.09
373.117	306.02
373.498	311.67
373.879	312.8
374.26	313.48
374.641	308.96
375.021	317.32
375.402	321.84
375.783	315.51
376.163	323.65
376.544	318.68
376.925	330.88
377.305	315.97
377.686	331.79
378.066	341.95
378.447	318.9
378.827	314.38
379.208	315.29
379.588	333.14
379.968	327.27
380.349	355.51
380.729	324.1
381.109	317.1
381.489	346.02
381.87	326.36
382.25	341.5
382.63	335.63
383.01	356.19
383.39	348.96
383.77	326.59
384.15	355.97
384.53	339.02
384.91	342.63
385.29	353.93
385.67	341.73
386.049	362.52
386.429	358.68
386.809	390.77
387.189	362.74
387.568	347.15
387.948	352.8
388.328	362.74
388.707	376.08
389.087	370.2
389.466	367.26
389.846	375.17
390.225	369.3
390.605	381.05
390.984	397.32
391.363	358.45
391.743	375.85
392.122	377.43
392.501	382.63
392.881	368.85
393.26	396.64
393.639	401.16
394.018	395.51
394.397	395.06
394.776	407.49
395.155	420.14
395.534	392.57
395.913	383.99
396.292	420.82
396.671	419.01
397.05	422.18
397.429	383.99
397.808	411.78
398.186	425.34
398.565	417.66
398.944	421.5
399.323	398.68
399.701	437.54
400.08	415.62
400.458	454.27
400.837	439.58
401.215	434.61
401.594	430.09
401.972	438.45
402.351	437.09
402.729	440.48
403.107	446.58
403.486	431.9
403.864	462.63
404.242	444.78
404.62	443.65
404.999	459.47
405.377	479.35
405.755	484.78
406.133	442.52
406.511	472.8
406.889	464.89
407.267	483.87
407.645	480.03
408.023	490.88
408.401	480.48
408.779	480.48
409.156	493.36
409.534	502.63
409.912	515.96
410.29	491.1
410.667	513.7
411.045	505.79
411.422	508.05
411.8	523.64
412.178	522.51
412.555	524.77
412.933	529.29
413.31	539.69
413.687	548.5
414.065	545.11
414.442	565.23
414.819	578.78
415.197	557.32
415.574	580.59
415.951	578.11
416.328	567.49
416.705	578.33
417.082	568.61
417.46	592.34
417.837	594.38
418.214	587.82
418.591	597.09
418.967	587.82
419.344	606.35
419.721	606.35
420.098	597.99
420.475	605.68
420.852	588.5
421.228	640.25
421.605	616.52
421.982	608.61
422.358	635.05
422.735	635.28
423.111	646.81
423.488	624.66
423.864	645.45
424.241	663.75
424.617	670.08
424.994	679.8
425.37	685.67
425.746	686.58
426.123	696.3
426.499	685.9
426.875	699.01
427.251	713.02
427.627	720.93
428.003	716.18
428.379	722.96
428.756	736.52
429.132	762.28
429.507	730.64
429.883	748.95
430.259	763.64
430.635	756.86
431.011	766.35
431.387	788.04
431.763	782.85
432.138	831.43
432.514	807.03
432.89	802.06
433.265	817.65
433.641	827.82
434.016	844.99
434.392	877.53
434.767	848.61
435.143	851.77
435.518	856.52
435.894	889.74
436.269	843.86
436.644	908.95
437.02	895.16
437.395	895.39
437.77	934.26
438.145	903.3
438.52	943.29
438.895	958.66
439.271	920.47
439.646	964.99
440.021	918.21
440.395	955.05
440.77	981.26
441.145	971.09
441.52	976.97
441.895	988.04
442.27	984.42
442.645	991.43
443.019	993.01
443.394	1011.09
443.769	1022.61
444.143	989.39
444.518	1021.71
444.892	1030.07
445.267	1024.65
445.641	1022.39
446.016	1021.03
446.39	1061.26
446.764	1049.96
447.139	1053.57
447.513	1067.58
447.887	1078.88
448.262	1065.55
448.636	1075.04
449.01	1095.61
449.384	1087.92
449.758	1129.28
450.132	1122.27
450.506	1125.66
450.88	1121.37
451.254	1134.93
451.628	1134.48
452.002	1158.43
452.376	1182.84
452.75	1195.27
453.123	1198.88
453.497	1215.83
453.871	1222.38
454.244	1230.29
454.618	1228.94
454.992	1244.3
455.365	1227.13
455.739	1280.91
456.112	1269.61
456.486	1291.99
456.859	1309.16
457.232	1355.03
457.606	1321.82
457.979	1332.44
458.352	1373.57
458.725	1383.28
459.099	1415.37
459.472	1419.67
459.845	1436.16
460.218	1444.98
460.591	1454.02
460.964	1470.96
461.337	1481.36
461.71	1528.14
462.083	1493.79
462.456	1491.3
462.829	1512.32
463.201	1537.4
463.574	1571.53
463.947	1610.4
464.32	1610.85
464.692	1620.11
465.065	1631.41
465.438	1693.11
465.81	1671.86
466.183	1675.7
466.555	1736.04
466.928	1733.78
467.3	1746.66
467.672	1776.72
468.045	1794.8
468.417	1828.47
468.789	1846.77
469.161	1856.26
469.534	1845.64
469.906	1893.78
470.278	1894
470.65	1929.48
471.022	1960.22
471.394	2004.74
471.766	2024.62
472.138	2046.09
472.51	2075.24
472.882	2077.05
473.253	2085.19
473.625	2137.39
473.997	2184.62
474.369	2191.62
474.74	2228.68
475.112	2278.4
475.484	2311.39
475.855	2345.29
476.227	2348.46
476.598	2390.94
476.97	2450.6
477.341	2490.37
477.713	2517.04
478.084	2544.16
478.455	2586.87
478.827	2613.98
479.198	2681.1
479.569	2696.02
479.94	2725.62
480.311	2782.79
480.682	2831.61
481.053	2895.33
481.424	2921.77
481.795	2928.55
482.166	2990.25
482.537	3037.93
482.908	3080.19
483.279	3139.62
483.65	3154.31
484.021	3218.49
484.391	3253.29
484.762	3310.24
485.133	3316.11
485.503	3376.68
485.874	3439.5
486.244	3433.17
486.615	3491.7
486.985	3575.32
487.356	3635.65
487.726	3663.9
488.097	3698.48
488.467	3705.26
488.837	3824.57
489.207	3806.27
489.578	3892.14
489.948	3922.88
490.318	3981.41
490.688	3989.09
491.058	4034.96
491.428	4141.18
491.798	4147.05
492.168	4237.67
492.538	4227.05
492.908	4306.82
493.278	4337.56
493.648	4364.22
494.017	4394.5
494.387	4413.49
494.757	4456.65
495.126	4532.13
495.496	4557.66
495.866	4521.96
496.235	4646.93
496.605	4681.05
496.974	4736.42
497.344	4696.19
497.713	4792.46
498.082	4797.43
498.452	4876.98
498.821	4874.72
499.19	4874.49
499.559	4972.79
499.928	4994.04
500.298	5027.93
500.667	5060.7
501.036	5048.27
501.405	5091.43
501.774	5107.03
502.143	5170.08
502.512	5201.71
502.88	5267.02
503.249	5240.36
503.618	5285.33
503.987	5307.7
504.356	5306.57
504.724	5360.35
505.093	5328.94
505.462	5425.44
505.83	5450.97
506.199	5556.96
506.567	5533.46
506.936	5566.45
507.304	5695.49
507.672	5612.55
508.041	5699.78
508.409	5728.93
508.777	5797.18
509.145	5830.85
509.514	5816.61
509.882	5896.61
510.25	5970.73
510.618	5991.3
510.986	5974.12
511.354	6088.7
511.722	6141.35
512.09	6142.71
512.458	6169.15
512.826	6257.5
513.193	6226.77
513.561	6297.73
513.929	6318.75
514.297	6344.96
514.664	6386.77
515.032	6447.56
515.4	6558.29
515.767	6549.02
516.135	6558.51
516.502	6508.8
516.869	6673.54
517.237	6704.95
517.604	6688.68
517.972	6778.62
518.339	6818.62
518.706	6827.66
519.073	6879.18
519.44	6967.99
519.808	7002.34
520.175	7012.74
520.542	7146.97
520.909	7227.87
521.276	7198.95
521.643	7244.82
522.009	7296.35
522.376	7355.56
522.743	7363.01
523.11	7505.38
523.477	7546.96
523.843	7579.96
524.21	7708.09
524.577	7809.33
524.943	7734.3
525.31	7836.22
525.676	7927.07
526.043	7928.2
526.409	8024.01
526.776	8077.34
527.142	8104.01
527.508	8201.18
527.874	8223.78
528.241	8231.01
528.607	8338.35
528.973	8411.57
529.339	8384
529.705	8475.07
530.071	8602.53
530.437	8551.91
530.803	8608.86
531.169	8701.51
531.535	8653.15
531.901	8689.08
532.267	8729.08
532.632	8833.93
532.998	8881.84
533.364	8914.84
533.73	8938.79
534.095	9018.11
534.461	9001.61
534.826	9088.39
535.192	9163.19
535.557	9193.02
535.923	9205.68
536.288	9272.11
536.653	9290.87
537.019	9311.66
537.384	9386.24
537.749	9381.26
538.114	9378.55
538.479	9421.04
538.845	9447.03
539.21	9534.25
539.575	9566.8
539.94	9588.26
540.305	9627.36
540.67	9571.32
541.034	9702.61
541.399	9748.03
541.764	9707.81
542.129	9740.58
542.494	9800.01
542.858	9855.15
543.223	9833.91
543.587	9867.13
543.952	9950.74
544.316	9911.19
544.681	9924.53
545.045	9909.16
545.41	10009.5
545.774	9990.29
546.138	10007.46
546.503	10176.05
546.867	10147.8
547.231	10250.85
547.595	10230.96
547.959	10306.44
548.324	10239.77
548.688	10325.19
549.052	10401.12
549.416	10426.89
549.779	10404.29
550.143	10435.93
550.507	10488.35
550.871	10506.43
551.235	10542.82
551.599	10658.07
551.962	10690.61
552.326	10705.75
552.689	10749.14
553.053	10756.82
553.417	10740.32
553.78	10898.96
554.143	10861.9
554.507	10902.58
554.87	10964.95
555.234	11076.59
555.597	11063.03
555.96	11150.94
556.323	11237.49
556.686	11278.62
557.05	11263.25
557.413	11324.04
557.776	11360.2
558.139	11376.01
558.502	11437.03
558.865	11467.31
559.228	11531.26
559.59	11675.44
559.953	11620.75
560.316	11710.69
560.679	11726.51
561.041	11757.7
561.404	11778.04
561.767	11896.9
562.129	11914.08
562.492	12115.43
562.854	12131.25
563.217	12074.75
563.579	12219.83
563.941	12239.95
564.304	12235.2
564.666	12387.51
565.028	12385.03
565.39	12383.67
565.753	12402.65
566.115	12470.45
566.477	12568.75
566.839	12541.18
567.201	12708.18
567.563	12698.69
567.925	12751.57
568.287	12681.74
568.648	12784.34
569.01	12898.69
569.372	12983.2
569.734	13007.16
570.095	13027.5
570.457	13004.22
570.819	13070.66
571.18	13050.77
571.542	13254.38
571.903	13227.49
572.265	13358.79
572.626	13185.23
572.987	13353.36
573.349	13400.14
573.71	13463.42
574.071	13476.75
574.432	13520.82
574.794	13567.82
575.155	13493.92
575.516	13610.31
575.877	13593.58
576.238	13643.3
576.599	13639.68
576.96	13694.82
577.32	13675.61
577.681	13692.79
578.042	13730.3
578.403	13834.03
578.763	13885.1
579.124	13804.2
579.485	13937.53
579.845	13880.81
580.206	13893.24
580.566	13807.59
580.927	13967.81
581.287	13945.21
581.648	13898.21
582.008	13891.2
582.368	13917.42
582.728	14010.07
583.089	13968.04
583.449	13975.27
583.809	13979.34
584.169	13986.34
584.529	13968.94
584.889	14015.49
585.249	14057.75
585.609	13942.05
585.969	14016.17
586.329	13998.54
586.688	14088.94
587.048	13989.96
587.408	13993.35
587.768	13976.4
588.127	13969.84
588.487	13969.62
588.846	14131.42
589.206	13984.76
589.565	13928.94
589.925	13984.53
590.284	14013.91
590.643	14002.61
591.003	14085.55
591.362	14007.36
591.721	14073.8
592.08	14102.5
592.44	14108.6
592.799	14067.02
593.158	14101.37
593.517	14088.94
593.876	14113.34
594.235	14161.48
594.593	14057.98
594.952	14225.66
595.311	14180.69
595.67	14141.59
596.029	14246.22
596.387	14158.54
596.746	14255.94
597.104	14144.76
597.463	14192.66
597.822	14219.33
598.18	14155.83
598.538	14147.02
598.897	14238.09
599.255	14116.96
599.613	14391.75
599.972	14260.23
600.33	14290.74
600.688	14253.68
601.046	14304.07
601.404	14286.9
601.762	14343.85
602.12	14361.25
602.478	14433.34
602.836	14465.88
603.194	14373.68
603.552	14385.2
603.91	14335.71
604.268	14433.56
604.625	14306.11
604.983	14499.32
605.341	14368.25
605.698	14431.75
606.056	14469.94
606.413	14429.49
606.771	14451.87
607.128	14542.94
607.485	14437.85
607.843	14493.22
608.2	14481.24
608.557	14643.5
608.914	14616.16
609.272	14601.47
609.629	14613.67
609.986	14627.68
610.343	14566.89
610.7	14700.67
611.057	14775.02
611.414	14784.51
611.771	14749.49
612.127	14810.73
612.484	14810.5
612.841	14862.93
613.198	14818.86
613.554	14805.08
613.911	14827.68
614.267	14758.3
614.624	14736.6
614.98	14772.31
615.337	14917.39
615.693	14892.08
616.05	14848.69
616.406	14917.62
616.762	14917.62
617.118	14906.77
617.475	14929.37
617.831	14929.59
618.187	14893.89
618.543	15079.19
618.899	15113.77
619.255	15014.11
619.611	15074.9
619.967	15048.69
620.323	15148.8
620.678	14959.2
621.034	14983.15
621.39	15052.3
621.746	15019.31
622.101	15093.88
622.457	15029.03
622.812	15082.81
623.168	15135.46
623.523	15015.24
623.879	15079.87
624.234	14994.22
624.589	15087.33
624.945	15154.67
625.3	15137.27
625.655	15111.74
626.01	14984.73
626.365	15040.32
626.72	15014.56
627.075	15064.51
627.43	15043.04
627.785	14965.07
628.14	14961.46
628.495	15125.07
628.85	14946.09
629.205	14933.21
629.559	14995.81
629.914	14829.93
630.269	14998.74
630.623	14961.23
630.978	14897.73
631.332	14958.97
631.687	15024.96
632.041	14921.01
632.396	14947.67
632.75	14911.51
633.104	14940.89
633.459	14833.1
633.813	14791.07
634.167	14789.94
634.521	14746.77
634.875	14748.36
635.229	14745.87
635.583	14676.04
635.937	14614.35
636.291	14728.92
636.645	14671.3
636.999	14558.98
637.352	14569.15
637.706	14545.65
638.06	14627.45
638.413	14537.29
638.767	14513.56
639.121	14625.65
639.474	14499.55
639.828	14455.48
640.181	14540.68
640.534	14505.88
640.888	14402.83
641.241	14354.24
641.594	14427.46
641.947	14373.45
642.301	14413.67
642.654	14406.22
643.007	14448.25
643.36	14325.77
643.713	14311.3
644.066	14369.16
644.419	14297.75
644.771	14234.47
645.124	14139.11
645.477	13945.44
645.83	13966.91
646.182	13852.56
646.535	13767.36
646.888	13810.3
647.24	13734.14
647.593	13838.1
647.945	13799.91
648.298	13733.92
648.65	13722.85
649.002	13665.45
649.355	13697.54
649.707	13709.96
650.059	13783.86
650.411	13964.42
650.763	14015.27
651.115	14149.05
651.467	14051.65
651.819	14027.7
652.171	14042.16
652.523	13977.98
652.875	13944.08
653.227	13983.63
653.578	14047.58
653.93	13981.6
654.282	13943.18
654.633	13891.88
654.985	13836.51
655.337	13914.48
655.688	13888.94
656.039	14001.26
656.391	13783.18
656.742	13782.05
657.094	13889.17
657.445	13768.49
657.796	13817.08
658.147	13838.1
658.498	13773.92
658.849	13881.71
659.2	13885.33
659.551	13871.09
659.902	13883.29
660.253	13821.15
660.604	13825.22
660.955	13765.33
661.306	13686.46
661.656	13704.09
662.007	13669.51
662.358	13782.5
662.708	13609.63
663.059	13671.32
663.409	13659.57
663.76	13693.47
664.11	13733.69
664.461	13762.17
664.811	13688.27
665.161	13736.86
665.511	13648.27
665.862	13577.54
666.212	13712.68
666.562	13667.03
666.912	13541.16
667.262	13658.89
667.612	13643.75
667.962	13641.27
668.312	13650.08
668.662	13704.99
669.011	13572.11
669.361	13568.95
669.711	13527.82
670.06	13634.26
670.41	13525.56
670.76	13502.06
671.109	13622.28
671.459	13548.84
671.808	13498.44
672.157	13546.8
672.507	13406.02
672.856	13438.79
673.205	13402.63
673.554	13479.46
673.904	13382.52
674.253	13504.55
674.602	13437.66
674.951	13220.03
675.3	13171.45
675.649	13466.13
675.998	13429.97
676.346	13510.87
676.695	13404.44
677.044	13342.29
677.393	13399.01
677.741	13361.27
678.09	13338.9
678.438	13214.16
678.787	13315.62
679.135	13349.52
679.484	13261.61
679.832	13300.48
680.181	13165.35
680.529	13319.01
680.877	13186.59
681.225	13155.18
681.573	13297.09
681.922	13152.01
682.27	13154.27
682.618	13133.48
682.966	13158.11
683.314	13088.06
683.661	13106.82
684.009	13022.52
684.357	12923.77
684.705	13015.75
685.053	12968.51
685.4	12954.05
685.748	12926.48
686.095	12874.28
686.443	12743.21
686.79	12729.88
687.138	12746.83
687.485	12786.82
687.832	12635.42
688.18	12754.96
688.527	12595.42
688.874	12633.16
689.221	12575.3
689.568	12546.83
689.915	12523.1
690.262	12533.5
690.609	12473.61
690.956	12362.43
691.303	12367.17
691.65	12392.48
691.997	12319.49
692.344	12158.14
692.69	12213.28
693.037	12271.81
693.383	12086.73
693.73	12263.9
694.077	12188.87
694.423	12128.09
694.769	12110.91
695.116	12082.21
695.462	12112.27
695.808	12016.45
696.155	11977.35
696.501	11961.31
696.847	11955.21
697.193	11850.8
697.539	11887.87
697.885	11793.86
698.231	11755.67
698.577	11717.47
698.923	11782.33
699.269	11661.43
699.614	11625.05
699.96	11586.86
700.306	11630.7
700.651	11547.99
700.997	11522.9
701.342	11502.11
701.688	11519.97
702.033	11444.94
702.379	11544.37
702.724	11432.06
703.069	11536.01
703.415	11388.67
703.76	11300.99
704.105	11360.2
704.45	11329.69
704.795	11250.37
705.14	11143.48
705.485	11166.75
705.83	11099.19
706.175	11135.57
706.52	11100.54
706.865	11103.71
707.209	11067.55
707.554	10968.12
707.899	11002.24
708.243	10948.23
708.588	10892.64
708.932	10894.45
709.277	10877.04
709.621	10948.23
709.966	10840.21
710.31	10877.27
710.654	10788.23
710.998	10794.56
711.342	10810.15
711.687	10799.31
712.031	10691.06
712.375	10651.97
712.719	10673.89
713.063	10687.9
713.407	10718.18
713.75	10676.15
714.094	10644.06
714.438	10603.15
714.782	10636.37
715.125	10543.49
715.469	10614.23
715.812	10481.12
716.156	10473.44
716.499	10450.16
716.843	10505.75
717.186	10384.4
717.53	10474.34
717.873	10542.82
718.216	10492.87
718.559	10376.72
718.902	10371.52
719.246	10409.49
719.589	10309.38
719.932	10327.45
720.275	10314.12
720.617	10312.99
720.96	10198.87
721.303	10277.29
721.646	10217.63
721.989	10197.97
722.331	10254.24
722.674	10235.93
723.016	10162.71
723.359	10174.01
723.701	10198.64
724.044	10073
724.386	10111.64
724.729	10043.17
725.071	10032.55
725.413	10000.68
725.755	10005.2
726.097	9922.49
726.439	9883.62
726.782	9979.22
727.124	9935.6
727.465	9920.01
727.807	9920.23
728.149	9989.84
728.491	9888.82
728.833	9887.92
729.175	9786.45
729.516	9824.87
729.858	9837.98
730.199	9795.27
730.541	9790.52
730.882	9816.06
731.224	9759.56
731.565	9695.38
731.906	9693.8
732.248	9699.67
732.589	9724.31
732.93	9647.47
733.271	9640.01
733.612	9720.24
733.953	9608.38
734.294	9580.13
734.635	9559.57
734.976	9686.34
735.317	9574.71
735.658	9570.41
735.999	9593.91
736.339	9484.31
736.68	9550.07
737.021	9478.44
737.361	9394.82
737.702	9498.32
738.042	9353.02
738.383	9395.73
738.723	9471.88
739.063	9427.37
739.404	9417.42
739.744	9360.47
740.084	9357.54
740.424	9345.56
740.764	9314.6
741.104	9318.22
741.444	9294.04
741.784	9237.09
742.124	9297.65
742.464	9248.84
742.804	9201.61
743.143	9240.03
743.483	9210.87
743.823	9178.11
744.162	9231.44
744.502	9219.01
744.841	9131.1
745.181	9146.24
745.52	9170.2
745.86	9068.28
746.199	9153.47
746.538	9085.23
746.877	9143.76
747.216	9051.78
747.556	9002.07
747.895	9036.64
748.234	9059.01
748.573	9030.77
748.911	9007.26
749.25	9030.54
749.589	8985.79
749.928	8943.08
750.267	8957.32
750.605	8891.33
750.944	8946.25
751.283	8876.19
751.621	8867.61
751.96	8820.15
752.298	8841.39
752.636	8834.39
752.975	8820.6
753.313	8755.07
753.651	8786.7
753.989	8725.69
754.327	8723.43
754.666	8670.55
755.004	8709.87
755.342	8678.68
755.679	8586.94
756.017	8538.8
756.355	8522.76
756.693	8567.05
757.031	8534.28
757.368	8499.71
757.706	8436.88
758.044	8447.28
758.381	8519.14
758.719	8407.73
759.056	8418.13
759.394	8421.52
759.731	8346.49
760.068	8313.72
760.405	8301.29
760.743	8294.97
761.08	8322.76
761.417	8253.84
761.754	8219.04
762.091	8201.41
762.428	8203.67
762.765	8163.9
763.102	8132.71
763.438	8093.61
763.775	8137.68
764.112	8097
764.449	8168.42
764.785	8045.93
765.122	8062.2
765.458	7967.97
765.795	7986.27
766.131	8005.48
766.467	7883.9
766.804	7915.31
767.14	7857.24
767.476	7819.5
767.812	7756.22
768.148	7903.11
768.485	7736.79
768.821	7706.51
769.157	7776.56
769.492	7649.78
769.828	7648.2
770.164	7615.21
770.5	7614.76
770.836	7666.51
771.171	7604.36
771.507	7551.93
771.842	7478.04
772.178	7498.15
772.513	7482.33
772.849	7467.64
773.184	7429
773.519	7358.27
773.855	7317.82
774.19	7291.15
774.525	7278.04
774.86	7238.95
775.195	7235.11
775.53	7209.57
775.865	7176.35
776.2	7103.58
776.535	7075.56
776.87	7096.13
777.205	7088.67
777.539	7036.69
777.874	7033.3
778.209	7015.68
778.543	6995.56
778.878	6944.49
779.212	6959.86
779.547	6949.46
779.881	6897.04
780.215	6825.63
780.55	6868.11
780.884	6794.21
781.218	6800.09
781.552	6786.3
781.886	6737.72
782.22	6688.45
782.554	6735.23
782.888	6692.52
783.222	6647.78
783.556	6571.62
783.889	6663.6
784.223	6575.91
784.557	6638.96
784.89	6586.08
785.224	6489.36
785.557	6529.81
785.891	6486.2
786.224	6433.09
786.558	6532.53
786.891	6446.43
787.224	6398.97
787.557	6343.83
787.891	6356.94
788.224	6394.68
788.557	6353.1
788.89	6389.03
789.223	6334.79
789.556	6184.29
789.888	6253.89
790.221	6228.13
790.554	6196.04
790.887	6209.6
791.219	6177.96
791.552	6129.15
791.884	6085.76
792.217	6057.51
792.549	6034.01
792.882	6027.23
793.214	5996.72
793.546	6011.41
793.879	5970.96
794.211	5944.29
794.543	5977.51
794.875	5944.52
795.207	5937.06
795.539	5940.45
795.871	5886.67
796.203	5839.89
796.535	5788.14
796.867	5819.32
797.198	5783.39
797.53	5764.86
797.862	5790.17
798.193	5779.78
798.525	5726.45
798.856	5744.07
799.188	5702.04
799.519	5647.58
799.85	5640.8
800.182	5656.16
800.513	5653
800.844	5616.17
801.175	5628.14
801.506	5628.37
801.837	5573.68
802.168	5601.48
802.499	5526.68
802.83	5550.63
803.161	5493.68
803.491	5524.87
803.822	5514.93
804.153	5519.9
804.483	5476.06
804.814	5432.89
805.145	5406.23
805.475	5371.65
805.805	5356.29
806.136	5401.03
806.466	5416.85
806.796	5395.83
807.126	5374.59
807.457	5357.42
807.787	5335.5
808.117	5351.54
808.447	5293.46
808.777	5355.61
809.107	5267.25
809.436	5273.12
809.766	5307.02
810.096	5244.2
810.426	5225.44
810.755	5184.99
811.085	5199
811.414	5175.95
811.744	5191.77
812.073	5193.8
812.403	5184.31
812.732	5094.15
813.061	5130.98
813.39	5068.16
813.719	5048.95
814.049	5116.97
814.378	5078.55
814.707	5062.28
815.036	5010.76
815.365	5023.64
815.693	5009.4
816.022	5040.14
816.351	4982.74
816.68	4956.3
817.008	4986.35
817.337	4949.97
817.665	4895.51
817.994	4941.83
818.322	4863.19
818.651	4880.14
818.979	4881.72
819.307	4897.31
819.636	4871.55
819.964	4889.86
820.292	4882.17
820.62	4856.41
820.948	4842.85
821.276	4834.72
821.604	4886.69
821.932	4844.89
822.259	4844.66
822.587	4827.71
822.915	4911.55
823.243	4843.3
823.57	4856.64
823.898	4785.68
824.225	4839.24
824.553	4806.92
824.88	4852.12
825.207	4841.72
825.535	4817.99
825.862	4846.92
826.189	4817.99
826.516	4820.48
826.843	4853.7
827.17	4860.03
827.497	4857.09
827.824	4816.86
828.151	4817.54
828.478	4781.39
828.805	4808.96
829.131	4824.55
829.458	4846.02
829.785	4873.36
830.111	4772.57
830.438	4784.55
830.764	4803.98
831.09	4768.05
831.417	4785.91
831.743	4784.55
832.069	4823.87
832.395	4773.02
832.722	4748.62
833.048	4749.07
833.374	4743.65
833.7	4758.56
834.026	4736.19
834.351	4780.93
834.677	4739.8
835.003	4718.79
835.329	4677.89
835.654	4721.05
835.98	4736.87
836.306	4716.98
836.631	4701.39
836.956	4726.92
837.282	4681.5
837.607	4633.59
837.932	4646.02
838.258	4688.28
838.583	4632.69
838.908	4620.49
839.233	4644.21
839.558	4619.36
839.883	4620.26
840.208	4615.74
840.533	4635.85
840.858	4578.45
841.182	4546.14
841.507	4591.33
841.832	4533.48
842.156	4561.5
842.481	4533.71
842.805	4540.71
843.13	4542.75
843.454	4509.08
843.778	4525.8
844.103	4515.63
844.427	4467.5
844.751	4447.84
845.075	4490.32
845.399	4452.81
845.723	4440.15
846.047	4384.33
846.371	4417.78
846.695	4408.74
847.019	4415.97
847.343	4377.78
847.666	4394.28
847.99	4366.26
848.313	4329.87
848.637	4266.37
848.96	4313.38
849.284	4285.58
849.607	4280.83
849.931	4201.06
850.254	4187.73
850.577	4219.37
850.9	4173.49
851.223	4099.82
851.546	4181.63
851.869	4130.33
852.192	4118.8
852.515	4153.38
852.838	4072.25
853.161	4066.6
853.483	4076.09
853.806	4048.07
854.129	4025.7
854.451	3991.58
854.774	4007.62
855.096	3976.89
855.419	3991.35
855.741	4022.54
856.063	3970.11
856.385	3960.16
856.708	3994.51
857.03	3967.17
857.352	3962.2
857.674	3928.53
857.996	3874.29
858.318	3849.21
858.64	3862.77
858.961	3917
859.283	3825.03
859.605	3854.63
859.926	3838.81
860.248	3849.66
860.57	3853.05
860.891	3842.88
861.212	3785.03
861.534	3818.25
861.855	3829.32
862.176	3802.43
862.498	3804.01
862.819	3806.04
863.14	3792.03
863.461	3787.97
863.782	3759.49
864.103	3774.63
864.424	3742.09
864.745	3765.37
865.065	3770.56
865.386	3709.32
865.707	3739.38
866.027	3676.56
866.348	3752.49
866.668	3705.71
866.989	3675.43
867.309	3681.08
867.63	3707.74
867.95	3652.38
868.27	3697.57
868.59	3712.04
868.91	3697.12
869.23	3690.57
869.55	3648.53
869.87	3687.86
870.19	3669.1
870.51	3646.73
870.83	3669.55
871.15	3620.06
871.469	3653.96
871.789	3621.64
872.109	3636.56
872.428	3608.76
872.748	3641.75
873.067	3626.61
873.386	3601.98
873.706	3617.35
874.025	3587.97
874.344	3610.34
874.663	3626.84
874.982	3558.37
875.301	3549.1
875.62	3512.94
875.939	3561.53
876.258	3583
876.577	3515.66
876.896	3512.04
877.214	3494.87
877.533	3524.47
877.852	3506.62
878.17	3559.95
878.489	3529.44
878.807	3539.38
879.125	3513.4
879.444	3513.62
879.762	3490.8
880.08	3465.26
880.398	3465.71
880.716	3491.93
881.034	3470.01
881.352	3464.13
881.67	3457.13
881.988	3410.8
882.306	3426.62
882.624	3447.64
882.941	3442.66
883.259	3394.76
883.577	3433.17
883.894	3474.08
884.212	3488.31
884.529	3448.77
884.846	3448.09
885.164	3395.21
885.481	3397.92
885.798	3413.06
886.115	3395.66
886.432	3356.79
886.75	3323.57
887.067	3346.62
887.383	3329.67
887.7	3321.31
888.017	3376.45
888.334	3299.62
888.651	3320.63
888.967	3281.31
889.284	3316.57
889.6	3319.73
889.917	3314.08
890.233	3256.23
890.55	3274.53
890.866	3219.17
891.182	3255.1
891.498	3221.43
891.815	3237.7
892.131	3241.54
892.447	3197.02
892.763	3187.08
893.079	3216.68
893.395	3194.53
893.71	3194.99
894.026	3166.29
894.342	3165.16
894.657	3130.36
894.973	3159.73
895.289	3141.88
895.604	3125.16
895.92	3099.85
896.235	3125.61
896.55	3122.67
896.865	3070.47
897.181	3056.46
897.496	3081.54
897.811	3052.17
898.126	3037.02
898.441	3015.33
898.756	3021.88
899.071	3051.26
899.386	3023.69
899.7	2987.08
900.015	3029.57
900.33	2981.43
900.644	3008.55
900.959	2966.07
901.273	2955.9
901.588	2929.68
901.902	2952.06
902.216	2963.81
902.531	2926.29
902.845	2972.85
903.159	2881.77
903.473	2905.05
903.787	2919.29
904.101	2917.93
904.415	2883.58
904.729	2887.42
905.042	2846.97
905.356	2849.01
905.67	2793.19
905.984	2831.83
906.297	2788.44
906.611	2833.41
906.924	2781.44
907.237	2825.05
907.551	2779.86
907.864	2745.96
908.177	2763.13
908.491	2738.73
908.804	2708.22
909.117	2714.32
909.43	2714.32
909.743	2716.36
910.056	2685.85
910.368	2677.94
910.681	2660.09
910.994	2669.8
911.307	2683.59
911.619	2691.72
911.932	2662.57
912.244	2664.61
912.557	2643.36
912.869	2618.5
913.181	2583.48
913.494	2586.19
913.806	2609.01
914.118	2566.3
914.43	2566.53
914.742	2527.66
915.054	2519.3
915.366	2524.72
915.678	2524.95
915.99	2512.52
916.302	2499.41
916.613	2507.1
916.925	2488.11
917.236	2513.2
917.548	2490.6
917.859	2500.54
918.171	2454.89
918.482	2436.14
918.794	2461.45
919.105	2420.32
919.416	2387.32
919.727	2402.92
920.038	2435.01
920.349	2383.03
920.66	2371.51
920.971	2377.38
921.282	2336.03
921.593	2363.37
921.903	2343.94
922.214	2333.31
922.525	2369.25
922.835	2321.34
923.146	2313.2
923.456	2300.32
923.767	2295.58
924.077	2328.79
924.387	2294.9
924.697	2264.62
925.008	2255.8
925.318	2255.12
925.628	2246.09
925.938	2219.87
926.248	2221.45
926.558	2220.32
926.867	2221.68
927.177	2184.17
927.487	2181.45
927.796	2175.58
928.106	2201.11
928.416	2184.84
928.725	2161.34
929.034	2129.7
929.344	2143.71
929.653	2124.28
929.962	2152.98
930.271	2101.46
930.581	2073.66
930.89	2097.84
931.199	2117.95
931.508	2099.2
931.817	2086.99
932.125	2051.06
932.434	2065.52
932.743	2040.89
933.051	2057.62
933.36	2033.44
933.669	2020.78
933.977	2026.43
934.286	2009.93
934.594	1985.07
934.902	1975.81
935.21	1969.48
935.519	1989.37
935.827	1999.54
936.135	1958.86
936.443	1958.41
936.751	1946.43
937.059	1942.82
937.367	1961.57
937.674	1948.92
937.982	1920.67
938.29	1898.52
938.597	1906.43
938.905	1894.23
939.213	1916.6
939.52	1907.34
939.827	1906.21
940.135	1906.43
940.442	1901.69
940.749	1868.92
941.056	1881.12
941.363	1836.38
941.67	1825.53
941.977	1828.92
942.284	1853.78
942.591	1799.54
942.898	1833.89
943.205	1798.19
943.511	1790.96
943.818	1784.63
944.125	1811.52
944.431	1756.61
944.738	1778.53
945.044	1753.89
945.35	1753.67
945.657	1729.49
945.963	1757.28
946.269	1745.53
946.575	1752.54
946.881	1721.81
947.187	1746.66
947.493	1692.43
947.799	1671.41
948.105	1719.55
948.41	1669.15
948.716	1687
949.022	1667.12
949.327	1686.1
949.633	1668.7
949.938	1662.82
950.244	1659.21
950.549	1658.3
950.854	1650.39
951.16	1652.43
951.465	1650.39
951.77	1640
952.075	1613.79
952.38	1591.64
952.685	1607.46
952.99	1602.71
953.294	1587.8
953.599	1592.99
953.904	1594.35
954.209	1562.49
954.513	1565.88
954.818	1576.5
955.122	1563.17
955.426	1545.54
955.731	1566.1
956.035	1527.01
956.339	1568.59
956.643	1549.15
956.948	1497.18
957.252	1519.1
957.556	1536.05
957.86	1513.67
958.163	1522.49
958.467	1506.9
958.771	1494.92
959.075	1462.6
959.378	1494.24
959.682	1495.82
959.985	1481.36
960.289	1497.4
960.592	1491.3
960.896	1477.97
961.199	1482.04
961.502	1448.82
961.805	1412.66
962.108	1435.48
962.411	1416.95
962.714	1415.6
963.017	1418.76
963.32	1436.61
963.623	1406.56
963.926	1400.46
964.228	1378.54
964.531	1380.57
964.833	1405.88
965.136	1383.73
965.438	1374.7
965.741	1385.99
966.043	1369.5
966.345	1371.31
966.648	1365.66
966.95	1361.36
967.252	1361.36
967.554	1330.4
967.856	1350.52
968.158	1337.86
968.46	1315.04
968.761	1321.14
969.063	1327.24
969.365	1304.19
969.666	1297.64
969.968	1320.01
970.269	1301.7
970.571	1319.1
970.872	1304.19
971.174	1277.97
971.475	1308.03
971.776	1290.63
972.077	1294.92
972.378	1294.47
972.679	1283.85
972.98	1258.99
973.281	1257.86
973.582	1252.89
973.883	1272.78
974.183	1228.03
974.484	1251.08
974.785	1240.69
975.085	1224.42
975.386	1239.33
975.686	1226.45
975.986	1217.19
976.287	1227.58
976.587	1184.19
976.887	1207.02
977.187	1181.71
977.487	1200.46
977.787	1196.62
978.087	1191.2
978.387	1198.65
978.687	1199.33
978.987	1173.8
979.286	1152.1
979.586	1155.04
979.885	1152.55
980.185	1158.66
980.484	1160.46
980.784	1136.74
981.083	1151.2
981.382	1143.06
981.682	1145.77
981.981	1119.56
982.28	1098.09
982.579	1129.96
982.878	1119.11
983.177	1093.57
983.475	1127.02
983.774	1106.23
984.073	1103.74
984.372	1084.76
984.67	1123.18
984.969	1084.76
985.267	1104.19
985.566	1090.41
985.864	1088.38
986.162	1085.21
986.461	1066.68
986.759	1075.04
987.057	1057.64
987.355	1072.1
987.653	1073.69
987.951	1061.03
988.249	1057.64
988.547	1046.34
988.844	1056.96
989.142	1020.58
989.44	1032.78
989.737	1022.84
990.035	1020.81
990.332	1045.21
990.63	1008.6
990.927	1004.54
991.224	1028.94
991.521	1019.68
991.819	1004.76
992.116	996.4
992.413	979.9
992.71	988.94
993.006	998.66
993.303	986.01
993.6	1003.86
993.897	984.88
994.193	979
994.49	998.21
994.787	983.52
995.083	965.67
995.379	972.67
995.676	962.73
995.972	951.88
996.268	957.08
996.565	944.88
996.861	949.85
997.157	952.11
997.453	933.35
997.749	929.28
998.044	971.54
998.34	914.59
998.636	924.76
998.932	950.53
999.227	927.48
999.523	936.51
999.818	920.92
1000.114	924.76
1000.409	924.99
1000.704	905.1
1001	904.65
1001.295	864.2
1001.59	887.02
1001.885	886.12
1002.18	891.77
1002.475	893.8
1002.77	896.06
1003.065	894.71
1003.359	868.49
1003.654	884.09
1003.949	863.97
1004.243	867.59
1004.538	853.35
1004.832	855.39
1005.127	870.08
1005.421	865.78
1005.715	816.52
1006.009	847.03
1006.304	831.88
1006.598	832.11
1006.892	835.95
1007.186	817.65
1007.48	820.59
1007.773	806.57
1008.067	809.06
1008.361	813.58
1008.655	812.22
1008.948	821.72
1009.242	838.44
1009.535	808.38
1009.829	793.69
1010.122	788.95
1010.415	781.04
1010.708	786.01
1011.001	772.9
1011.295	780.59
1011.588	787.59
1011.881	777.2
1012.173	800.02
1012.466	787.82
1012.759	769.74
1013.052	768.61
1013.344	765.9
1013.637	741.04
1013.93	771.77
1014.222	780.13
1014.514	747.14
1014.807	736.07
1015.099	745.56
1015.391	739.46
1015.683	729.51
1015.976	735.62
1016.268	715.96
1016.56	710.31
1016.851	708.5
1017.143	731.32
1017.435	723.41
1017.727	712.34
1018.018	725.67
1018.31	722.51
1018.602	724.09
1018.893	703.07
1019.185	713.02
1019.476	688.61
1019.767	693.58
1020.058	699.01
1020.35	695.17
1020.641	687.26
1020.932	665.56
1021.223	671.66
1021.514	676.86
1021.804	671.66
1022.095	671.44
1022.386	659.46
1022.677	670.76
1022.967	689.06
1023.258	654.04
1023.548	675.73
1023.839	660.36
1024.129	652
1024.419	638.44
1024.709	640.48
1025	629.18
1025.29	647.71
1025.58	606.13
1025.87	607.71
1026.16	627.82
1026.449	660.36
1026.739	636.64
1027.029	602.96
1027.319	617.43
1027.608	615.62
1027.898	618.33
1028.187	607.26
1028.477	607.71
1028.766	613.13
1029.055	595.73
1029.344	596.64
1029.634	590.31
1029.923	607.94
1030.212	588.28
1030.501	602.29
1030.79	587.37
1031.078	589.86
1031.367	572.91
1031.656	560.25
1031.945	576.75
1032.233	591.44
1032.522	554.6
1032.81	586.24
1033.099	572.23
1033.387	579.01
1033.675	550.99
1033.963	568.84
1034.251	586.69
1034.54	567.94
1034.828	553.02
1035.116	550.76
1035.403	540.82
1035.691	574.72
1035.979	533.14
1036.267	545.56
1036.554	519.58
1036.842	523.64
1037.129	562.97
1037.417	534.49
1037.704	544.21
1037.992	525.23
1038.279	528.84
1038.566	516.19
1038.853	516.19
1039.14	516.19
