Data from black_metal_pc_casing_FLMS001491_00006.txt Node
Date: Wed Feb 08 14:31:51 GMT 2017
User: dcchb
Spectrometer: FLMS00149
Trigger mode: 0
Integration Time (sec): 2.000000E-2
Scans to average: 10
Electric dark correction enabled: true
Nonlinearity correction enabled: false
Boxcar width: 0
XAxis mode: Wavelengths
Number of Pixels in Spectrum: 2048
>>>>>Begin Spectral Data<<<<<
341.393	-9.66
341.776	-9.66
342.16	-9.66
342.543	-56.67
342.927	-80.62
343.31	-65.03
343.693	-81.98
344.077	-59.15
344.46	-72.94
344.843	-66.38
345.226	-37
345.61	-36.33
345.993	-18.25
346.376	3.67
346.759	23.11
347.142	33.95
347.525	56.33
347.908	59.26
348.291	79.15
348.674	96.1
349.057	85.48
349.44	127.28
349.823	144.01
350.206	163.22
350.588	165.02
350.971	181.52
351.354	236.66
351.737	242.54
352.119	242.99
352.502	254.97
352.884	256.77
353.267	261.74
353.65	276.43
354.032	285.92
354.414	291.57
354.797	302.65
355.179	291.57
355.562	294.29
355.944	313.72
356.326	337.45
356.709	311.69
357.091	322.53
357.473	322.99
357.855	325.02
358.238	329.77
358.62	318.47
359.002	334.06
359.384	299.48
359.766	319.6
360.148	321.86
360.53	331.57
360.912	307.85
361.294	301.52
361.676	342.19
362.057	317.79
362.439	329.99
362.821	318.01
363.203	330.67
363.584	330.44
363.966	304.46
364.348	311.46
364.729	318.69
365.111	315.53
365.493	318.69
365.874	301.29
366.256	319.14
366.637	315.3
367.019	329.31
367.4	303.55
367.781	319.82
368.163	304.68
368.544	291.35
368.925	292.7
369.306	306.72
369.688	297.22
370.069	306.49
370.45	300.39
370.831	297.68
371.212	320.05
371.593	305.13
371.974	306.72
372.355	289.54
372.736	314.62
373.117	326.15
373.498	296.55
373.879	315.3
374.26	286.15
374.641	292.25
375.021	312.36
375.402	323.44
375.783	303.78
376.163	334.28
376.544	301.52
376.925	316.66
377.305	312.14
377.686	300.61
378.066	318.92
378.447	329.54
378.827	325.25
379.208	318.47
379.588	332.93
379.968	324.57
380.349	346.04
380.729	324.12
381.109	333.38
381.489	339.71
381.87	321.4
382.25	315.53
382.63	349.88
383.01	329.99
383.39	330.44
383.77	348.97
384.15	324.57
384.53	326.83
384.91	358.92
385.29	353.95
385.67	352.82
386.049	329.31
386.429	361.4
386.809	340.84
387.189	339.48
387.568	355.98
387.948	350.33
388.328	359.82
388.707	365.92
389.087	342.19
389.466	371.57
389.846	365.02
390.225	352.82
390.605	381.52
390.984	364.34
391.363	376.77
391.743	381.29
392.122	380.39
392.501	366.37
392.881	396.66
393.26	393.49
393.639	378.58
394.018	385.13
394.397	386.04
394.776	364.79
395.155	381.52
395.534	382.42
395.913	415.19
396.292	404.34
396.671	395.3
397.05	402.98
397.429	410.67
397.808	378.13
398.186	391.23
398.565	400.5
398.944	400.72
399.323	392.36
399.701	402.08
400.08	397.33
400.458	418.58
400.837	393.94
401.215	406.15
401.594	416.54
401.972	424.68
402.351	422.19
402.729	428.97
403.107	409.54
403.486	415.64
403.864	435.53
404.242	428.52
404.62	447.05
404.999	449.31
405.377	450.44
405.755	432.36
406.133	428.75
406.511	441.4
406.889	452.47
407.267	463.1
407.645	455.19
408.023	475.98
408.401	472.36
408.779	461.74
409.156	473.04
409.534	487.28
409.912	486.82
410.29	483.89
410.667	493.15
411.045	486.37
411.422	471.91
411.8	479.14
412.178	511.68
412.555	481.17
412.933	495.41
413.31	503.55
413.687	515.3
414.065	502.19
414.442	532.92
414.819	529.99
415.197	533.83
415.574	544.45
415.951	525.24
416.328	519.59
416.705	547.84
417.082	527.05
417.46	536.99
417.837	552.58
418.214	532.02
418.591	525.92
418.967	550.32
419.344	543.09
419.721	548.29
420.098	572.02
420.475	572.47
420.852	560.49
421.228	562.53
421.605	582.41
421.982	593.49
422.358	567.5
422.735	599.59
423.111	592.13
423.488	603.2
423.864	584
424.241	607.5
424.617	585.35
424.994	612.92
425.37	607.27
425.746	616.09
426.123	636.88
426.499	601.85
426.875	649.98
427.251	655.63
427.627	661.28
428.003	636.88
428.379	629.42
428.756	654.28
429.132	665.58
429.507	647.5
429.883	691.79
430.259	669.19
430.635	675.97
431.011	675.07
431.387	694.05
431.763	733.82
432.138	716.42
432.514	728.4
432.89	713.26
433.265	714.84
433.641	737.66
434.016	741.51
434.392	754.61
434.767	781.73
435.143	764.1
435.518	787.38
435.894	786.93
436.269	774.5
436.644	792.58
437.02	786.02
437.395	786.02
437.77	814.27
438.145	816.98
438.52	823.76
438.895	833.71
439.271	822.41
439.646	858.56
440.021	841.39
440.395	828.96
440.77	817.44
441.145	858.34
441.52	879.13
441.895	848.85
442.27	862.41
442.645	877.1
443.019	890.43
443.394	894.27
443.769	897.66
444.143	871.9
444.518	893.82
444.892	895.4
445.267	885.23
445.641	918.45
446.016	897.43
446.39	921.61
446.764	925.68
447.139	893.37
447.513	940.82
447.887	944.89
448.262	928.62
448.636	944.66
449.01	940.37
449.384	964.1
449.758	972.01
450.132	971.78
450.506	983.31
450.88	976.75
451.254	990.09
451.628	1014.27
452.002	1028.73
452.376	1011.78
452.75	1038
453.123	1003.65
453.497	1068.95
453.871	1069.86
454.244	1069.86
454.618	1077.54
454.992	1088.62
455.365	1073.7
455.739	1113.7
456.112	1138.11
456.486	1109.86
456.859	1130.42
457.232	1131.1
457.606	1172.46
457.979	1147.6
458.352	1163.42
458.725	1185.56
459.099	1193.25
459.472	1198.67
459.845	1215.39
460.218	1230.98
460.591	1241.38
460.964	1272.79
461.337	1289.97
461.71	1302.62
462.083	1304.88
462.456	1292.68
462.829	1312.34
463.201	1315.73
463.574	1355.05
463.947	1343.07
464.32	1384.88
464.692	1378.78
465.065	1375.16
465.438	1396.63
465.81	1440.02
466.183	1447.93
466.555	1461.71
466.928	1481.83
467.3	1443.41
467.672	1474.14
468.045	1544.65
468.417	1543.97
468.789	1549.85
469.161	1553.69
469.534	1577.87
469.906	1626.68
470.278	1638.21
470.65	1657.64
471.022	1674.14
471.394	1700.12
471.766	1691.54
472.138	1692.89
472.51	1753.91
472.882	1780.8
473.253	1800.46
473.625	1787.81
473.997	1816.96
474.369	1850.63
474.74	1876.84
475.112	1906.9
475.484	1934.69
475.855	1963.39
476.227	1968.14
476.598	1983.28
476.97	2010.4
477.341	2056.73
477.713	2098.76
478.084	2097.4
478.455	2152.09
478.827	2195.25
479.198	2195.93
479.569	2201.35
479.94	2295.36
480.311	2329.03
480.682	2368.13
481.053	2408.58
481.424	2447.22
481.795	2477.51
482.166	2472.53
482.537	2502.36
482.908	2565.64
483.279	2552.98
483.65	2646.99
484.021	2679.31
484.391	2664.39
484.762	2701
485.133	2736.93
485.503	2793.88
485.874	2821.23
486.244	2848.8
486.615	2926.76
486.985	2909.81
487.356	2983.25
487.726	2993.65
488.097	3073.87
488.467	3078.39
488.837	3139.63
489.207	3198.62
489.578	3206.3
489.948	3232.74
490.318	3282.23
490.688	3300.53
491.058	3342.57
491.428	3382.34
491.798	3388.67
492.168	3463.02
492.538	3494.2
492.908	3506.4
493.278	3555.22
493.648	3590.92
494.017	3644.03
494.387	3613.52
494.757	3659.4
495.126	3742.56
495.496	3774.42
495.866	3725.83
496.235	3819.84
496.605	3844.02
496.974	3859.62
497.344	3918.37
497.713	3911.14
498.082	3950.91
498.452	3995.21
498.821	3996.79
499.19	4009.67
499.559	4046.5
499.928	4074.3
500.298	4088.99
500.667	4161.3
501.036	4150
501.405	4173.73
501.774	4214.41
502.143	4228.19
502.512	4218.48
502.88	4315.88
503.249	4268.64
503.618	4359.94
503.987	4342.32
504.356	4385.25
504.724	4353.16
505.093	4429.09
505.462	4437.68
505.83	4490.33
506.199	4523.55
506.567	4580.05
506.936	4568.07
507.304	4571.91
507.672	4629.54
508.041	4675.19
508.409	4649.43
508.777	4712.02
509.145	4741.17
509.514	4757.9
509.882	4862.75
510.25	4853.49
510.618	4880.15
510.986	4896.65
511.354	4896.65
511.722	4984.56
512.09	5016.42
512.458	5029.75
512.826	5037.44
513.193	5139.58
513.561	5113.37
513.929	5149.75
514.297	5218.68
514.664	5224.55
515.032	5297.77
515.4	5287.83
515.767	5346.36
516.135	5367.82
516.502	5368.5
516.869	5468.84
517.237	5458.67
517.604	5474.94
517.972	5516.3
518.339	5478.33
518.706	5528.5
519.073	5571.21
519.44	5678.55
519.808	5693.24
520.175	5727.59
520.542	5781.15
520.909	5822.05
521.276	5825.89
521.643	5871.77
522.009	5910.41
522.376	6023.17
522.743	6003.29
523.11	6097.07
523.477	6172.32
523.843	6208.71
524.21	6234.69
524.577	6270.17
524.943	6312.43
525.31	6312.88
525.676	6407.57
526.043	6422.71
526.409	6482.15
526.776	6547.68
527.142	6501.58
527.508	6610.28
527.874	6616.38
528.241	6704.29
528.607	6670.39
528.973	6795.13
529.339	6767.34
529.705	6851.4
530.071	6914.68
530.437	6898.41
530.803	6931.63
531.169	6979.53
531.535	6959.65
531.901	7036.26
532.267	7048.46
532.632	7129.36
532.998	7155.57
533.364	7225.4
533.73	7215.91
534.095	7299.53
534.461	7301.56
534.826	7296.36
535.192	7371.61
535.557	7429.47
535.923	7468.11
536.288	7480.09
536.653	7521.44
537.019	7504.49
537.384	7497.26
537.749	7575.9
538.114	7621.1
538.479	7597.37
538.845	7666.75
539.21	7687.99
539.575	7724.15
539.94	7698.84
540.305	7814.99
540.67	7809.12
541.034	7765.05
541.399	7793.3
541.764	7821.32
542.129	7882.34
542.494	7899.51
542.858	7908.32
543.223	7930.7
543.587	7983.8
543.952	7974.76
544.316	8051.14
544.681	8045.95
545.045	8112.39
545.41	8097.7
545.774	8097.47
546.138	8150.58
546.503	8102.44
546.867	8239.16
547.231	8237.35
547.595	8261.99
547.959	8285.71
548.324	8287.97
548.688	8351.25
549.052	8341.53
549.416	8384.24
549.779	8346.73
550.143	8420.17
550.507	8508.53
550.871	8472.15
551.235	8548.31
551.599	8599.6
551.962	8600.28
552.326	8628.98
552.689	8669.21
553.053	8666.95
553.417	8715.99
553.78	8789.66
554.143	8716.21
554.507	8735.65
554.87	8818.81
555.234	8925.25
555.597	8889.09
555.96	8937.45
556.323	8990.78
556.686	8986.94
557.05	8984.23
557.413	9025.58
557.776	9111
558.139	9176.09
558.502	9182.87
558.865	9273.03
559.228	9252.69
559.59	9301.51
559.953	9336.31
560.316	9369.3
560.679	9369.98
561.041	9503.99
561.404	9559.58
561.767	9561.39
562.129	9574.72
562.492	9693.36
562.854	9675.28
563.217	9696.98
563.579	9729.97
563.941	9694.26
564.304	9803.41
564.666	9887.25
565.028	9913.92
565.39	9878.44
565.753	9950.98
566.115	10003.41
566.477	10061.49
566.839	10047.7
567.201	10055.84
567.563	10209.96
567.925	10212.44
568.287	10231.43
568.648	10300.8
569.01	10288.83
569.372	10416.28
569.734	10420.57
570.095	10427.8
570.457	10470.52
570.819	10575.37
571.18	10563.39
571.542	10596.61
571.903	10612.43
572.265	10576.95
572.626	10621.92
572.987	10681.13
573.349	10747.12
573.71	10771.07
574.071	10773.33
574.432	10788.25
574.794	10916.15
575.155	10878.19
575.516	10843.61
575.877	10882.48
576.238	10920
576.599	11002.93
576.96	10945.98
577.32	11015.59
577.681	11030.95
578.042	11019.43
578.403	11030.95
578.763	11039.31
579.124	11060.78
579.485	11109.59
579.845	11179.65
580.206	11128.58
580.566	11139.88
580.927	11177.84
581.287	11181.23
581.648	11128.13
582.008	11280.44
582.368	11159.31
582.728	11141.23
583.089	11229.82
583.449	11229.59
583.809	11253.55
584.169	11257.16
584.529	11214.22
584.889	11271.62
585.249	11298.74
585.609	11193.66
585.969	11321.79
586.329	11326.09
586.688	11321.79
587.048	11218.29
587.408	11251.96
587.768	11220.55
588.127	11261.46
588.487	11273.21
588.846	11301.23
589.206	11294.67
589.565	11259.65
589.925	11342.36
590.284	11249.03
590.643	11228.91
591.003	11374.9
591.362	11334.9
591.721	11365.18
592.08	11317.73
592.44	11331.96
592.799	11347.78
593.158	11341.91
593.517	11364.28
593.876	11336.48
594.235	11315.92
594.593	11377.38
594.952	11396.14
595.311	11436.37
595.67	11352.75
596.029	11472.75
596.387	11441.34
596.746	11481.79
597.104	11399.98
597.463	11357.72
597.822	11450.83
598.18	11422.36
598.538	11407.44
598.897	11501.9
599.255	11400.66
599.613	11538.28
599.972	11433.88
600.33	11528.34
600.688	11336.26
601.046	11519.3
601.404	11591.16
601.762	11520.88
602.12	11601.11
602.478	11554.78
602.836	11534.44
603.194	11600.66
603.552	11524.27
603.91	11533.31
604.268	11646.53
604.625	11556.36
604.983	11606.76
605.341	11646.98
605.698	11630.94
606.056	11615.57
606.413	11627.55
606.771	11737.37
607.128	11638.85
607.485	11613.76
607.843	11729.01
608.2	11727.66
608.557	11821.44
608.914	11703.48
609.272	11817.82
609.629	11783.25
609.986	11876.58
610.343	11804.94
610.7	11862.57
611.057	11820.08
611.414	11846.07
611.771	11850.14
612.127	11992.51
612.484	11872.96
612.841	11980.31
613.198	11849.01
613.554	11911.38
613.911	11993.41
614.267	12008.1
614.624	11850.14
614.98	11997.03
615.337	12031.38
615.693	11977.59
616.05	11994.77
616.406	12091.94
616.762	12010.59
617.118	12041.32
617.475	12060.76
617.831	12081.32
618.187	12065.73
618.543	12070.7
618.899	12234.99
619.255	12178.49
619.611	12104.15
619.967	12131.26
620.323	12148.44
620.678	12161.77
621.034	12127.2
621.39	12072.28
621.746	12089.46
622.101	12203.35
622.457	12133.07
622.812	12156.35
623.168	12242.9
623.523	12115.22
623.879	12209.23
624.234	12112.05
624.589	12135.56
624.945	12124.71
625.3	12239.96
625.655	12223.01
626.01	12230.92
626.365	12230.92
626.72	12153.18
627.075	12221.66
627.43	12185.27
627.785	12146.63
628.14	12187.76
628.495	12144.37
628.85	12204.26
629.205	12105.95
629.559	12179.85
629.914	12131.26
630.269	12095.56
630.623	12117.93
630.978	12075.22
631.332	12108.66
631.687	12145.05
632.041	12129
632.396	12079.06
632.75	12016.24
633.104	12062.79
633.459	12002.45
633.813	11973.3
634.167	12006.75
634.521	11955
634.875	12021.89
635.229	11950.25
635.583	11922
635.937	11917.26
636.291	11912.51
636.645	11842.46
636.999	11852.63
637.352	11820.31
637.706	11768.79
638.06	11797.49
638.413	11884.72
638.767	11795.68
639.121	11837.71
639.474	11716.13
639.828	11745.06
640.181	11821.21
640.534	11811.05
640.888	11729.01
641.241	11679.3
641.594	11705.29
641.947	11744.15
642.301	11634.78
642.654	11768.33
643.007	11758.62
643.36	11697.6
643.713	11648.11
644.066	11631.39
644.419	11565.18
644.771	11546.19
645.124	11356.82
645.477	11424.16
645.83	11267.78
646.182	11238.63
646.535	11211.51
646.888	11277.27
647.24	11218.52
647.593	11278.63
647.945	11192.98
648.298	11165.64
648.65	11084.51
649.002	11103.72
649.355	11116.83
649.707	11131.97
650.059	11225.52
650.411	11295.58
650.763	11318.4
651.115	11375.8
651.467	11364.05
651.819	11328.12
652.171	11350.94
652.523	11330.83
652.875	11271.62
653.227	11285.41
653.578	11456.7
653.93	11330.38
654.282	11233.66
654.633	11204.96
654.985	11276.6
655.337	11261.23
655.688	11221
656.039	11321.57
656.391	11265.75
656.742	11272.53
657.094	11196.82
657.445	11294.9
657.796	11200.67
658.147	11137.84
658.498	11130.61
658.849	11168.58
659.2	11188.46
659.551	11098.52
659.902	11212.19
660.253	11118.86
660.604	11204.96
660.955	11081.12
661.306	11133.32
661.656	11087
662.007	11185.75
662.358	11134
662.708	11173.77
663.059	11209.48
663.409	11097.62
663.76	11135.13
664.11	11064.85
664.461	11114.57
664.811	11105.98
665.161	11139.65
665.511	11153.89
665.862	11123.38
666.212	11072.31
666.562	11077.05
666.912	11070.73
667.262	11060.33
667.612	10978.3
667.962	11070.27
668.312	11072.31
668.662	11129.48
669.011	11050.39
669.361	11032.31
669.711	11101.23
670.06	10977.85
670.41	11115.92
670.76	11053.78
671.109	10979.65
671.459	10908.7
671.808	10965.42
672.157	11039.31
672.507	10863.5
672.856	10929.94
673.205	10881.8
673.554	11000.45
673.904	10944.18
674.253	10925.19
674.602	10992.31
674.951	10779.43
675.3	10708.02
675.649	10947.34
675.998	10891.52
676.346	10845.87
676.695	10931.52
677.044	10824.18
677.393	10837.74
677.741	10905.53
678.09	10804.52
678.438	10762.49
678.787	10805.42
679.135	10876.61
679.484	10759.55
679.832	10811.75
680.181	10691.53
680.529	10740.11
680.877	10754.58
681.225	10751.19
681.573	10736.05
681.922	10746.21
682.27	10637.74
682.618	10624.86
682.966	10629.38
683.314	10727.46
683.661	10669.83
684.009	10578.54
684.357	10508.48
684.705	10569.04
685.053	10579.44
685.4	10548.48
685.748	10509.61
686.095	10450.4
686.443	10515.49
686.79	10494.24
687.138	10449.05
687.485	10436.62
687.832	10354.59
688.18	10349.39
688.527	10303.51
688.874	10362.95
689.221	10352.55
689.568	10323.85
689.915	10264.42
690.262	10271.2
690.609	10195.04
690.956	10157.98
691.303	10128.6
691.65	10104.2
691.997	10132.67
692.344	10131.99
692.69	10034.82
693.037	10089.28
693.383	10026.91
693.73	10000.7
694.077	9894.26
694.423	9897.88
694.769	9938.1
695.116	9891.32
695.462	9859.91
695.808	9848.84
696.155	9824.43
696.501	9814.49
696.847	9790.31
697.193	9744.21
697.539	9763.64
697.885	9731.1
698.231	9657.43
698.577	9648.62
698.923	9621.5
699.269	9644.77
699.614	9575.17
699.96	9538.34
700.306	9503.54
700.651	9487.49
700.997	9439.81
701.342	9376.99
701.688	9461.5
702.033	9368.85
702.379	9423.54
702.724	9424.89
703.069	9391.67
703.415	9328.62
703.76	9327.95
704.105	9306.93
704.45	9226.48
704.795	9203.43
705.14	9281.62
705.485	9184.22
705.83	9206.37
706.175	9160.49
706.52	9108.52
706.865	9046.37
707.209	9132.02
707.554	9005.7
707.899	9083.66
708.243	9047.28
708.588	8960.95
708.932	8995.75
709.277	8945.36
709.621	8969.99
709.966	8892.7
710.31	8938.8
710.654	8804.34
710.998	8869.2
711.342	8820.16
711.687	8834.63
712.031	8800.5
712.375	8817.9
712.719	8773.84
713.063	8756.89
713.407	8737.45
713.75	8714.18
714.094	8687.29
714.438	8699.26
714.782	8702.88
715.125	8659.26
715.469	8678.7
715.812	8639.83
716.156	8595.31
716.499	8580.62
716.843	8555.31
717.186	8522.09
717.53	8532.04
717.873	8534.97
718.216	8541.3
718.559	8497.23
718.902	8478.93
719.246	8424.02
719.589	8413.62
719.932	8385.6
720.275	8427.41
720.617	8330.23
720.96	8411.81
721.303	8398.71
721.646	8353.51
721.989	8336.56
722.331	8337.69
722.674	8283.45
723.016	8336.56
723.359	8258.82
723.701	8326.62
724.044	8267.64
724.386	8207.52
724.729	8288.88
725.071	8245.26
725.413	8215.66
725.755	8186.06
726.097	8177.69
726.439	8118.49
726.782	8136.34
727.124	8237.35
727.465	8143.12
727.807	8144.02
728.149	8106.06
728.491	8123.46
728.833	8093.85
729.175	8057.7
729.516	8021.99
729.858	8028.55
730.199	8021.77
730.541	8019.05
730.882	8007.53
731.224	8039.62
731.565	7903.58
731.906	7993.52
732.248	7983.58
732.589	7928.44
732.93	7913.75
733.271	7910.81
733.612	7898.61
733.953	7902.45
734.294	7851.38
734.635	7942.22
734.976	7871.94
735.317	7856.35
735.658	7878.72
735.999	7871.49
736.339	7816.12
736.68	7823.35
737.021	7841.21
737.361	7864.71
737.702	7825.39
738.042	7790.59
738.383	7787.87
738.723	7760.76
739.063	7743.13
739.404	7719.4
739.744	7743.81
740.084	7673.3
740.424	7649.57
740.764	7656.13
741.104	7713.98
741.444	7657.93
741.784	7597.14
742.124	7669.46
742.464	7674.43
742.804	7567.09
743.143	7617.94
743.483	7526.41
743.823	7526.86
744.162	7598.5
744.502	7526.41
744.841	7469.24
745.181	7517.15
745.52	7464.94
745.86	7542.23
746.199	7430.6
746.538	7449.13
746.877	7492.74
747.216	7501.33
747.556	7467.88
747.895	7465.17
748.234	7488
748.573	7427.43
748.911	7391.5
749.25	7414.55
749.589	7411.84
749.928	7391.95
750.267	7368.9
750.605	7292.29
750.944	7359.86
751.283	7274.67
751.621	7304.95
751.96	7267.89
752.298	7199.42
752.636	7248.91
752.975	7196.48
753.313	7224.73
753.651	7265.85
753.989	7205.06
754.327	7161.9
754.666	7190.83
755.004	7147.44
755.342	7103.37
755.679	7093.66
756.017	7072.41
756.355	7097.95
756.693	7047.55
757.031	7072.86
757.368	7084.84
757.706	7061.79
758.044	6951.74
758.381	7029.7
758.719	6914.68
759.056	6970.95
759.394	6930.5
759.731	6879.88
760.068	6902.7
760.405	6863.38
760.743	6869.25
761.08	6844.17
761.417	6757.62
761.754	6747.22
762.091	6735.47
762.428	6772.76
762.765	6718.98
763.102	6747.22
763.438	6708.35
763.775	6675.81
764.112	6690.73
764.449	6650.5
764.785	6619.77
765.122	6608.24
765.458	6561.92
765.795	6542.48
766.131	6569.38
766.467	6476.72
766.804	6490.73
767.14	6496.38
767.476	6533.44
767.812	6426.55
768.148	6443.73
768.485	6369.15
768.821	6367.12
769.157	6375.26
769.492	6357.86
769.828	6356.5
770.164	6268.82
770.5	6238.76
770.836	6275.6
771.171	6245.77
771.507	6203.06
771.842	6184.07
772.178	6151.53
772.513	6136.39
772.849	6051.2
773.184	6090.07
773.519	6086.45
773.855	6038.32
774.19	6027.47
774.525	6045.55
774.86	5997.19
775.195	6009.62
775.53	5968.26
775.865	5956.96
776.2	5935.72
776.535	5881.03
776.87	5874.48
777.205	5873.8
777.539	5799.68
777.874	5848.49
778.209	5780.02
778.543	5731.21
778.878	5737.53
779.212	5777.08
779.547	5749.96
779.881	5743.18
780.215	5681.49
780.55	5714.03
780.884	5655.05
781.218	5644.65
781.552	5600.36
781.886	5640.13
782.22	5603.3
782.554	5533.02
782.888	5531.44
783.222	5555.84
783.556	5468.84
783.889	5518.78
784.223	5418.22
784.557	5446.01
784.89	5428.39
785.224	5406.47
785.557	5417.32
785.891	5394.72
786.224	5343.64
786.558	5339.13
786.891	5285.34
787.224	5261.84
787.557	5232.46
787.891	5248.28
788.224	5258.9
788.557	5166.47
788.89	5226.13
789.223	5190.2
789.556	5190.43
789.888	5139.58
790.221	5139.81
790.554	5107.04
790.887	5078.12
791.219	5100.71
791.552	5049.87
791.884	5052.13
792.217	5021.17
792.549	5026.59
792.882	4953.6
793.214	4973.49
793.546	4972.36
793.879	4934.39
794.211	4923.54
794.543	4900.49
794.875	4917.67
795.207	4933.94
795.539	4897.1
795.871	4893.71
796.203	4842.64
796.535	4815.52
796.867	4782.08
797.198	4764.68
797.53	4780.95
797.862	4752.93
798.193	4800.61
798.525	4727.62
798.856	4771
799.188	4681.97
799.519	4680.84
799.85	4665.24
800.182	4671.35
800.513	4674.74
800.844	4634.74
801.175	4662.08
801.506	4656.66
801.837	4650.1
802.168	4639.26
802.499	4581.86
802.83	4556.77
803.161	4597.22
803.491	4553.84
803.822	4580.28
804.153	4514.51
804.483	4478.13
804.814	4494.85
805.145	4461.86
805.475	4448.75
805.805	4490.56
806.136	4458.47
806.466	4461.41
806.796	4467.28
807.126	4458.92
807.457	4411.69
807.787	4413.95
808.117	4360.17
808.447	4356.55
808.777	4415.08
809.107	4392.03
809.436	4360.62
809.766	4366.5
810.096	4322.65
810.426	4308.42
810.755	4319.26
811.085	4307.97
811.414	4300.73
811.744	4249.44
812.073	4258.7
812.403	4230.45
812.732	4218.93
813.061	4218.7
813.39	4171.7
813.719	4183.68
814.049	4205.6
814.378	4211.7
814.707	4191.36
815.036	4183.22
815.365	4163.56
815.693	4158.82
816.022	4150.91
816.351	4129.21
816.68	4114.98
817.008	4128.76
817.337	4090.34
817.665	4060.51
817.994	4106.16
818.322	4096.67
818.651	4026.84
818.979	4013.06
819.307	4076.11
819.636	4032.94
819.964	4011.25
820.292	4023.45
820.62	4016.9
820.948	4016.9
821.276	4019.16
821.604	4002.66
821.932	3991.59
822.259	4036.11
822.587	3990.01
822.915	3990.23
823.243	4010.35
823.57	4001.99
823.898	3949.56
824.225	4014.19
824.553	3959.95
824.88	3963.34
825.207	3999.73
825.535	3992.95
825.862	3995.88
826.189	4000.63
826.516	3993.17
826.843	3999.5
827.17	4006.05
827.497	4060.06
827.824	4028.88
828.151	4045.6
828.478	4014.87
828.805	4050.57
829.131	4017.35
829.458	3945.72
829.785	3994.3
830.111	3970.35
830.438	4025.49
830.764	3966.96
831.09	3964.47
831.417	3959.73
831.743	3982.1
832.069	3969.22
832.395	3898.03
832.722	3927.41
833.048	3949.11
833.374	3997.47
833.7	3968.31
834.026	3964.47
834.351	3935.55
834.677	3978.03
835.003	3940.97
835.329	3996.34
835.654	3940.52
835.98	3931.03
836.306	3916.34
836.631	3913.85
836.956	3939.39
837.282	3932.38
837.607	3887.86
837.932	3868.43
838.258	3893.51
838.583	3896.45
838.908	3848.99
839.233	3867.07
839.558	3895.1
839.883	3860.52
840.208	3860.29
840.533	3832.5
840.858	3840.86
841.182	3841.99
841.507	3816.68
841.832	3800.63
842.156	3775.55
842.481	3800.63
842.805	3780.07
843.13	3790.01
843.454	3779.17
843.778	3741.65
844.103	3763.57
844.427	3761.77
844.751	3770.35
845.075	3793.63
845.399	3739.85
845.723	3678.83
846.047	3691.94
846.371	3665.5
846.695	3661.2
847.019	3649.68
847.343	3654.88
847.666	3617.59
847.99	3590.02
848.313	3664.59
848.637	3568.55
848.96	3620.98
849.284	3576.23
849.607	3533.07
849.931	3540.3
850.254	3512.51
850.577	3533.52
850.9	3507.08
851.223	3462.56
851.546	3444.03
851.869	3436.8
852.192	3468.89
852.515	3456.24
852.838	3420.53
853.161	3405.84
853.483	3404.26
853.806	3384.15
854.129	3417.37
854.451	3397.03
854.774	3367.2
855.096	3339.86
855.419	3399.29
855.741	3349.12
856.063	3375.79
856.385	3315.68
856.708	3329.69
857.03	3326.97
857.352	3305.05
857.674	3289.24
857.996	3272.29
858.318	3247.88
858.64	3241.78
858.961	3220.76
859.283	3252.17
859.605	3212.85
859.926	3228.22
860.248	3209.46
860.57	3217.37
860.891	3224.83
861.212	3216.24
861.534	3194.77
861.855	3210.37
862.176	3166.53
862.498	3199.29
862.819	3207.88
863.14	3169.69
863.461	3156.36
863.782	3187.09
864.103	3173.98
864.424	3169.69
864.745	3169.24
865.065	3141.89
865.386	3133.08
865.707	3135.57
866.027	3117.04
866.348	3106.42
866.668	3088.56
866.989	3131.27
867.309	3061.22
867.63	3093.08
867.95	3089.24
868.27	3070.94
868.59	3069.13
868.91	3043.82
869.23	3057.38
869.55	3070.48
869.87	3076.13
870.19	3050.6
870.51	3042.01
870.83	3046.98
871.15	3031.84
871.469	3025.97
871.789	3044.04
872.109	2994.55
872.428	3014.44
872.748	3008.79
873.067	3006.31
873.386	3004.05
873.706	2992.75
874.025	3001.56
874.344	2986.87
874.663	2997.72
874.982	2976.93
875.301	2989.36
875.62	2972.41
875.939	2976.25
876.258	3015.34
876.577	2973.76
876.896	2941.9
877.214	2951.62
877.533	2942.13
877.852	2953.65
878.17	2928.34
878.489	2987.55
878.807	2907.1
879.125	2918.85
879.444	2965.4
879.762	2953.43
880.08	2925.4
880.398	2909.13
880.716	2894.44
881.034	2883.6
881.352	2887.89
881.67	2887.89
881.988	2862.35
882.306	2878.17
882.624	2891.05
882.941	2863.26
883.259	2859.64
883.577	2851.73
883.894	2835.91
884.212	2836.37
884.529	2804.73
884.846	2843.15
885.164	2823.49
885.481	2797.72
885.798	2860.32
886.115	2804.28
886.432	2783.94
886.75	2782.81
887.067	2793.2
887.383	2786.88
887.7	2765.18
888.017	2762.92
888.334	2769.02
888.651	2734.9
888.967	2774.45
889.284	2740.78
889.6	2756.37
889.917	2729.7
890.233	2731.96
890.55	2709.36
890.866	2779.19
891.182	2683.83
891.498	2701.23
891.815	2691.74
892.131	2710.04
892.447	2658.97
892.763	2695.8
893.079	2680.66
893.395	2674.79
893.71	2658.97
894.026	2675.24
894.342	2656.71
894.657	2642.92
894.973	2644.73
895.289	2614.68
895.604	2604.51
895.92	2600.21
896.235	2597.05
896.55	2579.88
896.865	2600.44
897.181	2578.97
897.496	2540.33
897.811	2568.12
898.126	2535.13
898.441	2518.18
898.756	2543.27
899.071	2523.61
899.386	2500.78
899.7	2515.47
900.015	2491.97
900.33	2484.74
900.644	2512.98
900.959	2493.78
901.273	2461.69
901.588	2486.77
901.902	2436.15
902.216	2452.65
902.531	2495.58
902.845	2472.31
903.159	2430.5
903.473	2401.35
903.787	2409.03
904.101	2360.9
904.415	2374.23
904.729	2405.42
905.042	2391.18
905.356	2381.69
905.67	2341.46
905.984	2382.82
906.297	2353.44
906.611	2339.43
906.924	2338.3
907.237	2333.55
907.551	2329.94
907.864	2302.14
908.177	2315.25
908.491	2297.62
908.804	2293.78
909.117	2305.76
909.43	2248.13
909.743	2265.99
910.056	2272.31
910.368	2258.98
910.681	2191.41
910.994	2225.31
911.307	2237.06
911.619	2201.35
911.932	2200
912.244	2202.48
912.557	2213.78
912.869	2168.14
913.181	2194.8
913.494	2181.24
913.806	2150.51
914.118	2159.32
914.43	2159.77
914.742	2129.04
915.054	2108.93
915.366	2140.11
915.678	2102.15
915.99	2085.65
916.302	2082.71
916.613	2105.76
916.925	2095.14
917.236	2080.23
917.548	2079.32
917.859	2070.28
918.171	2080
918.482	2054.92
918.794	2051.3
919.105	2038.87
919.416	2014.92
919.727	2032.09
920.038	2025.09
920.349	2007.01
920.66	2019.66
920.971	1995.48
921.282	1963.85
921.593	1961.13
921.903	1950.74
922.214	1944.41
922.525	1970.63
922.835	1942.15
923.146	1925.2
923.456	1933.79
923.767	1931.08
924.077	1953.9
924.387	1916.84
924.697	1917.52
925.008	1913.23
925.318	1899.44
925.628	1910.74
925.938	1896.28
926.248	1862.15
926.558	1867.13
926.867	1850.86
927.177	1864.41
927.487	1854.02
927.796	1822.83
928.106	1832.78
928.416	1837.3
928.725	1825.77
929.034	1817.64
929.344	1819.9
929.653	1809.95
929.962	1816.05
930.271	1789.84
930.581	1795.26
930.89	1772.21
931.199	1790.29
931.508	1793.68
931.817	1758.88
932.125	1767.24
932.434	1730.41
932.743	1741.48
933.051	1724.76
933.36	1741.48
933.669	1726.11
933.977	1704.19
934.286	1716.4
934.594	1708.26
934.902	1707.36
935.21	1688.83
935.519	1684.98
935.827	1667.36
936.135	1658.32
936.443	1673.91
936.751	1680.46
937.059	1671.42
937.367	1641.6
937.674	1639.56
937.982	1635.95
938.29	1618.09
938.597	1644.31
938.905	1612.44
939.213	1630.07
939.52	1620.8
939.827	1626.45
940.135	1604.08
940.442	1602.05
940.749	1616.29
941.056	1584.65
941.363	1612.22
941.67	1602.5
941.977	1559.56
942.284	1585.1
942.591	1569.28
942.898	1561.15
943.205	1529.06
943.511	1520.69
943.818	1510.75
944.125	1529.51
944.431	1498.32
944.738	1516.4
945.044	1501.71
945.35	1537.19
945.657	1492.67
945.963	1488.83
946.269	1470.07
946.575	1489.96
946.881	1477.08
947.187	1476.63
947.493	1459
947.799	1461.94
948.105	1459.45
948.41	1439.57
948.716	1462.62
949.022	1424.43
949.327	1432.79
949.633	1440.02
949.938	1417.65
950.244	1468.04
950.549	1404.31
950.854	1428.04
951.16	1407.93
951.465	1422.39
951.77	1395.73
952.075	1399.12
952.38	1403.86
952.685	1386.69
952.99	1346.91
953.294	1354.37
953.599	1372
953.904	1393.01
954.209	1353.24
954.513	1364.99
954.818	1356.18
955.122	1362.96
955.426	1356.41
955.731	1338.33
956.035	1310.98
956.339	1325.9
956.643	1326.35
956.948	1283.41
957.252	1315.05
957.556	1292
957.86	1329.51
958.163	1310.53
958.467	1283.19
958.771	1293.58
959.075	1303.3
959.378	1293.36
959.682	1284.99
959.985	1253.36
960.289	1265.11
960.592	1268.05
960.896	1253.36
961.199	1227.14
961.502	1267.82
961.805	1241.15
962.108	1259.46
962.411	1233.92
962.714	1225.56
963.017	1228.05
963.32	1235.73
963.623	1201.61
963.926	1198.44
964.228	1174.04
964.531	1191.21
964.833	1166.81
965.136	1190.08
965.438	1200.48
965.741	1171.78
966.043	1183.3
966.345	1190.76
966.648	1202.74
966.95	1170.2
967.252	1162.51
967.554	1141.04
967.856	1164.55
968.158	1150.76
968.46	1162.74
968.761	1161.61
969.063	1168.16
969.365	1124.09
969.666	1130.42
969.968	1142.4
970.269	1126.58
970.571	1128.61
970.872	1131.33
971.174	1102.63
971.475	1137.43
971.776	1125.45
972.077	1081.16
972.378	1103.08
972.679	1135.62
972.98	1113.7
973.281	1082.06
973.582	1083.64
973.883	1094.72
974.183	1080.71
974.484	1088.39
974.785	1072.34
975.085	1081.84
975.386	1080.71
975.686	1055.4
975.986	1067.15
976.287	1046.58
976.587	1015.4
976.887	1034.61
977.187	1067.37
977.487	1024.21
977.787	1068.28
978.087	1030.09
978.387	1025.79
978.687	1024.21
978.987	1026.24
979.286	1017.88
979.586	1019.46
979.885	1042.29
980.185	1009.07
980.484	1047.03
980.784	1030.76
981.083	998
981.382	1006.13
981.682	982.63
981.981	964.78
982.28	986.7
982.579	1008.39
982.878	993.02
983.177	964.55
983.475	957.55
983.774	972.91
984.073	967.26
984.372	956.87
984.67	938.79
984.969	952.8
985.267	953.7
985.566	947.83
985.864	954.61
986.162	908.96
986.461	928.39
986.759	942.86
987.057	928.62
987.355	939.69
987.653	933.82
987.951	950.99
988.249	907.6
988.547	919.35
988.844	918.68
989.142	930.43
989.44	910.32
989.737	902.41
990.035	908.51
990.332	897.21
990.63	899.69
990.927	910.77
991.224	903.54
991.521	900.15
991.819	890.2
992.116	872.12
992.413	859.92
992.71	872.58
993.006	889.3
993.303	862.18
993.6	881.39
993.897	864.44
994.193	879.36
994.49	885
994.787	877.55
995.083	840.03
995.379	861.05
995.676	856.53
995.972	877.55
996.268	860.37
996.565	843.42
996.861	834.16
997.157	841.84
997.453	826.02
997.749	834.61
998.044	823.31
998.34	807.27
998.636	797.32
998.932	810.66
999.227	806.59
999.523	804.33
999.818	793.03
1000.114	803.2
1000.409	817.44
1000.704	790.32
1001	811.56
1001.295	798.91
1001.59	807.04
1001.885	810.2
1002.18	772.01
1002.475	765.91
1002.77	787.38
1003.065	795.29
1003.359	782.63
1003.654	787.61
1003.949	757.55
1004.243	760.04
1004.538	737.89
1004.832	761.62
1005.127	750.77
1005.421	769.98
1005.715	758.45
1006.009	758
1006.304	754.16
1006.598	749.87
1006.892	756.87
1007.186	733.82
1007.48	722.75
1007.773	733.82
1008.067	707.16
1008.361	736.08
1008.655	745.8
1008.948	705.35
1009.242	725.46
1009.535	710.09
1009.829	732.47
1010.122	698.34
1010.415	732.69
1010.708	714.84
1011.001	672.36
1011.295	708.51
1011.588	687.04
1011.881	677.33
1012.173	686.37
1012.466	687.72
1012.759	663.32
1013.052	681.39
1013.344	687.04
1013.637	659.7
1013.93	666.48
1014.222	671.45
1014.514	641.62
1014.807	640.04
1015.099	693.82
1015.391	672.36
1015.683	669.87
1015.976	660.6
1016.268	681.39
1016.56	631.68
1016.851	649.76
1017.143	652.02
1017.435	648.63
1017.727	648.18
1018.018	640.49
1018.31	647.5
1018.602	628.51
1018.893	663.99
1019.185	640.27
1019.476	623.99
1019.767	632.81
1020.058	639.36
1020.35	619.93
1020.641	620.15
1020.932	622.64
1021.223	629.64
1021.514	620.15
1021.804	621.28
1022.095	603.66
1022.386	598.91
1022.677	605.46
1022.967	591.23
1023.258	586.48
1023.548	594.62
1023.839	582.19
1024.129	604.33
1024.419	563.66
1024.709	581.74
1025	564.56
1025.29	584.67
1025.58	581.96
1025.87	576.99
1026.16	558.46
1026.449	562.08
1026.739	564.79
1027.029	564.34
1027.319	559.36
1027.608	584
1027.898	575.18
1028.187	565.24
1028.477	546.48
1028.766	533.6
1029.055	557.56
1029.344	552.36
1029.634	546.03
1029.923	567.5
1030.212	543.09
1030.501	551.45
1030.79	534.73
1031.078	541.74
1031.367	537.22
1031.656	533.38
1031.945	546.93
1032.233	528.4
1032.522	528.63
1032.81	548.06
1033.099	526.82
1033.387	511.46
1033.675	509.65
1033.963	527.05
1034.251	511.46
1034.54	513.26
1034.828	500.61
1035.116	515.52
1035.403	500.16
1035.691	508.74
1035.979	504.45
1036.267	517.33
1036.554	501.29
1036.842	502.42
1037.129	501.74
1037.417	490.21
1037.704	499.48
1037.992	505.58
1038.279	472.36
1038.566	492.7
1038.853	492.7
1039.14	492.7
