Data from black_metal_pc_casing_FLMS001491_00050.txt Node
Date: Wed Feb 08 14:32:46 GMT 2017
User: dcchb
Spectrometer: FLMS00149
Trigger mode: 0
Integration Time (sec): 2.000000E-2
Scans to average: 10
Electric dark correction enabled: true
Nonlinearity correction enabled: false
Boxcar width: 0
XAxis mode: Wavelengths
Number of Pixels in Spectrum: 2048
>>>>>Begin Spectral Data<<<<<
341.393	2.51
341.776	2.51
342.16	2.51
342.543	-75.68
342.927	-64.6
343.31	-62.57
343.693	-58.28
344.077	-60.54
344.46	-50.14
344.843	-58.95
345.226	-51.5
345.61	-20.31
345.993	-20.99
346.376	-7.88
346.759	5.23
347.142	21.5
347.525	52.68
347.908	37.54
348.291	66.92
348.674	94.04
349.057	113.25
349.44	120.7
349.823	137.88
350.206	157.31
350.588	175.62
350.971	198.67
351.354	208.16
351.737	221.94
352.119	253.58
352.502	248.84
352.884	269.85
353.267	259.46
353.65	262.85
354.032	282.73
354.414	282.28
354.797	289.29
355.179	301.04
355.562	307.59
355.944	310.75
356.326	337.19
356.709	313.24
357.091	321.83
357.473	334.48
357.855	327.93
358.238	317.53
358.62	320.92
359.002	320.92
359.384	328.61
359.766	331.77
360.148	309.17
360.53	334.93
360.912	329.29
361.294	322.51
361.676	336.52
362.057	299.46
362.439	315.95
362.821	321.83
363.203	337.19
363.584	315.5
363.966	304.43
364.348	307.36
364.729	318.89
365.111	296.52
365.493	314.14
365.874	291.32
366.256	283.86
366.637	295.16
367.019	297.65
367.4	294.71
367.781	315.05
368.163	314.82
368.544	300.36
368.925	300.36
369.306	319.57
369.688	292.45
370.069	286.12
370.45	306.69
370.831	288.38
371.212	281.6
371.593	294.71
371.974	289.96
372.355	300.13
372.736	283.64
373.117	305.1
373.498	302.39
373.879	300.36
374.26	299.46
374.641	290.42
375.021	304.43
375.402	313.47
375.783	303.52
376.163	303.07
376.544	307.59
376.925	330.42
377.305	323.64
377.686	325.9
378.066	299.23
378.447	318.21
378.827	318.66
379.208	318.44
379.588	306.69
379.968	307.82
380.349	330.87
380.729	318.89
381.109	335.84
381.489	324.09
381.87	318.44
382.25	320.7
382.63	329.96
383.01	329.96
383.39	335.16
383.77	331.54
384.15	319.34
384.53	347.36
384.91	332
385.29	338.55
385.67	340.36
386.049	336.74
386.429	358.21
386.809	327.03
387.189	333.8
387.568	343.97
387.948	355.73
388.328	350.08
388.707	333.58
389.087	367.7
389.466	365.89
389.846	362.28
390.225	370.87
390.605	372
390.984	355.5
391.363	365.22
391.743	353.69
392.122	357.08
392.501	339.91
392.881	351.43
393.26	353.69
393.639	339.91
394.018	348.49
394.397	371.09
394.776	377.42
395.155	381.04
395.534	372.9
395.913	370.19
396.292	390.53
396.671	379.45
397.05	379
397.429	385.1
397.808	370.87
398.186	374.26
398.565	400.24
398.944	393.24
399.323	367.25
399.701	371.09
400.08	389.62
400.458	373.35
400.837	388.49
401.215	375.84
401.594	389.17
401.972	389.4
402.351	384.65
402.729	398.21
403.107	390.3
403.486	420.58
403.864	414.71
404.242	402.96
404.62	419.68
404.999	404.54
405.377	397.76
405.755	417.87
406.133	423.29
406.511	442.05
406.889	428.49
407.267	415.38
407.645	437.98
408.023	442.95
408.401	437.3
408.779	426.68
409.156	452.9
409.534	460.13
409.912	438.21
410.29	453.58
410.667	447.93
411.045	453.12
411.422	479.34
411.8	472.78
412.178	481.37
412.555	447.25
412.933	472.11
413.31	467.81
413.687	492.22
414.065	472.56
414.442	477.76
414.819	486.57
415.197	476.85
415.574	500.35
415.951	476.63
416.328	477.08
416.705	489.51
417.082	484.31
417.46	477.53
417.837	482.28
418.214	493.12
418.591	493.57
418.967	507.81
419.344	502.84
419.721	486.12
420.098	507.36
420.475	522.95
420.852	521.37
421.228	531.99
421.605	520.92
421.982	541.93
422.358	530.41
422.735	539.9
423.111	560.47
423.488	532.44
423.864	538.09
424.241	559.34
424.617	545.55
424.994	548.94
425.37	578.77
425.746	561.6
426.123	566.12
426.499	560.47
426.875	581.26
427.251	568.6
427.627	597.98
428.003	597.98
428.379	579.67
428.756	599.33
429.132	601.37
429.507	597.98
429.883	608.37
430.259	609.28
430.635	570.86
431.011	614.48
431.387	641.59
431.763	638.66
432.138	643.85
432.514	644.53
432.89	637.07
433.265	660.12
433.641	670.07
434.016	639.56
434.392	683.17
434.767	681.59
435.143	659.9
435.518	684.76
435.894	681.82
436.269	693.12
436.644	705.55
437.02	698.99
437.395	706.45
437.77	710.07
438.145	730.63
438.52	715.94
438.895	696.28
439.271	720.46
439.646	741.7
440.021	745.55
440.395	750.97
440.77	764.75
441.145	764.3
441.52	803.4
441.895	765.21
442.27	778.31
442.645	778.54
443.019	790.52
443.394	765.88
443.769	792.78
444.143	794.58
444.518	789.61
444.892	793
445.267	798.88
445.641	798.65
446.016	778.09
446.39	813.79
446.764	800.69
447.139	812.66
447.513	821.25
447.887	832.32
448.262	813.79
448.636	844.3
449.01	833.68
449.384	845.66
449.758	825.09
450.132	856.28
450.506	849.05
450.88	882.94
451.254	854.92
451.628	854.7
452.002	887.69
452.376	892.43
452.75	884.07
453.123	894.02
453.497	903.06
453.871	922.72
454.244	917.74
454.618	920
454.992	945.99
455.365	931.53
455.739	963.17
456.112	974.69
456.486	967.23
456.859	988.25
457.232	1000
457.606	991.64
457.979	987.57
458.352	1047.46
458.725	1038.65
459.099	1040.68
459.472	1042.03
459.845	1039.1
460.218	1057.18
460.591	1078.64
460.964	1082.26
461.337	1102.15
461.71	1114.12
462.083	1132.65
462.456	1114.12
462.829	1140.79
463.201	1141.69
463.574	1161.58
463.947	1148.92
464.32	1175.59
464.692	1205.19
465.065	1196.38
465.438	1213.78
465.81	1224.18
466.183	1224.85
466.555	1272.09
466.928	1274.35
467.3	1237.96
467.672	1261.69
468.045	1304.17
468.417	1306.21
468.789	1322.71
469.161	1328.81
469.534	1361.8
469.906	1355.92
470.278	1385.3
470.65	1397.51
471.022	1410.84
471.394	1441.12
471.766	1423.95
472.138	1456.04
472.51	1487.67
472.882	1493.77
473.253	1523.83
473.625	1521.8
473.997	1557.73
474.369	1588.91
474.74	1595.69
475.112	1577.61
475.484	1621.45
475.855	1639.99
476.227	1673.88
476.598	1738.06
476.97	1697.38
477.341	1700.32
477.713	1766.08
478.084	1745.52
478.455	1810.38
478.827	1853.31
479.198	1899.64
479.569	1901
479.94	1937.6
480.311	1940.99
480.682	1939.64
481.053	1997.72
481.424	2009.69
481.795	2039.3
482.166	2043.36
482.537	2108.67
482.908	2144.15
483.279	2188.67
483.65	2201.78
484.021	2240.2
484.391	2285.39
484.762	2252.4
485.133	2302.57
485.503	2325.39
485.874	2389.8
486.244	2399.06
486.615	2408.55
486.985	2441.77
487.356	2472.96
487.726	2485.84
488.097	2536.46
488.467	2557.25
488.837	2597.47
489.207	2634.76
489.578	2639.28
489.948	2709.11
490.318	2719.28
490.688	2739.17
491.058	2796.11
491.428	2798.6
491.798	2855.77
492.168	2887.18
492.538	2894.64
492.908	2938.93
493.278	2978.71
493.648	2963.57
494.017	2990.46
494.387	3004.24
494.757	3027.52
495.126	3051.02
495.496	3110
495.866	3145.03
496.235	3152.49
496.605	3168.31
496.974	3211.47
497.344	3227.97
497.713	3208.53
498.082	3267.96
498.452	3287.85
498.821	3368.75
499.19	3344.57
499.559	3373.05
499.928	3364.23
500.298	3378.47
500.667	3397.91
501.036	3400.39
501.405	3498.24
501.774	3467.51
502.143	3468.19
502.512	3529.43
502.88	3517.68
503.249	3552.25
503.618	3635.86
503.987	3591.57
504.356	3629.31
504.724	3658.92
505.093	3638.12
505.462	3667.05
505.83	3672.47
506.199	3745.69
506.567	3793.83
506.936	3803.77
507.304	3820.94
507.672	3784.79
508.041	3848.74
508.409	3859.14
508.777	3912.02
509.145	3931.45
509.514	3948.17
509.882	3954.95
510.25	3957.21
510.618	3970.32
510.986	4030.43
511.354	4074.72
511.722	4047.38
512.09	4118.79
512.458	4087.6
512.826	4149.75
513.193	4192.23
513.561	4183.87
513.929	4256.87
514.297	4288.05
514.664	4352.46
515.032	4291.44
515.4	4372.79
515.767	4328.28
516.135	4386.81
516.502	4361.95
516.869	4469.06
517.237	4486.46
517.604	4489.18
517.972	4507.71
518.339	4564.2
518.706	4608.49
519.073	4632.45
519.44	4672.22
519.808	4685.1
520.175	4714.93
520.542	4737.53
520.909	4822.05
521.276	4796.74
521.643	4833.12
522.009	4900.46
522.376	4897.75
522.743	4924.42
523.11	4959.45
523.477	5035.83
523.843	5063.4
524.21	5090.74
524.577	5083.06
524.943	5088.71
525.31	5215.71
525.676	5228.82
526.043	5251.42
526.409	5321.7
526.776	5340.68
527.142	5381.36
527.508	5420.68
527.874	5460.22
528.241	5429.49
528.607	5471.07
528.973	5506.55
529.339	5557.17
529.705	5621.12
530.071	5569.15
530.437	5615.25
530.803	5681.01
531.169	5658.64
531.535	5704.74
531.901	5749.93
532.267	5727.34
532.632	5779.31
532.998	5799.88
533.364	5842.59
533.73	5861.12
534.095	5921.91
534.461	5959.65
534.826	5955.58
535.192	6004.39
535.557	6057.5
535.923	5975.92
536.288	6073.54
536.653	6075.8
537.019	6097.95
537.384	6095.69
537.749	6126.19
538.114	6172.52
538.479	6205.97
538.845	6210.03
539.21	6158.74
539.575	6286.64
539.94	6262.46
540.305	6238.73
540.67	6298.39
541.034	6298.17
541.399	6367.09
541.764	6396.92
542.129	6406.41
542.494	6405.51
542.858	6466.52
543.223	6465.85
543.587	6493.87
543.952	6484.15
544.316	6534.77
544.681	6495.22
545.045	6537.48
545.41	6589.91
545.774	6619.06
546.138	6629.23
546.503	6673.07
546.867	6635.33
547.231	6721.21
547.595	6705.39
547.959	6745.84
548.324	6777.93
548.688	6745.39
549.052	6723.24
549.416	6788.32
549.779	6839.85
550.143	6809.34
550.507	6845.27
550.871	6895.44
551.235	6916.46
551.599	6938.15
551.962	7021.09
552.326	7019.5
552.689	7025.15
553.053	7085.72
553.417	7077.13
553.78	7137.24
554.143	7090.69
554.507	7123.68
554.87	7150.35
555.234	7203.45
555.597	7223.79
555.96	7225.15
556.323	7238.71
556.686	7280.74
557.05	7325.71
557.413	7388.53
557.776	7371.81
558.139	7449.78
558.502	7444.13
558.865	7515.99
559.228	7506.5
559.59	7513.5
559.953	7567.96
560.316	7625.36
560.679	7586.72
561.041	7714.85
561.404	7649.54
561.767	7801.18
562.129	7774.06
562.492	7828.3
562.854	7807.05
563.217	7853.38
563.579	7860.61
563.941	7928.86
564.304	7966.6
564.666	8018.12
565.028	8049.08
565.39	8032.81
565.753	8136.31
566.115	8152.13
566.477	8170.43
566.839	8178.57
567.201	8264.22
567.563	8240.26
567.925	8325.46
568.287	8332.69
568.648	8345.35
569.01	8398.68
569.372	8453.59
569.734	8439.58
570.095	8493.14
570.457	8585.57
570.819	8527.49
571.18	8593.25
571.542	8565.68
571.903	8530.88
572.265	8552.57
572.626	8609.07
572.987	8673.47
573.349	8662.4
573.71	8717.99
574.071	8672.12
574.432	8740.14
574.794	8800.7
575.155	8751.21
575.516	8720.7
575.877	8814.03
576.238	8874.37
576.599	8855.84
576.96	8884.99
577.32	8827.82
577.681	8900.59
578.042	8922.96
578.403	8997.08
578.763	8944.88
579.124	8947.59
579.485	9038.21
579.845	9018.1
580.206	8990.3
580.566	9026.91
580.927	8998.21
581.287	9087.92
581.648	8979.91
582.008	8998.44
582.368	9046.8
582.728	9059.45
583.089	9082.5
583.449	9025.1
583.809	9059.23
584.169	9107.59
584.529	9021.94
584.889	9162.95
585.249	9077.53
585.609	9066.23
585.969	9149.84
586.329	9128.38
586.688	9132.22
587.048	9049.28
587.408	9088.83
587.768	9141.26
588.127	9112.11
588.487	9079.34
588.846	9136.29
589.206	9110.07
589.565	9120.01
589.925	9164.99
590.284	9147.13
590.643	9128.6
591.003	9143.52
591.362	9162.05
591.721	9235.49
592.08	9157.75
592.44	9210.86
592.799	9178.54
593.158	9212.44
593.517	9248.37
593.876	9173.35
594.235	9129.28
594.593	9217.64
594.952	9167.24
595.311	9235.49
595.67	9239.79
596.029	9305.77
596.387	9215.83
596.746	9242.95
597.104	9242.27
597.463	9254.25
597.822	9269.84
598.18	9186.91
598.538	9199.56
598.897	9249.95
599.255	9195.49
599.613	9318.65
599.972	9265.32
600.33	9275.49
600.688	9256.96
601.046	9321.59
601.404	9336.51
601.762	9286.11
602.12	9381.7
602.478	9371.76
602.836	9400.01
603.194	9291.76
603.552	9317.98
603.91	9318.65
604.268	9355.26
604.625	9338.31
604.983	9389.61
605.341	9323.85
605.698	9346.68
606.056	9364.3
606.413	9393.45
606.771	9393.91
607.128	9432.32
607.485	9470.97
607.843	9401.14
608.2	9514.13
608.557	9487.69
608.914	9455.15
609.272	9491.08
609.629	9505.77
609.986	9555.71
610.343	9520.46
610.7	9574.24
611.057	9597.29
611.414	9550.29
611.771	9511.87
612.127	9615.59
612.484	9566.56
612.841	9627.12
613.198	9615.14
613.554	9639.55
613.911	9587.8
614.267	9701.24
614.624	9591.19
614.98	9634.13
615.337	9652.2
615.693	9705.76
616.05	9697.63
616.406	9750.05
616.762	9656.72
617.118	9633
617.475	9696.27
617.831	9751.18
618.187	9662.37
618.543	9759.77
618.899	9781.69
619.255	9753.22
619.611	9796.15
619.967	9783.27
620.323	9807
620.678	9792.09
621.034	9788.02
621.39	9756.16
621.746	9751.86
622.101	9879.09
622.457	9766.33
622.812	9736.27
623.168	9819.43
623.523	9819.43
623.879	9825.76
624.234	9772.88
624.589	9823.95
624.945	9856.27
625.3	9882.48
625.655	9767.23
626.01	9765.87
626.365	9841.58
626.72	9751.18
627.075	9770.39
627.43	9798.19
627.785	9782.37
628.14	9828.24
628.495	9868.47
628.85	9767.91
629.205	9724.97
629.559	9762.26
629.914	9759.32
630.269	9737.63
630.623	9815.36
630.978	9764.07
631.332	9757.51
631.687	9746.44
632.041	9714.8
632.396	9827.79
632.75	9704.18
633.104	9658.53
633.459	9644.52
633.813	9648.81
634.167	9658.53
634.521	9660.34
634.875	9694.01
635.229	9619.89
635.583	9550.29
635.937	9612.66
636.291	9574.01
636.645	9634.35
636.999	9530.63
637.352	9578.31
637.706	9529.04
638.06	9571.08
638.413	9471.87
638.767	9481.81
639.121	9494.24
639.474	9439.78
639.828	9496.95
640.181	9512.09
640.534	9477.29
640.888	9433.9
641.241	9390.97
641.594	9393.68
641.947	9463.51
642.301	9393.91
642.654	9343.29
643.007	9346.68
643.36	9339.9
643.713	9354.13
644.066	9367.01
644.419	9311.65
644.771	9294.7
645.124	9281.59
645.477	9211.31
645.83	9125.66
646.182	9113.01
646.535	9071.43
646.888	9078.43
647.24	9028.27
647.593	9014.48
647.945	8979.23
648.298	9016.06
648.65	8957.08
649.002	8902.17
649.355	8947.36
649.707	9004.99
650.059	9017.19
650.411	9155.95
650.763	9076.85
651.115	9147.36
651.467	9142.16
651.819	9155.72
652.171	9188.94
652.523	9138.77
652.875	9131.31
653.227	9081.6
653.578	9059.45
653.93	9110.98
654.282	9023.97
654.633	8999.57
654.985	9094.93
655.337	9115.04
655.688	9034.37
656.039	9035.5
656.391	9035.04
656.742	9083.18
657.094	9037.3
657.445	9111.43
657.796	9014.48
658.147	9017.64
658.498	8994.82
658.849	9011.09
659.2	9068.72
659.551	8967.93
659.902	9074.82
660.253	8964.31
660.604	9082.95
660.955	9005.89
661.306	9058.77
661.656	8955.05
662.007	8921.38
662.358	8980.13
662.708	8986.01
663.059	8906.46
663.409	8846.12
663.76	8995.95
664.11	8946.01
664.461	8968.61
664.811	8962.28
665.161	8964.99
665.511	8958.66
665.862	8935.84
666.212	8991.66
666.562	8948.04
666.912	8913.92
667.262	8934.03
667.612	8922.51
667.962	8942.39
668.312	8887.93
668.662	8981.04
669.011	8896.29
669.361	8885.44
669.711	8924.31
670.06	8832.56
670.41	8852.22
670.76	8798.67
671.109	8916.86
671.459	8863.75
671.808	8804.77
672.157	8820.36
672.507	8826.01
672.856	8817.2
673.205	8852.9
673.554	8819.68
673.904	8819.01
674.253	8848.61
674.602	8814.71
674.951	8666.47
675.3	8579.24
675.649	8767.93
675.998	8749.85
676.346	8728.39
676.695	8798.21
677.044	8772.23
677.393	8761.83
677.741	8774.26
678.09	8665.56
678.438	8756.63
678.787	8685.45
679.135	8696.3
679.484	8685.45
679.832	8764.09
680.181	8624.89
680.529	8712.12
680.877	8630.99
681.225	8662.63
681.573	8699.69
681.922	8625.79
682.27	8567.71
682.618	8574.72
682.966	8528.84
683.314	8587.83
683.661	8516.87
684.009	8493.59
684.357	8520.26
684.705	8543.08
685.053	8556.41
685.4	8546.02
685.748	8402.29
686.095	8459.01
686.443	8337.89
686.79	8340.83
687.138	8422.41
687.485	8413.14
687.832	8338.57
688.18	8416.76
688.527	8379.47
688.874	8269.19
689.221	8330.66
689.568	8322.52
689.915	8254.5
690.262	8261.51
690.609	8272.81
690.956	8167.95
691.303	8177.67
691.65	8170.43
691.997	8154.39
692.344	8060.16
692.69	8109.42
693.037	8062.87
693.383	7994.85
693.73	8095.63
694.077	8046.82
694.423	7954.85
694.769	8005.47
695.116	7994.85
695.462	7958.46
695.808	7897.67
696.155	7946.03
696.501	7810.44
696.847	7872.82
697.193	7836.43
697.539	7871.01
697.885	7804.79
698.231	7758.69
698.577	7718.7
698.923	7713.72
699.269	7733.61
699.614	7646.15
699.96	7715.76
700.306	7698.58
700.651	7638.25
700.997	7705.14
701.342	7642.77
701.688	7554.18
702.033	7574.97
702.379	7593.05
702.724	7560.73
703.069	7555.76
703.415	7445.71
703.76	7524.58
704.105	7493.62
704.45	7518.7
704.795	7443.9
705.14	7393.96
705.485	7412.26
705.83	7287.75
706.175	7380.85
706.52	7315.99
706.865	7329.55
707.209	7353.96
707.554	7257.24
707.899	7334.52
708.243	7252.27
708.588	7245.04
708.932	7223.79
709.277	7276.9
709.621	7236.67
709.966	7168.88
710.31	7213.4
710.654	7170.01
710.998	7161.2
711.342	7172.5
711.687	7160.07
712.031	7141.99
712.375	7060.18
712.719	7111.25
713.063	7080.97
713.407	7066.51
713.75	7054.08
714.094	7026.06
714.438	6991.93
714.782	6952.61
715.125	7003.01
715.469	6972.27
715.812	6942.44
716.156	6898.15
716.499	6913.97
716.843	6955.78
717.186	6856.8
717.53	6921.43
717.873	6906.06
718.216	6865.38
718.559	6827.19
718.902	6799.85
719.246	6863.35
719.589	6849.57
719.932	6777.25
720.275	6772.05
720.617	6815.44
720.96	6776.12
721.303	6751.04
721.646	6751.94
721.989	6716.46
722.331	6760.98
722.674	6744.03
723.016	6727.53
723.359	6652.96
723.701	6661.77
724.044	6647.31
724.386	6649.8
724.729	6693.19
725.071	6674.2
725.413	6627.42
725.755	6615.22
726.097	6621.78
726.439	6574.09
726.782	6587.88
727.124	6535.45
727.465	6578.61
727.807	6567.31
728.149	6507.43
728.491	6541.33
728.833	6531.38
729.175	6485.28
729.516	6516.69
729.858	6487.77
730.199	6512.4
730.541	6489.8
730.882	6439.41
731.224	6507.2
731.565	6441.89
731.906	6435.79
732.248	6469.91
732.589	6436.47
732.93	6365.96
733.271	6412.52
733.612	6374.78
733.953	6419.52
734.294	6416.58
734.635	6335
734.976	6296.59
735.317	6348.79
735.658	6368.45
735.999	6374.55
736.339	6313.99
736.68	6333.65
737.021	6330.71
737.361	6308.11
737.702	6330.03
738.042	6225.85
738.383	6279.41
738.723	6212.29
739.063	6264.5
739.404	6311.05
739.744	6275.12
740.084	6223.37
740.424	6233.54
740.764	6169.13
741.104	6193.31
741.444	6187.44
741.784	6175.01
742.124	6160.54
742.464	6156.93
742.804	6130.26
743.143	6133.43
743.483	6149.92
743.823	6063.82
744.162	6100.43
744.502	6123.48
744.841	6053.43
745.181	6108.12
745.52	6053.43
745.86	6054.11
746.199	6083.94
746.538	6055.46
746.877	6060.21
747.216	6064.73
747.556	6026.31
747.895	5992.19
748.234	6000.77
748.573	5973.2
748.911	5996.48
749.25	5972.98
749.589	5939.76
749.928	5975.01
750.267	5997.84
750.605	5924.62
750.944	5867.44
751.283	5906.54
751.621	5939.53
751.96	5876.03
752.298	5887.11
752.636	5897.05
752.975	5782.7
753.313	5817.28
753.651	5815.47
753.989	5785.19
754.327	5798.29
754.666	5767.56
755.004	5770.72
755.342	5800.55
755.679	5789.71
756.017	5737.73
756.355	5734.11
756.693	5709.71
757.031	5724.85
757.368	5670.84
757.706	5670.61
758.044	5659.09
758.381	5688.69
758.719	5648.02
759.056	5650.73
759.394	5598.75
759.731	5549.94
760.068	5532.31
760.405	5598.53
760.743	5558.75
761.08	5523.05
761.417	5548.81
761.754	5507.45
762.091	5492.54
762.428	5497.96
762.765	5406.67
763.102	5433.33
763.438	5440.11
763.775	5400.34
764.112	5376.84
764.449	5404.63
764.785	5423.39
765.122	5358.98
765.458	5338.64
765.795	5340
766.131	5304.97
766.467	5317.85
766.804	5304.52
767.14	5257.97
767.476	5258.42
767.812	5252.32
768.148	5257.29
768.485	5192.66
768.821	5219.55
769.157	5214.81
769.492	5141.59
769.828	5119.44
770.164	5143.17
770.5	5085.32
770.836	5091.65
771.171	5071.31
771.507	5074.47
771.842	5026.79
772.178	5001.25
772.513	4991.99
772.849	4984.98
773.184	4996.51
773.519	4955.83
773.855	4892.78
774.19	4949.95
774.525	4917.19
774.86	4900.24
775.195	4899.33
775.53	4882.61
775.865	4847.81
776.2	4829.28
776.535	4864.31
776.87	4791.99
777.205	4794.48
777.539	4742.95
777.874	4770.98
778.209	4707.7
778.543	4680.81
778.878	4718.32
779.212	4679.23
779.547	4627.93
779.881	4694.59
780.215	4633.58
780.55	4638.1
780.884	4650.08
781.218	4635.61
781.552	4623.86
781.886	4572.11
782.22	4531.89
782.554	4580.47
782.888	4507.93
783.222	4454.83
783.556	4508.61
783.889	4489.85
784.223	4477.2
784.557	4449.85
784.89	4412.12
785.224	4370.53
785.557	4400.14
785.891	4342.51
786.224	4394.04
786.558	4342.29
786.891	4328.28
787.224	4325.79
787.557	4317.43
787.891	4260.26
788.224	4270.2
788.557	4227.26
788.89	4235.4
789.223	4231.33
789.556	4218.22
789.888	4219.35
790.221	4210.31
790.554	4196.98
790.887	4187.26
791.219	4198.56
791.552	4193.82
791.884	4146.13
792.217	4142.97
792.549	4107.26
792.882	4104.1
793.214	4076.98
793.546	4058.45
793.879	4045.8
794.211	4028.4
794.543	4040.37
794.875	4027.27
795.207	4019.36
795.539	3968.96
795.871	3991.34
796.203	3977.1
796.535	3968.96
796.867	3962.64
797.198	3953.37
797.53	3939.36
797.862	3913.37
798.193	3931.45
798.525	3950.88
798.856	3933.26
799.188	3917.44
799.519	3852.81
799.85	3848.97
800.182	3860.04
800.513	3839.7
800.844	3799.48
801.175	3779.59
801.506	3800.15
801.837	3773.26
802.168	3779.14
802.499	3786.82
802.83	3750.21
803.161	3712.02
803.491	3727.39
803.822	3726.26
804.153	3744.11
804.483	3722.42
804.814	3680.84
805.145	3716.77
805.475	3658.24
805.805	3650.55
806.136	3681.06
806.466	3647.62
806.796	3647.62
807.126	3613.94
807.457	3618.24
807.787	3591.57
808.117	3576.43
808.447	3566.71
808.777	3593.61
809.107	3573.95
809.436	3543.66
809.766	3534.85
810.096	3543.21
810.426	3553.38
810.755	3520.84
811.085	3565.81
811.414	3523.33
811.744	3497.11
812.073	3481.52
812.403	3481.52
812.732	3475.42
813.061	3465.47
813.39	3503.89
813.719	3441.75
814.049	3485.59
814.378	3445.36
814.707	3418.92
815.036	3444.68
815.365	3444.68
815.693	3421.18
816.022	3398.81
816.351	3415.98
816.68	3385.02
817.008	3388.19
817.337	3347.96
817.665	3417.34
817.994	3348.41
818.322	3337.57
818.651	3353.16
818.979	3309.32
819.307	3307.06
819.636	3323.33
819.964	3328.08
820.292	3294.86
820.62	3294.86
820.948	3302.09
821.276	3338.25
821.604	3318.36
821.932	3336.44
822.259	3311.13
822.587	3294.86
822.915	3266.16
823.243	3304.35
823.57	3285.37
823.898	3282.88
824.225	3255.99
824.553	3264.12
824.88	3268.64
825.207	3262.09
825.535	3294.63
825.862	3295.99
826.189	3274.52
826.516	3282.2
826.843	3276.55
827.17	3298.02
827.497	3250.34
827.824	3293.27
828.151	3293.05
828.478	3286.95
828.805	3301.41
829.131	3300.05
829.458	3308.64
829.785	3294.63
830.111	3306.61
830.438	3257.12
830.764	3285.59
831.09	3267.06
831.417	3261.64
831.743	3311.35
832.069	3278.59
832.395	3264.12
832.722	3259.6
833.048	3252.37
833.374	3274.52
833.7	3196.78
834.026	3213.73
834.351	3262.54
834.677	3237.91
835.003	3280.62
835.329	3250.79
835.654	3296.89
835.98	3221.86
836.306	3288.98
836.631	3221.86
836.956	3268.87
837.282	3219.38
837.607	3215.08
837.932	3179.83
838.258	3211.24
838.583	3212.37
838.908	3191.13
839.233	3184.13
839.558	3195.88
839.883	3205.37
840.208	3154.52
840.533	3183.45
840.858	3152.26
841.182	3208.08
841.507	3119.95
841.832	3128.76
842.156	3132.83
842.481	3121.98
842.805	3148.42
843.13	3106.61
843.454	3144.8
843.778	3123.79
844.103	3124.24
844.427	3090.34
844.751	3102.55
845.075	3109.78
845.399	3057.35
845.723	3081.3
846.047	3061.87
846.371	3038.37
846.695	3050.8
847.019	3049.44
847.343	3011.93
847.666	2966.73
847.99	2970.35
848.313	2990.68
848.637	2951.82
848.96	2928.09
849.284	2913.85
849.607	2931.93
849.931	2932.38
850.254	2917.69
850.577	2918.37
850.9	2849.22
851.223	2850.35
851.546	2871.37
851.869	2873.85
852.192	2855.32
852.515	2843.12
852.838	2817.81
853.161	2817.81
853.483	2778.49
853.806	2769.22
854.129	2772.38
854.451	2812.16
854.774	2740.97
855.096	2787.07
855.419	2797.02
855.741	2771.25
856.063	2751.14
856.385	2739.62
856.708	2774.42
857.03	2710.92
857.352	2751.14
857.674	2713.4
857.996	2717.92
858.318	2751.82
858.64	2710.24
858.961	2708.66
859.283	2665.04
859.605	2682.9
859.926	2703.01
860.248	2686.29
860.57	2666.85
860.891	2633.18
861.212	2624.59
861.534	2612.39
861.855	2631.82
862.176	2650.81
862.498	2648.55
862.819	2658.26
863.14	2618.72
863.461	2610.36
863.782	2587.76
864.103	2614.87
864.424	2605.61
864.745	2632.95
865.065	2588.89
865.386	2592.05
865.707	2599.06
866.027	2600.19
866.348	2594.54
866.668	2593.41
866.989	2569.45
867.309	2590.47
867.63	2582.56
867.95	2505.73
868.27	2530.13
868.59	2557.25
868.91	2515.89
869.23	2557.48
869.55	2548.89
869.87	2535.55
870.19	2531.26
870.51	2522
870.83	2546.18
871.15	2499.4
871.469	2516.57
871.789	2511.37
872.109	2506.18
872.428	2521.32
872.748	2511.37
873.067	2488.32
873.386	2503.01
873.706	2504.82
874.025	2491.94
874.344	2463.92
874.663	2482.9
874.982	2478.83
875.301	2467.76
875.62	2498.72
875.939	2485.39
876.258	2460.08
876.577	2480.87
876.896	2436.57
877.214	2454.43
877.533	2452.85
877.852	2488.1
878.17	2446.97
878.489	2424.6
878.807	2475.22
879.125	2453.07
879.444	2475.44
879.762	2455.33
880.08	2399.06
880.398	2410.81
880.716	2443.35
881.034	2393.41
881.352	2387.31
881.67	2386.86
881.988	2412.85
882.306	2436.12
882.624	2412.39
882.941	2345.73
883.259	2369.91
883.577	2390.93
883.894	2389.8
884.212	2363.81
884.529	2373.07
884.846	2364.49
885.164	2346.18
885.481	2359.74
885.798	2362.45
886.115	2342.57
886.432	2325.39
886.75	2294.88
887.067	2354.32
887.383	2307.09
887.7	2326.75
888.017	2308.22
888.334	2279.06
888.651	2303.02
888.967	2298.95
889.284	2287.2
889.6	2296.47
889.917	2274.77
890.233	2268.9
890.55	2260.76
890.866	2247.65
891.182	2264.83
891.498	2243.13
891.815	2247.43
892.131	2242.91
892.447	2235
892.763	2230.48
893.079	2225.73
893.395	2202.68
893.71	2177.15
894.026	2226.18
894.342	2205.62
894.657	2219.18
894.973	2181.89
895.289	2168.78
895.604	2174.43
895.92	2185.73
896.235	2165.62
896.55	2175.79
896.865	2165.85
897.181	2166.3
897.496	2157.94
897.811	2126.3
898.126	2139.41
898.441	2153.42
898.756	2104.38
899.071	2123.36
899.386	2117.26
899.7	2079.07
900.015	2080.2
900.33	2079.52
900.644	2087.43
900.959	2082.46
901.273	2056.92
901.588	2050.82
901.902	2056.7
902.216	2043.82
902.531	2078.84
902.845	2037.04
903.159	2042.23
903.473	2044.04
903.787	2009.69
904.101	2036.58
904.415	2033.42
904.729	1998.62
905.042	1977.83
905.356	1980.32
905.67	1984.16
905.984	1947.55
906.297	1968.56
906.611	1957.26
906.924	1952.52
907.237	1950.71
907.551	1957.49
907.864	1922.01
908.177	1926.08
908.491	1927.89
908.804	1913.88
909.117	1885.85
909.43	1903.03
909.743	1922.69
910.056	1905.97
910.368	1895.35
910.681	1885.18
910.994	1882.01
911.307	1865.74
911.619	1858.96
911.932	1865.52
912.244	1832.75
912.557	1851.05
912.869	1857.83
913.181	1851.05
913.494	1823.71
913.806	1801.34
914.118	1806.99
914.43	1835.46
914.742	1827.78
915.054	1825.52
915.366	1789.36
915.678	1812.18
915.99	1777.38
916.302	1759.3
916.613	1806.99
916.925	1748.68
917.236	1769.7
917.548	1733.09
917.859	1766.54
918.171	1768.57
918.482	1733.54
918.794	1739.19
919.105	1708.68
919.416	1721.56
919.727	1696.48
920.038	1724.28
920.349	1676.37
920.66	1667.56
920.971	1694
921.282	1674.79
921.593	1679.98
921.903	1668.91
922.214	1654.9
922.525	1642.92
922.835	1677.27
923.146	1661.91
923.456	1645.18
923.767	1642.92
924.077	1646.76
924.387	1627.56
924.697	1599.08
925.008	1611.74
925.318	1590.27
925.628	1616.71
925.938	1623.04
926.248	1609.48
926.558	1586.88
926.867	1612.19
927.177	1610.61
927.487	1585.75
927.796	1566.77
928.106	1534
928.416	1534.45
928.725	1561.12
929.034	1574.9
929.344	1534.23
929.653	1514.11
929.962	1529.48
930.271	1526.09
930.581	1539.2
930.89	1517.73
931.199	1518.86
931.508	1478.18
931.817	1512.76
932.125	1518.63
932.434	1504.4
932.743	1477.28
933.051	1478.86
933.36	1477.73
933.669	1463.27
933.977	1440.44
934.286	1468.92
934.594	1446.77
934.902	1450.84
935.21	1453.1
935.519	1451.74
935.827	1426.88
936.135	1403.38
936.443	1425.75
936.751	1441.35
937.059	1404.51
937.367	1407
937.674	1371.52
937.982	1395.47
938.29	1389.14
938.597	1387.34
938.905	1390.73
939.213	1357.05
939.52	1387.11
939.827	1360.67
940.135	1359.31
940.442	1389.6
940.749	1343.04
941.056	1363.61
941.363	1355.47
941.67	1334.46
941.977	1319.09
942.284	1319.99
942.591	1319.54
942.898	1326.77
943.205	1316.6
943.511	1337.62
943.818	1306.21
944.125	1313.89
944.431	1302.59
944.738	1285.19
945.044	1316.15
945.35	1266.66
945.657	1300.79
945.963	1304.63
946.269	1276.83
946.575	1255.59
946.881	1291.07
947.187	1281.35
947.493	1257.62
947.799	1238.41
948.105	1242.93
948.41	1248.13
948.716	1241.58
949.022	1222.59
949.327	1233.22
949.633	1223.27
949.938	1201.8
950.244	1239.09
950.549	1209.49
950.854	1208.36
951.16	1244.74
951.465	1203.61
951.77	1202.48
952.075	1181.47
952.38	1188.25
952.685	1190.96
952.99	1196.38
953.294	1185.76
953.599	1167.23
953.904	1172.65
954.209	1198.19
954.513	1169.72
954.818	1143.73
955.122	1156.38
955.426	1154.12
955.731	1146.44
956.035	1160.45
956.339	1143.95
956.643	1131.98
956.948	1142.82
957.252	1128.59
957.556	1130.39
957.86	1131.3
958.163	1130.62
958.467	1104.86
958.771	1105.31
959.075	1101.69
959.378	1116.84
959.682	1110.28
959.985	1082.03
960.289	1114.12
960.592	1094.24
960.896	1089.27
961.199	1071.19
961.502	1098.53
961.805	1073.9
962.108	1073.9
962.411	1063.28
962.714	1069.15
963.017	1075.25
963.32	1071.41
963.623	1051.98
963.926	1039.77
964.228	1069.38
964.531	1077.97
964.833	1061.24
965.136	1058.98
965.438	1032.32
965.741	1015.82
966.043	1022.83
966.345	1037.97
966.648	1002.94
966.95	1018.08
967.252	1018.76
967.554	1021.7
967.856	995.93
968.158	1001.13
968.46	1014.01
968.761	1004.97
969.063	982.38
969.365	1004.75
969.666	984.64
969.968	974.69
970.269	962.49
970.571	960
970.872	967.69
971.174	985.31
971.475	978.53
971.776	936.27
972.077	956.16
972.378	962.26
972.679	957.97
972.98	950.96
973.281	939.66
973.582	964.97
973.883	964.97
974.183	969.49
974.484	945.77
974.785	944.86
975.085	935.37
975.386	916.84
975.686	926.11
975.986	934.69
976.287	916.84
976.587	922.26
976.887	914.35
977.187	913.45
977.487	928.37
977.787	891.3
978.087	915.48
978.387	932.43
978.687	915.26
978.987	887.46
979.286	903.73
979.586	909.38
979.885	899.67
980.185	880.01
980.484	881.59
980.784	891.53
981.083	879.55
981.382	877.75
981.682	875.03
981.981	868.03
982.28	864.19
982.579	865.54
982.878	883.85
983.177	869.61
983.475	852.66
983.774	863.28
984.073	853.79
984.372	849.95
984.67	842.04
984.969	854.02
985.267	858.08
985.566	850.85
985.864	835.71
986.162	833.68
986.461	833.23
986.759	813.57
987.057	840.68
987.355	828.71
987.653	827.35
987.951	830.29
988.249	799.1
988.547	842.04
988.844	818.31
989.142	821.02
989.44	796.17
989.737	808.82
990.035	788.71
990.332	794.13
990.63	793.45
990.927	783.06
991.224	784.41
991.521	789.61
991.819	801.59
992.116	776.51
992.413	776.96
992.71	778.54
993.006	768.14
993.303	766.79
993.6	781.48
993.897	775.38
994.193	777.86
994.49	758.2
994.787	764.3
995.083	739.9
995.379	757.97
995.676	764.3
995.972	763.4
996.268	755.04
996.565	743.51
996.861	737.64
997.157	724.75
997.453	735.38
997.749	727.69
998.044	728.6
998.34	733.34
998.636	740.8
998.932	718.88
999.227	727.92
999.523	723.17
999.818	705.55
1000.114	727.69
1000.409	727.47
1000.704	725.88
1001	729.95
1001.295	712.78
1001.59	722.95
1001.885	699.67
1002.18	685.43
1002.475	703.06
1002.77	693.8
1003.065	684.53
1003.359	698.09
1003.654	655.6
1003.949	690.41
1004.243	683.63
1004.538	681.14
1004.832	698.31
1005.127	689.95
1005.421	689.28
1005.715	690.41
1006.009	678.2
1006.304	652.67
1006.598	666.68
1006.892	664.87
1007.186	643.85
1007.48	651.99
1007.773	673.91
1008.067	628.26
1008.361	618.09
1008.655	641.82
1008.948	673.68
1009.242	649.28
1009.535	662.84
1009.829	629.84
1010.122	644.98
1010.415	640.24
1010.708	642.95
1011.001	630.97
1011.295	628.26
1011.588	633.91
1011.881	646.56
1012.173	629.62
1012.466	621.71
1012.759	622.61
1013.052	632.78
1013.344	607.47
1013.637	622.38
1013.93	620.58
1014.222	615.38
1014.514	616.06
1014.807	595.94
1015.099	603.63
1015.391	614.25
1015.683	592.78
1015.976	603.85
1016.268	594.59
1016.56	584.87
1016.851	605.89
1017.143	585.1
1017.435	607.7
1017.727	587.13
1018.018	578.32
1018.31	580.35
1018.602	586.91
1018.893	559.79
1019.185	582.84
1019.476	582.84
1019.767	562.73
1020.058	578.54
1020.35	567.47
1020.641	574.02
1020.932	552.56
1021.223	558.66
1021.514	546.23
1021.804	559.34
1022.095	564.76
1022.386	558.66
1022.677	564.53
1022.967	532.44
1023.258	562.27
1023.548	573.35
1023.839	559.11
1024.129	568.15
1024.419	541.71
1024.709	547.36
1025	544.65
1025.29	519.11
1025.58	517.08
1025.87	543.97
1026.16	529.28
1026.449	557.75
1026.739	529.05
1027.029	522.27
1027.319	507.59
1027.608	554.59
1027.898	521.6
1028.187	516.4
1028.477	512.11
1028.766	522.05
1029.055	495.38
1029.344	516.62
1029.634	511.43
1029.923	502.61
1030.212	498.32
1030.501	492.9
1030.79	493.35
1031.078	477.98
1031.367	489.28
1031.656	496.96
1031.945	491.99
1032.233	490.86
1032.522	487.25
1032.81	496.96
1033.099	510.52
1033.387	454.71
1033.675	487.93
1033.963	473.69
1034.251	497.64
1034.54	472.33
1034.828	469.85
1035.116	481.6
1035.403	457.42
1035.691	474.82
1035.979	464.2
1036.267	475.72
1036.554	474.59
1036.842	476.63
1037.129	475.95
1037.417	473.46
1037.704	461.26
1037.992	463.07
1038.279	457.19
1038.566	476.85
1038.853	476.85
1039.14	476.85
