Data from black_plastic_tray_FLMS001491_020.txt Node
Date: Tue Feb 07 10:39:22 GMT 2017
User: dcchb
Spectrometer: FLMS00149
Trigger mode: 0
Integration Time (sec): 2.000000E-2
Scans to average: 10
Electric dark correction enabled: true
Nonlinearity correction enabled: false
Boxcar width: 0
XAxis mode: Wavelengths
Number of Pixels in Spectrum: 2048
>>>>>Begin Spectral Data<<<<<
341.393	-27.46
341.776	-27.46
342.16	-27.46
342.543	-53.44
342.927	-55.7
343.31	-56.38
343.693	-59.77
344.077	-65.42
344.46	-84.18
344.843	-56.16
345.226	-29.26
345.61	-49.6
345.993	-17.29
346.376	-8.7
346.759	-5.76
347.142	13.67
347.525	59.32
347.908	51.64
348.291	79.66
348.674	119.21
349.057	109.04
349.44	120.79
349.823	144.06
350.206	150.17
350.588	191.52
350.971	196.04
351.354	209.82
351.737	207.79
352.119	194.01
352.502	243.04
352.884	234.91
353.267	263.16
353.65	257.28
354.032	247.56
354.414	285.3
354.797	279.2
355.179	278.52
355.562	311.74
355.944	310.84
356.326	319.65
356.709	331.86
357.091	317.17
357.473	329.14
357.855	311.07
358.238	315.13
358.62	312.87
359.002	319.88
359.384	317.84
359.766	333.66
360.148	339.09
360.53	331.63
360.912	307.68
361.294	316.94
361.676	316.94
362.057	301.8
362.439	313.78
362.821	325.98
363.203	312.65
363.584	311.29
363.966	320.33
364.348	289.37
364.729	329.6
365.111	306.32
365.493	301.12
365.874	308.81
366.256	291.18
366.637	300.44
367.019	284.85
367.4	283.72
367.781	287.11
368.163	295.25
368.544	286.43
368.925	285.98
369.306	320.33
369.688	289.82
370.069	287.34
370.45	285.3
370.831	296.15
371.212	311.52
371.593	296.15
371.974	313.55
372.355	288.69
372.736	283.27
373.117	313.55
373.498	298.41
373.879	289.82
374.26	290.73
374.641	299.09
375.021	303.61
375.402	308.81
375.783	316.26
376.163	290.95
376.544	322.82
376.925	335.92
377.305	299.99
377.686	314.91
378.066	324.85
378.447	302.93
378.827	346.54
379.208	322.82
379.588	314.46
379.968	317.39
380.349	334.34
380.729	324.4
381.109	321.69
381.489	349.48
381.87	314.91
382.25	314.46
382.63	329.82
383.01	314.46
383.39	324.4
383.77	321.91
384.15	312.87
384.53	339.99
384.91	331.86
385.29	328.01
385.67	324.17
386.049	351.52
386.429	337.96
386.809	329.37
387.189	329.14
387.568	323.04
387.948	344.28
388.328	351.97
388.707	346.09
389.087	346.32
389.466	348.35
389.846	351.06
390.225	351.29
390.605	366.21
390.984	359.2
391.363	376.6
391.743	355.36
392.122	371.85
392.501	374.11
392.881	369.59
393.26	375.7
393.639	370.05
394.018	355.36
394.397	375.02
394.776	388.8
395.155	367.79
395.534	361.91
395.913	366.21
396.292	370.27
396.671	391.29
397.05	377.5
397.429	382.7
397.808	390.16
398.186	397.84
398.565	352.65
398.944	397.62
399.323	409.14
399.701	396.49
400.08	379.31
400.458	394.23
400.837	373.66
401.215	419.31
401.594	392.19
401.972	403.72
402.351	379.09
402.729	394.9
403.107	417.5
403.486	417.96
403.864	437.16
404.242	410.05
404.62	421.12
404.999	439.88
405.377	423.15
405.755	413.44
406.133	409.82
406.511	448.01
406.889	431.51
407.267	447.78
407.645	447.56
408.023	435.81
408.401	435.13
408.779	452.98
409.156	441.46
409.534	449.14
409.912	465.41
410.29	475.81
410.667	452.98
411.045	435.81
411.422	482.13
411.8	466.99
412.178	474.9
412.555	497.05
412.933	476.48
413.31	475.13
413.687	490.04
414.065	491.4
414.442	484.39
414.819	481.46
415.197	488.24
415.574	499.53
415.951	502.7
416.328	487.11
416.705	510.83
417.082	513.55
417.46	482.59
417.837	515.35
418.214	516.03
418.591	511.29
418.967	517.84
419.344	541.34
419.721	525.75
420.098	522.59
420.475	533.66
420.852	545.18
421.228	533.43
421.605	539.99
421.982	550.83
422.358	532.98
422.735	558.06
423.111	551.51
423.488	595.35
423.864	563.04
424.241	570.49
424.617	577.95
424.994	583.6
425.37	598.06
425.746	570.04
426.123	571.85
426.499	596.93
426.875	611.4
427.251	597.84
427.627	603.94
428.003	622.02
428.379	609.14
428.756	643.26
429.132	608.46
429.507	622.02
429.883	617.95
430.259	635.8
430.635	639.64
431.011	642.81
431.387	647.1
431.763	648.23
432.138	664.5
432.514	677.61
432.89	690.94
433.265	675.58
433.641	672.19
434.016	697.27
434.392	714.67
434.767	710.83
435.143	738.4
435.518	718.06
435.894	717.61
436.269	764.61
436.644	766.19
437.02	756.25
437.395	739.98
437.77	758.74
438.145	763.03
438.52	748.34
438.895	753.09
439.271	773.43
439.646	807.78
440.021	775.69
440.395	798.28
440.77	788.11
441.145	784.95
441.52	831.96
441.895	810.04
442.27	805.06
442.645	803.48
443.019	830.6
443.394	813.2
443.769	815.23
444.143	835.35
444.518	847.55
444.892	853.2
445.267	836.93
445.641	849.58
446.016	878.51
446.39	869.24
446.764	858.62
447.139	881.22
447.513	862.92
447.887	890.71
448.262	883.71
448.636	891.84
449.01	880.77
449.384	891.16
449.758	921.9
450.132	908.34
450.506	920.09
450.88	928.9
451.254	935
451.628	928
452.002	935.23
452.376	955.79
452.75	964.16
453.123	936.59
453.497	959.41
453.871	985.17
454.244	986.3
454.618	977.49
454.992	1024.27
455.365	1011.61
455.739	1035.11
456.112	1036.02
456.486	1052.06
456.859	1065.4
457.232	1077.6
457.606	1104.49
457.979	1073.76
458.352	1102.91
458.725	1125.06
459.099	1117.15
459.472	1122.34
459.845	1113.98
460.218	1138.61
460.591	1136.81
460.964	1155.79
461.337	1175.22
461.71	1197.37
462.083	1203.47
462.456	1237.59
462.829	1203.25
463.201	1250.93
463.574	1240.76
463.947	1263.13
464.32	1295.9
464.692	1296.58
465.065	1280.98
465.438	1313.52
465.81	1334.32
466.183	1337.7
466.555	1367.31
466.928	1337.25
467.3	1373.18
467.672	1384.94
468.045	1427.65
468.417	1396.46
468.789	1444.14
469.161	1450.7
469.534	1450.47
469.906	1483.46
470.278	1511.26
470.65	1501.99
471.022	1543.58
471.394	1559.85
471.766	1578.38
472.138	1570.47
472.51	1607.53
472.882	1627.87
473.253	1647.3
473.625	1669.67
473.997	1704.25
474.369	1720.97
474.74	1709.9
475.112	1758.03
475.484	1795.55
475.855	1781.31
476.227	1825.15
476.598	1856.56
476.97	1899.27
477.341	1910.12
477.713	1942.89
478.084	1912.38
478.455	1984.24
478.827	2023.11
479.198	2080.51
479.569	2036.9
479.94	2103.11
480.311	2139.49
480.682	2191.47
481.053	2224.01
481.424	2248.64
481.795	2262.43
482.166	2280.73
482.537	2363.44
482.908	2353.5
483.279	2402.31
483.65	2436.66
484.021	2494.51
484.391	2496.09
484.762	2514.4
485.133	2553.72
485.503	2602.53
485.874	2645.02
486.244	2617.9
486.615	2694.28
486.985	2698.57
487.356	2746.71
487.726	2792.58
488.097	2841.17
488.467	2849.08
488.837	2883.2
489.207	2934.95
489.578	2975.18
489.948	3028.28
490.318	3014.95
490.688	3028.28
491.058	3057.89
491.428	3113.25
491.798	3130.43
492.168	3191.89
492.538	3215.62
492.908	3257.88
493.278	3297.65
493.648	3300.59
494.017	3347.37
494.387	3368.16
494.757	3423.3
495.126	3419.01
495.496	3409.74
495.866	3451.55
496.235	3522.05
496.605	3540.58
496.974	3513.47
497.344	3574.48
497.713	3614.03
498.082	3648.83
498.452	3660.58
498.821	3698.77
499.19	3697.87
499.559	3714.59
499.928	3729.73
500.298	3771.54
500.667	3806.79
501.036	3821.93
501.405	3876.62
501.774	3848.6
502.143	3883.4
502.512	3948.03
502.88	3948.26
503.249	3972.21
503.618	3971.53
503.987	3969.05
504.356	4021.7
504.724	4054.92
505.093	4076.39
505.462	4084.07
505.83	4108.71
506.199	4142.6
506.567	4195.48
506.936	4235.71
507.304	4261.92
507.672	4239.32
508.041	4341.02
508.409	4328.13
508.777	4327.23
509.145	4357.51
509.514	4397.51
509.882	4476.61
510.25	4463.27
510.618	4524.74
510.986	4507.34
511.354	4553.44
511.722	4628.69
512.09	4599.77
512.458	4639.31
512.826	4665.08
513.193	4672.31
513.561	4720.89
513.929	4746.2
514.297	4779.42
514.664	4793.89
515.032	4846.54
515.4	4892.19
515.767	4935.58
516.135	4977.16
516.502	4943.49
516.869	5056.48
517.237	5041.56
517.604	5022.58
517.972	5098.51
518.339	5101.45
518.706	5131.5
519.073	5191.39
519.44	5211.95
519.808	5255.57
520.175	5259.86
520.542	5378.05
520.909	5433.87
521.276	5422.12
521.643	5441.1
522.009	5511.61
522.376	5509.57
522.743	5513.41
523.11	5640.19
523.477	5680.64
523.843	5728.55
524.21	5757.25
524.577	5770.58
524.943	5827.53
525.31	5853.29
525.676	5913.18
526.043	5918.6
526.409	5936.91
526.776	5986.85
527.142	6081.54
527.508	6062.1
527.874	6188.2
528.241	6181.87
528.607	6227.52
528.973	6260.06
529.339	6317.24
529.705	6335.99
530.071	6360.17
530.437	6376.22
530.803	6458.7
531.169	6464.8
531.535	6464.8
531.901	6528.75
532.267	6581.63
532.632	6581.63
532.998	6597.45
533.364	6606.27
533.73	6699.82
534.095	6642.88
534.461	6730.33
534.826	6712.7
535.192	6791.57
535.557	6846.94
535.923	6838.13
536.288	6837.45
536.653	6928.29
537.019	6918.35
537.384	6938.91
537.749	6945.92
538.114	7013.04
538.479	7053.71
538.845	7074.96
539.21	7028.85
539.575	7092.81
539.94	7135.29
540.305	7198.34
540.67	7099.36
541.034	7231.11
541.399	7188.85
541.764	7308.17
542.129	7245.8
542.494	7345.23
542.858	7349.75
543.223	7295.74
543.587	7348.62
543.952	7411.22
544.316	7408.51
544.681	7363.99
545.045	7474.94
545.41	7480.82
545.774	7502.29
546.138	7559.01
546.503	7548.84
546.867	7616.41
547.231	7678.56
547.595	7674.71
547.959	7670.19
548.324	7715.62
548.688	7701.38
549.052	7690.76
549.416	7727.82
549.779	7794.26
550.143	7832.45
550.507	7889.62
550.871	7850.75
551.235	7856.86
551.599	7880.36
551.962	7926.68
552.326	7989.28
552.689	8036.51
553.053	8018.43
553.417	8036.51
553.78	8155.38
554.143	8092.56
554.507	8106.34
554.87	8148.37
555.234	8230.63
555.597	8205.77
555.96	8279.67
556.323	8277.86
556.686	8317.63
557.05	8342.72
557.413	8428.82
557.776	8420
558.139	8512.21
558.502	8524.18
558.865	8530.96
559.228	8587.01
559.59	8646.89
559.953	8703.61
560.316	8722.14
560.679	8706.1
561.041	8756.04
561.404	8797.4
561.767	8868.58
562.129	8817.06
562.492	8999.42
562.854	8884.17
563.217	8964.62
563.579	9013.66
563.941	9048.69
564.304	9087.56
564.666	9116.48
565.028	9173.88
565.39	9208.91
565.753	9187.44
566.115	9215.69
566.477	9265.41
566.839	9336.59
567.201	9460.88
567.563	9371.84
567.925	9408.68
568.287	9412.75
568.648	9471.95
569.01	9598.5
569.372	9615.91
569.734	9574.78
570.095	9695.68
570.457	9717.82
570.819	9702.68
571.18	9710.82
571.542	9761.89
571.903	9832.17
572.265	9842.11
572.626	9868.55
572.987	9912.17
573.349	9887.54
573.71	9977.7
574.071	9918.72
574.432	10010.7
574.794	10003.92
575.155	10046.63
575.516	10054.76
575.877	10023.13
576.238	10069.68
576.599	10073.29
576.96	10095.67
577.32	10123.91
577.681	10123.01
578.042	10193.74
578.403	10252.72
578.763	10271.93
579.124	10247.3
579.485	10305.6
579.845	10310.58
580.206	10228.77
580.566	10273.29
580.927	10361.42
581.287	10292.95
581.648	10293.85
582.008	10284.36
582.368	10358.48
582.728	10346.96
583.089	10334.3
583.449	10355.32
583.809	10325.04
584.169	10420.63
584.529	10309.45
584.889	10396.9
585.249	10336.11
585.609	10348.77
585.969	10358.26
586.329	10356
586.688	10346.28
587.048	10378.37
587.408	10315.32
587.768	10382.89
588.127	10293.63
588.487	10351.71
588.846	10399.61
589.206	10288.66
589.565	10289.33
589.925	10387.41
590.284	10391.25
590.643	10386.96
591.003	10353.51
591.362	10401.2
591.721	10449.78
592.08	10388.99
592.44	10363.46
592.799	10431.03
593.158	10397.58
593.517	10391.7
593.876	10461.53
594.235	10430.57
594.593	10463.79
594.952	10480.52
595.311	10421.53
595.67	10464.92
596.029	10541.98
596.387	10476
596.746	10521.87
597.104	10520.51
597.463	10539.95
597.822	10483.91
598.18	10353.74
598.538	10454.53
598.897	10591.02
599.255	10434.19
599.613	10702.2
599.972	10585.37
600.33	10573.62
600.688	10617.91
601.046	10633.96
601.404	10671.24
601.762	10683.9
602.12	10637.12
602.478	10704.69
602.836	10665.6
603.194	10605.94
603.552	10652.71
603.91	10600.51
604.268	10665.82
604.625	10633.96
604.983	10704.24
605.341	10680.28
605.698	10740.17
606.056	10676.44
606.413	10672.83
606.771	10736.55
607.128	10727.06
607.485	10700.4
607.843	10685.26
608.2	10794.18
608.557	10800.51
608.914	10746.27
609.272	10737.01
609.629	10773.16
609.986	10843.67
610.343	10709.44
610.7	10823.56
611.057	10845.93
611.414	10878.02
611.771	10808.87
612.127	10890
612.484	10880.96
612.841	10898.13
613.198	10865.82
613.554	10898.36
613.911	10907.62
614.267	10969.54
614.624	10909.2
614.98	10949.43
615.337	11005.47
615.693	10960.95
616.05	11034.17
616.406	11030.56
616.762	10948.98
617.118	11070.33
617.475	10967.73
617.831	11020.61
618.187	11109.88
618.543	11046.83
618.899	11186.26
619.255	11071.91
619.611	11134.51
619.967	11153.04
620.323	11152.14
620.678	11063.1
621.034	11107.39
621.39	11105.13
621.746	11086.38
622.101	11238.01
622.457	11066.94
622.812	11120.95
623.168	11074.4
623.523	11137.67
623.879	11075.3
624.234	11151.23
624.589	11105.13
624.945	11145.13
625.3	11081.4
625.655	11167.95
626.01	11157.11
626.365	11199.37
626.72	11115.53
627.075	11090.44
627.43	11119.82
627.785	11092.93
628.14	11089.31
628.495	11117.11
628.85	11096.32
629.205	11033.95
629.559	11107.84
629.914	11068.3
630.269	11055.42
630.623	11072.59
630.978	10997.34
631.332	11109.65
631.687	11066.94
632.041	11040.73
632.396	11031.24
632.75	10985.81
633.104	11057.22
633.459	11000.05
633.813	10923.44
634.167	10911.92
634.521	10881.63
634.875	10984.91
635.229	10920.5
635.583	10859.49
635.937	10780.62
636.291	10773.62
636.645	10867.85
636.999	10819.04
637.352	10868.75
637.706	10741.53
638.06	10861.52
638.413	10770
638.767	10718.93
639.121	10760.96
639.474	10744.46
639.828	10732.03
640.181	10756.21
640.534	10697.91
640.888	10644.58
641.241	10599.61
641.594	10639.38
641.947	10656.33
642.301	10584.69
642.654	10634.86
643.007	10618.59
643.36	10539.04
643.713	10527.29
644.066	10635.31
644.419	10504.92
644.771	10530.46
645.124	10401.42
645.477	10384.7
645.83	10365.49
646.182	10314.64
646.535	10201.88
646.888	10270.8
647.24	10245.95
647.593	10205.04
647.945	10177.25
648.298	10060.41
648.65	10104.93
649.002	10070.58
649.355	10099.06
649.707	10053.63
650.059	10212.73
650.411	10355.55
650.763	10322.33
651.115	10409.78
651.467	10379.05
651.819	10391.25
652.171	10370.69
652.523	10324.36
652.875	10361.65
653.227	10237.13
653.578	10382.66
653.93	10323.91
654.282	10273.52
654.633	10229.67
654.985	10252.95
655.337	10272.84
655.688	10218.6
656.039	10280.29
656.391	10135.67
656.742	10138.6
657.094	10242.78
657.445	10212.05
657.796	10194.42
658.147	10120.3
658.498	10200.75
658.849	10231.71
659.2	10188.77
659.551	10145.16
659.902	10143.8
660.253	10213.18
660.604	10149.68
660.955	10134.76
661.306	10107.87
661.656	10092.73
662.007	10164.14
662.358	10044.82
662.708	10132.73
663.059	10049.34
663.409	10005.95
663.76	10088.66
664.11	10127.53
664.461	10037.82
664.811	10062.67
665.161	10095.67
665.511	10047.08
665.862	10036.46
666.212	10092.95
666.562	10127.08
666.912	10106.74
667.262	10082.56
667.612	10019.96
667.962	10061.77
668.312	10057.7
668.662	10091.15
669.011	9941.09
669.361	9981.77
669.711	10007.99
670.06	9934.54
670.41	9954.88
670.76	9935.67
671.109	9941.55
671.459	9981.09
671.808	9995.33
672.157	9973.86
672.507	9892.51
672.856	9883.92
673.205	9956.24
673.554	9886.86
673.904	9859.29
674.253	9940.19
674.602	9883.92
674.951	9677.15
675.3	9633.76
675.649	9865.39
675.998	9881.44
676.346	9849.12
676.695	9985.39
677.044	9838.05
677.393	9796.01
677.741	9864.03
678.09	9882.11
678.438	9789.69
678.787	9802.12
679.135	9761.21
679.484	9715.11
679.832	9794.43
680.181	9640.99
680.529	9739.29
680.877	9697.49
681.225	9711.27
681.573	9783.58
681.922	9682.8
682.27	9586.98
682.618	9630.59
682.966	9682.12
683.314	9606.64
683.661	9648.22
684.009	9627.2
684.357	9523.7
684.705	9522.57
685.053	9539.52
685.4	9488.45
685.748	9457.72
686.095	9477.83
686.443	9492.29
686.79	9444.16
687.138	9370.26
687.485	9376.59
687.832	9410.94
688.18	9394.89
688.527	9311.28
688.874	9302.24
689.221	9352.64
689.568	9277.84
689.915	9250.04
690.262	9218.18
690.609	9215.92
690.956	9178.4
691.303	9219.76
691.65	9074.9
691.997	9084.39
692.344	9105.86
692.69	9115.81
693.037	9146.54
693.383	8960.1
693.73	9068.58
694.077	8975.47
694.423	8987.45
694.769	8928.69
695.116	8946.32
695.462	8890.05
695.808	8913.55
696.155	8895.92
696.501	8861.12
696.847	8845.3
697.193	8767.79
697.539	8804.18
697.885	8735.02
698.231	8664.29
698.577	8762.59
698.923	8645.54
699.269	8620
699.614	8626.33
699.96	8601.02
700.306	8606.21
700.651	8518.99
700.997	8467.01
701.342	8499.1
701.688	8537.52
702.033	8463.85
702.379	8464.3
702.724	8436.73
703.069	8495.03
703.415	8380.23
703.76	8330.97
704.105	8414.81
704.45	8331.65
704.795	8276.73
705.14	8308.14
705.485	8271.08
705.83	8226.34
706.175	8217.3
706.52	8233.12
706.865	8163.06
707.209	8158.32
707.554	8123.06
707.899	8132.55
708.243	8125.32
708.588	8084.65
708.932	8080.35
709.277	8098.88
709.621	8064.08
709.966	7971.88
710.31	8024.31
710.654	7926.23
710.998	8018.43
711.342	7962.39
711.687	7939.57
712.031	7908.83
712.375	7919
712.719	7956.51
713.063	7876.52
713.407	7867.25
713.75	7851.66
714.094	7829.51
714.438	7754.94
714.782	7816.63
715.125	7720.36
715.469	7766.91
715.812	7659.12
716.156	7689.4
716.499	7703.64
716.843	7660.7
717.186	7716.75
717.53	7664.09
717.873	7649.18
718.216	7620.7
718.559	7620.25
718.902	7612.12
719.246	7594.72
719.589	7615.05
719.932	7534.38
720.275	7618.22
720.617	7610.99
720.96	7578.44
721.303	7555.17
721.646	7516.75
721.989	7481.72
722.331	7518.33
722.674	7461.84
723.016	7483.08
723.359	7429.3
723.701	7434.72
724.044	7415.06
724.386	7369.64
724.729	7378.22
725.071	7366.02
725.413	7345.68
725.755	7332.12
726.097	7315.63
726.439	7265.01
726.782	7247.61
727.124	7346.13
727.465	7286.25
727.807	7225.23
728.149	7213.03
728.491	7258
728.833	7188.4
729.175	7190.21
729.516	7147.04
729.858	7135.07
730.199	7225.91
730.541	7145.69
730.882	7130.32
731.224	7155.18
731.565	7113.82
731.906	7128.51
732.248	7064.79
732.589	7052.36
732.93	7048.97
733.271	7050.78
733.612	7050.55
733.953	7058.23
734.294	7026.82
734.635	7015.3
734.976	7038.12
735.317	6962.87
735.658	6998.57
735.999	6993.6
736.339	6961.51
736.68	6957.44
737.021	6923.09
737.361	6945.47
737.702	6912.93
738.042	6909.31
738.383	6858.92
738.723	6902.3
739.063	6832.7
739.404	6921.51
739.744	6866.37
740.084	6816.2
740.424	6826.15
740.764	6824.79
741.104	6826.15
741.444	6828.18
741.784	6828.86
742.124	6848.75
742.464	6790.67
742.804	6792.02
743.143	6756.09
743.483	6781.63
743.823	6733.04
744.162	6732.59
744.502	6710.45
744.841	6682.2
745.181	6679.03
745.52	6706.15
745.86	6691.69
746.199	6733.72
746.538	6683.55
746.877	6630.67
747.216	6605.82
747.556	6621.63
747.895	6593.39
748.234	6630.9
748.573	6566.72
748.911	6589.54
749.25	6540.51
749.589	6526.5
749.928	6597
750.267	6559.26
750.605	6531.47
750.944	6498.02
751.283	6491.47
751.621	6502.54
751.96	6482.43
752.298	6452.15
752.636	6421.41
752.975	6411.92
753.313	6455.08
753.651	6421.19
753.989	6410.79
754.327	6402.66
754.666	6328.53
755.004	6369.66
755.342	6333.28
755.679	6373.96
756.017	6284.47
756.355	6262.77
756.693	6231.81
757.031	6273.85
757.368	6279.5
757.706	6241.08
758.044	6181.19
758.381	6228.65
758.719	6158.14
759.056	6177.13
759.394	6185.94
759.731	6094.87
760.068	6130.35
760.405	6106.17
760.743	6081.54
761.08	6128.99
761.417	6021.42
761.754	6061.42
762.091	6054.19
762.428	5987.75
762.765	5982.55
763.102	5982.55
763.438	5909.79
763.775	5914.08
764.112	5928.32
764.449	5914.31
764.785	5851.26
765.122	5863.69
765.458	5875.66
765.795	5833.86
766.131	5802.67
766.467	5853.52
766.804	5791.83
767.14	5723.8
767.476	5714.54
767.812	5736.69
768.148	5745.72
768.485	5681.32
768.821	5647.2
769.157	5680.19
769.492	5650.36
769.828	5644.94
770.164	5560.87
770.5	5640.42
770.836	5575.79
771.171	5562.68
771.507	5524.94
771.842	5515.9
772.178	5509.57
772.513	5483.81
772.849	5468.22
773.184	5465.51
773.519	5458.05
773.855	5441.78
774.19	5386.19
774.525	5342.12
774.86	5385.06
775.195	5355
775.53	5326.75
775.865	5294.66
776.2	5265.96
776.535	5241.56
776.87	5223.25
777.205	5242.01
777.539	5196.81
777.874	5234.33
778.209	5146.19
778.543	5154.78
778.878	5127.44
779.212	5085.85
779.547	5094.44
779.881	5053.54
780.215	5075.46
780.55	5091.28
780.884	5014.22
781.218	4999.08
781.552	4996.37
781.886	5033.88
782.22	4984.61
782.554	4929.7
782.888	4888.57
783.222	4845.18
783.556	4895.8
783.889	4903.71
784.223	4830.27
784.557	4845.18
784.89	4846.09
785.224	4823.71
785.557	4775.58
785.891	4787.33
786.224	4766.77
786.558	4755.02
786.891	4728.8
787.224	4718.86
787.557	4688.35
787.891	4748.91
788.224	4672.53
788.557	4709.59
788.89	4663.95
789.223	4645.64
789.556	4672.98
789.888	4587.79
790.221	4576.04
790.554	4590.95
790.887	4588.92
791.219	4561.12
791.552	4547.34
791.884	4514.34
792.217	4504.18
792.549	4487.45
792.882	4445.65
793.214	4401.35
793.546	4439.77
793.879	4454.91
794.211	4426.89
794.543	4446.55
794.875	4415.14
795.207	4399.32
795.539	4387.57
795.871	4349.83
796.203	4327.23
796.535	4337.4
796.867	4304.63
797.198	4264.63
797.53	4247.68
797.862	4242.49
798.193	4266.44
798.525	4259.89
798.856	4195.93
799.188	4218.31
799.519	4147.8
799.85	4124.07
800.182	4183.51
800.513	4168.36
800.844	4121.81
801.175	4166.11
801.506	4167.91
801.837	4124.75
802.168	4100.34
802.499	4117.97
802.83	4106.45
803.161	4059.44
803.491	4063.51
803.822	4043.4
804.153	4027.58
804.483	4034.13
804.814	4005.66
805.145	3986.67
805.475	4005.88
805.805	3953
806.136	3970.18
806.466	3966.34
806.796	3947.58
807.126	3938.54
807.457	3966.11
807.787	3917.52
808.117	3883.4
808.447	3934.7
808.777	3902.84
809.107	3903.97
809.436	3878.2
809.766	3880.01
810.096	3865.1
810.426	3826.68
810.755	3823.97
811.085	3835.27
811.414	3837.98
811.744	3804.76
812.073	3776.51
812.403	3775.15
812.732	3745.78
813.061	3790.07
813.39	3770.18
813.719	3701.94
814.049	3731.99
814.378	3745.55
814.707	3716.4
815.036	3713.69
815.365	3648.38
815.693	3671.65
816.022	3695.16
816.351	3687.47
816.68	3669.62
817.008	3669.85
817.337	3636.18
817.665	3618.1
817.994	3602.28
818.322	3595.5
818.651	3615.84
818.979	3573.58
819.307	3613.58
819.636	3628.94
819.964	3585.33
820.292	3591.43
820.62	3559.79
820.948	3570.19
821.276	3593.01
821.604	3560.47
821.932	3532.22
822.259	3592.11
822.587	3579.23
822.915	3552.56
823.243	3570.64
823.57	3605.67
823.898	3542.84
824.225	3543.52
824.553	3621.03
824.88	3575.16
825.207	3534.71
825.535	3568.83
825.862	3579.23
826.189	3547.36
826.516	3538.55
826.843	3531.32
827.17	3570.19
827.497	3577.87
827.824	3531.32
828.151	3541.04
828.478	3591.66
828.805	3572.22
829.131	3550.3
829.458	3576.52
829.785	3543.75
830.111	3549.85
830.438	3559.57
830.764	3554.14
831.09	3536.52
831.417	3549.4
831.743	3548.49
832.069	3547.36
832.395	3532.9
832.722	3554.14
833.048	3512.79
833.374	3491.09
833.7	3487.93
834.026	3538.1
834.351	3519.34
834.677	3513.24
835.003	3515.95
835.329	3499
835.654	3513.47
835.98	3459.68
836.306	3486.35
836.631	3439.8
836.956	3496.07
837.282	3484.77
837.607	3456.07
837.932	3450.42
838.258	3457.42
838.583	3456.07
838.908	3460.14
839.233	3438.21
839.558	3406.35
839.883	3431.21
840.208	3433.47
840.533	3454.26
840.858	3406.35
841.182	3436.86
841.507	3415.84
841.832	3398.89
842.156	3364.54
842.481	3338.33
842.805	3350.76
843.13	3383.3
843.454	3359.12
843.778	3351.44
844.103	3344.88
844.427	3322.74
844.751	3327.48
845.075	3344.21
845.399	3307.82
845.723	3333.81
846.047	3313.25
846.371	3290.2
846.695	3284.09
847.019	3256.52
847.343	3282.06
847.666	3252
847.99	3231.21
848.313	3235.51
848.637	3191.44
848.96	3221.95
849.284	3154.38
849.607	3207.49
849.931	3184.44
850.254	3107.15
850.577	3124.55
850.9	3098.56
851.223	3103.31
851.546	3076.42
851.869	3063.99
852.192	3087.26
852.515	3061.28
852.838	3044.55
853.161	3042.07
853.483	3012.46
853.806	2998.9
854.129	2977.89
854.451	3016.98
854.774	3011.56
855.096	2993.48
855.419	2979.02
855.741	2970.43
856.063	2976.98
856.385	2962.07
856.708	2957.55
857.03	2932.92
857.352	2957.1
857.674	2937.66
857.996	2886.36
858.318	2908.29
858.64	2900.6
858.961	2905.57
859.283	2887.04
859.605	2886.14
859.926	2853.37
860.248	2863.31
860.57	2845.24
860.891	2846.14
861.212	2853.37
861.534	2832.13
861.855	2869.64
862.176	2852.69
862.498	2812.69
862.819	2810.43
863.14	2862.64
863.461	2806.14
863.782	2831
864.103	2781.73
864.424	2793.26
864.745	2773.37
865.065	2802.3
865.386	2812.69
865.707	2770.21
866.027	2804.79
866.348	2770.21
866.668	2748.52
866.989	2781.28
867.309	2729.31
867.63	2739.7
867.95	2764.33
868.27	2749.42
868.59	2718.69
868.91	2766.59
869.23	2746.03
869.55	2729.98
869.87	2749.87
870.19	2748.06
870.51	2745.13
870.83	2728.85
871.15	2718.69
871.469	2688.63
871.789	2709.87
872.109	2661.51
872.428	2704.22
872.748	2688.4
873.067	2735.63
873.386	2665.35
873.706	2687.95
874.025	2685.24
874.344	2702.64
874.663	2669.65
874.982	2677.33
875.301	2660.61
875.62	2653.83
875.939	2616.54
876.258	2641.63
876.577	2646.37
876.896	2580.84
877.214	2651.12
877.533	2616.77
877.852	2600.5
878.17	2667.16
878.489	2632.36
878.807	2590.78
879.125	2626.26
879.444	2620.38
879.762	2582.42
880.08	2585.36
880.398	2584.45
880.716	2596.2
881.034	2570.21
881.352	2618.58
881.67	2601.4
881.988	2591.01
882.306	2557.79
882.624	2536.09
882.941	2590.55
883.259	2560.5
883.577	2516.43
883.894	2548.29
884.212	2532.48
884.529	2511.01
884.846	2515.98
885.164	2529.09
885.481	2515.53
885.798	2490.67
886.115	2524.11
886.432	2491.12
886.75	2487.05
887.067	2530.44
887.383	2477.11
887.7	2492.93
888.017	2456.32
888.334	2508.3
888.651	2446.83
888.967	2431.69
889.284	2447.28
889.6	2416.55
889.917	2429.43
890.233	2406.83
890.55	2451.8
890.866	2427.39
891.182	2437.11
891.498	2409.99
891.815	2407.51
892.131	2439.14
892.447	2414.51
892.763	2381.52
893.079	2366.15
893.395	2351.69
893.71	2386.49
894.026	2370.67
894.342	2397.34
894.657	2340.39
894.973	2333.16
895.289	2347.17
895.604	2339.03
895.92	2318.92
896.235	2302.88
896.55	2288.87
896.865	2337.23
897.181	2310.79
897.496	2278.02
897.811	2281.86
898.126	2296.55
898.441	2263.78
898.756	2228.75
899.071	2261.07
899.386	2258.58
899.7	2221.3
900.015	2257.91
900.33	2216.55
900.644	2201.64
900.959	2208.87
901.273	2195.31
901.588	2197.12
901.902	2208.87
902.216	2211.58
902.531	2169.55
902.845	2174.29
903.159	2173.16
903.473	2168.19
903.787	2157.12
904.101	2143.11
904.415	2170
904.729	2140.85
905.042	2123.67
905.356	2126.84
905.67	2163.9
905.984	2144.01
906.297	2121.41
906.611	2117.8
906.924	2096.33
907.237	2067.4
907.551	2068.99
907.864	2061.3
908.177	2063.79
908.491	2070.12
908.804	2052.49
909.117	2051.58
909.43	2028.99
909.743	2061.75
910.056	2024.01
910.368	2025.37
910.681	2030.34
910.994	1999.38
911.307	1993.73
911.619	1939.95
911.932	1974.3
912.244	1963.23
912.557	1956.67
912.869	1946.73
913.181	1965.26
913.494	1928.65
913.806	1910.8
914.118	1920.29
914.43	1900.63
914.742	1916.67
915.054	1919.16
915.366	1906.73
915.678	1930.23
915.99	1901.08
916.302	1898.82
916.613	1873.74
916.925	1877.58
917.236	1889.33
917.548	1863.79
917.859	1858.82
918.171	1840.06
918.482	1850.46
918.794	1839.39
919.105	1827.64
919.416	1823.79
919.727	1826.05
920.038	1797.35
920.349	1784.47
920.66	1802.33
920.971	1762.55
921.282	1767.75
921.593	1775.43
921.903	1758.48
922.214	1766.62
922.525	1781.31
922.835	1743.8
923.146	1743.57
923.456	1721.2
923.767	1737.02
924.077	1716.68
924.387	1750.12
924.697	1731.37
925.008	1710.8
925.318	1716.45
925.628	1700.41
925.938	1713.74
926.248	1679.16
926.558	1689.33
926.867	1688.2
927.177	1670.58
927.487	1647.3
927.796	1671.93
928.106	1630.35
928.416	1660.86
928.725	1647.08
929.034	1672.16
929.344	1604.59
929.653	1627.87
929.962	1588.32
930.271	1592.39
930.581	1577.47
930.89	1587.64
931.199	1572.05
931.508	1599.84
931.817	1583.8
932.125	1564.59
932.434	1574.08
932.743	1552.84
933.051	1556.91
933.36	1573.63
933.669	1546.51
933.977	1496.57
934.286	1540.41
934.594	1537.7
934.902	1532.28
935.21	1512.39
935.519	1555.33
935.827	1501.32
936.135	1508.55
936.443	1492.73
936.751	1485.05
937.059	1478.04
937.367	1487.31
937.674	1473.29
937.982	1499.73
938.29	1445.72
938.597	1461.09
938.905	1470.13
939.213	1451.37
939.52	1446.18
939.827	1458.61
940.135	1445.95
940.442	1436.91
940.749	1423.58
941.056	1433.52
941.363	1408.66
941.67	1398.95
941.977	1394.43
942.284	1395.33
942.591	1392.39
942.898	1360.3
943.205	1395.56
943.511	1370.92
943.818	1381.09
944.125	1352.39
944.431	1349.68
944.738	1351.94
945.044	1389.91
945.35	1374.09
945.657	1355.78
945.963	1342.68
946.269	1322.56
946.575	1336.35
946.881	1324.37
947.187	1325.95
947.493	1323.24
947.799	1329.12
948.105	1334.09
948.41	1294.32
948.716	1307.88
949.022	1301.1
949.327	1296.12
949.633	1300.64
949.938	1252.28
950.244	1286.18
950.549	1290.93
950.854	1266.29
951.16	1236.69
951.465	1250.48
951.77	1256.58
952.075	1256.13
952.38	1280.76
952.685	1260.87
952.99	1260.19
953.294	1274.66
953.599	1227.43
953.904	1231.49
954.209	1188.33
954.513	1226.97
954.818	1191.95
955.122	1237.59
955.426	1210.48
955.731	1198.73
956.035	1211.38
956.339	1219.06
956.643	1189.69
956.948	1188.33
957.252	1182.68
957.556	1186.52
957.86	1203.47
958.163	1170.03
958.467	1156.92
958.771	1138.16
959.075	1166.64
959.378	1154.66
959.682	1159.4
959.985	1161.44
960.289	1149.01
960.592	1158.73
960.896	1126.86
961.199	1154.43
961.502	1109.91
961.805	1092.97
962.108	1143.81
962.411	1111.95
962.714	1125.51
963.017	1117.82
963.32	1097.94
963.623	1100.65
963.926	1093.64
964.228	1120.99
964.531	1086.86
964.833	1078.5
965.136	1072.85
965.438	1065.17
965.741	1062.91
966.043	1109.69
966.345	1080.31
966.648	1071.95
966.95	1050.25
967.252	1066.07
967.554	1073.76
967.856	1053.19
968.158	1056.81
968.46	1050.93
968.761	1071.05
969.063	1054.77
969.365	1041.44
969.666	1054.32
969.968	1025.62
970.269	1025.17
970.571	1041.67
970.872	1017.49
971.174	1020.43
971.475	1031.72
971.776	1007.32
972.077	1005.74
972.378	1005.51
972.679	1011.84
972.98	1005.06
973.281	970.93
973.582	991.95
973.883	1012.74
974.183	984.04
974.484	989.69
974.785	990.14
975.085	969.35
975.386	979.75
975.686	973.87
975.986	965.06
976.287	976.36
976.587	963.03
976.887	974.55
977.187	940.2
977.487	936.13
977.787	961.67
978.087	952.4
978.387	943.59
978.687	943.59
978.987	913.54
979.286	945.62
979.586	932.74
979.885	930.03
980.185	918.51
980.484	894.1
980.784	912.18
981.083	909.47
981.382	899.07
981.682	890.26
981.981	916.7
982.28	912.18
982.579	879.86
982.878	911.5
983.177	895.91
983.475	896.81
983.774	881.9
984.073	882.12
984.372	890.26
984.67	887.32
984.969	864.95
985.267	885.51
985.566	876.02
985.864	864.95
986.162	877.83
986.461	886.19
986.759	863.82
987.057	878.06
987.355	858.62
987.653	862.01
987.951	854.78
988.249	847.77
988.547	843.03
988.844	819.07
989.142	866.98
989.44	850.03
989.737	851.16
990.035	858.17
990.332	836.48
990.63	832.86
990.927	820.66
991.224	798.74
991.521	829.47
991.819	828.34
992.116	827.66
992.413	818.17
992.71	806.42
993.006	828.79
993.303	792.18
993.6	812.97
993.897	792.41
994.193	803.26
994.49	804.39
994.787	793.31
995.083	772.07
995.379	789.7
995.676	803.03
995.972	777.72
996.268	766.65
996.565	778.62
996.861	767.1
997.157	763.26
997.453	780.66
997.749	726.2
998.044	779.98
998.34	768.91
998.636	762.13
998.932	745.4
999.227	756.48
999.523	735.23
999.818	746.99
1000.114	738.4
1000.409	740.21
1000.704	751.05
1001	728.68
1001.295	714.67
1001.59	715.57
1001.885	750.6
1002.18	723.48
1002.475	713.09
1002.77	719.19
1003.065	702.02
1003.359	709.02
1003.654	709.47
1003.949	713.99
1004.243	708.12
1004.538	699.3
1004.832	702.47
1005.127	701.34
1005.421	692.75
1005.715	688.23
1006.009	677.38
1006.304	679.64
1006.598	682.13
1006.892	680.32
1007.186	691.17
1007.48	669.7
1007.773	677.84
1008.067	668.34
1008.361	667.89
1008.655	679.19
1008.948	663.82
1009.242	652.07
1009.535	674.67
1009.829	669.93
1010.122	640.32
1010.415	648.91
1010.708	658.17
1011.001	643.03
1011.295	665.18
1011.588	652.3
1011.881	640.77
1012.173	647.55
1012.466	635.58
1012.759	635.58
1013.052	634.45
1013.344	648.01
1013.637	632.19
1013.93	639.42
1014.222	638.51
1014.514	628.12
1014.807	604.39
1015.099	606.2
1015.391	634.67
1015.683	630.6
1015.976	602.58
1016.268	616.37
1016.56	575.92
1016.851	606.2
1017.143	605.75
1017.435	591.74
1017.727	592.64
1018.018	596.71
1018.31	560.55
1018.602	586.76
1018.893	598.52
1019.185	589.7
1019.476	606.2
1019.767	581.11
1020.058	591.96
1020.35	608.01
1020.641	555.13
1020.932	589.02
1021.223	594.22
1021.514	571.62
1021.804	576.6
1022.095	561.45
1022.386	571.85
1022.677	562.13
1022.967	546.99
1023.258	558.74
1023.548	542.7
1023.839	564.17
1024.129	561.45
1024.419	565.97
1024.709	562.81
1025	528.01
1025.29	551.96
1025.58	532.75
1025.87	529.36
1026.16	535.92
1026.449	537.5
1026.739	544.28
1027.029	558.52
1027.319	548.57
1027.608	527.33
1027.898	528.69
1028.187	516.94
1028.477	539.99
1028.766	533.66
1029.055	528.46
1029.344	509.03
1029.634	517.16
1029.923	519.87
1030.212	539.31
1030.501	515.35
1030.79	508.35
1031.078	487.33
1031.367	496.82
1031.656	499.53
1031.945	534.56
1032.233	487.78
1032.522	511.96
1032.81	471.29
1033.099	474.68
1033.387	498.18
1033.675	489.82
1033.963	485.75
1034.251	495.47
1034.54	482.81
1034.828	496.82
1035.116	477.39
1035.403	472.64
1035.691	474
1035.979	500.21
1036.267	466.54
1036.554	469.71
1036.842	481
1037.129	465.86
1037.417	478.74
1037.704	461.12
1037.992	467.22
1038.279	459.54
1038.566	463.83
1038.853	463.83
1039.14	463.83
