Data from black_plastic_tray_FLMS001491_079.txt Node
Date: Tue Feb 07 10:40:36 GMT 2017
User: dcchb
Spectrometer: FLMS00149
Trigger mode: 0
Integration Time (sec): 2.000000E-2
Scans to average: 10
Electric dark correction enabled: true
Nonlinearity correction enabled: false
Boxcar width: 0
XAxis mode: Wavelengths
Number of Pixels in Spectrum: 2048
>>>>>Begin Spectral Data<<<<<
341.393	-4.72
341.776	-4.72
342.16	-4.72
342.543	-56.24
342.927	-42.46
343.31	-43.81
343.693	-70.93
344.077	-63.92
344.46	-55.56
344.843	-43.36
345.226	-33.64
345.61	-36.81
345.993	-40.2
346.376	-13.53
346.759	4.55
347.142	14.72
347.525	51.33
347.908	39.58
348.291	81.38
348.674	101.72
349.057	108.5
349.44	129.52
349.823	148.27
350.206	141.49
350.588	181.49
350.971	192.11
351.354	211.1
351.737	214.49
352.119	260.59
352.502	258.78
352.884	245.9
353.267	271.66
353.65	265.33
354.032	288.16
354.414	298.78
354.797	295.84
355.179	309.85
355.562	304.88
355.944	321.15
356.326	323.41
356.709	314.82
357.091	317.08
357.473	345.1
357.855	345.56
358.238	342.17
358.62	331.77
359.002	330.87
359.384	345.33
359.766	350.3
360.148	314.14
360.53	338.32
360.912	334.71
361.294	336.97
361.676	324.31
362.057	315.27
362.439	316.63
362.821	331.32
363.203	319.79
363.584	328.16
363.966	315.73
364.348	323.64
364.729	327.7
365.111	319.57
365.493	315.05
365.874	328.61
366.256	307.82
366.637	316.18
367.019	316.18
367.4	313.01
367.781	291.55
368.163	330.42
368.544	295.61
368.925	319.34
369.306	291.32
369.688	313.92
370.069	324.09
370.45	320.92
370.831	324.09
371.212	315.27
371.593	293.81
371.974	315.27
372.355	328.38
372.736	309.85
373.117	312.34
373.498	315.73
373.879	325.9
374.26	325.9
374.641	326.35
375.021	299
375.402	318.89
375.783	314.82
376.163	344.65
376.544	336.06
376.925	337.87
377.305	316.63
377.686	342.84
378.066	331.54
378.447	314.82
378.827	336.52
379.208	337.87
379.588	336.97
379.968	330.42
380.349	333.8
380.729	345.78
381.109	342.39
381.489	348.72
381.87	322.73
382.25	362.73
382.63	344.88
383.01	370.87
383.39	349.17
383.77	338.78
384.15	355.5
384.53	389.62
384.91	367.93
385.29	380.58
385.67	372.45
386.049	363.86
386.429	367.02
386.809	372.9
387.189	375.61
387.568	371.54
387.948	367.48
388.328	364.09
388.707	398.66
389.087	383.52
389.466	368.61
389.846	394.14
390.225	401.37
390.605	384.2
390.984	388.04
391.363	391.2
391.743	379.23
392.122	389.85
392.501	391.88
392.881	408.38
393.26	437.3
393.639	426.91
394.018	401.37
394.397	427.14
394.776	404.54
395.155	399.11
395.534	402.73
395.913	411.32
396.292	411.77
396.671	419.23
397.05	435.72
397.429	446.34
397.808	444.76
398.186	443.86
398.565	452.67
398.944	437.76
399.323	440.92
399.701	423.29
400.08	450.64
400.458	451.99
400.837	435.05
401.215	473.91
401.594	452.45
401.972	470.3
402.351	465.78
402.729	469.85
403.107	498.77
403.486	474.14
403.864	486.34
404.242	457.42
404.62	468.26
404.999	482.5
405.377	513.01
405.755	493.8
406.133	486.12
406.511	484.99
406.889	501.71
407.267	506
407.645	511.43
408.023	503.07
408.401	504.2
408.779	514.59
409.156	518.43
409.534	506.91
409.912	546.91
410.29	535.16
410.667	522.05
411.045	541.26
411.422	565.44
411.8	548.04
412.178	561.6
412.555	589.62
412.933	570.86
413.31	580.13
413.687	566.79
414.065	566.12
414.442	599.79
414.819	590.75
415.197	589.17
415.574	611.99
415.951	608.6
416.328	618.77
416.705	600.24
417.082	608.83
417.46	613.8
417.837	638.66
418.214	637.53
418.591	640.46
418.967	636.62
419.344	651.54
419.721	654.47
420.098	636.62
420.475	661.71
420.852	663.74
421.228	652.89
421.605	645.89
421.982	661.93
422.358	703.96
422.735	701.7
423.111	687.92
423.488	691.08
423.864	688.82
424.241	697.64
424.617	700.8
424.994	711.42
425.37	741.03
425.746	721.82
426.123	726.34
426.499	736.51
426.875	734.47
427.251	779.89
427.627	784.64
428.003	758.88
428.379	793.68
428.756	803.4
429.132	801.59
429.507	805.88
429.883	818.54
430.259	823.96
430.635	820.35
431.011	843.17
431.387	863.06
431.763	852.21
432.138	868.03
432.514	885.65
432.89	863.51
433.265	866.45
433.641	893.56
434.016	887.46
434.392	941.92
434.767	943.28
435.143	915.71
435.518	945.31
435.894	930.4
436.269	948.25
436.644	977.4
437.02	959.33
437.395	966.56
437.77	1002.04
438.145	984.18
438.52	1010.4
438.895	1027.35
439.271	1022.6
439.646	1035.71
440.021	1041.58
440.395	1057.63
440.77	1068.47
441.145	1048.59
441.52	1057.85
441.895	1053.79
442.27	1068.47
442.645	1064.41
443.019	1087.46
443.394	1104.41
443.769	1105.76
444.143	1086.33
444.518	1142.15
444.892	1105.54
445.267	1123.61
445.641	1119.77
446.016	1130.62
446.39	1162.94
446.764	1163.84
447.139	1161.58
447.513	1168.81
447.887	1183.27
448.262	1180.34
448.636	1183.5
449.01	1190.28
449.384	1212.43
449.758	1241.35
450.132	1224.18
450.506	1231.18
450.88	1234.57
451.254	1240.45
451.628	1248.58
452.002	1259.88
452.376	1303.27
452.75	1296.04
453.123	1311.41
453.497	1324.06
453.871	1333.55
454.244	1328.13
454.618	1350.5
454.992	1376.94
455.365	1366.55
455.739	1408.8
456.112	1405.64
456.486	1417.17
456.859	1465.53
457.232	1455.13
457.606	1439.54
457.979	1481.12
458.352	1498.75
458.725	1539.2
459.099	1511.85
459.472	1592.75
459.845	1574.45
460.218	1589.14
460.591	1583.72
460.964	1611.29
461.337	1653.77
461.71	1669.14
462.083	1689.93
462.456	1706.2
462.829	1686.54
463.201	1708.46
463.574	1692.19
463.947	1747.33
464.32	1759.3
464.692	1759.53
465.065	1814.9
465.438	1832.97
465.81	1853.31
466.183	1840.21
466.555	1889.47
466.928	1880.43
467.3	1910.94
467.672	1937.6
468.045	1978.73
468.417	1981.9
468.789	2023.48
469.161	2046.3
469.534	2060.09
469.906	2075.45
470.278	2108.9
470.65	2133.31
471.022	2162.01
471.394	2200.65
471.766	2244.04
472.138	2253.3
472.51	2288.1
472.882	2324.03
473.253	2356.35
473.625	2384.6
473.997	2400.64
474.369	2467.76
474.74	2460.53
475.112	2521.54
475.484	2546.18
475.855	2586.4
476.227	2577.36
476.598	2674.76
476.97	2714.53
477.341	2779.84
477.713	2790.46
478.084	2814.87
478.455	2870.24
478.827	2920.63
479.198	3000.85
479.569	2978.48
479.94	3046.73
480.311	3093.28
480.682	3135.99
481.053	3199.49
481.424	3225.71
481.795	3308.64
482.166	3324.01
482.537	3377.79
482.908	3454.85
483.279	3447.85
483.65	3516.09
484.021	3575.75
484.391	3615.98
484.762	3667.05
485.133	3697.33
485.503	3776.65
485.874	3835.41
486.244	3853.03
486.615	3929.42
486.985	3995.4
487.356	4016.87
487.726	4005.57
488.097	4172.12
488.467	4206.25
488.837	4202.63
489.207	4303.64
489.578	4331.21
489.948	4372.34
490.318	4417.31
490.688	4434.04
491.058	4512.23
491.428	4601.04
491.798	4576.18
492.168	4701.15
492.538	4702.28
492.908	4769.62
493.278	4856.4
493.648	4831.77
494.017	4888.71
494.387	4965.1
494.757	5000.57
495.126	5023.17
495.496	5088.93
495.866	5122.38
496.235	5175.03
496.605	5217.52
496.974	5210.74
497.344	5257.74
497.713	5309.95
498.082	5356.95
498.452	5367.34
498.821	5444.18
499.19	5426.55
499.559	5531.41
499.928	5551.29
500.298	5558.75
500.667	5652.31
501.036	5627.45
501.405	5722.14
501.774	5751.52
502.143	5728.92
502.512	5751.06
502.88	5838.74
503.249	5854.56
503.618	5922.13
503.987	5953.09
504.356	5919.87
504.724	5972.07
505.093	6028.12
505.462	6058.63
505.83	6069.25
506.199	6144.73
506.567	6222.92
506.936	6217.72
507.304	6313.99
507.672	6361.89
508.041	6353.76
508.409	6371.16
508.777	6450.71
509.145	6511.72
509.514	6509.01
509.882	6575
510.25	6607.99
510.618	6680.53
510.986	6678.72
511.354	6763.24
511.722	6791.04
512.09	6855.44
512.458	6853.41
512.826	6892.28
513.193	6941.77
513.561	7004.14
513.929	7024.02
514.297	7182.66
514.664	7196.45
515.032	7175.21
515.4	7274.19
515.767	7248.43
516.135	7348.99
516.502	7285.49
516.869	7450.91
517.237	7464.92
517.604	7485.93
517.972	7500.85
518.339	7655.87
518.706	7638.47
519.073	7691.35
519.44	7734.29
519.808	7828.75
520.175	7852.03
520.542	7934.96
520.909	7969.99
521.276	8092.92
521.643	8127.05
522.009	8155.97
522.376	8236.65
522.743	8250.88
523.11	8436.19
523.477	8453.82
523.843	8508.28
524.21	8560.93
524.577	8624.43
524.943	8632.12
525.31	8710.99
525.676	8825.33
526.043	8837.54
526.409	8830.3
526.776	8981.26
527.142	8999.34
527.508	9129.51
527.874	9113.91
528.241	9158.88
528.607	9197.53
528.973	9236.62
529.339	9331.31
529.705	9444.3
530.071	9432.77
530.437	9584.86
530.803	9573.11
531.169	9626.89
531.535	9633.45
531.901	9707.12
532.267	9729.49
532.632	9788.02
532.998	9860.56
533.364	9894.46
533.73	9905.53
534.095	10024.85
534.461	10047.22
534.826	10090.61
535.192	10163.83
535.557	10173.77
535.923	10231.4
536.288	10256.93
536.653	10310.94
537.019	10319.53
537.384	10400.88
537.749	10432.75
538.114	10442.24
538.479	10535.34
538.845	10542.12
539.21	10562.69
539.575	10528.79
539.94	10673.87
540.305	10641.56
540.67	10790.25
541.034	10724.49
541.399	10803.36
541.764	10861.21
542.129	10867.31
542.494	10934.88
542.858	10878.16
543.223	10940.98
543.587	10972.4
543.952	10917.48
544.316	11077.25
544.681	11034.09
545.045	11122.9
545.41	11192.73
545.774	11174.65
546.138	11209.9
546.503	11298.04
546.867	11384.59
547.231	11412.38
547.595	11388.43
547.959	11467.07
548.324	11443.57
548.688	11532.61
549.052	11491.25
549.416	11565.37
549.779	11637.69
550.143	11616.9
550.507	11713.17
550.871	11819.6
551.235	11784.13
551.599	11870.9
551.962	11846.04
552.326	11864.35
552.689	11954.29
553.053	11910
553.417	11951.58
553.78	12198.13
554.143	12130.1
554.507	12196.32
554.87	12268.41
555.234	12406.03
555.597	12205.81
555.96	12394.96
556.323	12443.09
556.686	12374.84
557.05	12614.16
557.413	12568.96
557.776	12532.35
558.139	12692.58
558.502	12707.94
558.865	12687.83
559.228	12861.61
559.59	12896.41
559.953	12955.39
560.316	12996.52
560.679	13019.12
561.041	13081.04
561.404	13107.03
561.767	13122.17
562.129	13176.18
562.492	13408.26
562.854	13268.61
563.217	13432.22
563.579	13463.18
563.941	13604.64
564.304	13601.03
564.666	13591.99
565.028	13641.25
565.39	13734.13
565.753	13821.81
566.115	13802.83
566.477	13853.9
566.839	13882.6
567.201	14064.29
567.563	14018.64
567.925	14067
568.287	14167.57
568.648	14158.98
569.01	14262.25
569.372	14372.76
569.734	14379.76
570.095	14418.86
570.457	14448.69
570.819	14636.48
571.18	14586.54
571.542	14657.04
571.903	14635.8
572.265	14704.05
572.626	14680.32
572.987	14694.33
573.349	14789.02
573.71	14755.57
574.071	14851.39
574.432	14945.17
574.794	15013.64
575.155	15043.93
575.516	14972.06
575.877	14989.01
576.238	14991.95
576.599	15106.75
576.96	15101.1
577.32	15166.64
577.681	15239.63
578.042	15264.03
578.403	15266.97
578.763	15330.25
579.124	15446.85
579.485	15377.7
579.845	15360.3
580.206	15290.47
580.566	15318.72
580.927	15302
581.287	15462.22
581.648	15362.56
582.008	15519.85
582.368	15413.18
582.728	15524.59
583.089	15499.28
583.449	15462.9
583.809	15461.99
584.169	15541.31
584.529	15510.13
584.889	15650.69
585.249	15587.19
585.609	15503.8
585.969	15575.89
586.329	15529.56
586.688	15578.6
587.048	15531.15
587.408	15526.4
587.768	15450.7
588.127	15498.38
588.487	15562.78
588.846	15524.59
589.206	15518.26
589.565	15510.58
589.925	15512.39
590.284	15454.31
590.643	15639.62
591.003	15576.79
591.362	15609.56
591.721	15552.39
592.08	15631.71
592.44	15634.19
592.799	15762.55
593.158	15564.59
593.517	15699.95
593.876	15673.06
594.235	15767.07
594.593	15686.62
594.952	15757.35
595.311	15618.6
595.67	15615.89
596.029	15760.29
596.387	15781.99
596.746	15753.96
597.104	15778.14
597.463	15726.39
597.822	15669.67
598.18	15713.74
598.538	15639.17
598.897	15767.07
599.255	15665.38
599.613	15847.3
599.972	15757.13
600.33	15829.44
600.688	15708.54
601.046	15832.15
601.404	15878.71
601.762	15893.85
602.12	15950.34
602.478	15908.99
602.836	15880.97
603.194	15892.27
603.552	15894.07
603.91	15790.12
604.268	15968.65
604.625	15900.85
604.983	15888.65
605.341	15889.33
605.698	15883.23
606.056	16024.69
606.413	15926.39
606.771	15999.83
607.128	15992.38
607.485	15969.55
607.843	15986.95
608.2	16146.95
608.557	16183.56
608.914	16094.07
609.272	16166.83
609.629	16207.96
609.986	16146.72
610.343	16061.07
610.7	16205.48
611.057	16162.54
611.414	16137.91
611.771	16193.5
612.127	16241.41
612.484	16245.93
612.841	16342.65
613.198	16315.31
613.554	16341.29
613.911	16358.92
614.267	16368.86
614.624	16331.8
614.98	16420.61
615.337	16386.72
615.693	16323.44
616.05	16342.2
616.406	16425.59
616.762	16458.35
617.118	16442.08
617.475	16351.69
617.831	16466.71
618.187	16616.54
618.543	16565.69
618.899	16578.12
619.255	16615.18
619.611	16665.58
619.967	16677.33
620.323	16708.29
620.678	16527.05
621.034	16546.26
621.39	16613.38
621.746	16538.35
622.101	16849.98
622.457	16480.5
622.812	16687.27
623.168	16557.11
623.523	16739.25
623.879	16595.07
624.234	16504.45
624.589	16671.45
624.945	16605.69
625.3	16729.76
625.655	16727.5
626.01	16655.41
626.365	16652.02
626.72	16615.86
627.075	16656.77
627.43	16621.51
627.785	16641.17
628.14	16729.53
628.495	16664.67
628.85	16705.58
629.205	16658.12
629.559	16618.35
629.914	16650.89
630.269	16646.37
630.623	16557.11
630.978	16469.65
631.332	16571.12
631.687	16565.47
632.041	16441.86
632.396	16592.13
632.75	16477.11
633.104	16501.52
633.459	16446.6
633.813	16465.13
634.167	16334.06
634.521	16305.14
634.875	16396.89
635.229	16293.16
635.583	16173.61
635.937	16229.21
636.291	16196.44
636.645	16221.75
636.999	16059.27
637.352	16064.92
637.706	16057.91
638.06	16198.92
638.413	16066.72
638.767	16082.32
639.121	16078.48
639.474	16042.77
639.828	16061.3
640.181	16019.27
640.534	16004.35
640.888	15924.58
641.241	15885.71
641.594	15955.09
641.947	15896.79
642.301	15841.87
642.654	15875.32
643.007	15935.2
643.36	15836.45
643.713	15715.32
644.066	15807.97
644.419	15748.09
644.771	15683.23
645.124	15539.51
645.477	15537.92
645.83	15294.09
646.182	15291.83
646.535	15292.73
646.888	15269.01
647.24	15205.5
647.593	15297.93
647.945	15297.71
648.298	15153.53
648.65	15118.5
649.002	15167.77
649.355	15137.71
649.707	15114.43
650.059	15122.79
650.411	15389.68
650.763	15313.52
651.115	15498.83
651.467	15439.17
651.819	15432.62
652.171	15351.26
652.523	15444.14
652.875	15469
653.227	15354.65
653.578	15501.09
653.93	15359.62
654.282	15322.34
654.633	15273.07
654.985	15322.56
655.337	15382.9
655.688	15335.9
656.039	15332.96
656.391	15213.64
656.742	15161.44
657.094	15173.87
657.445	15234.88
657.796	15243.24
658.147	15308.78
658.498	15243.24
658.849	15209.12
659.2	15184.94
659.551	15150.59
659.902	15230.14
660.253	15218.16
660.604	15290.7
660.955	15106.3
661.306	15189.69
661.656	15061.78
662.007	15074.66
662.358	15065.17
662.708	15087.09
663.059	15115.56
663.409	14955.12
663.76	15118.27
664.11	15052.51
664.461	15040.99
664.811	15064.04
665.161	15011.16
665.511	14963.25
665.862	15013.19
666.212	14953.08
666.562	15051.61
666.912	14870.15
667.262	14927.09
667.612	14962.12
667.962	15028.11
668.312	14889.58
668.662	15009.35
669.011	14859.3
669.361	14892.07
669.711	14858.85
670.06	14792.63
670.41	14837.15
670.76	14737.04
671.109	14870.82
671.459	14814.1
671.808	14799.87
672.157	14887.77
672.507	14786.08
672.856	14827.89
673.205	14801.45
673.554	14746.99
673.904	14709.47
674.253	14816.14
674.602	14730.71
674.951	14514.22
675.3	14432.64
675.649	14656.14
675.998	14705.18
676.346	14757.83
676.695	14735.69
677.044	14603.26
677.393	14636.48
677.741	14670.15
678.09	14598.74
678.438	14570.72
678.787	14520.78
679.135	14571.85
679.484	14528.46
679.832	14561.23
680.181	14522.58
680.529	14503.6
680.877	14413.66
681.225	14556.26
681.573	14573.2
681.922	14422.93
682.27	14352.19
682.618	14391.51
682.966	14417.05
683.314	14410.95
683.661	14378.63
684.009	14247.11
684.357	14288.47
684.705	14297.28
685.053	14260.22
685.4	14340.44
685.748	14240.56
686.095	14195.59
686.443	14045.99
686.79	14069.49
687.138	14036.04
687.485	14098.87
687.832	14015.48
688.18	13954.92
688.527	13842.15
688.874	13933
689.221	13951.75
689.568	13909.04
689.915	13823.62
690.262	13780.46
690.609	13787.24
690.956	13690.97
691.303	13639.67
691.65	13551.31
691.997	13614.13
692.344	13510.63
692.69	13473.57
693.037	13522.84
693.383	13448.04
693.73	13492.1
694.077	13443.06
694.423	13504.98
694.769	13460.92
695.116	13371.43
695.462	13413.69
695.808	13322.39
696.155	13331.66
696.501	13175.05
696.847	13143.19
697.193	13155.39
697.539	13093.02
697.885	13069.06
698.231	13001.49
698.577	12972.12
698.923	12940.93
699.269	12893.7
699.614	12841.27
699.96	12837.43
700.306	12820.48
700.651	12714.27
700.997	12689.19
701.342	12651
701.688	12722.18
702.033	12623.43
702.379	12646.02
702.724	12563.09
703.069	12627.94
703.415	12418.01
703.76	12579.13
704.105	12555.63
704.45	12451.9
704.795	12410.55
705.14	12310.44
705.485	12305.69
705.83	12276.09
706.175	12276.99
706.52	12346.6
706.865	12207.84
707.209	12189.31
707.554	12217.11
707.899	12192.7
708.243	12145.25
708.588	12114.06
708.932	12068.41
709.277	12030.22
709.621	12037.45
709.966	11963.56
710.31	12053.04
710.654	11872.71
710.998	11911.35
711.342	11877
711.687	11874.07
712.031	11772.37
712.375	11733.05
712.719	11792.49
713.063	11730.12
713.407	11784.35
713.75	11661.64
714.094	11629.33
714.438	11568.99
714.782	11575.77
715.125	11551.14
715.469	11547.07
715.812	11501.87
716.156	11529.67
716.499	11504.81
716.843	11468.43
717.186	11428.2
717.53	11509.78
717.873	11465.26
718.216	11399.28
718.559	11405.15
718.902	11264.59
719.246	11437.47
719.589	11387.07
719.932	11297.58
720.275	11209
720.617	11312.05
720.96	11254.65
721.303	11172.84
721.646	11209.68
721.989	11161.99
722.331	11183.46
722.674	11106.18
723.016	11132.16
723.359	11106.4
723.701	11088.78
724.044	11043.58
724.386	11071.83
724.729	11062.11
725.071	11019.4
725.413	10926.75
725.755	11012.62
726.097	10969.01
726.439	10829.12
726.782	10878.16
727.124	10947.09
727.465	10857.14
727.807	10778.28
728.149	10806.98
728.491	10806.07
728.833	10778.95
729.175	10773.3
729.516	10715.23
729.858	10719.97
730.199	10771.27
730.541	10715.23
730.882	10691.5
731.224	10628.68
731.565	10607.21
731.906	10584.83
732.248	10644.27
732.589	10582.12
732.93	10525.4
733.271	10500.32
733.612	10548.23
733.953	10491.5
734.294	10480.88
734.635	10505.74
734.976	10536.25
735.317	10471.17
735.658	10487.44
735.999	10443.6
736.339	10471.39
736.68	10343.49
737.021	10354.11
737.361	10259.87
737.702	10341.68
738.042	10334.22
738.383	10327.44
738.723	10361.11
739.063	10283.15
739.404	10406.08
739.744	10269.36
740.084	10208.35
740.424	10282.02
740.764	10284.73
741.104	10294.45
741.444	10161.12
741.784	10154.79
742.124	10134
742.464	10096.94
742.804	10112.53
743.143	10116.6
743.483	10170.61
743.823	10044.74
744.162	10041.12
744.502	10070.72
744.841	10048.13
745.181	10071.63
745.52	9924.74
745.86	9982.82
746.199	9975.36
746.538	9989.37
746.877	9946.43
747.216	9946.89
747.556	9934
747.895	9826.44
748.234	9878.19
748.573	9844.97
748.911	9839.09
749.25	9826.89
749.589	9818.08
749.928	9788.7
750.267	9869.83
750.605	9746.44
750.944	9739.89
751.283	9763.39
751.621	9779.21
751.96	9725.87
752.298	9710.28
752.636	9768.58
752.975	9573.11
753.313	9562.94
753.651	9593
753.989	9583.96
754.327	9507.35
754.666	9501.7
755.004	9504.19
755.342	9447.69
755.679	9466.9
756.017	9310.07
756.355	9351.65
756.693	9272.78
757.031	9347.35
757.368	9328.37
757.706	9304.19
758.044	9312.55
758.381	9327.69
758.719	9220.8
759.056	9255.15
759.394	9243.63
759.731	9216.28
760.068	9139.9
760.405	9088.6
760.743	9088.15
761.08	9038.66
761.417	8997.76
761.754	9025.33
762.091	9037.08
762.428	8979.45
762.765	8844.09
763.102	8903.3
763.438	8894.03
763.775	8864.2
764.112	8804.09
764.449	8815.39
764.785	8773.36
765.122	8741.27
765.458	8686.35
765.795	8696.07
766.131	8658.56
766.467	8637.54
766.804	8596.86
767.14	8575.17
767.476	8497.88
767.812	8501.5
768.148	8493.14
768.485	8463.53
768.821	8451.33
769.157	8421.05
769.492	8401.39
769.828	8363.42
770.164	8355.51
770.5	8279.58
770.836	8410.65
771.171	8315.97
771.507	8224.67
771.842	8182.86
772.178	8232.58
772.513	8172.02
772.849	8105.8
773.184	8128.63
773.519	8125.92
773.855	8064.45
774.19	8062.87
774.525	8015.86
774.86	8035.98
775.195	7958.69
775.53	7924.11
775.865	7892.25
776.2	7859.26
776.535	7844.57
776.87	7797.56
777.205	7800.73
777.539	7712.82
777.874	7811.57
778.209	7668.75
778.543	7676.44
778.878	7614.07
779.212	7612.48
779.547	7539.49
779.881	7569.77
780.215	7486.16
780.55	7530.68
780.884	7430.34
781.218	7424.69
781.552	7446.84
781.886	7360.96
782.22	7297.46
782.554	7314.41
782.888	7247.3
783.222	7175.43
783.556	7196.68
783.889	7191.25
784.223	7156.22
784.557	7082.55
784.89	7164.81
785.224	7106.28
785.557	7116.68
785.891	7023.8
786.224	7042.55
786.558	7011.14
786.891	6960.3
787.224	7025.83
787.557	6947.42
787.891	6923.91
788.224	6904.03
788.557	6914.2
788.89	6864.25
789.223	6885.95
789.556	6801.43
789.888	6791.71
790.221	6857.02
790.554	6751.04
790.887	6676.69
791.219	6704.48
791.552	6674.88
791.884	6603.02
792.217	6598.5
792.549	6584.94
792.882	6569.12
793.214	6570.7
793.546	6603.24
793.879	6513.53
794.211	6446.64
794.543	6517.37
794.875	6435.57
795.207	6490.48
795.539	6410.03
795.871	6390.14
796.203	6304.5
796.535	6288.68
796.867	6275.34
797.198	6292.07
797.53	6229.02
797.862	6178.62
798.193	6229.24
798.525	6193.99
798.856	6216.59
799.188	6152.63
799.519	6137.95
799.85	6075.8
800.182	6090.26
800.513	6116.25
800.844	6027.67
801.175	6066.31
801.506	6099.98
801.837	6032.41
802.168	6010.94
802.499	5990.83
802.83	5988.8
803.161	5980.66
803.491	5935.92
803.822	5916.03
804.153	5844.85
804.483	5852.76
804.814	5824.96
805.145	5794.23
805.475	5789.25
805.805	5738.86
806.136	5813.21
806.466	5802.59
806.796	5824.06
807.126	5751.97
807.457	5749.93
807.787	5694.79
808.117	5677.85
808.447	5634.23
808.777	5669.48
809.107	5671.97
809.436	5733.44
809.766	5656.6
810.096	5626.32
810.426	5590.39
810.755	5547.23
811.085	5620.67
811.414	5576.6
811.744	5504.06
812.073	5459.55
812.403	5498.19
812.732	5509.26
813.061	5420.22
813.39	5437.17
813.719	5378.64
814.049	5443.27
814.378	5430.17
814.707	5433.78
815.036	5389.72
815.365	5370.28
815.693	5363.5
816.022	5367.57
816.351	5315.59
816.68	5290.06
817.008	5351.53
817.337	5251.42
817.665	5271.53
817.994	5247.8
818.322	5213.68
818.651	5220
818.979	5210.96
819.307	5238.08
819.636	5211.87
819.964	5155.37
820.292	5199.44
820.62	5185.43
820.948	5172.77
821.276	5155.6
821.604	5158.54
821.932	5201.7
822.259	5165.77
822.587	5194.69
822.915	5121.48
823.243	5215.26
823.57	5129.38
823.898	5138.2
824.225	5156.28
824.553	5155.15
824.88	5130.29
825.207	5176.62
825.535	5201.47
825.862	5169.16
826.189	5164.86
826.516	5125.32
826.843	5226.11
827.17	5119.89
827.497	5192.43
827.824	5142.27
828.151	5169.84
828.478	5149.72
828.805	5172.1
829.131	5160.12
829.458	5134.13
829.785	5147.92
830.111	5126
830.438	5177.97
830.764	5136.84
831.09	5124.87
831.417	5125.09
831.743	5125.77
832.069	5150.85
832.395	5086.9
832.722	5112.44
833.048	5136.16
833.374	5109.95
833.7	5078.99
834.026	5090.06
834.351	5052.32
834.677	5040.57
835.003	5048.71
835.329	5065.88
835.654	5058.65
835.98	5064.75
836.306	5139.55
836.631	5081.7
836.956	5027.01
837.282	5045.55
837.607	4985.66
837.932	5009.84
838.258	4994.02
838.583	4958.99
838.908	5023.4
839.233	4966.9
839.558	4961.03
839.883	4963.74
840.208	4936.62
840.533	4992.89
840.858	4965.77
841.182	4950.41
841.507	4959.67
841.832	4889.39
842.156	4883.74
842.481	4877.19
842.805	4903.4
843.13	4897.75
843.454	4873.57
843.778	4897.53
844.103	4852.1
844.427	4819.34
844.751	4849.39
845.075	4828.83
845.399	4822.05
845.723	4802.61
846.047	4787.25
846.371	4799
846.695	4744.54
847.019	4734.37
847.343	4709.51
847.666	4710.19
847.99	4725.1
848.313	4657.31
848.637	4586.8
848.96	4621.38
849.284	4632.9
849.607	4590.42
849.931	4617.76
850.254	4538.21
850.577	4488.95
850.9	4461.83
851.223	4451.89
851.546	4477.2
851.869	4402.4
852.192	4455.28
852.515	4421.15
852.838	4371.21
853.161	4404.43
853.483	4372.34
853.806	4335.06
854.129	4321.27
854.451	4377.31
854.774	4317.65
855.096	4284.44
855.419	4325.56
855.741	4302.74
856.063	4289.86
856.385	4262.97
856.708	4261.16
857.03	4278.79
857.352	4241.95
857.674	4228.39
857.996	4231.78
858.318	4159.01
858.64	4199.69
858.961	4180.94
859.283	4173.25
859.605	4176.64
859.926	4171.67
860.248	4119.47
860.57	4121.95
860.891	4075.85
861.212	4094.38
861.534	4061.84
861.855	4045.8
862.176	4081.95
862.498	4061.16
862.819	4128.28
863.14	3994.05
863.461	4024.56
863.782	4003.54
864.103	4033.14
864.424	4023.65
864.745	4036.76
865.065	4022.97
865.386	4012.35
865.707	4017.78
866.027	4030.88
866.348	3995.63
866.668	4011.22
866.989	3955.86
867.309	3930.32
867.63	3961.51
867.95	3935.29
868.27	3910.66
868.59	3931.22
868.91	3981.62
869.23	3929.64
869.55	3935.97
869.87	3937.78
870.19	3904.78
870.51	3902.3
870.83	3914.95
871.15	3920.6
871.469	3843.09
871.789	3859.14
872.109	3868.18
872.428	3835.41
872.748	3859.81
873.067	3846.03
873.386	3840.38
873.706	3871.34
874.025	3808.74
874.344	3825.24
874.663	3831.34
874.982	3802.19
875.301	3822.53
875.62	3797.89
875.939	3771.45
876.258	3786.14
876.577	3762.42
876.896	3756.77
877.214	3741.85
877.533	3787.27
877.852	3732.13
878.17	3765.35
878.489	3750.89
878.807	3746.14
879.125	3752.25
879.444	3720.16
879.762	3732.59
880.08	3722.42
880.398	3692.13
880.716	3734.85
881.034	3735.75
881.352	3724
881.67	3709.08
881.988	3702.76
882.306	3719.7
882.624	3656.43
882.941	3652.36
883.259	3685.58
883.577	3671.57
883.894	3655.3
884.212	3665.47
884.529	3649.65
884.846	3626.83
885.164	3669.08
885.481	3609.65
885.798	3634.73
886.115	3579.14
886.432	3551.57
886.75	3521.74
887.067	3511.8
887.383	3526.72
887.7	3506.83
888.017	3515.19
888.334	3523.33
888.651	3512.7
888.967	3469.77
889.284	3523.78
889.6	3485.36
889.917	3476.77
890.233	3448.75
890.55	3407.62
890.866	3441.07
891.182	3441.97
891.498	3433.84
891.815	3434.06
892.131	3411.46
892.447	3438.81
892.763	3414.85
893.079	3407.4
893.395	3409.88
893.71	3375.76
894.026	3371.69
894.342	3374.4
894.657	3329.66
894.973	3316.33
895.289	3347.06
895.604	3345.03
895.92	3278.36
896.235	3262.32
896.55	3294.18
896.865	3261.19
897.181	3304.8
897.496	3263.67
897.811	3229.77
898.126	3202.2
898.441	3171.47
898.756	3177.57
899.071	3212.83
899.386	3212.6
899.7	3187.52
900.015	3139.38
900.33	3152.49
900.644	3167.63
900.959	3155.2
901.273	3144.58
901.588	3122.21
901.902	3117.01
902.216	3135.09
902.531	3108.65
902.845	3100.51
903.159	3056.45
903.473	3104.81
903.787	3025.03
904.101	3070.68
904.415	3060.06
904.729	3022.1
905.042	3000.63
905.356	3021.87
905.67	2990.01
905.984	2981.87
906.297	2978.93
906.611	2965.83
906.924	2936.22
907.237	2970.8
907.551	2954.07
907.864	2935.09
908.177	2907.3
908.491	2899.61
908.804	2893.29
909.117	2872.27
909.43	2846.06
909.743	2811.48
910.056	2855.09
910.368	2822.33
910.681	2801.31
910.994	2825.49
911.307	2839.73
911.619	2780.75
911.932	2796.34
912.244	2783.91
912.557	2768.32
912.869	2758.15
913.181	2780.07
913.494	2773.97
913.806	2711.37
914.118	2733.06
914.43	2725.38
914.742	2696.23
915.054	2667.75
915.366	2652.39
915.678	2630.69
915.99	2676.34
916.302	2643.8
916.613	2628.21
916.925	2640.86
917.236	2639.28
917.548	2600.86
917.859	2628.89
918.171	2597.25
918.482	2632.95
918.794	2620.3
919.105	2572.39
919.416	2541.66
919.727	2564.71
920.038	2563.35
920.349	2510.02
920.66	2547.08
920.971	2532.39
921.282	2518.15
921.593	2485.16
921.903	2463.01
922.214	2479.74
922.525	2461.88
922.835	2482.22
923.146	2453.3
923.456	2434.54
923.767	2450.36
924.077	2439.74
924.387	2416.01
924.697	2418.27
925.008	2400.87
925.318	2391.38
925.628	2390.02
925.938	2408.1
926.248	2368.33
926.558	2359.29
926.867	2295.56
927.177	2329.91
927.487	2327.2
927.796	2265.51
928.106	2288.33
928.416	2291.95
928.725	2275
929.034	2291.04
929.344	2273.19
929.653	2256.01
929.962	2229.35
930.271	2196.35
930.581	2211.72
930.89	2199.29
931.199	2183.93
931.508	2199.74
931.817	2204.26
932.125	2218.05
932.434	2168.78
932.743	2158.62
933.051	2155.9
933.36	2154.55
933.669	2177.6
933.977	2116.13
934.286	2147.77
934.594	2126.3
934.902	2120.2
935.21	2109.35
935.519	2132.4
935.827	2121.1
936.135	2084.72
936.443	2121.55
936.751	2069.35
937.059	2063.7
937.367	2055.57
937.674	2061.67
937.982	2055.79
938.29	2022.8
938.597	2031.61
938.905	2010.6
939.213	2035
939.52	2018.96
939.827	1988
940.135	2005.63
940.442	2013.53
940.749	1994.55
941.056	1973.31
941.363	1935.57
941.67	1926.76
941.977	1937.15
942.284	1942.8
942.591	1930.82
942.898	1921.56
943.205	1897.38
943.511	1912.07
943.818	1922.92
944.125	1884.27
944.431	1863.48
944.738	1888.57
945.044	1881.79
945.35	1832.07
945.657	1855.35
945.963	1842.24
946.269	1802.47
946.575	1853.54
946.881	1813.77
947.187	1831.84
947.493	1803.6
947.799	1775.57
948.105	1755.69
948.41	1758.63
948.716	1791.17
949.022	1754.56
949.327	1790.26
949.633	1771.06
949.938	1752.52
950.244	1733.09
950.549	1758.17
950.854	1746.42
951.16	1734.9
951.465	1731.51
951.77	1722.69
952.075	1727.21
952.38	1715.46
952.685	1714.11
952.99	1708.68
953.294	1694.9
953.599	1701.23
953.904	1667.78
954.209	1689.7
954.513	1644.96
954.818	1648.57
955.122	1679.76
955.426	1622.81
955.731	1599.76
956.035	1623.49
956.339	1620.55
956.643	1618.74
956.948	1608.35
957.252	1593.43
957.556	1595.69
957.86	1591.4
958.163	1598.18
958.467	1598.86
958.771	1585.52
959.075	1575.35
959.378	1568.35
959.682	1556.6
959.985	1552.76
960.289	1527.45
960.592	1534.23
960.896	1505.3
961.199	1510.72
961.502	1537.39
961.805	1506.88
962.108	1484.73
962.411	1474.79
962.714	1480.89
963.017	1474.79
963.32	1501.46
963.623	1494.9
963.926	1475.24
964.228	1472.53
964.531	1434.79
964.833	1498.97
965.136	1487.9
965.438	1471.18
965.741	1453.78
966.043	1432.53
966.345	1437.73
966.648	1404.29
966.95	1402.7
967.252	1437.05
967.554	1421.91
967.856	1369.94
968.158	1413.32
968.46	1385.08
968.761	1381.01
969.063	1396.38
969.365	1387.34
969.666	1387.11
969.968	1363.61
970.269	1388.92
970.571	1370.84
970.872	1339.65
971.174	1343.27
971.475	1356.6
971.776	1356.83
972.077	1340.78
972.378	1332.42
972.679	1337.62
972.98	1336.04
973.281	1329.94
973.582	1308.92
973.883	1324.06
974.183	1316.15
974.484	1317.28
974.785	1294.23
975.085	1308.69
975.386	1274.35
975.686	1272.09
975.986	1263.72
976.287	1276.6
976.587	1272.99
976.887	1254.01
977.187	1234.35
977.487	1270.05
977.787	1256.94
978.087	1242.26
978.387	1241.58
978.687	1247.23
978.987	1244.52
979.286	1208.81
979.586	1230.96
979.885	1208.36
980.185	1207.91
980.484	1221.92
980.784	1209.26
981.083	1223.72
981.382	1194.12
981.682	1189.83
981.981	1182.37
982.28	1179.66
982.579	1191.18
982.878	1185.99
983.177	1196.83
983.475	1166.78
983.774	1183.5
984.073	1156.83
984.372	1163.16
984.67	1141.47
984.969	1152.09
985.267	1125.2
985.566	1159.77
985.864	1146.89
986.162	1124.52
986.461	1101.92
986.759	1121.35
987.057	1101.02
987.355	1091.52
987.653	1092.43
987.951	1117.96
988.249	1099.66
988.547	1092.65
988.844	1079.32
989.142	1075.25
989.44	1101.47
989.737	1060.79
990.035	1055.37
990.332	1101.24
990.63	1060.57
990.927	1083.84
991.224	1064.86
991.521	1047.91
991.819	1043.16
992.116	1054.69
992.413	1051.53
992.71	1031.64
993.006	1014.69
993.303	1019.89
993.6	1039.55
993.897	1026.44
994.193	1023.73
994.49	1006.78
994.787	1021.02
995.083	1013.11
995.379	1036.61
995.676	1018.31
995.972	1003.62
996.268	1006.56
996.565	990.74
996.861	973.34
997.157	999.55
997.453	986.22
997.749	963.84
998.044	961.36
998.34	961.36
998.636	990.96
998.932	960
999.227	962.04
999.523	962.94
999.818	957.74
1000.114	976.05
1000.409	948.25
1000.704	933.56
1001	940.79
1001.295	949.16
1001.59	921.81
1001.885	928.82
1002.18	928.37
1002.475	912.09
1002.77	912.32
1003.065	921.59
1003.359	935.14
1003.654	910.06
1003.949	903.06
1004.243	898.99
1004.538	919.55
1004.832	902.6
1005.127	894.92
1005.421	876.84
1005.715	869.38
1006.009	883.17
1006.304	851.98
1006.598	854.24
1006.892	844.07
1007.186	849.05
1007.48	883.62
1007.773	832.55
1008.067	851.53
1008.361	846.79
1008.655	833.9
1008.948	834.58
1009.242	843.62
1009.535	802.27
1009.829	815.37
1010.122	811.76
1010.415	821.7
1010.708	805.43
1011.001	834.36
1011.295	806.79
1011.588	799.1
1011.881	798.43
1012.173	804.3
1012.466	803.62
1012.759	783.28
1013.052	777.63
1013.344	796.62
1013.637	775.38
1013.93	772.44
1014.222	769.95
1014.514	774.47
1014.807	765.43
1015.099	763.4
1015.391	759.1
1015.683	758.88
1015.976	744.42
1016.268	729.73
1016.56	734.25
1016.851	725.88
1017.143	731.31
1017.435	725.88
1017.727	716.39
1018.018	740.8
1018.31	711.65
1018.602	716.17
1018.893	717.3
1019.185	724.75
1019.476	712.78
1019.767	708.03
1020.058	698.54
1020.35	691.31
1020.641	686.11
1020.932	709.16
1021.223	699.9
1021.514	684.53
1021.804	688.37
1022.095	696.28
1022.386	682.5
1022.677	649.95
1022.967	681.37
1023.258	669.84
1023.548	673.23
1023.839	639.33
1024.129	648.6
1024.419	657.64
1024.709	664.19
1025	661.03
1025.29	651.76
1025.58	645.44
1025.87	643.4
1026.16	652.44
1026.449	635.49
1026.739	641.14
1027.029	637.07
1027.319	647.02
1027.608	626
1027.898	620.35
1028.187	636.4
1028.477	621.93
1028.766	627.58
1029.055	589.84
1029.344	618.77
1029.634	620.12
1029.923	621.25
1030.212	593.01
1030.501	592.1
1030.79	612.67
1031.078	591.65
1031.367	584.19
1031.656	593.91
1031.945	587.36
1032.233	583.06
1032.522	599.11
1032.81	592.56
1033.099	580.35
1033.387	569.05
1033.675	576.06
1033.963	575.61
1034.251	590.75
1034.54	586
1034.828	584.42
1035.116	564.53
1035.403	555.04
1035.691	564.08
1035.979	577.87
1036.267	551.65
1036.554	550.07
1036.842	550.52
1037.129	547.81
1037.417	533.8
1037.704	526.79
1037.992	552.1
1038.279	531.77
1038.566	533.12
1038.853	533.12
1039.14	533.12
