Data from black_metal_pc_casing_FLMS001491_00027.txt Node
Date: Wed Feb 08 14:32:15 GMT 2017
User: dcchb
Spectrometer: FLMS00149
Trigger mode: 0
Integration Time (sec): 2.000000E-2
Scans to average: 10
Electric dark correction enabled: true
Nonlinearity correction enabled: false
Boxcar width: 0
XAxis mode: Wavelengths
Number of Pixels in Spectrum: 2048
>>>>>Begin Spectral Data<<<<<
341.393	8.18
341.776	8.18
342.16	8.18
342.543	-69.33
342.927	-65.49
343.31	-79.73
343.693	-72.05
344.077	-93.97
344.46	-46.96
344.843	-60.97
345.226	-47.87
345.61	-30.24
345.993	-7.87
346.376	-6.51
346.759	23.54
347.142	30.1
347.525	48.4
347.908	74.62
348.291	75.52
348.674	96.54
349.057	97.44
349.44	114.62
349.823	142.86
350.206	141.28
350.588	171.11
350.971	181.05
351.354	217.44
351.737	221.05
352.119	236.87
352.502	247.72
352.884	249.75
353.267	275.97
353.65	267.15
354.032	261.28
354.414	310.32
354.797	295.85
355.179	315.06
355.562	301.5
355.944	309.41
356.326	315.51
356.709	309.86
357.091	308.06
357.473	334.27
357.855	318.9
358.238	327.04
358.62	326.36
359.002	342.63
359.384	332.01
359.766	334.27
360.148	320.71
360.53	301.73
360.912	325.01
361.294	340.15
361.676	317.1
362.057	315.97
362.439	324.78
362.821	304.67
363.203	288.62
363.584	297.89
363.966	323.88
364.348	296.98
364.729	303.31
365.111	305.35
365.493	306.93
365.874	314.84
366.256	292.46
366.637	306.93
367.019	309.41
367.4	292.69
367.781	316.42
368.163	312.12
368.544	306.25
368.925	270.77
369.306	295.4
369.688	296.98
370.069	287.94
370.45	321.84
370.831	292.46
371.212	294.05
371.593	298.11
371.974	315.29
372.355	292.69
372.736	301.73
373.117	295.18
373.498	309.19
373.879	298.79
374.26	300.37
374.641	292.69
375.021	318.23
375.402	322.75
375.783	292.69
376.163	322.29
376.544	304.67
376.925	325.91
377.305	313.25
377.686	307.38
378.066	333.82
378.447	327.72
378.827	323.42
379.208	331.33
379.588	327.94
379.968	327.49
380.349	336.08
380.729	329.07
381.109	325.91
381.489	308.96
381.87	333.37
382.25	324.33
382.63	352.35
383.01	323.42
383.39	344.89
383.77	346.47
384.15	355.29
384.53	333.59
384.91	339.47
385.29	348.28
385.67	354.84
386.049	360.71
386.429	349.19
386.809	356.19
387.189	351.45
387.568	352.35
387.948	361.39
388.328	376.98
388.707	350.99
389.087	343.76
389.466	360.94
389.846	383.31
390.225	365
390.605	365.46
390.984	367.94
391.363	358.9
391.743	362.74
392.122	396.42
392.501	385.79
392.881	367.49
393.26	395.74
393.639	386.7
394.018	389.64
394.397	391.44
394.776	386.92
395.155	393.25
395.534	392.57
395.913	407.26
396.292	405.68
396.671	403.42
397.05	401.39
397.429	401.84
397.808	404.33
398.186	390.77
398.565	398.22
398.944	395.96
399.323	406.81
399.701	403.87
400.08	427.6
400.458	422.63
400.837	413.36
401.215	421.05
401.594	416.98
401.972	423.08
402.351	414.95
402.729	425.12
403.107	423.76
403.486	427.15
403.864	433.7
404.242	436.19
404.62	435.96
404.999	436.19
405.377	447.04
405.755	452.69
406.133	450.65
406.511	445.45
406.889	440.71
407.267	454.49
407.645	449.52
408.023	471.67
408.401	481.39
408.779	467.37
409.156	487.71
409.534	487.04
409.912	479.8
410.29	492.01
410.667	496.07
411.045	485.91
411.422	498.33
411.8	513.02
412.178	505.34
412.555	497.88
412.933	501.5
413.31	534.94
413.687	546.02
414.065	528.39
414.442	519.35
414.819	540.37
415.197	528.62
415.574	522.74
415.951	522.51
416.328	556.64
416.705	545.34
417.082	564.32
417.46	563.42
417.837	561.16
418.214	569.74
418.591	564.32
418.967	560.48
419.344	583.3
419.721	587.15
420.098	584.66
420.475	567.26
420.852	579.01
421.228	584.66
421.605	590.99
421.982	606.81
422.358	611.78
422.735	615.39
423.111	635.28
423.488	629.86
423.864	612.23
424.241	635.73
424.617	639.12
424.994	662.17
425.37	642.06
425.746	641.83
426.123	662.62
426.499	647.26
426.875	632.34
427.251	673.25
427.627	649.52
428.003	682.74
428.379	685.9
428.756	676.41
429.132	708.27
429.507	689.74
429.883	715.28
430.259	716.18
430.635	730.42
431.011	738.1
431.387	758.44
431.763	744.88
432.138	738.1
432.514	751.21
432.89	754.6
433.265	782.17
433.641	776.97
434.016	758.44
434.392	796.86
434.767	807.93
435.143	806.35
435.518	819.68
435.894	819.91
436.269	817.42
436.644	826.24
437.02	856.74
437.395	859
437.77	875.73
438.145	887.25
438.52	860.36
438.895	858.32
439.271	860.36
439.646	893.8
440.021	903.97
440.395	882.28
440.77	916.18
441.145	901.49
441.52	917.31
441.895	911.66
442.27	929.06
442.645	896.06
443.019	934.48
443.394	929.28
443.769	929.51
444.143	947.14
444.518	947.59
444.892	945.78
445.267	968.83
445.641	984.88
446.016	965.67
446.39	992.33
446.764	978.1
447.139	976.06
447.513	1002.73
447.887	1007.02
448.262	991.65
448.636	994.14
449.01	1008.6
449.384	1011.32
449.758	1040.24
450.132	1039.56
450.506	1029.62
450.88	1046.79
451.254	1046.57
451.628	1090.86
452.002	1083.4
452.376	1088.83
452.75	1084.08
453.123	1120.92
453.497	1089.28
453.871	1103.06
454.244	1148.94
454.618	1139.45
454.992	1149.39
455.365	1167.92
455.739	1207.69
456.112	1205.43
456.486	1207.92
456.859	1226.68
457.232	1247.24
457.606	1255.38
457.979	1250.18
458.352	1291.08
458.725	1294.7
459.099	1281.14
459.472	1312.32
459.845	1307.8
460.218	1290.4
460.591	1342.15
460.964	1337.41
461.337	1368.59
461.71	1373.11
462.083	1407.91
462.456	1406.11
462.829	1409.72
463.201	1429.84
463.574	1437.29
463.947	1465.77
464.32	1524.07
464.692	1495.82
465.065	1496.05
465.438	1537.86
465.81	1546.67
466.183	1538.08
466.555	1584.18
466.928	1621.24
467.3	1593.45
467.672	1622.15
468.045	1654.24
468.417	1659.89
468.789	1680
469.161	1704.18
469.534	1726.55
469.906	1761.13
470.278	1784.85
470.65	1765.42
471.022	1796.61
471.394	1835.7
471.766	1875.7
472.138	1872.54
472.51	1896.26
472.882	1911.63
473.253	1988.69
473.625	1983.04
473.997	2031.4
474.369	2038.86
474.74	2036.82
475.112	2063.26
475.484	2105.52
475.855	2142.81
476.227	2145.07
476.598	2203.83
476.97	2188.01
477.341	2244.28
477.713	2301.68
478.084	2296.25
478.455	2389.36
478.827	2379.64
479.198	2486.08
479.569	2450.37
479.94	2514.78
480.311	2523.82
480.682	2578.51
481.053	2610.37
481.424	2675.68
481.795	2663.48
482.166	2729.46
482.537	2764.26
482.908	2809.91
483.279	2833.64
483.65	2871.61
484.021	2931.72
484.391	2949.12
484.762	2983.69
485.133	3011.94
485.503	3074.09
485.874	3147.3
486.244	3151.82
486.615	3169.68
486.985	3246.74
487.356	3274.08
487.726	3326.51
488.097	3396.56
488.467	3380.97
488.837	3460.97
489.207	3499.84
489.578	3560.63
489.948	3570.57
490.318	3589.33
490.688	3662.77
491.058	3706.61
491.428	3711.81
491.798	3766.95
492.168	3813.5
492.538	3838.81
492.908	3921.75
493.278	3942.31
493.648	3987.06
494.017	3985.02
494.387	4042.2
494.757	4070.67
495.126	4182.98
495.496	4159.26
495.866	4164.45
496.235	4182.31
496.605	4239.25
496.974	4264.11
497.344	4307.95
497.713	4329.65
498.082	4368.52
498.452	4371.9
498.821	4382.3
499.19	4427.95
499.559	4547.72
499.928	4558.79
500.298	4568.74
500.667	4590.66
501.036	4564.22
501.405	4651.22
501.774	4656.64
502.143	4701.84
502.512	4697.77
502.88	4774.61
503.249	4751.1
503.618	4769.18
503.987	4834.49
504.356	4907.26
504.724	4962.62
505.093	4905
505.462	4917.88
505.83	4964.43
506.199	4982.06
506.567	5066.8
506.936	5082.17
507.304	5104.77
507.672	5137.99
508.041	5187.02
508.409	5250.75
508.777	5276.74
509.145	5349.96
509.514	5326.23
509.882	5340.01
510.25	5364.2
510.618	5387.92
510.986	5453.01
511.354	5477.41
511.722	5551.53
512.09	5568.03
512.458	5593.79
512.826	5643.74
513.193	5611.65
513.561	5701.36
513.929	5748.59
514.297	5801.25
514.664	5833.79
515.032	5847.8
515.4	5900.68
515.767	5909.72
516.135	5938.42
516.502	5953.33
516.869	6008.02
517.237	6047.12
517.604	6102.03
517.972	6152.65
518.339	6185.87
518.706	6272.65
519.073	6256.6
519.44	6299.76
519.808	6353.32
520.175	6355.36
520.542	6421.34
520.909	6480.32
521.276	6513.09
521.643	6610.94
522.009	6647.55
522.376	6664.05
522.743	6728
523.11	6742.69
523.477	6806.19
523.843	6822.01
524.21	6898.62
524.577	6902.69
524.943	7007.54
525.31	7044.15
525.676	7118.5
526.043	7170.02
526.409	7192.62
526.776	7292.73
527.142	7306.97
527.508	7282.56
527.874	7411.6
528.241	7408.44
528.607	7459.28
528.973	7551.93
529.339	7561.43
529.705	7581.09
530.071	7648.65
530.437	7748.09
530.803	7772.49
531.169	7789.44
531.535	7802.55
531.901	7904.02
532.267	7852.49
532.632	7919.16
532.998	7955.31
533.364	8041.86
533.73	8094.07
534.095	8116.67
534.461	8162.77
534.826	8206.61
535.192	8172.03
535.557	8293.16
535.923	8300.39
536.288	8368.41
536.653	8368.64
537.019	8383.32
537.384	8402.76
537.749	8399.14
538.114	8488.86
538.479	8425.58
538.845	8504.45
539.21	8540.16
539.575	8541.51
539.94	8585.13
540.305	8615.18
540.67	8640.72
541.034	8688.4
541.399	8720.27
541.764	8756.42
542.129	8791.68
542.494	8791
542.858	8816.08
543.223	8828.96
543.587	8921.62
543.952	8921.62
544.316	8905.8
544.681	8922.75
545.045	8957.32
545.41	9064.21
545.774	9073.48
546.138	9088.39
546.503	9126.36
546.867	9161.38
547.231	9275.96
547.595	9151.67
547.959	9232.57
548.324	9221.04
548.688	9251.1
549.052	9328.84
549.416	9366.35
549.779	9362.06
550.143	9420.13
550.507	9443.64
550.871	9567.7
551.235	9496.52
551.599	9532.9
551.962	9591.88
552.326	9598.43
552.689	9709.84
553.053	9614.25
553.417	9710.3
553.78	9870.74
554.143	9813.12
554.507	9851.76
554.87	9839.56
555.234	9972.66
555.597	9902.15
555.96	9951.65
556.323	10009.04
556.686	10000.68
557.05	10058.53
557.413	10075.94
557.776	10137.4
558.139	10193.22
558.502	10233.45
558.865	10239.77
559.228	10323.84
559.59	10357.06
559.953	10344.86
560.316	10522.03
560.679	10519.77
561.041	10552.31
561.404	10577.62
561.767	10671.85
562.129	10669.59
562.492	10714.79
562.854	10726.54
563.217	10726.54
563.579	10834.79
563.941	10900.09
564.304	10951.84
564.666	10997.27
565.028	10990.26
565.39	11060.99
565.753	11171.05
566.115	11145.51
566.477	11171.95
566.839	11247.88
567.201	11296.47
567.563	11337.82
567.925	11430.48
568.287	11364.49
568.648	11429.8
569.01	11479.06
569.372	11560.42
569.734	11581.43
570.095	11635.67
570.457	11731.03
570.819	11603.81
571.18	11725.84
571.542	11761.32
571.903	11780.52
572.265	11847.64
572.626	11875.66
572.987	11905.94
573.349	11897.36
573.71	11915.44
574.071	12051.93
574.432	11991.82
574.794	12114.07
575.155	12113.62
575.516	12093.74
575.877	12113.17
576.238	12158.59
576.599	12199.27
576.96	12266.61
577.32	12201.08
577.681	12244.47
578.042	12327.63
578.403	12333.96
578.763	12339.83
579.124	12377.34
579.485	12425.48
579.845	12435.42
580.206	12460.96
580.566	12415.08
580.927	12477.68
581.287	12532.14
581.648	12469.77
582.008	12565.59
582.368	12510.9
582.728	12460.05
583.089	12492.6
583.449	12456.44
583.809	12513.16
584.169	12521.52
584.529	12518.81
584.889	12629.54
585.249	12481.97
585.609	12484.69
585.969	12530.33
586.329	12519.04
586.688	12607.62
587.048	12614.4
587.408	12505.7
587.768	12540.05
588.127	12543.44
588.487	12540.73
588.846	12644.46
589.206	12491.24
589.565	12538.02
589.925	12620.95
590.284	12585.47
590.643	12606.04
591.003	12625.47
591.362	12623.67
591.721	12643.1
592.08	12636.09
592.44	12651.91
592.799	12615.98
593.158	12684.23
593.517	12650.78
593.876	12690.1
594.235	12638.35
594.593	12646.49
594.952	12703.44
595.311	12620.95
595.67	12627.73
596.029	12706.6
596.387	12733.49
596.746	12768.52
597.104	12701.86
597.463	12681.29
597.822	12787.5
598.18	12725.36
598.538	12705.47
598.897	12838.57
599.255	12629.09
599.613	12896.43
599.972	12789.08
600.33	12800.38
600.688	12822.76
601.046	12823.43
601.404	12859.14
601.762	12835.41
602.12	12906.14
602.478	12913.38
602.836	12922.41
603.194	12788.63
603.552	12903.88
603.91	12841.74
604.268	12911.34
604.625	12920.61
604.983	12928.74
605.341	12868.63
605.698	12936.2
606.056	12982.3
606.413	12878.12
606.771	13023.88
607.128	12987.27
607.485	12978.01
607.843	13039.47
608.2	13055.07
608.557	12994.95
608.914	13037.89
609.272	13040.15
609.629	13074.05
609.986	13210.09
610.343	13096.2
610.7	13182.75
611.057	13238.56
611.414	13259.35
611.771	13186.36
612.127	13244.67
612.484	13191.11
612.841	13271.78
613.198	13232.91
613.554	13225.23
613.911	13272.69
614.267	13287.83
614.624	13313.59
614.98	13375.96
615.337	13395.85
615.693	13333.25
616.05	13342.06
616.406	13364.89
616.762	13352.69
617.118	13392.23
617.475	13401.27
617.831	13417.99
618.187	13525.11
618.543	13433.14
618.899	13536.41
619.255	13485.34
619.611	13424.77
619.967	13532.57
620.323	13542.74
620.678	13464.1
621.034	13451.89
621.39	13448.95
621.746	13413.93
622.101	13637.88
622.457	13491.89
622.812	13575.96
623.168	13556.75
623.523	13607.59
623.879	13601.94
624.234	13426.36
624.589	13512.46
624.945	13556.75
625.3	13549.29
625.655	13573.7
626.01	13514.26
626.365	13599.46
626.72	13564.43
627.075	13546.8
627.43	13513.59
627.785	13486.92
628.14	13515.62
628.495	13484.43
628.85	13597.2
629.205	13495.51
629.559	13610.98
629.914	13401.05
630.269	13408.96
630.623	13463.87
630.978	13439.01
631.332	13446.92
631.687	13485.11
632.041	13448.5
632.396	13385.68
632.75	13379.58
633.104	13424.77
633.459	13306.13
633.813	13352.91
634.167	13358.79
634.521	13306.13
634.875	13346.13
635.229	13255.29
635.583	13278.56
635.937	13258.45
636.291	13277.21
636.645	13207.38
636.999	13194.95
637.352	13208.73
637.706	13209.64
638.06	13142.07
638.413	13189.07
638.767	13096.65
639.121	13118.79
639.474	13118.34
639.828	13074.5
640.181	13086.48
640.534	13055.29
640.888	13077.44
641.241	13020.72
641.594	12974.62
641.947	13121.05
642.301	12895.52
642.654	12982.3
643.007	12928.06
643.36	12990.89
643.713	12947.5
644.066	12981.17
644.419	12901.17
644.771	12860.04
645.124	12677.45
645.477	12733.72
645.83	12593.16
646.182	12603.78
646.535	12561.52
646.888	12523.33
647.24	12460.51
647.593	12514.06
647.945	12484.01
648.298	12380.96
648.65	12428.42
649.002	12368.76
649.355	12432.94
649.707	12334.86
650.059	12444.91
650.411	12601.29
650.763	12621.18
651.115	12693.49
651.467	12567.85
651.819	12650.78
652.171	12644
652.523	12552.25
652.875	12613.5
653.227	12529.2
653.578	12644.46
653.93	12596.32
654.282	12557.45
654.633	12566.27
654.985	12533.5
655.337	12535.76
655.688	12434.07
656.039	12603.1
656.391	12443.33
656.742	12478.36
657.094	12486.04
657.445	12499.15
657.796	12454.18
658.147	12407.17
658.498	12422.54
658.849	12486.95
659.2	12459.38
659.551	12427.06
659.902	12461.86
660.253	12453.73
660.604	12507.06
660.955	12365.37
661.306	12460.73
661.656	12415.99
662.007	12352.03
662.358	12373.05
662.708	12395.2
663.059	12287.18
663.409	12268.42
663.76	12374.41
664.11	12349.77
664.461	12278.14
664.811	12320.17
665.161	12287.85
665.511	12315.42
665.862	12334.41
666.212	12372.37
666.562	12333.05
666.912	12299.15
667.262	12345.93
667.612	12266.61
667.962	12311.36
668.312	12253.73
668.662	12278.82
669.011	12263.45
669.361	12258.93
669.711	12244.47
670.06	12263.22
670.41	12230.23
670.76	12271.58
671.109	12272.04
671.459	12179.16
671.808	12218.25
672.157	12256.22
672.507	12103.23
672.856	12155.2
673.205	12161.3
673.554	12150.01
673.904	12165.15
674.253	12248.31
674.602	12181.87
674.951	11961.54
675.3	11959.5
675.649	12112.72
675.998	12104.13
676.346	12101.42
676.695	12121.76
677.044	12037.01
677.393	12027.3
677.741	12150.01
678.09	12098.93
678.438	12042.21
678.787	12070.46
679.135	12066.17
679.484	11912.5
679.832	12002.89
680.181	11988.43
680.529	11963.34
680.877	11923.8
681.225	11929.9
681.573	11951.37
681.922	11896
682.27	11829.11
682.618	11896.45
682.966	11818.49
683.314	11769.22
683.661	11848.09
684.009	11745.72
684.357	11761.09
684.705	11681.32
685.053	11758.83
685.4	11669.11
685.748	11658.49
686.095	11578.49
686.443	11570.81
686.79	11591.38
687.138	11634.09
687.485	11531.72
687.832	11482.23
688.18	11618.04
688.527	11457.37
688.874	11464.83
689.221	11410.59
689.568	11385.28
689.915	11379.18
690.262	11364.49
690.609	11364.04
690.956	11284.04
691.303	11350.25
691.65	11254.44
691.997	11275.68
692.344	11192.06
692.69	11166.3
693.037	11185.06
693.383	11063.93
693.73	11124.72
694.077	11114.55
694.423	11050.37
694.769	11043.37
695.116	10948.68
695.462	10988.45
695.808	10937.83
696.155	10975.8
696.501	10819.42
696.847	10849.47
697.193	10767.89
697.539	10814.45
697.885	10757.27
698.231	10737.39
698.577	10675.24
698.923	10718.63
699.269	10596.6
699.614	10558.18
699.96	10625.3
700.306	10606.77
700.651	10552.76
700.997	10465.53
701.342	10510.95
701.688	10491.52
702.033	10435.02
702.379	10478.41
702.724	10388.47
703.069	10459.43
703.415	10224.63
703.76	10297.17
704.105	10359.09
704.45	10307.79
704.795	10224.41
705.14	10172.43
705.485	10206.33
705.83	10119.78
706.175	10145.31
706.52	10086.33
706.865	10091.3
707.209	10085.2
707.554	9996.39
707.899	10026.67
708.243	10053.56
708.588	10025.32
708.932	9977.63
709.277	9953.45
709.621	9895.6
709.966	9868.71
710.31	9823.06
710.654	9785.55
710.998	9793.01
711.342	9757.53
711.687	9790.52
712.031	9771.54
712.375	9668.04
712.719	9777.41
713.063	9741.03
713.407	9710.3
713.75	9682.95
714.094	9619.45
714.438	9581.26
714.782	9602.95
715.125	9531.54
715.469	9563.18
715.812	9534.71
716.156	9511.66
716.499	9502.39
716.843	9501.04
717.186	9435.27
717.53	9494.48
717.873	9508.72
718.216	9474.82
718.559	9432.34
718.902	9425.33
719.246	9414.94
719.589	9388.5
719.932	9352.56
720.275	9351.21
720.617	9380.81
720.96	9275.05
721.303	9276.18
721.646	9246.35
721.989	9215.39
722.331	9239.57
722.674	9168.84
723.016	9159.58
723.359	9187.6
723.701	9207.48
724.044	9151.21
724.386	9073.02
724.729	9081.39
725.071	9086.58
725.413	9129.75
725.755	9063.53
726.097	9040.93
726.439	8985.79
726.782	8931.11
727.124	8992.8
727.465	8973.37
727.807	9033.03
728.149	8961.16
728.491	8969.52
728.833	8892.01
729.175	8962.74
729.516	8932.69
729.858	8839.58
730.199	8974.04
730.541	8862.41
730.882	8878
731.224	8845.23
731.565	8829.41
731.906	8774.27
732.248	8788.96
732.589	8775.86
732.93	8795.97
733.271	8703.77
733.612	8731.11
733.953	8777.89
734.294	8678.68
734.635	8716.42
734.976	8699.25
735.317	8682.53
735.658	8668.74
735.999	8705.58
736.339	8682.75
736.68	8658.57
737.021	8640.95
737.361	8606.82
737.702	8656.54
738.042	8568.63
738.383	8557.56
738.723	8595.97
739.063	8617.67
739.404	8583.55
739.744	8557.78
740.084	8533.83
740.424	8488.41
740.764	8456.09
741.104	8506.94
741.444	8516.88
741.784	8445.7
742.124	8395.53
742.464	8434.17
742.804	8401.86
743.143	8419.48
743.483	8414.74
743.823	8348.07
744.162	8348.98
744.502	8377.68
744.841	8286.38
745.181	8349.88
745.52	8302.2
745.86	8303.55
746.199	8262.88
746.538	8275.31
746.877	8249.09
747.216	8301.52
747.556	8260.84
747.895	8254.97
748.234	8158.92
748.573	8168.19
748.911	8216.32
749.25	8166.61
749.589	8159.6
749.928	8121.86
750.267	8197.79
750.605	8119.15
750.944	8116.44
751.283	8108.3
751.621	8071.69
751.96	8024.24
752.298	8006.84
752.636	7983.11
752.975	7927.52
753.313	7964.58
753.651	8001.87
753.989	7934.52
754.327	7967.97
754.666	7886.61
755.004	7854.75
755.342	7882.32
755.679	7881.64
756.017	7874.19
756.355	7797.13
756.693	7799.16
757.031	7824.92
757.368	7772.04
757.706	7771.14
758.044	7740.63
758.381	7733.62
758.719	7679.84
759.056	7720.52
759.394	7645.49
759.731	7612.72
760.068	7588.54
760.405	7601.2
760.743	7580.18
761.08	7625.38
761.417	7504.25
761.754	7481.2
762.091	7466.96
762.428	7484.82
762.765	7379.96
763.102	7429.45
763.438	7396.46
763.775	7350.58
764.112	7348.78
764.449	7367.53
764.785	7324.37
765.122	7287.08
765.458	7296.35
765.795	7221.55
766.131	7254.99
766.467	7274.2
766.804	7202.11
767.14	7123.7
767.476	7155.56
767.812	7134.77
768.148	7078.27
768.485	7052.29
768.821	7005.28
769.157	6956.7
769.492	6998.05
769.828	6948.56
770.164	6958.96
770.5	6880.77
770.836	6889.58
771.171	6847.32
771.507	6819.98
771.842	6835.12
772.178	6784.95
772.513	6768
772.849	6762.58
773.184	6657.27
773.519	6719.41
773.855	6662.92
774.19	6655.69
774.525	6616.59
774.86	6675.8
775.195	6585.63
775.53	6579.53
775.865	6562.36
776.2	6547.44
776.535	6539.98
776.87	6493.43
777.205	6462.02
777.539	6489.36
777.874	6447.1
778.209	6394.68
778.543	6405.75
778.878	6372.53
779.212	6360.78
779.547	6295.92
779.881	6346.99
780.215	6213.89
780.55	6316.49
780.884	6226.09
781.218	6223.38
781.552	6205.3
781.886	6179.54
782.22	6202.59
782.554	6157.62
782.888	6077.62
783.222	6045.99
783.556	6042.6
783.889	6047.12
784.223	6022.26
784.557	5957.4
784.89	6053.22
785.224	5980.68
785.557	5988.13
785.891	5916.27
786.224	5864.29
786.558	5923.05
786.891	5842.6
787.224	5836.5
787.557	5823.17
787.891	5831.53
788.224	5779.1
788.557	5796.05
788.89	5749.95
789.223	5762.15
789.556	5740
789.888	5673.34
790.221	5702.27
790.554	5632.66
790.887	5628.59
791.219	5568.03
791.552	5626.34
791.884	5559.9
792.217	5540.46
792.549	5539.33
792.882	5481.48
793.214	5472.89
793.546	5510.63
793.879	5454.81
794.211	5469.73
794.543	5472.21
794.875	5457.98
795.207	5384.08
795.539	5368.04
795.871	5399.67
796.203	5340.24
796.535	5318.09
796.867	5334.14
797.198	5273.8
797.53	5252.56
797.862	5229.51
798.193	5287.59
798.525	5237.87
798.856	5243.29
799.188	5173.69
799.519	5157.42
799.85	5105.22
800.182	5155.39
800.513	5123.75
800.844	5153.13
801.175	5147.93
801.506	5133.92
801.837	5106.35
802.168	5101.38
802.499	5047.82
802.83	5041.49
803.161	5011.89
803.491	5053.92
803.822	5024.32
804.153	5040.36
804.483	4947.71
804.814	4988.39
805.145	4939.35
805.475	4934.38
805.805	4939.8
806.136	4887.37
806.466	4862.29
806.796	4944.09
807.126	4846.69
807.457	4867.94
807.787	4862.51
808.117	4828.84
808.447	4819.12
808.777	4810.09
809.107	4783.87
809.436	4786.36
809.766	4748.17
810.096	4754.04
810.426	4727.6
810.755	4728.28
811.085	4719.92
811.414	4702.74
811.744	4653.93
812.073	4684.44
812.403	4686.7
812.732	4620.26
813.061	4606.7
813.39	4650.77
813.719	4618
814.049	4627.49
814.378	4622.75
814.707	4599.02
815.036	4611.22
815.365	4597.21
815.693	4526.93
816.022	4488.06
816.351	4518.57
816.68	4526.25
817.008	4513.37
817.337	4535.52
817.665	4482.18
817.994	4537.32
818.322	4489.64
818.651	4424.78
818.979	4467.95
819.307	4434.05
819.636	4455.29
819.964	4399.25
820.292	4456.42
820.62	4418.68
820.948	4383.66
821.276	4448.74
821.604	4415.29
821.932	4386.37
822.259	4450.55
822.587	4437.21
822.915	4382.07
823.243	4413.71
823.57	4395.41
823.898	4349.53
824.225	4413.94
824.553	4387.05
824.88	4387.05
825.207	4357.89
825.535	4392.02
825.862	4351.11
826.189	4397.44
826.516	4410.77
826.843	4426.37
827.17	4370.55
827.497	4411.45
827.824	4409.42
828.151	4388.4
828.478	4337.1
828.805	4383.43
829.131	4385.46
829.458	4396.76
829.785	4387.05
830.111	4353.15
830.438	4406.93
830.764	4380.72
831.09	4368.74
831.417	4362.19
831.743	4367.16
832.069	4349.31
832.395	4377.78
832.722	4356.99
833.048	4335.97
833.374	4346.82
833.7	4295.75
834.026	4309.76
834.351	4358.12
834.677	4329.19
835.003	4287.16
835.329	4296.65
835.654	4316.99
835.98	4298.46
836.306	4268.18
836.631	4300.04
836.956	4314.96
837.282	4288.52
837.607	4242.42
837.932	4259.37
838.258	4255.07
838.583	4265.24
838.908	4183.44
839.233	4215.52
839.558	4263.21
839.883	4235.64
840.208	4218.46
840.533	4230.21
840.858	4176.88
841.182	4230.89
841.507	4196.54
841.832	4174.4
842.156	4142.76
842.481	4145.02
842.805	4118.8
843.13	4119.26
843.454	4126.94
843.778	4140.72
844.103	4124.45
844.427	4082.19
844.751	4114.06
845.075	4027.96
845.399	4086.26
845.723	4051.24
846.047	4022.99
846.371	4050.78
846.695	4053.5
847.019	3988.86
847.343	4001.52
847.666	3978.69
847.99	3958.81
848.313	3977.11
848.637	3959.49
848.96	3944.12
849.284	3932.59
849.607	3892.37
849.931	3924.01
850.254	3868.42
850.577	3865.25
850.9	3795.42
851.223	3825.7
851.546	3786.16
851.869	3805.59
852.192	3798.13
852.515	3740.06
852.838	3753.62
853.161	3758.14
853.483	3736.22
853.806	3754.07
854.129	3725.37
854.451	3665.03
854.774	3673.39
855.096	3686.05
855.419	3671.81
855.741	3634.07
856.063	3631.81
856.385	3634.07
856.708	3603.34
857.03	3639.49
857.352	3639.27
857.674	3624.81
857.996	3578.03
858.318	3574.86
858.64	3595.43
858.961	3534.64
859.283	3531.7
859.605	3525.83
859.926	3560.17
860.248	3536.45
860.57	3531.02
860.891	3473.85
861.212	3498.48
861.534	3492.61
861.855	3493.51
862.176	3489.22
862.498	3473.4
862.819	3488.31
863.14	3454.41
863.461	3465.94
863.782	3463.45
864.103	3460.29
864.424	3489.89
864.745	3463.68
865.065	3403.34
865.386	3439.73
865.707	3402.44
866.027	3403.79
866.348	3399.95
866.668	3388.88
866.989	3391.82
867.309	3351.14
867.63	3347.07
867.95	3406.51
868.27	3356.34
868.59	3376.68
868.91	3337.13
869.23	3351.14
869.55	3351.59
869.87	3370.12
870.19	3337.36
870.51	3318.15
870.83	3332.38
871.15	3345.49
871.469	3284.48
871.789	3327.19
872.109	3326.51
872.428	3279.5
872.748	3296
873.067	3283.12
873.386	3301.65
873.706	3287.64
874.025	3275.66
874.344	3270.92
874.663	3287.87
874.982	3242.67
875.301	3276.11
875.62	3232.73
875.939	3274.76
876.258	3236.34
876.577	3244.93
876.896	3218.94
877.214	3242.22
877.533	3226.62
877.852	3233.63
878.17	3185.04
878.489	3210.13
878.807	3202.9
879.125	3217.58
879.444	3248.77
879.762	3205.83
880.08	3197.25
880.398	3200.86
880.716	3173.52
881.034	3178.49
881.352	3176.91
881.67	3148.21
881.988	3169.68
882.306	3126.97
882.624	3133.07
882.941	3191.82
883.259	3119.06
883.577	3143.91
883.894	3128.32
884.212	3077.93
884.529	3111.15
884.846	3094.42
885.164	3082.67
885.481	3106.18
885.798	3097.36
886.115	3043.58
886.432	3051.49
886.75	3046.52
887.067	3069.34
887.383	3064.82
887.7	3054.2
888.017	3061.43
888.334	3010.13
888.651	2992.51
888.967	3004.03
889.284	2990.47
889.6	2976.46
889.917	3004.26
890.233	2951.6
890.55	2936.46
890.866	3020.75
891.182	2966.74
891.498	2964.26
891.815	2950.47
892.131	2921.77
892.447	2946.41
892.763	2874.77
893.079	2910.02
893.395	2865.05
893.71	2918.61
894.026	2889.01
894.342	2848.56
894.657	2842.45
894.973	2839.06
895.289	2871.83
895.604	2868.89
895.92	2866.41
896.235	2813.3
896.55	2819.18
896.865	2793.42
897.181	2814.43
897.496	2818.27
897.811	2779.4
898.126	2824.6
898.441	2784.83
898.756	2756.35
899.071	2743.7
899.386	2744.6
899.7	2728.33
900.015	2696.92
900.33	2686.53
900.644	2714.55
900.959	2695.34
901.273	2681.78
901.588	2712.06
901.902	2666.41
902.216	2701.67
902.531	2647.43
902.845	2646.07
903.159	2623.02
903.473	2639.07
903.787	2613.08
904.101	2634.78
904.415	2615.11
904.729	2568.11
905.042	2585.51
905.356	2578.51
905.67	2592.52
905.984	2575.79
906.297	2545.06
906.611	2550.94
906.924	2552.07
907.237	2516.81
907.551	2528.11
907.864	2509.58
908.177	2477.94
908.491	2518.17
908.804	2531.95
909.117	2475.01
909.43	2478.62
909.743	2448.34
910.056	2445.18
910.368	2473.42
910.681	2456.02
910.994	2431.16
911.307	2432.97
911.619	2385.74
911.932	2406.31
912.244	2390.94
912.557	2355.23
912.869	2363.14
913.181	2362.47
913.494	2364.27
913.806	2334.22
914.118	2364.5
914.43	2330.6
914.742	2332.18
915.054	2306.87
915.366	2334.9
915.678	2315.69
915.99	2258.74
916.302	2291.28
916.613	2254.45
916.925	2241.34
917.236	2280.43
917.548	2249.47
917.859	2239.98
918.171	2239.76
918.482	2223.03
918.794	2243.6
919.105	2187.56
919.416	2186.43
919.727	2188.69
920.038	2185.75
920.349	2183.94
920.66	2166.31
920.971	2181.45
921.282	2174.67
921.593	2135.35
921.903	2163.38
922.214	2088.8
922.525	2110.95
922.835	2114.56
923.146	2091.96
923.456	2120.44
923.767	2093.32
924.077	2100.78
924.387	2082.7
924.697	2077.28
925.008	2065.07
925.318	2057.62
925.628	2038.86
925.938	2035.92
926.248	2004.96
926.558	2040.44
926.867	2000.89
927.177	1974.45
927.487	2024.62
927.796	2002.02
928.106	1969.48
928.416	1980.33
928.725	1944.4
929.034	1958.86
929.344	1970.16
929.653	1911.4
929.962	1934.45
930.271	1954.34
930.581	1936.26
930.89	1907.11
931.199	1899.43
931.508	1877.28
931.817	1919.09
932.125	1890.84
932.434	1905.53
932.743	1837.51
933.051	1864.63
933.36	1850.16
933.669	1834.34
933.977	1868.24
934.286	1859.43
934.594	1863.72
934.902	1821.01
935.21	1838.19
935.519	1830.28
935.827	1791.41
936.135	1795.93
936.443	1798.41
936.751	1799.77
937.059	1789.37
937.367	1782.59
937.674	1757.96
937.982	1748.02
938.29	1771.97
938.597	1762.48
938.905	1776.72
939.213	1772.88
939.52	1735.36
939.827	1746.89
940.135	1733.56
940.442	1700.34
940.749	1740.56
941.056	1718.64
941.363	1704.4
941.67	1687.46
941.977	1676.83
942.284	1657.4
942.591	1683.39
942.898	1640
943.205	1645.42
943.511	1671.64
943.818	1640.45
944.125	1632.54
944.431	1660.79
944.738	1634.12
945.044	1624.18
945.35	1636.16
945.657	1588.48
945.963	1588.25
946.269	1581.92
946.575	1564.75
946.881	1576.5
947.187	1607.91
947.493	1615.82
947.799	1580.11
948.105	1552.54
948.41	1527.01
948.716	1563.17
949.022	1534.92
949.327	1551.19
949.633	1530.62
949.938	1528.36
950.244	1514.58
950.549	1527.69
950.854	1506.67
951.16	1482.49
951.465	1476.16
951.77	1466.44
952.075	1489.49
952.38	1494.24
952.685	1498.53
952.99	1473.45
953.294	1479.55
953.599	1467.12
953.904	1442.04
954.209	1423.73
954.513	1454.92
954.818	1437.52
955.122	1428.93
955.426	1423.51
955.731	1434.13
956.035	1433
956.339	1413.79
956.643	1414.47
956.948	1402.04
957.252	1391.87
957.556	1411.08
957.86	1418.76
958.163	1386.67
958.467	1396.16
958.771	1385.09
959.075	1383.06
959.378	1376.28
959.682	1376.05
959.985	1359.78
960.289	1345.77
960.592	1359.33
960.896	1354.36
961.199	1342.83
961.502	1330.18
961.805	1339.44
962.108	1326.79
962.411	1298.77
962.714	1331.08
963.017	1335.37
963.32	1317.75
963.623	1326.34
963.926	1309.61
964.228	1287.01
964.531	1264.64
964.833	1274.81
965.136	1287.69
965.438	1286.56
965.741	1273.23
966.043	1271.42
966.345	1269.61
966.648	1285.21
966.95	1255.83
967.252	1269.61
967.554	1283.17
967.856	1242.72
968.158	1236.39
968.46	1241.59
968.761	1206.56
969.063	1263.51
969.365	1256.73
969.666	1216.73
969.968	1185.55
970.269	1221.93
970.571	1200.46
970.872	1214.02
971.174	1196.17
971.475	1191.88
971.776	1183.97
972.077	1175.83
972.378	1169.96
972.679	1170.63
972.98	1160.92
973.281	1170.86
973.582	1162.72
973.883	1148.03
974.183	1121.59
974.484	1139.9
974.785	1118.88
975.085	1162.95
975.386	1129.05
975.686	1128.6
975.986	1114.82
976.287	1133.8
976.587	1115.72
976.887	1128.15
977.187	1136.28
977.487	1129.5
977.787	1092.89
978.087	1099.67
978.387	1093.57
978.687	1096.96
978.987	1086.34
979.286	1090.41
979.586	1086.57
979.885	1085.21
980.185	1078.66
980.484	1067.81
980.784	1070.3
981.083	1079.56
981.382	1066
981.682	1038.89
981.981	1037.3
982.28	1058.32
982.579	1055.61
982.878	1029.85
983.177	1043.4
983.475	1054.25
983.774	1049.28
984.073	1005.44
984.372	1030.98
984.67	1034.14
984.969	1010.41
985.267	997.08
985.566	1011.77
985.864	1017.42
986.162	1008.38
986.461	987.81
986.759	997.53
987.057	996.85
987.355	982.62
987.653	1010.64
987.951	974.93
988.249	986.91
988.547	982.84
988.844	959.11
989.142	966.8
989.44	960.7
989.737	954.59
990.035	963.18
990.332	976.74
990.63	948.27
990.927	978.32
991.224	975.16
991.521	972.22
991.819	942.39
992.116	931.32
992.413	948.49
992.71	941.03
993.006	949.17
993.303	921.6
993.6	898.78
993.897	912.33
994.193	925.22
994.49	915.95
994.787	912.79
995.083	912.33
995.379	910.3
995.676	900.13
995.972	892.22
996.268	913.92
996.565	885.44
996.861	888.83
997.157	863.75
997.453	888.38
997.749	893.35
998.044	863.75
998.34	875.27
998.636	859.23
998.932	875.27
999.227	874.14
999.523	873.92
999.818	843.18
1000.114	837.76
1000.409	847.7
1000.704	836.18
1001	823.52
1001.295	828.04
1001.59	855.84
1001.885	835.05
1002.18	823.52
1002.475	811.55
1002.77	816.74
1003.065	824.65
1003.359	819.23
1003.654	817.2
1003.949	814.71
1004.243	809.06
1004.538	816.29
1004.832	776.07
1005.127	798.89
1005.421	786.24
1005.715	785.33
1006.009	770.87
1006.304	761.6
1006.598	740.14
1006.892	777.42
1007.186	780.36
1007.48	747.37
1007.773	762.73
1008.067	757.76
1008.361	782.17
1008.655	760.25
1008.948	762.96
1009.242	731.55
1009.535	744.2
1009.829	751.21
1010.122	745.33
1010.415	737.65
1010.708	749.18
1011.001	741.72
1011.295	739.68
1011.588	729.74
1011.881	721.61
1012.173	741.04
1012.466	726.35
1012.759	719.35
1013.052	701.49
1013.344	709.4
1013.637	718.89
1013.93	735.39
1014.222	712.57
1014.514	692
1014.807	704.66
1015.099	689.52
1015.391	711.21
1015.683	694.71
1015.976	683.64
1016.268	691.55
1016.56	696.75
1016.851	676.41
1017.143	691.32
1017.435	671.66
1017.727	652
1018.018	668.05
1018.31	656.97
1018.602	660.36
1018.893	655.17
1019.185	653.13
1019.476	656.52
1019.767	684.54
1020.058	633.25
1020.35	625.56
1020.641	634.6
1020.932	624.43
1021.223	622.4
1021.514	635.96
1021.804	647.48
1022.095	633.7
1022.386	614.26
1022.677	634.83
1022.967	618.56
1023.258	617.43
1023.548	621.72
1023.839	621.72
1024.129	602.06
1024.419	596.86
1024.709	614.94
1025	605.45
1025.29	569.29
1025.58	602.74
1025.87	605.45
1026.16	594.38
1026.449	585.34
1026.739	597.77
1027.029	579.69
1027.319	574.26
1027.608	596.18
1027.898	574.49
1028.187	585.34
1028.477	572.68
1028.766	581.72
1029.055	562.74
1029.344	564.32
1029.634	584.43
1029.923	574.49
1030.212	575.39
1030.501	569.07
1030.79	553.25
1031.078	566.81
1031.367	574.26
1031.656	544.21
1031.945	548.73
1032.233	558.67
1032.522	555.28
1032.81	542.63
1033.099	540.14
1033.387	543.08
1033.675	545.79
1033.963	540.82
1034.251	540.82
1034.54	532.23
1034.828	528.84
1035.116	510.31
1035.403	533.36
1035.691	519.58
1035.979	512.12
1036.267	524.32
1036.554	537.66
1036.842	508.05
1037.129	499.46
1037.417	525.68
1037.704	516.41
1037.992	527.49
1038.279	517.99
1038.566	510.99
1038.853	510.99
1039.14	510.99
