Data from black_metal_pc_casing_FLMS001491_00039.txt Node
Date: Wed Feb 08 14:32:36 GMT 2017
User: dcchb
Spectrometer: FLMS00149
Trigger mode: 0
Integration Time (sec): 2.000000E-2
Scans to average: 10
Electric dark correction enabled: true
Nonlinearity correction enabled: false
Boxcar width: 0
XAxis mode: Wavelengths
Number of Pixels in Spectrum: 2048
>>>>>Begin Spectral Data<<<<<
341.393	-15.3
341.776	-15.3
342.16	-15.3
342.543	-50.78
342.927	-41.06
343.31	-65.92
343.693	-58.68
344.077	-65.24
344.46	-50.32
344.843	-72.02
345.226	-39.7
345.61	-26.37
345.993	-26.6
346.376	-4
346.759	19.96
347.142	11.37
347.525	22.89
347.908	68.32
348.291	79.62
348.674	96.34
349.057	110.35
349.44	110.35
349.823	135.89
350.206	158.94
350.588	196.22
350.971	216.11
351.354	195.55
351.737	229.44
352.119	237.8
352.502	253.62
352.884	277.13
353.267	260.4
353.65	277.13
354.032	296.33
354.414	315.54
354.797	291.81
355.179	295.66
355.562	323.45
355.944	317.35
356.326	318.93
356.709	322.1
357.091	324.13
357.473	326.16
357.855	339.72
358.238	332.72
358.62	351.25
359.002	334.3
359.384	337.24
359.766	319.84
360.148	310.57
360.53	337.46
360.912	319.61
361.294	346.28
361.676	314.41
362.057	316.22
362.439	330.46
362.821	315.32
363.203	331.36
363.584	304.7
363.966	308.31
364.348	314.19
364.729	313.73
365.111	309.44
365.493	308.99
365.874	314.41
366.256	308.09
366.637	307.18
367.019	323.23
367.4	309.44
367.781	341.53
368.163	306.05
368.544	313.28
368.925	310.57
369.306	308.76
369.688	308.54
370.069	308.54
370.45	330.01
370.831	312.15
371.212	306.73
371.593	311.47
371.974	313.96
372.355	293.4
372.736	310.34
373.117	316.22
373.498	312.83
373.879	319.61
374.26	318.71
374.641	324.81
375.021	318.93
375.402	340.4
375.783	345.15
376.163	336.11
376.544	317.58
376.925	319.16
377.305	314.19
377.686	326.62
378.066	349.44
378.447	341.76
378.827	332.04
379.208	321.64
379.588	325.71
379.968	327.97
380.349	324.36
380.729	347.63
381.109	333.17
381.489	355.09
381.87	333.4
382.25	345.37
382.63	310.12
383.01	335.88
383.39	346.73
383.77	355.09
384.15	360.06
384.53	342.89
384.91	351.25
385.29	349.44
385.67	362.55
386.049	364.13
386.429	374.52
386.809	351.02
387.189	352.83
387.568	342.21
387.948	350.34
388.328	358.71
388.707	346.05
389.087	366.16
389.466	371.59
389.846	392.15
390.225	368.87
390.605	357.35
390.984	360.74
391.363	369.78
391.743	389.89
392.122	395.99
392.501	367.97
392.881	388.76
393.26	388.31
393.639	385.15
394.018	374.75
394.397	391.02
394.776	394.18
395.155	391.92
395.534	400.29
395.913	392.83
396.292	395.99
396.671	404.81
397.05	405.94
397.429	401.64
397.808	389.66
398.186	419.27
398.565	399.38
398.944	418.59
399.323	419.49
399.701	421.98
400.08	406.61
400.458	431.92
400.837	429.21
401.215	447.06
401.594	437.35
401.972	411.59
402.351	435.54
402.729	454.97
403.107	435.54
403.486	440.51
403.864	446.61
404.242	431.92
404.62	448.65
404.999	437.35
405.377	444.13
405.755	453.39
406.133	451.13
406.511	447.06
406.889	457.23
407.267	461.75
407.645	479.15
408.023	469.44
408.401	482.77
408.779	458.36
409.156	473.05
409.534	443.45
409.912	478.02
410.29	488.87
410.667	485.03
411.045	495.2
411.422	478.48
411.8	484.35
412.178	511.7
412.555	511.02
412.933	531.81
413.31	518.02
413.687	520.06
414.065	513.5
414.442	541.53
414.819	508.53
415.197	539.72
415.574	527.06
415.951	522.32
416.328	549.89
416.705	547.4
417.082	532.71
417.46	562.09
417.837	556.21
418.214	570.45
418.591	558.47
418.967	567.51
419.344	565.71
419.721	577.46
420.098	576.33
420.475	601.64
420.852	560.28
421.228	582.88
421.605	576.1
421.982	607.29
422.358	584.91
422.735	601.86
423.111	621.52
423.488	616.78
423.864	585.59
424.241	625.14
424.617	612.94
424.994	630.79
425.37	631.24
425.746	648.42
426.123	646.38
426.499	621.52
426.875	648.42
427.251	639.83
427.627	675.76
428.003	669.21
428.379	677.57
428.756	690.67
429.132	708.07
429.507	703.33
429.883	690.67
430.259	693.61
430.635	703.78
431.011	713.05
431.387	728.19
431.763	725.02
432.138	720.28
432.514	738.36
432.89	746.72
433.265	754.18
433.641	740.39
434.016	766.6
434.392	762.54
434.767	772.93
435.143	782.2
435.518	782.87
435.894	769.09
436.269	768.64
436.644	803.67
437.02	821.07
437.395	815.19
437.77	821.07
438.145	826.94
438.52	852.25
438.895	831.46
439.271	859.26
439.646	858.35
440.021	846.38
440.395	850.44
440.77	864.23
441.145	870.78
441.52	900.61
441.895	870.1
442.27	895.19
442.645	899.93
443.019	895.64
443.394	886.37
443.769	918.24
444.143	916.66
444.518	923.66
444.892	908.75
445.267	932.7
445.641	922.31
446.016	922.98
446.39	946.26
446.764	940.84
447.139	932.25
447.513	978.12
447.887	971.34
448.262	944.9
448.636	964.57
449.01	976.99
449.384	985.58
449.758	986.03
450.132	993.26
450.506	1002.3
450.88	1004.34
451.254	1000.27
451.628	998.46
452.002	993.94
452.376	1015.64
452.75	1034.62
453.123	1062.42
453.497	1008.86
453.871	1046.6
454.244	1084.79
454.618	1084.56
454.992	1107.16
455.365	1073.04
455.739	1108.29
456.112	1121.85
456.486	1103.54
456.859	1129.31
457.232	1162.53
457.606	1168.63
457.979	1175.63
458.352	1164.11
458.725	1227.83
459.099	1192.81
459.472	1240.26
459.845	1242.52
460.218	1219.7
460.591	1275.29
460.964	1273.94
461.337	1285.01
461.71	1331.34
462.083	1338.34
462.456	1278.23
462.829	1331.11
463.201	1350.32
463.574	1367.94
463.947	1358.23
464.32	1367.27
464.692	1377.21
465.065	1402.97
465.438	1391.45
465.81	1441.16
466.183	1460.82
466.555	1482.52
466.928	1521.16
467.3	1490.88
467.672	1506.02
468.045	1559.8
468.417	1516.87
468.789	1553.93
469.161	1567.94
469.534	1599.12
469.906	1596.19
470.278	1658.78
470.65	1644.55
471.022	1695.39
471.394	1675.96
471.766	1711.21
472.138	1695.62
472.51	1723.42
472.882	1804.77
473.253	1808.16
473.625	1819.23
473.997	1860.81
474.369	1895.84
474.74	1876.63
475.112	1922.05
475.484	1920.02
475.855	1954.14
476.227	2008.61
476.598	2015.84
476.97	2024.2
477.341	2093.35
477.713	2100.58
478.084	2108.04
478.455	2182.39
478.827	2200.69
479.198	2225.55
479.569	2212.22
479.94	2325.89
480.311	2327.24
480.682	2354.58
481.053	2416.5
481.424	2425.54
481.795	2463.51
482.166	2489.27
482.537	2529.5
482.908	2558.87
483.279	2614.69
483.65	2617.4
484.021	2710.06
484.391	2727.23
484.762	2723.84
485.133	2738.3
485.503	2791.41
485.874	2814.46
486.244	2875.93
486.615	2902.37
486.985	2950.5
487.356	2981.91
487.726	3041.12
488.097	3075.02
488.467	3039.76
488.837	3162.25
489.207	3152.08
489.578	3229.82
489.948	3241.79
490.318	3262.58
490.688	3278.4
491.058	3345.29
491.428	3388
491.798	3463.48
492.168	3511.39
492.538	3512.07
492.908	3549.81
493.278	3540.32
493.648	3560.43
494.017	3634.33
494.387	3676.36
494.757	3688.11
495.126	3732.63
495.496	3749.58
495.866	3773.76
496.235	3772.63
496.605	3844.72
496.974	3860.53
497.344	3920.87
497.713	3919.06
498.082	3940.08
498.452	3959.29
498.821	3987.76
499.19	4012.85
499.559	4042.45
499.928	4109.79
500.298	4090.81
500.667	4153.18
501.036	4154.31
501.405	4192.28
501.774	4172.84
502.143	4216.23
502.512	4238.38
502.88	4268.88
503.249	4313.18
503.618	4352.27
503.987	4371.48
504.356	4388.2
504.724	4415.77
505.093	4401.99
505.462	4454.42
505.83	4497.13
506.199	4503.68
506.567	4574.64
506.936	4554.75
507.304	4603.57
507.672	4625.26
508.041	4648.31
508.409	4729.44
508.777	4745.93
509.145	4777.35
509.514	4742.09
509.882	4819.38
510.25	4845.82
510.618	4893.28
510.986	4877.68
511.354	4951.35
511.722	5008.98
512.09	5028.86
512.458	5042.42
512.826	5045.36
513.193	5123.55
513.561	5127.62
513.929	5185.25
514.297	5177.56
514.664	5202.87
515.032	5257.79
515.4	5316.32
515.767	5331.23
516.135	5374.17
516.502	5345.01
516.869	5436.54
517.237	5440.38
517.604	5441.51
517.972	5494.62
518.339	5549.3
518.706	5548.4
519.073	5607.38
519.44	5667.72
519.808	5681.5
520.175	5743.2
520.542	5801.95
520.909	5823.19
521.276	5853.93
521.643	5868.84
522.009	5926.24
522.376	6014.83
522.743	6015.73
523.11	6105.67
523.477	6108.61
523.843	6132.11
524.21	6233.13
524.577	6255.73
524.943	6265.89
525.31	6325.78
525.676	6382.28
526.043	6452.33
526.409	6429.96
526.776	6537.3
527.142	6549.05
527.508	6583.17
527.874	6657.97
528.241	6711.31
528.607	6673.12
528.973	6735.26
529.339	6735.03
529.705	6762.6
530.071	6837.18
530.437	6896.39
530.803	6965.09
531.169	6998.53
531.535	6993.33
531.901	7055.7
532.267	7073.1
532.632	7098.19
532.998	7176.15
533.364	7199.2
533.73	7236.26
534.095	7306.55
534.461	7287.56
534.826	7339.76
535.192	7349.26
535.557	7401.23
535.923	7416.15
536.288	7467.67
536.653	7506.09
537.019	7509.25
537.384	7484.17
537.749	7622.24
538.114	7670.38
538.479	7610.49
538.845	7643.94
539.21	7668.34
539.575	7709.25
539.94	7688
540.305	7818.85
540.67	7772.75
541.034	7880.99
541.399	7867.66
541.764	7896.36
542.129	7906.76
542.494	7910.82
542.858	7926.87
543.223	7985.85
543.587	8083.93
543.952	8042.12
544.316	8032.18
544.681	8101.78
545.045	8136.58
545.41	8156.24
545.774	8223.81
546.138	8171.16
546.503	8244.37
546.867	8273.07
547.231	8357.82
547.595	8376.8
547.959	8383.58
548.324	8404.14
548.688	8445.5
549.052	8450.7
549.416	8456.57
549.779	8450.02
550.143	8526.17
550.507	8558.49
550.871	8582.9
551.235	8609.34
551.599	8668.54
551.962	8657.7
552.326	8691.82
552.689	8796.68
553.053	8778.37
553.417	8734.3
553.78	8864.24
554.143	8893.85
554.507	8936.56
554.87	8986.73
555.234	9057.23
555.597	9035.99
555.96	9059.72
556.323	9052.94
556.686	9131.81
557.05	9193.5
557.413	9219.49
557.776	9142.66
558.139	9292.71
558.502	9288.41
558.865	9372.25
559.228	9405.7
559.59	9378.81
559.953	9414.06
560.316	9535.64
560.679	9589.87
561.041	9562.98
561.404	9650.21
561.767	9636.43
562.129	9706.03
562.492	9786.93
562.854	9795.29
563.217	9743.09
563.579	9849.53
563.941	9858.79
564.304	9960.49
564.666	10004.1
565.028	10023.08
565.39	10145.79
565.753	10079.58
566.115	10192.34
566.477	10177.88
566.839	10263.98
567.201	10336.75
567.563	10336.75
567.925	10447.71
568.287	10410.64
568.648	10435.73
569.01	10534.93
569.372	10567.93
569.734	10557.31
570.095	10534.48
570.457	10708.94
570.819	10690.86
571.18	10703.29
571.542	10733.8
571.903	10775.38
572.265	10810.86
572.626	10872.78
572.987	10909.61
573.349	10900.8
573.71	10945.09
574.071	10971.08
574.432	10999.33
574.794	11051.76
575.155	11087.69
575.516	11015.37
575.877	11115.26
576.238	11089.04
576.599	11168.36
576.96	11171.08
577.32	11181.47
577.681	11283.16
578.042	11265.54
578.403	11258.31
578.763	11329.94
579.124	11276.16
579.485	11357.74
579.845	11388.02
580.206	11348.25
580.566	11344.86
580.927	11366.78
581.287	11448.58
581.648	11361.35
582.008	11424.18
582.368	11491.07
582.728	11480.22
583.089	11449.94
583.449	11384.18
583.809	11472.76
584.169	11407.91
584.529	11396.83
584.889	11505.76
585.249	11385.99
585.609	11466.66
585.969	11529.48
586.329	11473.89
586.688	11523.84
587.048	11493.55
587.408	11482.93
587.768	11382.82
588.127	11448.81
588.487	11439.32
588.846	11562.93
589.206	11488.36
589.565	11469.6
589.925	11558.41
590.284	11481.12
590.643	11482.93
591.003	11532.2
591.362	11545.08
591.721	11526.1
592.08	11586.88
592.44	11606.77
592.799	11570.16
593.158	11551.41
593.517	11532.42
593.876	11583.49
594.235	11572.65
594.593	11539.2
594.952	11611.97
595.311	11574.68
595.67	11559.31
596.029	11652.87
596.387	11621.46
596.746	11644.51
597.104	11568.13
597.463	11578.3
597.822	11643.83
598.18	11586.43
598.538	11595.7
598.897	11673.21
599.255	11656.71
599.613	11711.85
599.972	11699.42
600.33	11705.53
600.688	11638.63
601.046	11713.66
601.404	11728.12
601.762	11713.66
602.12	11854
602.478	11791.17
602.836	11756.37
603.194	11693.32
603.552	11716.82
603.91	11737.62
604.268	11820.32
604.625	11752.53
604.983	11819.42
605.341	11786.88
605.698	11840.21
606.056	11936.93
606.413	11916.59
606.771	11882.92
607.128	12053.54
607.485	11868.01
607.843	11967.44
608.2	11941.68
608.557	12016.25
608.914	11983.03
609.272	12052.86
609.629	12073.2
609.986	12063.03
610.343	12020.55
610.7	12120.43
611.057	12042.69
611.414	12138.96
611.771	12143.93
612.127	12144.16
612.484	12093.54
612.841	12146.87
613.198	12183.48
613.554	12119.3
613.911	12216.02
614.267	12155.91
614.624	12173.76
614.98	12235
615.337	12346.41
615.693	12276.58
616.05	12306.64
616.406	12305.96
616.762	12271.84
617.118	12293.31
617.475	12348.45
617.831	12354.32
618.187	12361.33
618.543	12312.52
618.899	12389.12
619.255	12472.29
619.611	12371.95
619.967	12392.97
620.323	12395.68
620.678	12371.27
621.034	12315.9
621.39	12408.11
621.746	12386.41
622.101	12467.77
622.457	12416.02
622.812	12399.52
623.168	12406.98
623.523	12407.88
623.879	12487.88
624.234	12363.14
624.589	12456.69
624.945	12429.12
625.3	12466.86
625.655	12458.05
626.01	12430.48
626.365	12420.08
626.72	12381.44
627.075	12466.64
627.43	12474.77
627.785	12464.83
628.14	12399.74
628.495	12414.21
628.85	12353.64
629.205	12327.43
629.559	12467.54
629.914	12376.02
630.269	12415.11
630.623	12324.49
630.978	12256.02
631.332	12282.46
631.687	12438.16
632.041	12345.73
632.396	12332.18
632.75	12266.64
633.104	12305.74
633.459	12313.19
633.813	12253.99
634.167	12266.87
634.521	12247.88
634.875	12261.22
635.229	12242.69
635.583	12137.15
635.937	12268.45
636.291	12220.99
636.645	12129.7
636.999	12128.79
637.352	12253.99
637.706	12124.95
638.06	12086.31
638.413	12105.97
638.767	12057.61
639.121	12061.22
639.474	11937.38
639.828	12045.4
640.181	12064.61
640.534	12125.4
640.888	11973.09
641.241	11942.58
641.594	11957.04
641.947	12039.3
642.301	12025.07
642.654	11981
643.007	11995.69
643.36	11915.92
643.713	11888.35
644.066	11910.94
644.419	11865.07
644.771	11862.13
645.124	11700.78
645.477	11646.32
645.83	11647.9
646.182	11505.3
646.535	11478.86
646.888	11607
647.24	11461.24
647.593	11596.38
647.945	11515.25
648.298	11450.84
648.65	11379.88
649.002	11366.78
649.355	11344.41
649.707	11444.74
650.059	11506.66
650.411	11555.7
650.763	11599.77
651.115	11737.16
651.467	11648.35
651.819	11567.22
652.171	11689.71
652.523	11554.8
652.875	11538.98
653.227	11593.66
653.578	11650.61
653.93	11546.43
654.282	11574.91
654.633	11534.68
654.985	11583.95
655.337	11581.46
655.688	11471.63
656.039	11626.21
656.391	11469.37
656.742	11464.63
657.094	11467.34
657.445	11526.55
657.796	11536.49
658.147	11414.46
658.498	11466.66
658.849	11422.82
659.2	11454.01
659.551	11422.37
659.902	11474.8
660.253	11386.21
660.604	11425.31
660.955	11377.85
661.306	11455.36
661.656	11436.61
662.007	11435.25
662.358	11386.89
662.708	11357.74
663.059	11418.98
663.409	11368.81
663.76	11368.81
664.11	11353.22
664.461	11415.82
664.811	11450.62
665.161	11433.89
665.511	11258.76
665.862	11343.28
666.212	11352.54
666.562	11362.03
666.912	11312.32
667.262	11399.32
667.612	11321.58
667.962	11313.45
668.312	11355.7
668.662	11345.76
669.011	11344.18
669.361	11291.75
669.711	11257.85
670.06	11272.99
670.41	11291.07
670.76	11220.34
671.109	11262.83
671.459	11266.22
671.808	11250.4
672.157	11249.27
672.507	11193.22
672.856	11216.95
673.205	11183.05
673.554	11178.99
673.904	11265.99
674.253	11255.82
674.602	11226.89
674.951	10971.08
675.3	10994.13
675.649	11158.65
675.998	11072.32
676.346	11091.76
676.695	11151.19
677.044	11086.33
677.393	11125.2
677.741	11152.77
678.09	11077.29
678.438	11036.84
678.787	11117.07
679.135	11036.39
679.484	10995.49
679.832	11041.81
680.181	10957.07
680.529	11019.22
680.877	10951.2
681.225	10900.57
681.573	11043.4
681.922	10938.31
682.27	10889.05
682.618	10941.25
682.966	10904.87
683.314	10888.6
683.661	10852.89
684.009	10829.39
684.357	10824.19
684.705	10772.44
685.053	10799.56
685.4	10784.87
685.748	10753.46
686.095	10706.68
686.443	10662.62
686.79	10630.75
687.138	10728.38
687.485	10656.51
687.832	10637.08
688.18	10619.9
688.527	10596.85
688.874	10574.93
689.221	10567.02
689.568	10514.14
689.915	10497.87
690.262	10475.5
690.609	10519.79
690.956	10416.75
691.303	10423.3
691.65	10356.63
691.997	10361.83
692.344	10287.94
692.69	10321.38
693.037	10295.62
693.383	10187.6
693.73	10279.57
694.077	10173.81
694.423	10210.88
694.769	10129.3
695.116	10140.82
695.462	10136.08
695.808	10070.99
696.155	10118
696.501	9971.33
696.847	10031.22
697.193	9948.96
697.539	10022.86
697.885	9879.13
698.231	9874.61
698.577	9875.97
698.923	9861.51
699.269	9836.42
699.614	9778.8
699.96	9809.53
700.306	9717.56
700.651	9680.27
700.997	9696.31
701.342	9627.39
701.688	9635.52
702.033	9623.32
702.379	9571.8
702.724	9578.8
703.069	9638.69
703.415	9505.13
703.76	9562.31
704.105	9526.15
704.45	9492.93
704.795	9409.77
705.14	9370.9
705.485	9426.72
705.83	9359.37
706.175	9454.96
706.52	9370.9
706.865	9296.1
707.209	9312.59
707.554	9284.12
707.899	9309.43
708.243	9172.94
708.588	9207.96
708.932	9150.56
709.277	9143.11
709.621	9163.22
709.966	9090.68
710.31	9141.07
710.654	9087.52
710.998	9100.4
711.342	9135.65
711.687	9022.43
712.031	8993.51
712.375	9040.74
712.719	9000.06
713.063	9017.23
713.407	9058.82
713.75	8912.6
714.094	8945.37
714.438	8902.66
714.782	8947.86
715.125	8891.36
715.469	8923.23
715.812	8777.92
716.156	8845.94
716.499	8833.74
716.843	8788.77
717.186	8727.3
717.53	8790.35
717.873	8797.58
718.216	8794.42
718.559	8677.36
718.902	8721.88
719.246	8701.99
719.589	8628.09
719.932	8597.13
720.275	8629
720.617	8629
720.96	8598.49
721.303	8583.8
721.646	8574.99
721.989	8593.74
722.331	8528.43
722.674	8588.32
723.016	8581.54
723.359	8484.14
723.701	8478.94
724.044	8467.87
724.386	8396.01
724.729	8431.04
725.071	8406.4
725.413	8432.84
725.755	8408.44
726.097	8358.04
726.439	8355.11
726.782	8420.64
727.124	8411.83
727.465	8395.1
727.807	8298.16
728.149	8282.11
728.491	8270.81
728.833	8305.61
729.175	8256.12
729.516	8275.56
729.858	8210.48
730.199	8289.57
730.541	8225.62
730.882	8198.95
731.224	8231.49
731.565	8181.1
731.906	8184.04
732.248	8234.66
732.589	8160.53
732.93	8132.29
733.271	8124.38
733.612	8132.51
733.953	8094.55
734.294	8095
734.635	8083.7
734.976	8116.92
735.317	8054.77
735.658	8068.79
735.999	8074.66
736.339	8011.61
736.68	7999.86
737.021	7985.85
737.361	7923.93
737.702	7991.05
738.042	7932.52
738.383	7951.5
738.723	7938.39
739.063	7956.02
739.404	8018.62
739.744	7923.7
740.084	7910.82
740.424	7919.86
740.764	7870.82
741.104	7973.42
741.444	7907.21
741.784	7818.85
742.124	7819.3
742.464	7798.74
742.804	7784.95
743.143	7845.06
743.483	7792.41
743.823	7762.58
744.162	7746.31
744.502	7753.99
744.841	7682.81
745.181	7701.56
745.52	7738.4
745.86	7728.91
746.199	7713.31
746.538	7653.88
746.877	7704.27
747.216	7636.93
747.556	7669.7
747.895	7665.41
748.234	7660.66
748.573	7617.05
748.911	7597.84
749.25	7645.29
749.589	7517.84
749.928	7562.13
750.267	7585.18
750.605	7568.46
750.944	7562.13
751.283	7533.43
751.621	7489.59
751.96	7479.87
752.298	7483.26
752.636	7457.28
752.975	7378.41
753.313	7384.96
753.651	7428.35
753.989	7413.89
754.327	7352.65
754.666	7316.71
755.004	7328.01
755.342	7297.28
755.679	7270.84
756.017	7213.89
756.355	7247.34
756.693	7220.45
757.031	7337.28
757.368	7289.14
757.706	7211.86
758.044	7156.27
758.381	7177.06
758.719	7153.33
759.056	7165.98
759.394	7168.47
759.731	7025.65
760.068	7031.3
760.405	7070.17
760.743	7040.34
761.08	6978.19
761.417	6981.13
761.754	6922.83
762.091	6915.82
762.428	6920.34
762.765	6842.83
763.102	6854.58
763.438	6833.34
763.775	6872.21
764.112	6844.64
764.449	6848.93
764.785	6808.48
765.122	6753.57
765.458	6769.16
765.795	6719.67
766.131	6751.53
766.467	6727.13
766.804	6696.17
767.14	6696.84
767.476	6660.46
767.812	6649.84
768.148	6623.63
768.485	6580.24
768.821	6533.46
769.157	6557.41
769.492	6545.66
769.828	6482.16
770.164	6470.63
770.5	6450.07
770.836	6431.09
771.171	6399.22
771.507	6434.48
771.842	6378.21
772.178	6327.81
772.513	6311.32
772.849	6345.21
773.184	6259.34
773.519	6245.33
773.855	6228.38
774.19	6208.49
774.525	6232.45
774.86	6206.46
775.195	6206.46
775.53	6203.52
775.865	6158.1
776.2	6149.51
776.535	6010.31
776.87	6024.77
777.205	6019.35
777.539	6047.14
777.874	6036.07
778.209	5997.43
778.543	5891.22
778.878	5921.27
779.212	5904.77
779.547	5922.4
779.881	5931.67
780.215	5863.19
780.55	5883.31
780.884	5796.75
781.218	5807.83
781.552	5821.84
781.886	5765.79
782.22	5738.22
782.554	5718.34
782.888	5715.85
783.222	5683.76
783.556	5606.48
783.889	5590.88
784.223	5590.21
784.557	5571.68
784.89	5577.33
785.224	5574.84
785.557	5523.54
785.891	5478.57
786.224	5519.7
786.558	5513.37
786.891	5446.93
787.224	5441.51
787.557	5423.43
787.891	5409.65
788.224	5383.43
788.557	5398.8
788.89	5355.18
789.223	5340.5
789.556	5343.43
789.888	5334.85
790.221	5312.93
790.554	5255.53
790.887	5306.15
791.219	5233.38
791.552	5187.96
791.884	5175.3
792.217	5224.57
792.549	5183.89
792.882	5169.65
793.214	5110.9
793.546	5132.82
793.879	5124.46
794.211	5067.28
794.543	5140.95
794.875	5159.48
795.207	5099.15
795.539	5081.52
795.871	5028.19
796.203	5006.94
796.535	4991.8
796.867	4951.35
797.198	4982.31
797.53	4938.02
797.862	4920.17
798.193	4929.66
798.525	4921.3
798.856	4900.28
799.188	4841.53
799.519	4873.61
799.85	4863.45
800.182	4905.7
800.513	4794.07
800.844	4789.78
801.175	4791.58
801.506	4816.67
801.837	4766.72
802.168	4758.36
802.499	4765.14
802.83	4753.39
803.161	4700.96
803.491	4745.48
803.822	4694.64
804.153	4696.22
804.483	4639.04
804.814	4656.45
805.145	4616.67
805.475	4683.34
805.805	4586.39
806.136	4605.37
806.466	4576.45
806.796	4592.49
807.126	4532.38
807.457	4552.49
807.787	4561.53
808.117	4517.69
808.447	4522.89
808.777	4560.63
809.107	4492.83
809.436	4513.4
809.766	4481.99
810.096	4480.86
810.426	4441.76
810.755	4470.46
811.085	4435.43
811.414	4413.06
811.744	4384.59
812.073	4380.07
812.403	4358.15
812.732	4419.16
813.061	4372.16
813.39	4353.63
813.719	4327.64
814.049	4349.33
814.378	4325.38
814.707	4330.13
815.036	4325.38
815.365	4260.75
815.693	4213.75
816.022	4265.5
816.351	4230.69
816.68	4270.92
817.008	4206.74
817.337	4188.89
817.665	4216.46
817.994	4238.15
818.322	4239.96
818.651	4183.92
818.979	4160.64
819.307	4234.99
819.636	4159.96
819.964	4147.31
820.292	4144.59
820.62	4155.22
820.948	4159.06
821.276	4154.54
821.604	4150.92
821.932	4161.77
822.259	4164.71
822.587	4152.96
822.915	4118.38
823.243	4168.55
823.57	4114.31
823.898	4140.98
824.225	4116.35
824.553	4062.79
824.88	4147.76
825.207	4146.85
825.535	4106.86
825.862	4123.58
826.189	4141.43
826.516	4102.79
826.843	4160.64
827.17	4116.57
827.497	4094.2
827.824	4134.2
828.151	4141.66
828.478	4138.94
828.805	4149.57
829.131	4101.88
829.458	4107.99
829.785	4106.63
830.111	4130.36
830.438	4102.11
830.764	4107.08
831.09	4147.98
831.417	4078.16
831.743	4110.02
832.069	4087.87
832.395	4083.13
832.722	4123.8
833.048	4085.39
833.374	4053.07
833.7	4067.08
834.026	4112.28
834.351	4098.27
834.677	4063.92
835.003	4108.89
835.329	4074.54
835.654	4079.29
835.98	4086.97
836.306	4043.58
836.631	3999.06
836.956	4044.03
837.282	4067.08
837.607	4018.27
837.932	4015.11
838.258	3992.51
838.583	4021.89
838.908	3990.02
839.233	4008.78
839.558	4000.19
839.883	4004.94
840.208	3977.82
840.533	3976.01
840.858	3920.42
841.182	3965.62
841.507	3946.41
841.832	3929.68
842.156	3917.71
842.481	3928.1
842.805	3944.15
843.13	3903.7
843.454	3890.59
843.778	3904.6
844.103	3884.94
844.427	3887.2
844.751	3853.53
845.075	3898.05
845.399	3876.8
845.723	3827.99
846.047	3840.87
846.371	3804.49
846.695	3843.36
847.019	3809.91
847.343	3772.63
847.666	3757.71
847.99	3733.53
848.313	3737.15
848.637	3698.05
848.96	3697.15
849.284	3740.31
849.607	3662.8
849.931	3686.98
850.254	3621.44
850.577	3652.18
850.9	3630.26
851.223	3636.59
851.546	3599.52
851.869	3610.15
852.192	3577.15
852.515	3555.46
852.838	3567.43
853.161	3540.77
853.483	3512.07
853.806	3488.57
854.129	3524.95
854.451	3516.81
854.774	3494.67
855.096	3508.9
855.419	3463.93
855.741	3479.98
856.063	3451.73
856.385	3429.36
856.708	3427.55
857.03	3388.91
857.352	3417.61
857.674	3414.67
857.996	3377.61
858.318	3353.65
858.64	3343.26
858.961	3358.63
859.283	3333.77
859.605	3352.3
859.926	3350.49
860.248	3357.27
860.57	3279.31
860.891	3319.76
861.212	3297.39
861.534	3330.15
861.855	3345.52
862.176	3314.33
862.498	3271.17
862.819	3304.39
863.14	3317.5
863.461	3288.12
863.782	3274.33
864.103	3261.68
864.424	3260.78
864.745	3249.25
865.065	3250.83
865.386	3240.21
865.707	3250.38
866.027	3249.93
866.348	3206.99
866.668	3248.57
866.989	3205.64
867.309	3200.21
867.63	3181
867.95	3211.96
868.27	3196.82
868.59	3166.99
868.91	3176.71
869.23	3205.41
869.55	3147.56
869.87	3141.46
870.19	3182.13
870.51	3144.39
870.83	3163.83
871.15	3172.42
871.469	3137.62
871.789	3156.6
872.109	3153.66
872.428	3142.13
872.748	3115.47
873.067	3148.24
873.386	3140.78
873.706	3112.53
874.025	3094
874.344	3105.3
874.663	3088.35
874.982	3102.14
875.301	3123.6
875.62	3073.21
875.939	3081.35
876.258	3082.7
876.577	3059.65
876.896	3082.25
877.214	3051.74
877.533	3070.95
877.852	3079.31
878.17	3031.4
878.489	3024.85
878.807	3020.33
879.125	3042.7
879.444	3013.55
879.762	3001.35
880.08	3009.48
880.398	2957.06
880.716	3007.9
881.034	2985.53
881.352	2988.92
881.67	3003.38
881.988	3002.7
882.306	2976.26
882.624	2988.92
882.941	2958.86
883.259	2944.63
883.577	2974.23
883.894	2971.97
884.212	2913.44
884.529	2944.4
884.846	2910.28
885.164	2907.34
885.481	2931.74
885.798	2970.84
886.115	2863.05
886.432	2901.92
886.75	2877.96
887.067	2885.87
887.383	2866.21
887.7	2883.16
888.017	2874.35
888.334	2873.22
888.651	2865.76
888.967	2851.75
889.284	2854.01
889.6	2823.73
889.917	2823.27
890.233	2816.04
890.55	2790.05
890.866	2797.96
891.182	2799.32
891.498	2762.71
891.815	2781.92
892.131	2746.21
892.447	2764.07
892.763	2785.31
893.079	2760.9
893.395	2756.38
893.71	2767.91
894.026	2732.2
894.342	2729.72
894.657	2729.49
894.973	2743.5
895.289	2740.79
895.604	2709.6
895.92	2680.9
896.235	2668.02
896.55	2673.67
896.865	2658.76
897.181	2692.2
897.496	2661.7
897.811	2660.11
898.126	2617.63
898.441	2629.61
898.756	2621.47
899.071	2661.24
899.386	2602.71
899.7	2580.79
900.015	2552.32
900.33	2567.01
900.644	2585.77
900.959	2600.23
901.273	2592.77
901.588	2595.03
901.902	2529.04
902.216	2577.18
902.531	2515.03
902.845	2504.41
903.159	2554.35
903.473	2474.13
903.787	2487.01
904.101	2446.11
904.415	2455.15
904.729	2470.74
905.042	2420.57
905.356	2482.04
905.67	2442.94
905.984	2474.13
906.297	2428.48
906.611	2435.94
906.924	2416.5
907.237	2383.06
907.551	2395.26
907.864	2390.74
908.177	2411.08
908.491	2386.9
908.804	2404.53
909.117	2361.14
909.43	2377.18
909.743	2351.65
910.056	2348.94
910.368	2347.58
910.681	2330.4
910.994	2328.6
911.307	2314.36
911.619	2300.8
911.932	2313.68
912.244	2285.66
912.557	2273.01
912.869	2253.12
913.181	2248.15
913.494	2266.68
913.806	2257.19
914.118	2230.97
914.43	2233.46
914.742	2214.48
915.054	2205.89
915.366	2179.9
915.678	2221.48
915.99	2183.06
916.302	2177.64
916.613	2191.43
916.925	2154.82
917.236	2150.97
917.548	2156.17
917.859	2134.93
918.171	2102.16
918.482	2138.77
918.794	2096.06
919.105	2132.9
919.416	2102.16
919.727	2088.38
920.038	2088.83
920.349	2072.56
920.66	2051.32
920.971	2033.24
921.282	2059.68
921.593	2062.84
921.903	2025.78
922.214	2064.65
922.525	2060.13
922.835	2027.14
923.146	2016.06
923.456	2005.89
923.767	2007.7
924.077	1990.3
924.387	1979
924.697	1946.91
925.008	1960.47
925.318	1985.1
925.628	1944.65
925.938	1955.95
926.248	1972.22
926.558	1925.22
926.867	1921.83
927.177	1906.01
927.487	1931.55
927.796	1891.32
928.106	1909.62
928.416	1887.48
928.725	1903.75
929.034	1875.95
929.344	1888.61
929.653	1852.9
929.962	1890.64
930.271	1871.89
930.581	1835.73
930.89	1840.7
931.199	1826.01
931.508	1831.43
931.817	1829.4
932.125	1797.09
932.434	1795.5
932.743	1801.38
933.051	1791.21
933.36	1751.21
933.669	1761.83
933.977	1775.39
934.286	1768.84
934.594	1778.55
934.902	1763.41
935.21	1734.26
935.519	1760.02
935.827	1739.69
936.135	1732.45
936.443	1721.61
936.751	1708.95
937.059	1713.25
937.367	1703.75
937.674	1689.07
937.982	1694.49
938.29	1680.93
938.597	1702.4
938.905	1651.33
939.213	1659.24
939.52	1645
939.827	1673.02
940.135	1649.52
940.442	1645.23
940.749	1626.02
941.056	1645
941.363	1623.3
941.67	1624.89
941.977	1616.3
942.284	1579.01
942.591	1624.89
942.898	1587.15
943.205	1621.5
943.511	1582.63
943.818	1585.57
944.125	1586.92
944.431	1570.42
944.738	1546.24
945.044	1556.19
945.35	1563.42
945.657	1560.26
945.963	1555.51
946.269	1501.27
946.575	1533.82
946.881	1515.96
947.187	1513.25
947.493	1522.97
947.799	1497.21
948.105	1523.65
948.41	1483.42
948.716	1520.48
949.022	1500.37
949.327	1477.77
949.633	1486.59
949.938	1475.06
950.244	1483.87
950.549	1444.55
950.854	1450.88
951.16	1447.49
951.465	1447.94
951.77	1438
952.075	1432.8
952.38	1462.86
952.685	1439.58
952.99	1431.45
953.294	1434.16
953.599	1434.16
953.904	1399.36
954.209	1402.75
954.513	1407.49
954.818	1370.2
955.122	1386.7
955.426	1422.86
955.731	1374.5
956.035	1378.11
956.339	1352.58
956.643	1353.03
956.948	1360.94
957.252	1367.49
957.556	1360.49
957.86	1352.35
958.163	1348.28
958.467	1287.72
958.771	1336.53
959.075	1332.24
959.378	1308.96
959.682	1340.37
959.985	1304.44
960.289	1319.13
960.592	1293.37
960.896	1305.35
961.199	1281.17
961.502	1279.58
961.805	1275.07
962.108	1295.63
962.411	1279.58
962.714	1295.63
963.017	1280.49
963.32	1321.17
963.623	1246.37
963.926	1268.51
964.228	1230.32
964.531	1232.81
964.833	1238.46
965.136	1226.48
965.438	1222.41
965.741	1208.63
966.043	1224.67
966.345	1212.69
966.648	1245.69
966.95	1250.66
967.252	1190.77
967.554	1201.62
967.856	1186.71
968.158	1191.45
968.46	1184.45
968.761	1186.71
969.063	1154.62
969.365	1181.51
969.666	1193.71
969.968	1166.82
970.269	1154.16
970.571	1153.49
970.872	1147.84
971.174	1186.25
971.475	1163.43
971.776	1164.33
972.077	1135.63
972.378	1137.89
972.679	1135.18
972.98	1130.89
973.281	1143.77
973.582	1129.98
973.883	1137.22
974.183	1108.74
974.484	1133.6
974.785	1101.51
975.085	1113.49
975.386	1103.54
975.686	1073.94
975.986	1113.71
976.287	1108.74
976.587	1081.4
976.887	1077.1
977.187	1101.28
977.487	1070.55
977.787	1069.2
978.087	1041.63
978.387	1067.16
978.687	1066.94
978.987	1062.19
979.286	1041.85
979.586	1065.81
979.885	1051.12
980.185	1038.24
980.484	1028.97
980.784	1025.58
981.083	1047.05
981.382	1024.45
981.682	1041.4
981.981	1028.29
982.28	1028.07
982.579	1024.22
982.878	1014.73
983.177	1009.31
983.475	1006.37
983.774	1006.6
984.073	1005.47
984.372	992.59
984.67	985.58
984.969	973.6
985.267	977.9
985.566	999.37
985.864	1000.04
986.162	958.69
986.461	950.1
986.759	961.18
987.057	972.7
987.355	963.66
987.653	957.79
987.951	961.63
988.249	947.62
988.547	935.64
988.844	958.46
989.142	935.87
989.44	929.54
989.737	926.6
990.035	955.07
990.332	910.1
990.63	939.71
990.927	919.37
991.224	919.82
991.521	904.45
991.819	915.3
992.116	930.67
992.413	920.27
992.71	874.62
993.006	914.17
993.303	893.83
993.6	910.1
993.897	895.64
994.193	885.92
994.49	882.31
994.787	895.87
995.083	882.99
995.379	893.38
995.676	892.48
995.972	849.77
996.268	861.97
996.565	862.87
996.861	847.28
997.157	855.87
997.453	869.43
997.749	861.06
998.044	853.16
998.34	842.76
998.636	821.52
998.932	834.62
999.227	842.76
999.523	828.52
999.818	819.03
1000.114	814.51
1000.409	834.62
1000.704	824.91
1001	845.25
1001.295	823.55
1001.59	802.31
1001.885	827.17
1002.18	818.13
1002.475	813.16
1002.77	805.47
1003.065	776.55
1003.359	792.37
1003.654	791.46
1003.949	786.49
1004.243	784.23
1004.538	779.49
1004.832	787.62
1005.127	757.56
1005.421	775.42
1005.715	774.06
1006.009	775.64
1006.304	761.63
1006.598	769.32
1006.892	759.37
1007.186	743.33
1007.48	743.33
1007.773	750.33
1008.067	747.4
1008.361	755.08
1008.655	741.07
1008.948	757.34
1009.242	713.5
1009.535	716.21
1009.829	730.22
1010.122	725.25
1010.415	723.44
1010.708	729.77
1011.001	704.68
1011.295	729.54
1011.588	707.17
1011.881	715.76
1012.173	741.07
1012.466	710.79
1012.759	673.95
1013.052	697.91
1013.344	708.07
1013.637	706.94
1013.93	687.51
1014.222	716.66
1014.514	696.78
1014.807	673.73
1015.099	679.83
1015.391	669.66
1015.683	672.82
1015.976	676.89
1016.268	659.71
1016.56	668.75
1016.851	671.47
1017.143	651.13
1017.435	632.82
1017.727	647.74
1018.018	654.74
1018.31	639.15
1018.602	661.75
1018.893	670.56
1019.185	652.26
1019.476	660.84
1019.767	659.71
1020.058	634.86
1020.35	653.84
1020.641	643.44
1020.932	650.9
1021.223	636.89
1021.514	646.83
1021.804	586.5
1022.095	642.09
1022.386	623.33
1022.677	602.77
1022.967	595.99
1023.258	598.7
1023.548	626.27
1023.839	607.06
1024.129	609.32
1024.419	601.41
1024.709	588.3
1025	617.68
1025.29	585.59
1025.58	593.28
1025.87	570.68
1026.16	586.04
1026.449	582.65
1026.739	587.17
1027.029	572.48
1027.319	570.45
1027.608	594.86
1027.898	586.27
1028.187	560.51
1028.477	570
1028.766	553.05
1029.055	543.11
1029.344	544.46
1029.634	568.64
1029.923	567.97
1030.212	549.66
1030.501	543.79
1030.79	548.98
1031.078	532.94
1031.367	553.28
1031.656	537.68
1031.945	540.4
1032.233	571.58
1032.522	554.86
1032.81	536.55
1033.099	539.27
1033.387	523.67
1033.675	532.26
1033.963	522.32
1034.251	524.8
1034.54	513.28
1034.828	521.86
1035.116	546.04
1035.403	497.68
1035.691	513.05
1035.979	509.89
1036.267	503.33
1036.554	515.31
1036.842	504.24
1037.129	522.32
1037.417	496.55
1037.704	514.18
1037.992	522.77
1038.279	509.44
1038.566	496.78
1038.853	496.78
1039.14	496.78
