Data from black_plastic_tray_FLMS001491_051.txt Node
Date: Tue Feb 07 10:40:08 GMT 2017
User: dcchb
Spectrometer: FLMS00149
Trigger mode: 0
Integration Time (sec): 2.000000E-2
Scans to average: 10
Electric dark correction enabled: true
Nonlinearity correction enabled: false
Boxcar width: 0
XAxis mode: Wavelengths
Number of Pixels in Spectrum: 2048
>>>>>Begin Spectral Data<<<<<
341.393	-14.75
341.776	-14.75
342.16	-14.75
342.543	-50.9
342.927	-62.43
343.31	-72.37
343.693	-59.72
344.077	-55.87
344.46	-63.78
344.843	-58.36
345.226	-38.47
345.61	-20.62
345.993	1.3
346.376	-14.52
346.759	20.51
347.142	14.86
347.525	51.24
347.908	36.33
348.291	69.55
348.674	86.72
349.057	103.22
349.44	117.45
349.823	135.99
350.206	136.21
350.588	175.98
350.971	188.87
351.354	218.69
351.737	225.02
352.119	255.08
352.502	232.48
352.884	251.69
353.267	262.99
353.65	280.39
354.032	289.43
354.414	290.56
354.797	303.21
355.179	305.47
355.562	307.28
355.944	310.22
356.326	338.47
356.709	320.39
357.091	302.08
357.473	328.52
357.855	326.26
358.238	341.18
358.62	342.53
359.002	328.75
359.384	330.78
359.766	337.34
360.148	312.48
360.53	336.88
360.912	318.35
361.294	333.95
361.676	336.43
362.057	319.94
362.439	337.34
362.821	323.55
363.203	321.52
363.584	307.96
363.966	323.55
364.348	317.45
364.729	315.42
365.111	344.79
365.493	331.23
365.874	312.25
366.256	292.37
366.637	308.41
367.019	309.54
367.4	312.93
367.781	299.6
368.163	323.78
368.544	299.14
368.925	333.27
369.306	320.84
369.688	310.22
370.069	315.87
370.45	321.07
370.831	307.96
371.212	305.25
371.593	317.45
371.974	304.57
372.355	317.22
372.736	328.97
373.117	312.03
373.498	324.45
373.879	311.57
374.26	314.96
374.641	315.87
375.021	309.77
375.402	319.94
375.783	331.91
376.163	314.29
376.544	319.71
376.925	312.93
377.305	319.26
377.686	314.74
378.066	323.78
378.447	321.52
378.827	328.3
379.208	346.6
379.588	345.47
379.968	359.26
380.349	326.04
380.729	343.21
381.109	351.8
381.489	354.06
381.87	327.62
382.25	364.91
382.63	349.99
383.01	357.9
383.39	372.82
383.77	367.84
384.15	362.19
384.53	356.09
384.91	358.13
385.29	355.19
385.67	354.74
386.049	370.56
386.429	379.59
386.809	359.71
387.189	374.17
387.568	372.14
387.948	363.78
388.328	354.96
388.707	361.74
389.087	407.62
389.466	392.93
389.846	394.96
390.225	394.74
390.605	392.25
390.984	379.59
391.363	392.25
391.743	401.06
392.122	387.05
392.501	400.61
392.881	413.04
393.26	415.07
393.639	415.98
394.018	412.59
394.397	414.62
394.776	399.03
395.155	430.67
395.534	418.46
395.913	416.43
396.292	428.86
396.671	435.41
397.05	419.37
397.429	411.23
397.808	407.16
398.186	431.8
398.565	408.29
398.944	411.01
399.323	428.86
399.701	430.89
400.08	439.93
400.458	441.74
400.837	452.59
401.215	461.63
401.594	462.3
401.972	462.3
402.351	469.54
402.729	467.28
403.107	482.87
403.486	481.29
403.864	485.58
404.242	484.68
404.62	470.89
404.999	497.78
405.377	476.09
405.755	496.2
406.133	478.8
406.511	488.29
406.889	495.98
407.267	511.34
407.645	490.55
408.023	515.64
408.401	525.13
408.779	519.03
409.156	521.96
409.534	520.16
409.912	534.39
410.29	542.98
410.667	545.69
411.045	545.92
411.422	544.34
411.8	538.23
412.178	541.62
412.555	550.89
412.933	568.52
413.31	542.3
413.687	582.98
414.065	592.47
414.442	599.25
414.819	584.79
415.197	604
415.574	616.42
415.951	632.24
416.328	629.76
416.705	592.24
417.082	638.57
417.46	611
417.837	634.05
418.214	620.94
418.591	637.89
418.967	658.23
419.344	661.4
419.721	644.9
420.098	672.69
420.475	672.69
420.852	669.08
421.228	689.64
421.605	692.13
421.982	671.56
422.358	692.35
422.735	695.97
423.111	676.08
423.488	720.15
423.864	716.76
424.241	707.72
424.617	721.28
424.994	716.53
425.37	735.74
425.746	734.61
426.123	734.61
426.499	740.26
426.875	771.67
427.251	772.13
427.627	754.95
428.003	789.3
428.379	789.08
428.756	776.87
429.132	806.02
429.507	812.35
429.883	809.41
430.259	827.27
430.635	840.15
431.011	823.2
431.387	830.66
431.763	850.32
432.138	832.46
432.514	881.28
432.89	869.75
433.265	893.71
433.641	903.42
434.016	914.5
434.392	943.2
434.767	943.2
435.143	917.89
435.518	949.07
435.894	956.98
436.269	949.52
436.644	975.96
437.02	969.64
437.395	984.32
437.77	993.14
438.145	976.19
438.52	1023.19
438.895	1011.22
439.271	989.97
439.646	1034.27
440.021	1041.05
440.395	1054.15
440.77	1064.77
441.145	1043.08
441.52	1075.4
441.895	1075.62
442.27	1063.42
442.645	1074.94
443.019	1105
443.394	1068.16
443.769	1120.37
444.143	1079.01
444.518	1140.25
444.892	1103.42
445.267	1141.16
445.641	1155.17
446.016	1151.55
446.39	1182.06
446.764	1150.65
447.139	1160.59
447.513	1198.33
447.887	1172.57
448.262	1212.57
448.636	1198.1
449.01	1213.24
449.384	1209.18
449.758	1224.77
450.132	1235.17
450.506	1250.08
450.88	1255.05
451.254	1241.04
451.628	1264.77
452.002	1281.49
452.376	1284.2
452.75	1301.38
453.123	1304.09
453.497	1330.76
453.871	1329.63
454.244	1382.73
454.618	1380.02
454.992	1378.44
455.365	1375.27
455.739	1418.21
456.112	1411.66
456.486	1441.71
456.859	1468.61
457.232	1438.55
457.606	1499.34
457.979	1485.1
458.352	1504.76
458.725	1557.19
459.099	1537.98
459.472	1588.6
459.845	1618.21
460.218	1577.08
460.591	1622.73
460.964	1615.27
461.337	1647.81
461.71	1695.27
462.083	1684.64
462.456	1686.23
462.829	1699.33
463.201	1753.57
463.574	1728.49
463.947	1772.78
464.32	1798.09
464.692	1790.63
465.065	1825.66
465.438	1812.1
465.81	1874.92
466.183	1871.31
466.555	1923.73
466.928	1933
467.3	1941.59
467.672	1960.8
468.045	2002.15
468.417	2025.88
468.789	2005.99
469.161	2029.04
469.534	2075.14
469.906	2117.63
470.278	2153.79
470.65	2159.89
471.022	2215.48
471.394	2202.6
471.766	2215.7
472.138	2255.93
472.51	2329.6
472.882	2337.74
473.253	2350.62
473.625	2402.14
473.997	2442.59
474.369	2453.66
474.74	2456.38
475.112	2548.35
475.484	2546.54
475.855	2609.14
476.227	2624.51
476.598	2692.98
476.97	2698.18
477.341	2753.09
477.713	2768.68
478.084	2835.12
478.455	2889.81
478.827	2913.99
479.198	2986.76
479.569	2985.18
479.94	3059.07
480.311	3105.17
480.682	3141.1
481.053	3221.1
481.424	3258.84
481.795	3315.79
482.166	3358.05
482.537	3375.22
482.908	3462.9
483.279	3521.66
483.65	3570.7
484.021	3644.59
484.391	3631.71
484.762	3682.11
485.133	3738.6
485.503	3719.39
485.874	3893.85
486.244	3866.06
486.615	3944.02
486.985	3972.49
487.356	4050.23
487.726	4052.72
488.097	4093.85
488.467	4169.78
488.837	4235.76
489.207	4325.93
489.578	4335.2
489.948	4377.46
490.318	4455.42
490.688	4462.43
491.058	4552.82
491.428	4579.26
491.798	4637.34
492.168	4797.11
492.538	4772.47
492.908	4796.43
493.278	4834.62
493.648	4827.39
494.017	4873.71
494.387	4981.06
494.757	4974.73
495.126	5061.96
495.496	5089.3
495.866	5115.06
496.235	5162.52
496.605	5260.6
496.974	5272.57
497.344	5324.32
497.713	5340.82
498.082	5392.57
498.452	5418.78
498.821	5480.25
499.19	5495.84
499.559	5526.13
499.928	5546.92
500.298	5613.58
500.667	5646.12
501.036	5630.98
501.405	5715.95
501.774	5694.03
502.143	5813.12
502.512	5804.08
502.88	5880.92
503.249	5905.55
503.618	5956.62
503.987	5930.41
504.356	6016.28
504.724	6049.05
505.093	6044.76
505.462	6106
505.83	6128.37
506.199	6222.83
506.567	6231.64
506.936	6249.04
507.304	6333.11
507.672	6412.2
508.041	6417.18
508.409	6466.44
508.777	6473.67
509.145	6544.86
509.514	6641.8
509.882	6680.9
510.25	6660.56
510.618	6666.89
510.986	6729.03
511.354	6826.66
511.722	6853.32
512.09	6978.97
512.458	6859.42
512.826	6993.88
513.193	7011.74
513.561	7061.68
513.929	7076.14
514.297	7160.89
514.664	7239.08
515.032	7285.18
515.4	7363.82
515.767	7330.6
516.135	7415.79
516.502	7381.9
516.869	7533.76
517.237	7554.32
517.604	7531.04
517.972	7571.95
518.339	7693.75
518.706	7736.92
519.073	7744.6
519.44	7841.32
519.808	7877.48
520.175	7949.56
520.542	8035.66
520.909	8093.74
521.276	8153.18
521.643	8162.21
522.009	8236.56
522.376	8301.65
522.743	8319.95
523.11	8396.33
523.477	8448.08
523.843	8490.79
524.21	8608.98
524.577	8681.3
524.943	8695.53
525.31	8781.41
525.676	8808.3
526.043	8927.84
526.409	8948.18
526.776	9039.93
527.142	9018.01
527.508	9095.98
527.874	9168.97
528.241	9263.65
528.607	9289.64
528.973	9405.12
529.339	9412.35
529.705	9463.2
530.071	9603.76
530.437	9603.98
530.803	9695.96
531.169	9752.23
531.535	9698.67
531.901	9778.67
532.267	9847.14
532.632	9891.21
532.998	9957.65
533.364	10010.3
533.73	10015.95
534.095	10028.15
534.461	10138.89
534.826	10191.09
535.192	10181.6
535.557	10297.53
535.923	10308.15
536.288	10312.67
536.653	10340.69
537.019	10389.05
537.384	10442.15
537.749	10498.2
538.114	10512.44
538.479	10541.59
538.845	10583.17
539.21	10641.25
539.575	10714.46
539.94	10686.67
540.305	10741.36
540.67	10748.14
541.034	10815.93
541.399	10851.64
541.764	10928.92
542.129	10973.21
542.494	10910.17
542.858	11106.77
543.223	10925.08
543.587	11067.68
543.952	11068.13
544.316	11130.05
544.681	11148.8
545.045	11151.74
545.41	11216.15
545.774	11288.01
546.138	11304.51
546.503	11300.89
546.867	11340.66
547.231	11463.6
547.595	11510.38
547.959	11478.96
548.324	11570.49
548.688	11557.83
549.052	11640.32
549.416	11607.32
549.779	11693.2
550.143	11658.39
550.507	11778.84
550.871	11816.36
551.235	11818.16
551.599	11947.88
551.962	11864.72
552.326	11993.53
552.689	12051.38
553.053	12003.24
553.417	12070.81
553.78	12233.75
554.143	12221.54
554.507	12283.69
554.87	12318.04
555.234	12457.47
555.597	12416.11
555.96	12396.91
556.323	12496.11
556.686	12454.31
557.05	12553.29
557.413	12596
557.776	12678.25
558.139	12775.2
558.502	12778.59
558.865	12867.63
559.228	12889.77
559.59	12983.1
559.953	12860.17
560.316	13110.11
560.679	13099.71
561.041	13137
561.404	13217.22
561.767	13322.76
562.129	13360.5
562.492	13459.48
562.854	13522.53
563.217	13482.07
563.579	13606.82
563.941	13558.23
564.304	13677.55
564.666	13737.21
565.028	13711.67
565.39	13853.59
565.753	13913.93
566.115	13921.84
566.477	13986.02
566.839	14037.99
567.201	14104.21
567.563	14142.62
567.925	14203.64
568.287	14241.6
568.648	14288.83
569.01	14342.84
569.372	14435.27
569.734	14464.87
570.095	14553.91
570.457	14591.65
570.819	14598.43
571.18	14674.36
571.542	14710.97
571.903	14663.51
572.265	14772.66
572.626	14908.25
572.987	14838.65
573.349	14838.65
573.71	14931.53
574.071	14913
574.432	15049.49
574.794	15169.49
575.155	15056.04
575.516	15043.84
575.877	15124.29
576.238	15135.36
576.599	15214.23
576.96	15206.78
577.32	15240.45
577.681	15273.89
578.042	15425.53
578.403	15364.51
578.763	15410.39
579.124	15446.54
579.485	15514.56
579.845	15509.14
580.206	15456.03
580.566	15428.01
580.927	15458.75
581.287	15538.52
581.648	15420.33
582.008	15508.01
582.368	15522.93
582.728	15552.3
583.089	15527.44
583.449	15547.33
583.809	15679.98
584.169	15547.33
584.529	15445.87
584.889	15768.79
585.249	15570.38
585.609	15496.49
585.969	15723.37
586.329	15591.17
586.688	15720.66
587.048	15536.94
587.408	15609.93
587.768	15631.85
588.127	15481.12
588.487	15559.53
588.846	15596.14
589.206	15498.97
589.565	15489.71
589.925	15649.7
590.284	15540.55
590.643	15638.85
591.003	15651.96
591.362	15635.24
591.721	15658.06
592.08	15684.95
592.44	15703.26
592.799	15744.84
593.158	15660.55
593.517	15717.95
593.876	15833.43
594.235	15797.04
594.593	15716.59
594.952	15731.73
595.311	15703.71
595.67	15668.01
596.029	15728.12
596.387	15798.62
596.746	15828.23
597.104	15792.3
597.463	15770.6
597.822	15797.72
598.18	15687.21
598.538	15624.39
598.897	15823.26
599.255	15779.64
599.613	15873.65
599.972	15941.22
600.33	15874.55
600.688	15870.71
601.046	15841.33
601.404	15971.73
601.762	15942.58
602.12	15991.39
602.478	15980.54
602.836	16053.31
603.194	15995.23
603.552	15900.77
603.91	15877.04
604.268	15974.21
604.625	15962.24
604.983	16027.54
605.341	15903.25
605.698	15997.94
606.056	16010.6
606.413	15993.87
606.771	15967.66
607.128	16071.16
607.485	16072.52
607.843	16023.03
608.2	16180.76
608.557	16251.95
608.914	16220.53
609.272	16216.01
609.629	16237.71
609.986	16215.11
610.343	16119.97
610.7	16257.14
611.057	16221.21
611.414	16163.36
611.771	16302.34
612.127	16327.88
612.484	16377.37
612.841	16347.08
613.198	16410.36
613.554	16322.68
613.911	16425.5
614.267	16414.2
614.624	16401.77
614.98	16421.21
615.337	16451.49
615.693	16503.69
616.05	16513.63
616.406	16590.24
616.762	16503.01
617.118	16545.5
617.475	16535.78
617.831	16609.68
618.187	16627.98
618.543	16612.84
618.899	16736.45
619.255	16724.48
619.611	16729
619.967	16707.3
620.323	16759.5
620.678	16690.13
621.034	16631.6
621.39	16611.03
621.746	16686.28
622.101	16679.5
622.457	16647.64
622.812	16727.87
623.168	16755.89
623.523	16762.21
623.879	16823.23
624.234	16610.13
624.589	16709.79
624.945	16743.68
625.3	16744.59
625.655	16797.69
626.01	16681.76
626.365	16885.6
626.72	16713.4
627.075	16764.93
627.43	16650.35
627.785	16749.56
628.14	16761.31
628.495	16851.03
628.85	16670.47
629.205	16586.85
629.559	16771.25
629.914	16678.38
630.269	16785.04
630.623	16546.4
630.978	16577.59
631.332	16620.3
631.687	16699.62
632.041	16640.64
632.396	16646.29
632.75	16575.78
633.104	16593.63
633.459	16465.73
633.813	16493.52
634.167	16480.87
634.521	16431.38
634.875	16462.79
635.229	16473.86
635.583	16310.48
635.937	16244.04
636.291	16363.36
636.645	16299.18
636.999	16218.73
637.352	16251.95
637.706	16198.61
638.06	16215.34
638.413	16169.24
638.767	16113.87
639.121	16184.15
639.474	16062.8
639.828	16143.93
640.181	16137.6
640.534	16042.46
640.888	16067.77
641.241	15942.35
641.594	15995
641.947	16115.9
642.301	15926.76
642.654	15879.75
643.007	15893.08
643.36	15841.11
643.713	15918.62
644.066	15875.46
644.419	15861.67
644.771	15757.72
645.124	15563.6
645.477	15605.63
645.83	15390.05
646.182	15392.53
646.535	15312.31
646.888	15353.66
647.24	15253.1
647.593	15402.7
647.945	15255.14
648.298	15307.56
648.65	15194.8
649.002	15170.17
649.355	15213.1
649.707	15202.93
650.059	15168.13
650.411	15454.45
650.763	15410.16
651.115	15594.79
651.467	15560.21
651.819	15510.95
652.171	15441.12
652.523	15419.2
652.875	15428.69
653.227	15414.91
653.578	15518.41
653.93	15533.77
654.282	15269.15
654.633	15317.28
654.985	15350.27
655.337	15395.24
655.688	15391.63
656.039	15327.68
656.391	15205.42
656.742	15165.19
657.094	15275.93
657.445	15331.52
657.796	15316.83
658.147	15327.9
658.498	15259.88
658.849	15359.99
659.2	15242.93
659.551	15267.34
659.902	15351.4
660.253	15283.16
660.604	15310.28
660.955	15140.34
661.306	15157.29
661.656	15137.85
662.007	15088.59
662.358	15029.15
662.708	15124.52
663.059	15137.17
663.409	15073.67
663.76	15134.91
664.11	15147.12
664.461	15138.53
664.811	15147.34
665.161	15168.81
665.511	15049.72
665.862	15054.01
666.212	15109.83
666.562	15016.72
666.912	15011.07
667.262	14999.55
667.612	15068.93
667.962	14953.67
668.312	14940.12
668.662	15043.62
669.011	14945.31
669.361	14984.63
669.711	14967.46
670.06	14854.47
670.41	14861.7
670.76	14789.39
671.109	14965.65
671.459	14882.26
671.808	14931.98
672.157	14953.9
672.507	14783.51
672.856	14811.31
673.205	14834.13
673.554	14935.82
673.904	14865.32
674.253	14908.03
674.602	14789.16
674.951	14534.7
675.3	14553.01
675.649	14717.75
675.998	14683.63
676.346	14706.9
676.695	14860.8
677.044	14673.23
677.393	14726.11
677.741	14742.61
678.09	14618.77
678.438	14464.2
678.787	14692.89
679.135	14570.18
679.484	14497.87
679.832	14597.98
680.181	14490.64
680.529	14588.49
680.877	14521.6
681.225	14511.2
681.573	14549.84
681.922	14487.92
682.27	14340.13
682.618	14381.71
682.966	14359.57
683.314	14432.11
683.661	14297.65
684.009	14242.51
684.357	14249.74
684.705	14207.48
685.053	14292.22
685.4	14313.01
685.748	14207.25
686.095	14084.32
686.443	14065.56
686.79	13975.85
687.138	14109.63
687.485	14066.92
687.832	13998.67
688.18	13990.31
688.527	13867.15
688.874	13852.01
689.221	13922.06
689.568	13862.4
689.915	13803.65
690.262	13779.02
690.609	13656.53
690.956	13765.23
691.303	13711.67
691.65	13656.08
691.997	13622.86
692.344	13549.19
692.69	13509.64
693.037	13503.77
693.383	13418.12
693.73	13591.45
694.077	13458.35
694.423	13419.25
694.769	13309.88
695.116	13262.42
695.462	13319.59
695.808	13301.74
696.155	13321.18
696.501	13144.68
696.847	13205.47
697.193	13134.74
697.539	13190.56
697.885	13094.06
698.231	12966.61
698.577	13012.48
698.923	12919.83
699.269	12949.21
699.614	12824.92
699.96	12826.95
700.306	12798.25
700.651	12688.65
700.997	12798.7
701.342	12675.32
701.688	12638.03
702.033	12605.94
702.379	12664.92
702.724	12630.8
703.069	12652.94
703.415	12540.18
703.76	12513.96
704.105	12580.4
704.45	12462.44
704.795	12403.91
705.14	12371.82
705.485	12356.91
705.83	12297.02
706.175	12297.93
706.52	12197.36
706.865	12216.35
707.209	12249.56
707.554	12106.52
707.899	12157.36
708.243	12066.74
708.588	12183.35
708.932	12119.4
709.277	12038.5
709.621	12067.2
709.966	11955.79
710.31	12017.71
710.654	11882.57
710.998	11818.39
711.342	11922.57
711.687	11871.5
712.031	11751.95
712.375	11725.06
712.719	11758.5
713.063	11735
713.407	11728.22
713.75	11645.51
714.094	11658.85
714.438	11546.53
714.782	11625.4
715.125	11534.56
715.469	11594.89
715.812	11537.95
716.156	11523.26
716.499	11518.74
716.843	11478.29
717.186	11439.19
717.53	11451.85
717.873	11530.94
718.216	11396.03
718.559	11447.78
718.902	11295.69
719.246	11404.16
719.589	11263.38
719.932	11329.82
720.275	11288.69
720.617	11188.58
720.96	11188.8
721.303	11201.91
721.646	11178.63
721.989	11109.71
722.331	11137.96
722.674	11161.68
723.016	11119.65
723.359	11081.01
723.701	11154.45
724.044	11072.87
724.386	10989.03
724.729	11029.71
725.071	11016.6
725.413	10999.2
725.755	10986.55
726.097	10836.27
726.439	10836.95
726.782	10868.81
727.124	10909.94
727.465	10813.9
727.807	10835.59
728.149	10852.31
728.491	10819.55
728.833	10882.82
729.175	10810.96
729.516	10748.59
729.858	10704.07
730.199	10738.42
730.541	10724.18
730.882	10769.83
731.224	10730.96
731.565	10679.66
731.906	10671.53
732.248	10548.82
732.589	10562.6
732.93	10491.19
733.271	10572.55
733.612	10528.93
733.953	10531.64
734.294	10518.76
734.635	10469.27
734.976	10593.11
735.317	10493.45
735.658	10451.87
735.999	10398.99
736.339	10416.17
736.68	10392.21
737.021	10371.2
737.361	10299.56
737.702	10371.42
738.042	10384.76
738.383	10355.6
738.723	10343.85
739.063	10302.27
739.404	10274.7
739.744	10205.78
740.084	10219.34
740.424	10261.37
740.764	10198.32
741.104	10263.4
741.444	10145.89
741.784	10107.25
742.124	10171.88
742.464	10154.7
742.804	10165.1
743.143	10080.81
743.483	10143.18
743.823	10101.37
744.162	10004.2
744.502	10108.83
744.841	10019.12
745.181	10118.55
745.52	10057.98
745.86	10004.2
746.199	10019.12
746.538	9996.29
746.877	9963.98
747.216	9889.63
747.556	9844.43
747.895	9857.09
748.234	9844.88
748.573	9871.1
748.911	9781.61
749.25	9789.74
749.589	9851.21
749.928	9787.93
750.267	9831.1
750.605	9806.47
750.944	9750.42
751.283	9709.07
751.621	9791.55
751.96	9674.27
752.298	9673.36
752.636	9666.13
752.975	9659.12
753.313	9527.38
753.651	9582.97
753.989	9589.07
754.327	9621.84
754.666	9463.42
755.004	9518.34
755.342	9496.42
755.679	9428.85
756.017	9374.16
756.355	9345.23
756.693	9316.76
757.031	9385.46
757.368	9317.21
757.706	9351.34
758.044	9262.98
758.381	9318.57
758.719	9314.5
759.056	9306.37
759.394	9238.34
759.731	9158.12
760.068	9097.33
760.405	9096.43
760.743	9030.67
761.08	9070.89
761.417	9021.18
761.754	9064.11
762.091	9036.32
762.428	8968.07
762.765	8917
763.102	8949.09
763.438	8928.52
763.775	8880.39
764.112	8834.51
764.449	8855.3
764.785	8817.79
765.122	8706.83
765.458	8683.56
765.795	8653.28
766.131	8705.03
766.467	8698.47
766.804	8627.29
767.14	8490.12
767.476	8571.24
767.812	8486.05
768.148	8526.72
768.485	8426.16
768.821	8443.34
769.157	8411.93
769.492	8371.02
769.828	8460.51
770.164	8384.58
770.5	8362.21
770.836	8297.8
771.171	8340.06
771.507	8190.24
771.842	8198.6
772.178	8181.2
772.513	8117.92
772.849	8155.21
773.184	8054.87
773.519	8071.6
773.855	8009.68
774.19	8047.42
774.525	8001.32
774.86	7977.81
775.195	7979.17
775.53	7918.83
775.865	7884.48
776.2	7768.55
776.535	7742.56
776.87	7801.32
777.205	7726.75
777.539	7761.77
777.874	7809.68
778.209	7712.28
778.543	7673.64
778.878	7713.86
779.212	7631.61
779.547	7632.51
779.881	7549.12
780.215	7486.3
780.55	7460.76
780.884	7437.26
781.218	7386.87
781.552	7372.63
781.886	7351.84
782.22	7314.78
782.554	7261.22
782.888	7183.71
783.222	7188.68
783.556	7179.42
783.889	7163.6
784.223	7126.99
784.557	7212.64
784.89	7176.48
785.224	7147.55
785.557	7126.54
785.891	7103.49
786.224	7042.02
786.558	7096.03
786.891	6953.88
787.224	6964.51
787.557	6959.99
787.891	6967.44
788.224	6945.07
788.557	6959.31
788.89	6882.02
789.223	6926.32
789.556	6849.25
789.888	6835.24
790.221	6856.26
790.554	6807.45
790.887	6762.25
791.219	6724.96
791.552	6689.26
791.884	6624.18
792.217	6630.96
792.549	6654.91
792.882	6588.47
793.214	6484.07
793.546	6575.36
793.879	6580.34
794.211	6519.55
794.543	6522.94
794.875	6548.47
795.207	6535.36
795.539	6469.38
795.871	6455.14
796.203	6420.11
796.535	6346.22
796.867	6367.01
797.198	6372.43
797.53	6270.51
797.862	6281.59
798.193	6294.24
798.525	6212.89
798.856	6260.34
799.188	6182.61
799.519	6158.88
799.85	6119.1
800.182	6111.87
800.513	6146.22
800.844	6073.91
801.175	6129.05
801.506	6128.37
801.837	6087.02
802.168	6136.51
802.499	6065.77
802.83	6029.39
803.161	6069.61
803.491	6002.95
803.822	5968.37
804.153	5937.87
804.483	5907.36
804.814	5856.74
805.145	5852.44
805.475	5855.61
805.805	5844.54
806.136	5826.68
806.466	5876.4
806.796	5850.86
807.126	5807.02
807.457	5765.44
807.787	5781.49
808.117	5740.36
808.447	5765.67
808.777	5755.95
809.107	5762.96
809.436	5759.57
809.766	5723.86
810.096	5648.38
810.426	5669.4
810.755	5630.08
811.085	5606.12
811.414	5599.57
811.744	5572.45
812.073	5555.05
812.403	5625.56
812.732	5576.07
813.061	5523.41
813.39	5505.34
813.719	5511.66
814.049	5496.3
814.378	5520.02
814.707	5495.62
815.036	5463.98
815.365	5453.59
815.693	5386.69
816.022	5388.05
816.351	5432.57
816.68	5360.93
817.008	5388.28
817.337	5314.38
817.665	5300.37
817.994	5316.19
818.322	5344.66
818.651	5318.9
818.979	5280.48
819.307	5304.21
819.636	5323.87
819.964	5276.64
820.292	5318.67
820.62	5279.35
820.948	5246.59
821.276	5283.87
821.604	5243.87
821.932	5278.67
822.259	5260.6
822.587	5253.14
822.915	5202.52
823.243	5238.22
823.57	5211.78
823.898	5222.86
824.225	5232.57
824.553	5199.58
824.88	5245.91
825.207	5252.01
825.535	5250.43
825.862	5234.16
826.189	5256.3
826.516	5260.14
826.843	5232.8
827.17	5281.39
827.497	5222.86
827.824	5227.6
828.151	5239.35
828.478	5292.91
828.805	5267.83
829.131	5230.99
829.458	5195.06
829.785	5195.97
830.111	5252.46
830.438	5233.48
830.764	5206.81
831.09	5200.26
831.417	5176.08
831.743	5215.63
832.069	5200.71
832.395	5159.58
832.722	5185.12
833.048	5142.86
833.374	5162.07
833.7	5144.44
834.026	5178.56
834.351	5233.48
834.677	5147.15
835.003	5177.89
835.329	5172.69
835.654	5153.25
835.98	5135.18
836.306	5121.39
836.631	5158.9
836.956	5106.25
837.282	5113.26
837.607	5088.17
837.932	5070.54
838.258	5012.47
838.583	5096.76
838.908	5021.05
839.233	5056.99
839.558	5030.55
839.883	5013.37
840.208	5042.52
840.533	5025.12
840.858	5064.67
841.182	5023.09
841.507	4965.69
841.832	4951.23
842.156	5014.27
842.481	4986.25
842.805	4997.55
843.13	5002.98
843.454	4953.26
843.778	4931.11
844.103	4929.53
844.427	4918.68
844.751	4894.5
845.075	4906.93
845.399	4873.04
845.723	4850.44
846.047	4847.95
846.371	4815.86
846.695	4822.64
847.019	4825.58
847.343	4826.94
847.666	4746.03
847.99	4731.34
848.313	4741.51
848.637	4665.81
848.96	4723.44
849.284	4708.75
849.607	4682.53
849.931	4662.65
850.254	4585.13
850.577	4588.3
850.9	4539.03
851.223	4574.51
851.546	4528.86
851.869	4508.75
852.192	4538.58
852.515	4472.59
852.838	4446.61
853.161	4455.19
853.483	4453.84
853.806	4392.82
854.129	4438.92
854.451	4389.21
854.774	4372.94
855.096	4364.35
855.419	4370.9
855.741	4351.24
856.063	4365.7
856.385	4344.46
856.708	4315.31
857.03	4281.19
857.352	4254.97
857.674	4298.81
857.996	4224.69
858.318	4229.66
858.64	4235.99
858.961	4233.5
859.283	4246.39
859.605	4229.21
859.926	4231.47
860.248	4151.02
860.57	4177.23
860.891	4174.3
861.212	4113.73
861.534	4167.97
861.855	4124.58
862.176	4157.57
862.498	4192.15
862.819	4146.73
863.14	4104.69
863.461	4140.17
863.782	4115.77
864.103	4115.09
864.424	4056.79
864.745	4046.16
865.065	4057.69
865.386	4091.59
865.707	4083
866.027	4091.81
866.348	4051.81
866.668	4054.53
866.989	4042.1
867.309	3957.35
867.63	4031.93
867.95	3998.71
868.27	3968.43
868.59	3994.64
868.91	3985.83
869.23	3966.84
869.55	3996
869.87	4029.22
870.19	4001.65
870.51	4014.3
870.83	4003.68
871.15	3974.08
871.469	4000.97
871.789	4018.82
872.109	3967.75
872.428	3891.82
872.748	3936.79
873.067	3948.09
873.386	3902.21
873.706	3894.08
874.025	3850.69
874.344	3857.47
874.663	3877.36
874.982	3883.23
875.301	3864.47
875.62	3865.38
875.939	3831.03
876.258	3818.83
876.577	3866.06
876.896	3806.4
877.214	3814.08
877.533	3778.6
877.852	3811.14
878.17	3854.31
878.489	3856.34
878.807	3816.57
879.125	3748.09
879.444	3807.53
879.762	3756
880.08	3746.06
880.398	3809.56
880.716	3771.82
881.034	3781.76
881.352	3757.58
881.67	3760.75
881.988	3752.61
882.306	3745.61
882.624	3756
882.941	3689.56
883.259	3692.05
883.577	3707.64
883.894	3709.9
884.212	3723.91
884.529	3707.64
884.846	3702.67
885.164	3680.3
885.481	3679.85
885.798	3666.29
886.115	3667.19
886.432	3612.96
886.75	3606.63
887.067	3617.7
887.383	3597.82
887.7	3564.14
888.017	3564.6
888.334	3565.95
888.651	3604.14
888.967	3563.47
889.284	3545.84
889.6	3538.61
889.917	3497.93
890.233	3533.64
890.55	3527.99
890.866	3517.14
891.182	3537.25
891.498	3476.01
891.815	3519.4
892.131	3516.46
892.447	3536.8
892.763	3490.7
893.079	3448.89
893.395	3459.74
893.71	3442.11
894.026	3458.61
894.342	3452.28
894.657	3436.24
894.973	3388.1
895.289	3373.64
895.604	3337.03
895.92	3323.47
896.235	3313.08
896.55	3387.43
896.865	3345.84
897.181	3359.86
897.496	3345.62
897.811	3348.33
898.126	3301.55
898.441	3254.1
898.756	3273.08
899.071	3222.91
899.386	3220.88
899.7	3276.02
900.015	3213.19
900.33	3189.69
900.644	3225.85
900.959	3233.98
901.273	3192.4
901.588	3184.94
901.902	3199.41
902.216	3187.2
902.531	3166.19
902.845	3144.27
903.159	3130.26
903.473	3150.37
903.787	3102.46
904.101	3104.72
904.415	3100.2
904.729	3083.48
905.042	3059.3
905.356	3036.93
905.67	3050.48
905.984	3059.75
906.297	2998.96
906.611	3020.66
906.924	2994.89
907.237	3014.55
907.551	2985.63
907.864	2987.44
908.177	3000.09
908.491	3009.81
908.804	2954.22
909.117	2922.13
909.43	2908.12
909.743	2892.97
910.056	2845.52
910.368	2916.93
910.681	2877.38
910.994	2878.29
911.307	2857.72
911.619	2818.4
911.932	2852.52
912.244	2836.48
912.557	2842.35
912.869	2850.49
913.181	2818.85
913.494	2800.32
913.806	2800.1
914.118	2804.62
914.43	2740.89
914.742	2755.8
915.054	2732.08
915.366	2751.28
915.678	2722.81
915.99	2670.38
916.302	2659.31
916.613	2651.4
916.925	2657.27
917.236	2708.8
917.548	2660.89
917.859	2607.56
918.171	2657.5
918.482	2641
918.794	2622.7
919.105	2644.39
919.416	2573.44
919.727	2564.62
920.038	2576.15
920.349	2544.96
920.66	2577.73
920.971	2572.31
921.282	2529.37
921.593	2494.79
921.903	2516.71
922.214	2524.17
922.525	2549.03
922.835	2497.73
923.146	2429.03
923.456	2496.15
923.767	2462.25
924.077	2477.39
924.387	2438.75
924.697	2462.7
925.008	2404.63
925.318	2418.86
925.628	2407.79
925.938	2407.11
926.248	2406.43
926.558	2363.05
926.867	2374.57
927.177	2392.2
927.487	2366.89
927.796	2350.39
928.106	2338.64
928.416	2330.5
928.725	2327.57
929.034	2305.19
929.344	2318.98
929.653	2279.21
929.962	2305.65
930.271	2254.8
930.581	2255.48
930.89	2230.39
931.199	2246.21
931.508	2279.21
931.817	2259.32
932.125	2263.84
932.434	2209.38
932.743	2195.37
933.051	2149.72
933.36	2181.58
933.669	2169.38
933.977	2160.56
934.286	2156.95
934.594	2161.92
934.902	2163.28
935.21	2154.69
935.519	2150.62
935.827	2114.24
936.135	2127.12
936.443	2087.57
936.751	2065.88
937.059	2102.94
937.367	2098.19
937.674	2114.01
937.982	2046.9
938.29	2065.2
938.597	2055.93
938.905	2043.73
939.213	2039.89
939.52	2050.29
939.827	2067.01
940.135	2048.93
940.442	2014.58
940.749	1992.21
941.056	2028.14
941.363	1987.46
941.67	1993.11
941.977	1964.64
942.284	1937.52
942.591	1941.36
942.898	1931.64
943.205	1924.64
943.511	1923.51
943.818	1916.5
944.125	1893
944.431	1911.98
944.738	1909.05
945.044	1901.81
945.35	1928.71
945.657	1877.41
945.963	1864.3
946.269	1875.83
946.575	1894.36
946.881	1875.6
947.187	1851.65
947.493	1840.12
947.799	1857.52
948.105	1826.34
948.41	1805.55
948.716	1798.99
949.022	1831.99
949.327	1831.99
949.633	1787.92
949.938	1774.59
950.244	1792.66
950.549	1761.03
950.854	1762.61
951.16	1810.74
951.465	1761.48
951.77	1748.82
952.075	1770.29
952.38	1784.3
952.685	1759.9
952.99	1756.73
953.294	1707.7
953.599	1719.67
953.904	1710.41
954.209	1683.52
954.513	1649.17
954.818	1676.74
955.122	1696.85
955.426	1675.15
955.731	1654.82
956.035	1692.33
956.339	1671.54
956.643	1690.29
956.948	1655.95
957.252	1654.82
957.556	1624.99
957.86	1587.7
958.163	1643.74
958.467	1623.18
958.771	1642.61
959.075	1634.48
959.378	1609.62
959.682	1616.17
959.985	1611.88
960.289	1597.64
960.592	1588.38
960.896	1577.98
961.199	1573.24
961.502	1571.2
961.805	1545.44
962.108	1546.8
962.411	1515.61
962.714	1507.7
963.017	1523.52
963.32	1534.14
963.623	1523.75
963.926	1550.64
964.228	1497.98
964.531	1522.16
964.833	1522.84
965.136	1489.17
965.438	1515.16
965.741	1508.83
966.043	1468.38
966.345	1504.31
966.648	1487.36
966.95	1470.41
967.252	1460.02
967.554	1446.69
967.856	1455.27
968.158	1424.99
968.46	1408.27
968.761	1428.38
969.063	1414.14
969.365	1433.35
969.666	1403.52
969.968	1396.52
970.269	1393.13
970.571	1405.1
970.872	1393.35
971.174	1408.04
971.475	1409.85
971.776	1394.03
972.077	1379.57
972.378	1364.43
972.679	1373.01
972.98	1387.48
973.281	1355.61
973.582	1349.74
973.883	1346.35
974.183	1342.28
974.484	1320.36
974.785	1300.02
975.085	1298.89
975.386	1304.09
975.686	1289.4
975.986	1296.86
976.287	1308.84
976.587	1321.04
976.887	1286.24
977.187	1298.67
977.487	1298.89
977.787	1277.65
978.087	1286.92
978.387	1267.93
978.687	1264.54
978.987	1259.8
979.286	1274.71
979.586	1241.72
979.885	1240.36
980.185	1231.78
980.484	1254.6
980.784	1229.06
981.083	1241.94
981.382	1251.21
981.682	1229.74
981.981	1208.05
982.28	1227.26
982.579	1208.73
982.878	1203.75
983.177	1194.04
983.475	1183.42
983.774	1184.77
984.073	1156.98
984.372	1188.16
984.67	1187.26
984.969	1155.85
985.267	1183.19
985.566	1126.69
985.864	1165.56
986.162	1141.83
986.461	1143.42
986.759	1140.7
987.057	1156.3
987.355	1145.68
987.653	1172.57
987.951	1147.71
988.249	1131.89
988.547	1118.56
988.844	1111.78
989.142	1113.36
989.44	1093.47
989.737	1113.81
990.035	1132.57
990.332	1086.02
990.63	1061.61
990.927	1104.32
991.224	1090.76
991.521	1081.72
991.819	1089.63
992.116	1089.18
992.413	1098.9
992.71	1070.88
993.006	1061.16
993.303	1069.29
993.6	1045.34
993.897	1050.76
994.193	1063.19
994.49	1056.64
994.787	1041.05
995.083	1022.52
995.379	1039.24
995.676	1039.01
995.972	1043.31
996.268	1013.93
996.565	1001.73
996.861	1043.31
997.157	1005.79
997.453	995.85
997.749	1004.44
998.044	981.39
998.34	1006.24
998.636	999.01
998.932	975.29
999.227	970.99
999.523	980.26
999.818	993.14
1000.114	967.83
1000.409	948.17
1000.704	958.79
1001	956.3
1001.295	946.59
1001.59	939.13
1001.885	951.1
1002.18	955.62
1002.475	926.47
1002.77	939.13
1003.065	936.64
1003.359	910.65
1003.654	904.78
1003.949	914.72
1004.243	919.69
1004.538	914.72
1004.832	893.03
1005.127	926.92
1005.421	922.18
1005.715	874.5
1006.009	877.89
1006.304	881.95
1006.598	892.12
1006.892	902.97
1007.186	879.47
1007.48	878.34
1007.773	851.67
1008.067	888.28
1008.361	859.81
1008.655	850.54
1008.948	837.44
1009.242	844.89
1009.535	864.55
1009.829	855.06
1010.122	843.76
1010.415	839.92
1010.708	826.59
1011.001	808.96
1011.295	800.37
1011.588	818.91
1011.881	813.26
1012.173	820.71
1012.466	790.21
1012.759	808.06
1013.052	803.54
1013.344	771.67
1013.637	815.97
1013.93	787.04
1014.222	791.11
1014.514	782.52
1014.807	773.26
1015.099	779.81
1015.391	772.13
1015.683	771
1015.976	780.04
1016.268	771
1016.56	758.57
1016.851	763.99
1017.143	752.47
1017.435	756.99
1017.727	749.53
1018.018	744.78
1018.31	762.64
1018.602	716.31
1018.893	718.79
1019.185	739.13
1019.476	724.9
1019.767	709.53
1020.058	717.44
1020.35	720.6
1020.641	718.57
1020.932	705.91
1021.223	706.59
1021.514	692.81
1021.804	708.63
1022.095	695.97
1022.386	680.83
1022.677	688.51
1022.967	692.58
1023.258	684.45
1023.548	682.86
1023.839	673.6
1024.129	673.37
1024.419	679.25
1024.709	675.86
1025	679.47
1025.29	662.75
1025.58	675.63
1025.87	667.95
1026.16	659.14
1026.449	661.62
1026.739	628.85
1027.029	657.1
1027.319	647.38
1027.608	638.12
1027.898	661.17
1028.187	639.47
1028.477	626.14
1028.766	623.43
1029.055	641.51
1029.344	634.73
1029.634	615.97
1029.923	634.73
1030.212	605.58
1030.501	594.5
1030.79	590.66
1031.078	612.81
1031.367	607.61
1031.656	604
1031.945	598.57
1032.233	618.91
1032.522	587.05
1032.81	576.2
1033.099	596.76
1033.387	580.04
1033.675	575.97
1033.963	564.67
1034.251	599.7
1034.54	573.71
1034.828	586.37
1035.116	574.17
1035.403	570.1
1035.691	582.53
1035.979	583.66
1036.267	565.35
1036.554	564.22
1036.842	571
1037.129	555.64
1037.417	560.83
1037.704	545.92
1037.992	546.6
1038.279	544.34
1038.566	535.07
1038.853	535.07
1039.14	535.07
