Data from black_metal_pc_casing_FLMS001491_00094.txt Node
Date: Wed Feb 08 14:33:47 GMT 2017
User: dcchb
Spectrometer: FLMS00149
Trigger mode: 0
Integration Time (sec): 2.000000E-2
Scans to average: 10
Electric dark correction enabled: true
Nonlinearity correction enabled: false
Boxcar width: 0
XAxis mode: Wavelengths
Number of Pixels in Spectrum: 2048
>>>>>Begin Spectral Data<<<<<
341.393	-16.34
341.776	-16.34
342.16	-16.34
342.543	-58.6
342.927	-60.86
343.31	-71.03
343.693	-77.13
344.077	-68.09
344.46	-53.18
344.843	-36.91
345.226	-44.36
345.61	-28.77
345.993	-32.61
346.376	-6.85
346.759	4.9
347.142	44.9
347.525	35.63
347.908	65.24
348.291	66.59
348.674	83.99
349.057	117.67
349.44	109.98
349.823	156.76
350.206	156.76
350.588	173.48
350.971	194.95
351.354	235.4
351.737	225.01
352.119	237.21
352.502	239.92
352.884	252.35
353.267	273.82
353.65	317.89
354.032	298.23
354.414	286.7
354.797	300.49
355.179	289.41
355.562	322.86
355.944	331.22
356.326	313.37
356.709	328.06
357.091	323.99
357.473	320.37
357.855	311.79
358.238	318.11
358.62	326.02
359.002	325.12
359.384	341.39
359.766	346.13
360.148	335.74
360.53	345.46
360.912	336.19
361.294	321.95
361.676	345.23
362.057	339.58
362.439	331.9
362.821	326.93
363.203	325.12
363.584	329.64
363.966	320.37
364.348	314.05
364.729	317.66
365.111	316.53
365.493	317.66
365.874	322.41
366.256	317.66
366.637	311.79
367.019	305.23
367.4	328.73
367.781	311.56
368.163	304.33
368.544	301.62
368.925	312.69
369.306	321.73
369.688	337.32
370.069	315.18
370.45	329.64
370.831	323.54
371.212	319.69
371.593	315.4
371.974	327.6
372.355	315.18
372.736	285.35
373.117	316.98
373.498	322.41
373.879	342.52
374.26	321.95
374.641	313.37
375.021	330.77
375.402	333.48
375.783	326.02
376.163	338.23
376.544	336.64
376.925	336.19
377.305	324.21
377.686	355.4
378.066	355.17
378.447	334.16
378.827	364.44
379.208	364.44
379.588	338.45
379.968	361.28
380.349	357.89
380.729	356.53
381.109	347.26
381.489	347.26
381.87	355.63
382.25	368.06
382.63	347.94
383.01	339.81
383.39	360.15
383.77	362.63
384.15	378.68
384.53	342.75
384.91	369.19
385.29	383.42
385.67	356.98
386.049	366.7
386.429	373.7
386.809	385.46
387.189	379.13
387.568	384.78
387.948	366.7
388.328	354.72
388.707	386.13
389.087	386.36
389.466	378.68
389.846	371.67
390.225	387.26
390.605	417.55
390.984	385.23
391.363	398.11
391.743	392.91
392.122	402.86
392.501	409.86
392.881	438.56
393.26	415.96
393.639	411.9
394.018	406.02
394.397	399.24
394.776	403.31
395.155	429.75
395.534	411.9
395.913	426.81
396.292	430.88
396.671	432.91
397.05	433.36
397.429	433.59
397.808	435.17
398.186	429.3
398.565	452.8
398.944	466.81
399.323	466.81
399.701	439.24
400.08	452.57
400.458	459.13
400.837	486.24
401.215	488.5
401.594	472.23
401.972	470.65
402.351	465.91
402.729	485.34
403.107	459.58
403.486	473.82
403.864	493.02
404.242	477.2
404.62	475.17
404.999	495.96
405.377	494.61
405.755	508.84
406.133	502.52
406.511	517.88
406.889	513.14
407.267	513.81
407.645	523.76
408.023	525.11
408.401	515.4
408.779	529.63
409.156	515.17
409.534	537.54
409.912	554.49
410.29	546.58
410.667	552.23
411.045	553.59
411.422	563.76
411.8	567.82
412.178	566.69
412.555	558.11
412.933	577.99
413.31	596.75
413.687	594.04
414.065	577.32
414.442	580.48
414.819	617.09
415.197	590.87
415.574	626.35
415.951	627.71
416.328	633.81
416.705	639.23
417.082	627.71
417.46	629.07
417.837	641.27
418.214	655.28
418.591	642.4
418.967	659.12
419.344	669.74
419.721	666.13
420.098	660.03
420.475	679.69
420.852	703.87
421.228	684.88
421.605	660.03
421.982	706.13
422.358	695.73
422.735	697.31
423.111	702.74
423.488	739.34
423.864	730.98
424.241	741.83
424.617	720.81
424.994	760.36
425.37	742.06
425.746	751.32
426.123	767.14
426.499	761.94
426.875	749.97
427.251	766.69
427.627	766.46
428.003	790.19
428.379	788.61
428.756	805.33
429.132	816.41
429.507	819.34
429.883	855.27
430.259	841.04
430.635	834.26
431.011	857.53
431.387	824.99
431.763	876.06
432.138	891.43
432.514	876.06
432.89	897.98
433.265	914.71
433.641	912.22
434.016	923.07
434.392	967.14
434.767	943.63
435.143	942.28
435.518	951.32
435.894	972.56
436.269	978.43
436.644	972.33
437.02	989.73
437.395	1005.1
437.77	991.54
438.145	1026.12
438.52	1034.25
438.895	1019.56
439.271	1020.02
439.646	1041.48
440.021	1084.42
440.395	1045.33
440.77	1048.49
441.145	1074.03
441.52	1073.57
441.895	1086.91
442.27	1057.3
442.645	1084.19
443.019	1116.06
443.394	1128.26
443.769	1104.08
444.143	1120.35
444.518	1153.8
444.892	1144.53
445.267	1162.84
445.641	1138.43
446.016	1158.54
446.39	1199.22
446.764	1174.36
447.139	1179.56
447.513	1165.32
447.887	1175.94
448.262	1211.42
448.636	1212.1
449.01	1227.69
449.384	1216.62
449.758	1246.22
450.132	1247.81
450.506	1250.07
450.88	1266.56
451.254	1247.58
451.628	1321.48
452.002	1292.55
452.376	1313.12
452.75	1308.6
453.123	1321.25
453.497	1336.39
453.871	1358.09
454.244	1370.29
454.618	1401.7
454.992	1405.32
455.365	1408.48
455.739	1410.51
456.112	1428.37
456.486	1460.91
456.859	1501.58
457.232	1495.71
457.606	1490.74
457.979	1538.19
458.352	1500.68
458.725	1548.36
459.099	1594.01
459.472	1586.55
459.845	1578.19
460.218	1628.59
460.591	1620.68
460.964	1651.19
461.337	1678.3
461.71	1724.86
462.083	1708.59
462.456	1704.07
462.829	1746.1
463.201	1745.19
463.574	1742.93
463.947	1782.26
464.32	1824.97
464.692	1844.4
465.065	1832.88
465.438	1868.35
465.81	1866.55
466.183	1905.87
466.555	1967.34
466.928	1946.32
467.3	1960.78
467.672	2010.27
468.045	2012.53
468.417	2033.1
468.789	2044.85
469.161	2085.98
469.534	2098.86
469.906	2140.66
470.278	2140.89
470.65	2172.08
471.022	2212.3
471.394	2281.9
471.766	2305.41
472.138	2288.23
472.51	2341.34
472.882	2353.99
473.253	2408.45
473.625	2409.36
473.997	2478.06
474.369	2472.41
474.74	2504.72
475.112	2512.63
475.484	2601.67
475.855	2616.81
476.227	2634.21
476.598	2753.3
476.97	2734.09
477.341	2770.25
477.713	2801.44
478.084	2884.83
478.455	2934.32
478.827	2932.73
479.198	3029.23
479.569	3015.9
479.94	3103.58
480.311	3141.54
480.682	3197.81
481.053	3258.83
481.424	3310.58
481.795	3368.2
482.166	3411.59
482.537	3445.49
482.908	3468.31
483.279	3503.34
483.65	3615.2
484.021	3667.18
484.391	3677.57
484.762	3723.9
485.133	3774.52
485.503	3839.38
485.874	3913.27
486.244	3899.71
486.615	4000.73
486.985	4025.36
487.356	4096.77
487.726	4137.45
488.097	4182.87
488.467	4263.09
488.837	4310.55
489.207	4387.38
489.578	4426.93
489.948	4472.13
490.318	4581.5
490.688	4527.49
491.058	4584.44
491.428	4638.45
491.798	4737.66
492.168	4807.03
492.538	4789.18
492.908	4869.63
493.278	4960.02
493.648	4918.22
494.017	4980.14
494.387	5017.2
494.757	5086.35
495.126	5139.23
495.496	5149.62
495.866	5184.2
496.235	5275.95
496.605	5252.67
496.974	5327.7
497.344	5416.96
497.713	5393.46
498.082	5425.1
498.452	5516.39
498.821	5543.96
499.19	5572.89
499.559	5657.63
499.928	5598.43
500.298	5687.69
500.667	5737.41
501.036	5726.33
501.405	5831.41
501.774	5790.74
502.143	5890.17
502.512	5925.88
502.88	5965.42
503.249	5969.49
503.618	6017.85
503.987	6046.1
504.356	6052.88
504.724	6108.7
505.093	6155.47
505.462	6163.84
505.83	6206.55
506.199	6297.39
506.567	6418.74
506.936	6360.44
507.304	6434.56
507.672	6383.26
508.041	6529.25
508.409	6601.34
508.777	6626.42
509.145	6655.57
509.514	6660.09
509.882	6703.93
510.25	6742.12
510.618	6798.85
510.986	6866.42
511.354	6885.4
511.722	6951.39
512.09	6997.94
512.458	6993.42
512.826	7069.57
513.193	7122.45
513.561	7177.37
513.929	7285.39
514.297	7271.15
514.664	7333.52
515.032	7406.97
515.4	7420.53
515.767	7505.04
516.135	7508.66
516.502	7492.16
516.869	7639.95
517.237	7656.45
517.604	7636.34
517.972	7732.38
518.339	7818.25
518.706	7886.28
519.073	7880.63
519.44	7904.81
519.808	8004.01
520.175	8049.89
520.542	8154.74
520.909	8144.57
521.276	8186.15
521.643	8312.03
522.009	8340.28
522.376	8439.03
522.743	8462.76
523.11	8543.43
523.477	8601.06
523.843	8718.12
524.21	8759.02
524.577	8808.96
524.943	8876.76
525.31	8892.8
525.676	9016.19
526.043	9067.04
526.409	9186.13
526.776	9201.5
527.142	9177.99
527.508	9278.1
527.874	9302.06
528.241	9438.1
528.607	9502.96
528.973	9608.26
529.339	9620.24
529.705	9710.86
530.071	9763.29
530.437	9825.89
530.803	9827.24
531.169	9896.39
531.535	9813.23
531.901	9921.93
532.267	10003.73
532.632	10084.64
532.998	10156.05
533.364	10151.98
533.73	10218.64
534.095	10260.9
534.461	10289.83
534.826	10325.08
535.192	10404.4
535.557	10512.87
535.923	10502.93
536.288	10528.24
536.653	10566.66
537.019	10643.94
537.384	10687.56
537.749	10742.7
538.114	10692.08
538.479	10811.85
538.845	10838.29
539.21	10806.65
539.575	10877.84
539.94	10990.6
540.305	10939.98
540.67	11019.98
541.034	11038.74
541.399	11091.16
541.764	11083.25
542.129	11162.57
542.494	11158.51
542.858	11270.82
543.223	11256.36
543.587	11304.72
543.952	11353.08
544.316	11343.36
544.681	11423.36
545.045	11495.22
545.41	11544.71
545.774	11525.73
546.138	11553.3
546.503	11654.31
546.867	11664.48
547.231	11757.59
547.595	11812.95
547.959	11811.14
548.324	11773.18
548.688	11786.51
549.052	11816.79
549.416	11897.7
549.779	11963.91
550.143	11977.92
550.507	12094.98
550.871	12164.13
551.235	12141.76
551.599	12192.83
551.962	12261.3
552.326	12300.85
552.689	12401.64
553.053	12287.74
553.417	12321.64
553.78	12499.71
554.143	12417.91
554.507	12543.1
554.87	12660.84
555.234	12738.58
555.597	12680.27
555.96	12701.74
556.323	12819.71
556.686	12854.51
557.05	12862.64
557.413	12991.45
557.776	13047.5
558.139	12991.9
558.502	13139.7
558.865	13120.94
559.228	13161.84
559.59	13259.47
559.953	13309.86
560.316	13477.99
560.679	13454.04
561.041	13474.6
561.404	13614.94
561.767	13642.51
562.129	13628.05
562.492	13879.34
562.854	13864.2
563.217	13847.47
563.579	13856.97
563.941	14018.32
564.304	14049.05
564.666	14091.99
565.028	14120.24
565.39	14221.48
565.753	14253.11
566.115	14282.04
566.477	14370.17
566.839	14411.53
567.201	14666.66
567.563	14512.09
567.925	14620.56
568.287	14635.7
568.648	14714.34
569.01	14758.19
569.372	14933.77
569.734	14767.45
570.095	14907.79
570.457	14962.7
570.819	15060.1
571.18	15041.57
571.542	15171.28
571.903	15224.84
572.265	15235.69
572.626	15320.66
572.987	15262.13
573.349	15327.21
573.71	15363.82
574.071	15456.7
574.432	15452.63
574.794	15591.16
575.155	15611.72
575.516	15533.08
575.877	15607.88
576.238	15587.99
576.599	15677.48
576.96	15763.36
577.32	15696.47
577.681	15772.4
578.042	15865.73
578.403	15816.46
578.763	15860.98
579.124	15875.67
579.485	15875.9
579.845	16033.63
580.206	15946.4
580.566	15903.01
580.927	15895.78
581.287	16035.89
581.648	15989.34
582.008	16073.41
582.368	16060.75
582.728	16098.94
583.089	16052.84
583.449	16097.59
583.809	16140.52
584.169	16110.01
584.529	16114.99
584.889	16193.85
585.249	16133.74
585.609	16033.41
585.969	16206.28
586.329	16096
586.688	16176.23
587.048	16109.34
587.408	16119.51
587.768	16102.1
588.127	16133.97
588.487	16124.7
588.846	16298.71
589.206	16125.16
589.565	16174.87
589.925	16270.69
590.284	16213.74
590.643	16239.73
591.003	16180.52
591.362	16321.99
591.721	16267.52
592.08	16288.09
592.44	16295.32
592.799	16332.61
593.158	16336
593.517	16297.58
593.876	16325.15
594.235	16277.24
594.593	16297.35
594.952	16347.3
595.311	16246.28
595.67	16347.07
596.029	16442.66
596.387	16365.37
596.746	16470
597.104	16369.44
597.463	16381.42
597.822	16510.23
598.18	16339.39
598.538	16433.62
598.897	16520.85
599.255	16425.49
599.613	16551.58
599.972	16442.43
600.33	16571.7
600.688	16449.21
601.046	16545.48
601.404	16596.56
601.762	16584.13
602.12	16644.92
602.478	16555.2
602.836	16536.44
603.194	16505.03
603.552	16607.85
603.91	16528.76
604.268	16690.79
604.625	16632.26
604.983	16747.96
605.341	16618.48
605.698	16686.04
606.056	16654.63
606.413	16702.99
606.771	16751.35
607.128	16779.38
607.485	16782.31
607.843	16745.03
608.2	16923.1
608.557	16947.05
608.914	16780.96
609.272	16989.77
609.629	16917.22
609.986	17010.56
610.343	16919.48
610.7	17130.55
611.057	17047.84
611.414	16955.19
611.771	17098.69
612.127	17116.32
612.484	17156.54
612.841	17183.66
613.198	17095.07
613.554	17105.92
613.911	17144.11
614.267	17144.79
614.624	17110.21
614.98	17150.21
615.337	17267.5
615.693	17203.09
616.05	17189.08
616.406	17316.76
616.762	17284.22
617.118	17272.47
617.475	17263.66
617.831	17209.42
618.187	17310.89
618.543	17395.18
618.899	17378.68
619.255	17393.82
619.611	17341.62
619.967	17593.37
620.323	17498
620.678	17413.26
621.034	17263.2
621.39	17412.35
621.746	17368.29
622.101	17542.97
622.457	17371.9
622.812	17365.57
623.168	17460.49
623.523	17460.49
623.879	17487.83
624.234	17360.83
624.589	17514.27
624.945	17466.81
625.3	17485.8
625.655	17519.24
626.01	17513.59
626.365	17523.54
626.72	17493.93
627.075	17507.49
627.43	17486.25
627.785	17477.44
628.14	17454.61
628.495	17561.28
628.85	17474.5
629.205	17452.8
629.559	17427.95
629.914	17433.6
630.269	17400.83
630.623	17367.16
630.978	17310.89
631.332	17378
631.687	17383.2
632.041	17342.98
632.396	17417.32
632.75	17328.06
633.104	17342.07
633.459	17223.43
633.813	17248.52
634.167	17183.88
634.521	17204.9
634.875	17256.2
635.229	17233.6
635.583	17134.17
635.937	17194.51
636.291	17224.79
636.645	17117.9
636.999	17051.23
637.352	17048.97
637.706	17059.14
638.06	17081.97
638.413	17061.85
638.767	17096.2
639.121	16980.95
639.474	16948.41
639.828	16927.85
640.181	16921.07
640.534	16853.72
640.888	16884.46
641.241	16871.35
641.594	16790.45
641.947	16924.68
642.301	16763.78
642.654	16860.5
643.007	16812.14
643.36	16792.93
643.713	16770.34
644.066	16767.17
644.419	16761.07
644.771	16584.8
645.124	16446.05
645.477	16459.61
645.83	16242.67
646.182	16261.42
646.535	16135.1
646.888	16277.69
647.24	16055.1
647.593	16231.59
647.945	16119.51
648.298	16038.6
648.65	16037.02
649.002	15990.02
649.355	16105.72
649.707	16070.02
650.059	16137.36
650.411	16311.36
650.763	16378.26
651.115	16502.77
651.467	16408.76
651.819	16423.23
652.171	16396.11
652.523	16365.83
652.875	16367.63
653.227	16263
653.578	16360.18
653.93	16233.85
654.282	16162.22
654.633	16151.6
654.985	16241.08
655.337	16223.46
655.688	16301.42
656.039	16315.66
656.391	16141.2
656.742	16172.39
657.094	16190.01
657.445	16286.51
657.796	16176.23
658.147	16154.98
658.498	16178.04
658.849	16192.27
659.2	16078.83
659.551	16129
659.902	16159.96
660.253	16044.71
660.604	16034.76
660.955	16036.34
661.306	16084.7
661.656	16067.3
662.007	16055.55
662.358	16008.77
662.708	16041.09
663.059	15970.81
663.409	15856.91
663.76	16085.83
664.11	16035.67
664.461	16003.8
664.811	15966.06
665.161	15980.75
665.511	15809.46
665.862	15835.22
666.212	15919.51
666.562	15987.53
666.912	15967.19
667.262	15850.59
667.612	15907.53
667.962	15898.95
668.312	15884.48
668.662	15948.66
669.011	15808.55
669.361	15882
669.711	15872.73
670.06	15840.42
670.41	15756.35
670.76	15790.47
671.109	15837.25
671.459	15827.31
671.808	15788.21
672.157	15808.33
672.507	15655.56
672.856	15822.56
673.205	15782.57
673.554	15778.72
673.904	15875.44
674.253	15774.43
674.602	15655.56
674.951	15531.05
675.3	15458.96
675.649	15662.34
675.998	15672.74
676.346	15632.96
676.695	15625.28
677.044	15490.37
677.393	15519.97
677.741	15609.24
678.09	15498.73
678.438	15522.69
678.787	15621.21
679.135	15561.55
679.484	15451.73
679.832	15527.66
680.181	15410.6
680.529	15478.39
680.877	15434.55
681.225	15381.45
681.573	15510.48
681.922	15353.65
682.27	15289.7
682.618	15344.61
682.966	15321.56
683.314	15240.21
683.661	15326.31
684.009	15169.7
684.357	15207.67
684.705	15151.4
685.053	15169.25
685.4	15131.06
685.748	15029.36
686.095	15072.08
686.443	15099.42
686.79	14957.28
687.138	15013.32
687.485	15006.99
687.832	14902.59
688.18	14921.12
688.527	14836.15
688.874	14959.31
689.221	14889.03
689.568	14843.38
689.915	14726.77
690.262	14828.47
690.609	14627.79
690.956	14638.41
691.303	14668.24
691.65	14555.93
691.997	14590.28
692.344	14372.88
692.69	14410.4
693.037	14421.92
693.383	14334.47
693.73	14403.17
694.077	14241.36
694.423	14279.55
694.769	14237.3
695.116	14202.27
695.462	14141.93
695.808	14117.52
696.155	14181.25
696.501	14005.66
696.847	14055.61
697.193	13958.88
697.539	13980.8
697.885	13867.14
698.231	13824.2
698.577	13894.03
698.923	13781.49
699.269	13789.85
699.614	13697.42
699.96	13671.66
700.306	13705.78
700.651	13682.96
700.997	13646.12
701.342	13612.68
701.688	13535.17
702.033	13433.47
702.379	13499.24
702.724	13410.88
703.069	13417.2
703.415	13241.16
703.76	13273.93
704.105	13342.63
704.45	13292.69
704.795	13165.68
705.14	13205.01
705.485	13194.16
705.83	13202.75
706.175	13143.54
706.52	13171.79
706.865	12948.29
707.209	13040.04
707.554	12951
707.899	13037.33
708.243	12905.8
708.588	12953.04
708.932	12812.7
709.277	12771.12
709.621	12835.52
709.966	12720.95
710.31	12773.38
710.654	12658.58
710.998	12699.26
711.342	12743.1
711.687	12649.99
712.031	12613.84
712.375	12504.23
712.719	12577.9
713.063	12520.28
713.407	12585.36
713.75	12497.23
714.094	12483.44
714.438	12450.68
714.782	12537.9
715.125	12453.16
715.469	12342.66
715.812	12396.89
716.156	12276.89
716.499	12262.21
716.843	12281.64
717.186	12198.93
717.53	12354.41
717.873	12272.6
718.216	12185.15
718.559	12136.11
718.902	12132.49
719.246	12152.83
719.589	12035.32
719.932	12020.63
720.275	12071.25
720.617	12081.42
720.96	11961.87
721.303	12056.34
721.646	11865.61
721.989	11923.23
722.331	11907.41
722.674	11926.85
723.016	11933.63
723.359	11858.6
723.701	11873.06
724.044	11861.31
724.386	11717.14
724.729	11878.26
725.071	11780.41
725.413	11714.88
725.755	11678.49
726.097	11685.95
726.439	11622.67
726.782	11587.2
727.124	11605.95
727.465	11640.08
727.807	11626.52
728.149	11622.67
728.491	11529.12
728.833	11611.83
729.175	11673.97
729.516	11563.24
729.858	11542.45
730.199	11524.82
730.541	11440.53
730.882	11506.97
731.224	11443.24
731.565	11391.27
731.906	11471.72
732.248	11424.94
732.589	11397.6
732.93	11323.93
733.271	11314.89
733.612	11269.69
733.953	11385.84
734.294	11332.96
734.635	11298.62
734.976	11300.65
735.317	11267.88
735.658	11195.12
735.999	11207.09
736.339	11175
736.68	11195.34
737.021	11167.77
737.361	11104.5
737.702	11095.68
738.042	11066.53
738.383	11134.33
738.723	11139.3
739.063	11029.7
739.404	11141.33
739.744	11071.5
740.084	10986.76
740.424	11057.72
740.764	10997.83
741.104	10997.15
741.444	11008.45
741.784	10936.14
742.124	10964.16
742.464	10888.91
742.804	10948.79
743.143	10888.68
743.483	10847.1
743.823	10810.27
744.162	10814.79
744.502	10832.19
744.841	10780.21
745.181	10878.97
745.52	10756.26
745.86	10808.68
746.199	10748.35
746.538	10748.8
746.877	10726.65
747.216	10648.24
747.556	10593.1
747.895	10691.17
748.234	10653.21
748.573	10638.75
748.911	10589.93
749.25	10555.81
749.589	10594
749.928	10573.44
750.267	10559.65
750.605	10427.23
750.944	10392.65
751.283	10368.7
751.621	10408.92
751.96	10348.58
752.298	10417.06
752.636	10297.51
752.975	10339.54
753.313	10288.92
753.651	10223.84
753.989	10262.94
754.327	10254.35
754.666	10131.87
755.004	10191.53
755.342	10201.47
755.679	10148.36
756.017	10142.94
756.355	10130.28
756.693	10054.13
757.031	10075.14
757.368	9998.99
757.706	10060.91
758.044	9943.62
758.381	9987.01
758.719	9868.82
759.056	9952.44
759.394	9829.5
759.731	9851.87
760.068	9749.5
760.405	9848.26
760.743	9849.39
761.08	9788.6
761.417	9721.93
761.754	9704.31
762.091	9706.11
762.428	9619.11
762.765	9573.91
763.102	9632.44
763.438	9615.72
763.775	9511.32
764.112	9489.17
764.449	9479.91
764.785	9476.52
765.122	9354.26
765.458	9295.05
765.795	9345.45
766.131	9281.04
766.467	9348.61
766.804	9262.28
767.14	9251.44
767.476	9249.86
767.812	9117.2
768.148	9166.92
768.485	9099.58
768.821	9048.51
769.157	9106.58
769.492	9062.52
769.828	9108.62
770.164	9015.96
770.5	9003.08
770.836	8985.68
771.171	8887.15
771.507	8798.79
771.842	8795.86
772.178	8788.85
772.513	8751.56
772.849	8738.23
773.184	8756.31
773.519	8672.7
773.855	8706.82
774.19	8649.65
774.525	8625.92
774.86	8602.87
775.195	8607.16
775.53	8519.48
775.865	8554.51
776.2	8454.85
776.535	8436.09
776.87	8412.82
777.205	8380.27
777.539	8319.03
777.874	8371.46
778.209	8293.95
778.543	8273.16
778.878	8189.54
779.212	8211.69
779.547	8127.85
779.881	8211.01
780.215	8075.88
780.55	8125.37
780.884	8117
781.218	8091.24
781.552	8038.59
781.886	8017.57
782.22	7958.14
782.554	7884.92
782.888	7835.43
783.222	7861.87
783.556	7784.58
783.889	7831.81
784.223	7730.57
784.557	7766.05
784.89	7754.75
785.224	7709.33
785.557	7646.28
785.891	7623.01
786.224	7613.97
786.558	7634.98
786.891	7498.26
787.224	7552.95
787.557	7479.73
787.891	7465.27
788.224	7432.05
788.557	7418.49
788.89	7416.68
789.223	7438.38
789.556	7360.41
789.888	7324.93
790.221	7319.06
790.554	7275.67
790.887	7270.25
791.219	7205.62
791.552	7169.23
791.884	7195.22
792.217	7070.25
792.549	7146.41
792.882	7080.87
793.214	7096.01
793.546	7142.79
793.879	7064.6
794.211	6990.48
794.543	7018.05
794.875	6956.81
795.207	7011.72
795.539	6961.33
795.871	6935.11
796.203	6945.06
796.535	6805.17
796.867	6821.22
797.198	6844.04
797.53	6837.72
797.862	6753.88
798.193	6773.54
798.525	6709.81
798.856	6715.01
799.188	6708.91
799.519	6691.96
799.85	6686.08
800.182	6644.27
800.513	6662.81
800.844	6585.52
801.175	6623.03
801.506	6550.94
801.837	6541.23
802.168	6526.54
802.499	6515.92
802.83	6532.41
803.161	6435.47
803.491	6505.3
803.822	6454.22
804.153	6439.53
804.483	6387.78
804.814	6374
805.145	6391.17
805.475	6364.06
805.805	6334.68
806.136	6351.4
806.466	6348.24
806.796	6264.4
807.126	6254.23
807.457	6264.62
807.787	6231.4
808.117	6210.16
808.447	6228.01
808.777	6191.63
809.107	6139.43
809.436	6161.35
809.766	6097.17
810.096	6109.83
810.426	6042.48
810.755	6047.91
811.085	6084.74
811.414	6068.92
811.744	5968.13
812.073	5971.52
812.403	5984.86
812.732	5963.39
813.061	5944.63
813.39	5925.2
813.719	5935.59
814.049	5957.96
814.378	5945.08
814.707	5871.87
815.036	5903.05
815.365	5860.34
815.693	5793.22
816.022	5794.13
816.351	5801.13
816.68	5821.92
817.008	5783.73
817.337	5751.42
817.665	5756.16
817.994	5755.26
818.322	5731.08
818.651	5693.11
818.979	5680.46
819.307	5727.91
819.636	5683.4
819.964	5628.48
820.292	5678.65
820.62	5658.09
820.948	5675.94
821.276	5693.56
821.604	5643.17
821.932	5628.71
822.259	5690.4
822.587	5630.74
822.915	5609.73
823.243	5668.93
823.57	5630.06
823.898	5618.99
824.225	5594.36
824.553	5621.93
824.88	5585.55
825.207	5652.66
825.535	5636.39
825.862	5580.12
826.189	5593.68
826.516	5615.15
826.843	5613.12
827.17	5614.25
827.497	5593
827.824	5657.18
828.151	5661.7
828.478	5642.27
828.805	5582.16
829.131	5603.62
829.458	5640.01
829.785	5550.74
830.111	5585.77
830.438	5626.67
830.764	5628.03
831.09	5599.56
831.417	5547.35
831.743	5591.65
832.069	5593
832.395	5560.01
832.722	5584.87
833.048	5595.26
833.374	5568.82
833.7	5476.85
834.026	5541.03
834.351	5588.71
834.677	5488.6
835.003	5484.76
835.329	5519.33
835.654	5547.35
835.98	5508.49
836.306	5491.54
836.631	5498.99
836.956	5501.93
837.282	5540.8
837.607	5561.59
837.932	5473.68
838.258	5507.81
838.583	5488.82
838.908	5463.06
839.233	5462.61
839.558	5452.44
839.883	5476.85
840.208	5427.58
840.533	5437.75
840.858	5439.79
841.182	5431.65
841.507	5408.15
841.832	5391.88
842.156	5380.35
842.481	5341.94
842.805	5320.02
843.13	5366.34
843.454	5329.73
843.778	5292.45
844.103	5303.52
844.427	5262.62
844.751	5325.21
845.075	5283.18
845.399	5250.86
845.723	5250.41
846.047	5205.89
846.371	5215.61
846.695	5171.09
847.019	5148.04
847.343	5136.74
847.666	5120.02
847.99	5092.68
848.313	5104.88
848.637	5093.81
848.96	5070.08
849.284	5049.97
849.607	4988.95
849.931	4985.56
850.254	4978.78
850.577	4927.71
850.9	4876.64
851.223	4890.65
851.546	4823.53
851.869	4818.56
852.192	4902.4
852.515	4821.95
852.838	4840.25
853.161	4783.08
853.483	4761.39
853.806	4783.31
854.129	4769.07
854.451	4761.61
854.774	4757.32
855.096	4725.45
855.419	4694.72
855.741	4647.04
856.063	4672.8
856.385	4636.87
856.708	4713.03
857.03	4659.69
857.352	4635.06
857.674	4621.95
857.996	4572.01
858.318	4609.07
858.64	4592.58
858.961	4592.13
859.283	4514.61
859.605	4544.67
859.926	4539.02
860.248	4515.97
860.57	4502.86
860.891	4513.71
861.212	4481.17
861.534	4482.75
861.855	4485.46
862.176	4447.5
862.498	4448.63
862.819	4446.82
863.14	4444.78
863.461	4414.28
863.782	4382.19
864.103	4426.93
864.424	4404.33
864.745	4436.2
865.065	4369.98
865.386	4382.41
865.707	4389.87
866.027	4345.8
866.348	4384.9
866.668	4344.67
866.989	4363.88
867.309	4384.9
867.63	4337.67
867.95	4321.62
868.27	4303.55
868.59	4329.08
868.91	4315.52
869.23	4277.11
869.55	4298.35
869.87	4281.17
870.19	4274.17
870.51	4263.32
870.83	4292.25
871.15	4243.21
871.469	4225.81
871.789	4280.27
872.109	4238.01
872.428	4225.13
872.748	4248.18
873.067	4195.75
873.386	4198.92
873.706	4227.16
874.025	4222.19
874.344	4186.03
874.663	4166.83
874.982	4171.35
875.301	4149.88
875.62	4157.11
875.939	4132.48
876.258	4124.34
876.577	4077.56
876.896	4132.25
877.214	4127.5
877.533	4080.05
877.852	4135.64
878.17	4085.92
878.489	4128.18
878.807	4112.14
879.125	4099.03
879.444	4086.83
879.762	4063.1
880.08	4118.47
880.398	4064.46
880.716	4075.98
881.034	4062.87
881.352	4039.37
881.67	4080.5
881.988	4084.57
882.306	4001.18
882.624	4035.3
882.941	4024.68
883.259	4015.87
883.577	3987.62
883.894	3984.23
884.212	3994.4
884.529	3967.51
884.846	3932.71
885.164	3977.68
885.481	3948.07
885.798	3951.01
886.115	3907.17
886.432	3922.31
886.75	3864.91
887.067	3838.47
887.383	3911.01
887.7	3852.26
888.017	3872.37
888.334	3875.76
888.651	3855.2
888.967	3866.95
889.284	3825.14
889.6	3834.4
889.917	3835.99
890.233	3820.62
890.55	3824.24
890.866	3829.66
891.182	3771.36
891.498	3750.57
891.815	3761.64
892.131	3701.98
892.447	3711.47
892.763	3740.17
893.079	3708.76
893.395	3702.43
893.71	3678.7
894.026	3669.89
894.342	3664.47
894.657	3624.69
894.973	3652.26
895.289	3647.74
895.604	3629.89
895.92	3641.87
896.235	3588.54
896.55	3578.14
896.865	3577.46
897.181	3538.37
897.496	3608.2
897.811	3548.76
898.126	3585.82
898.441	3531.59
898.756	3511.93
899.071	3540.85
899.386	3484.81
899.7	3496.11
900.015	3471.93
900.33	3416.34
900.644	3463.34
900.959	3440.29
901.273	3416.34
901.588	3461.31
901.902	3403.23
902.216	3409.56
902.531	3397.13
902.845	3361.2
903.159	3398.26
903.473	3361.42
903.787	3345.15
904.101	3309.22
904.415	3353.29
904.729	3325.27
905.042	3310.58
905.356	3295.89
905.67	3277.36
905.984	3243.91
906.297	3258.83
906.611	3228.32
906.924	3207.75
907.237	3165.27
907.551	3176.12
907.864	3211.14
908.177	3182.22
908.491	3199.17
908.804	3156.46
909.117	3160.98
909.43	3144.71
909.743	3112.16
910.056	3098.15
910.368	3090.02
910.681	3101.54
910.994	3119.4
911.307	3080.53
911.619	3019.51
911.932	3089.57
912.244	3037.14
912.557	3085.05
912.869	3043.24
913.181	2975.67
913.494	2987.65
913.806	2939.97
914.118	2990.13
914.43	2917.14
914.742	2963.69
915.054	2914.43
915.366	2963.92
915.678	2932.73
915.99	2889.8
916.302	2892.73
916.613	2885.73
916.925	2892.06
917.236	2883.47
917.548	2840.76
917.859	2868.55
918.171	2825.17
918.482	2810.02
918.794	2782.23
919.105	2824.71
919.416	2776.81
919.727	2775.22
920.038	2788.1
920.349	2765.73
920.66	2771.61
920.971	2749.69
921.282	2716.69
921.593	2729.58
921.903	2663.59
922.214	2708.78
922.525	2697.94
922.835	2651.84
923.146	2646.41
923.456	2658.84
923.767	2648.9
924.077	2610.71
924.387	2593.08
924.697	2604.15
925.008	2631.72
925.318	2613.65
925.628	2615.45
925.938	2555.34
926.248	2516.7
926.558	2573.2
926.867	2535.46
927.177	2515.34
927.487	2548.56
927.796	2509.69
928.106	2484.16
928.416	2480.32
928.725	2527.09
929.034	2469.69
929.344	2486.64
929.653	2451.39
929.962	2440.54
930.271	2445.29
930.581	2422.69
930.89	2406.65
931.199	2407.78
931.508	2398.06
931.817	2367.55
932.125	2391.05
932.434	2374.1
932.743	2336.14
933.051	2368.91
933.36	2325.07
933.669	2316.25
933.977	2294.56
934.286	2316.03
934.594	2296.82
934.902	2306.76
935.21	2283.71
935.519	2250.94
935.827	2262.47
936.135	2239.87
936.443	2247.78
936.751	2254.11
937.059	2226.09
937.367	2237.84
937.674	2221.34
937.982	2205.52
938.29	2179.53
938.597	2208.91
938.905	2200.55
939.213	2165.3
939.52	2175.92
939.827	2159.42
940.135	2176.82
940.442	2151.74
940.749	2113.55
941.056	2130.95
941.363	2154.45
941.67	2101.57
941.977	2108.57
942.284	2089.59
942.591	2081.23
942.898	2071.74
943.205	2078.52
943.511	2074.23
943.818	2050.72
944.125	2055.92
944.431	2057.05
944.738	2043.94
945.044	2028.35
945.35	2016.83
945.657	2003.49
945.963	2009.14
946.269	1971.4
946.575	1961.46
946.881	1986.09
947.187	1976.6
947.493	1973.89
947.799	1951.74
948.105	1952.42
948.41	1902.93
948.716	1964.4
949.022	1916.94
949.327	1906.77
949.633	1923.27
949.938	1907.9
950.244	1922.36
950.549	1897.05
950.854	1866.55
951.16	1873.33
951.465	1878.3
951.77	1846.21
952.075	1857.96
952.38	1812.99
952.685	1843.27
952.99	1840.11
953.294	1859.77
953.599	1840.33
953.904	1816.6
954.209	1801.69
954.513	1809.15
954.818	1804.85
955.122	1810.5
955.426	1756.27
955.731	1779.54
956.035	1749.26
956.339	1753.1
956.643	1758.98
956.948	1743.84
957.252	1756.27
957.556	1756.95
957.86	1745.19
958.163	1760.11
958.467	1700.68
958.771	1708.36
959.075	1726.66
959.378	1698.64
959.682	1710.84
959.985	1682.37
960.289	1669.72
960.592	1687.12
960.896	1690.05
961.199	1653.67
961.502	1637.4
961.805	1662.94
962.108	1656.83
962.411	1647.8
962.714	1637.17
963.017	1615.25
963.32	1637.17
963.623	1615.25
963.926	1616.16
964.228	1568.02
964.531	1593.56
964.833	1599.21
965.136	1560.79
965.438	1578.87
965.741	1547.01
966.043	1567.12
966.345	1586.55
966.648	1546.1
966.95	1550.17
967.252	1544.52
967.554	1534.35
967.856	1541.36
968.158	1524.41
968.46	1528.02
968.761	1540.23
969.063	1503.17
969.365	1514.92
969.666	1483.73
969.968	1488.03
970.269	1489.83
970.571	1481.02
970.872	1479.21
971.174	1448.93
971.475	1427.01
971.776	1474.69
972.077	1430.63
972.378	1468.14
972.679	1450.29
972.98	1446.67
973.281	1451.19
973.582	1419.78
973.883	1416.84
974.183	1420.91
974.484	1429.27
974.785	1420.68
975.085	1405.54
975.386	1413.9
975.686	1388.82
975.986	1363.96
976.287	1384.3
976.587	1353.79
976.887	1386.79
977.187	1354.47
977.487	1366.45
977.787	1349.72
978.087	1355.15
978.387	1372.1
978.687	1334.36
978.987	1356.73
979.286	1326.45
979.586	1341.14
979.885	1307.24
980.185	1318.09
980.484	1283.06
980.784	1288.94
981.083	1314.25
981.382	1296.39
981.682	1298.43
981.981	1274.92
982.28	1272.44
982.579	1270.4
982.878	1281.93
983.177	1260.24
983.475	1256.17
983.774	1258.2
984.073	1231.08
984.372	1270.4
984.67	1253.91
984.969	1218.2
985.267	1248.26
985.566	1211.42
985.864	1236.51
986.162	1246.45
986.461	1220.91
986.759	1201.48
987.057	1234.47
987.355	1188.37
987.653	1200.58
987.951	1195.6
988.249	1180.92
988.547	1212.1
988.844	1155.61
989.142	1189.5
989.44	1176.17
989.737	1166.9
990.035	1167.13
990.332	1149.96
990.63	1148.15
990.927	1165.77
991.224	1148.15
991.521	1165.77
991.819	1151.09
992.116	1138.88
992.413	1129.17
992.71	1118.09
993.006	1109.5
993.303	1122.84
993.6	1115.15
993.897	1115.83
994.193	1095.04
994.49	1079.68
994.787	1095.27
995.083	1100.24
995.379	1069.51
995.676	1097.75
995.972	1058.21
996.268	1051.2
996.565	1081.71
996.861	1060.69
997.157	1073.57
997.453	1044.87
997.749	1062.05
998.044	1056.62
998.34	1057.75
998.636	1066.79
998.932	1032.22
999.227	1035.83
999.523	1021.82
999.818	1005.1
1000.114	1008.04
1000.409	1010.52
1000.704	1015.72
1001	1040.58
1001.295	997.19
1001.59	990.41
1001.885	1010.75
1002.18	990.41
1002.475	984.76
1002.77	982.28
1003.065	973.69
1003.359	962.39
1003.654	979.56
1003.949	963.75
1004.243	945.89
1004.538	956.97
1004.832	950.64
1005.127	954.25
1005.421	957.19
1005.715	956.06
1006.009	936.63
1006.304	935.05
1006.598	931.66
1006.892	903.86
1007.186	928.49
1007.48	920.13
1007.773	911.32
1008.067	902.05
1008.361	912.45
1008.655	881.26
1008.948	860.25
1009.242	899.79
1009.535	885.78
1009.829	867.93
1010.122	882.62
1010.415	869.96
1010.708	879.23
1011.001	876.29
1011.295	859.12
1011.588	859.34
1011.881	847.14
1012.173	871.77
1012.466	841.49
1012.759	840.59
1013.052	822.96
1013.344	844.43
1013.637	833.58
1013.93	838.1
1014.222	824.09
1014.514	805.56
1014.807	813.47
1015.099	811.89
1015.391	816.86
1015.683	832.9
1015.976	829.74
1016.268	801.26
1016.56	774.6
1016.851	824.31
1017.143	795.39
1017.435	790.42
1017.727	814.82
1018.018	795.39
1018.31	781.6
1018.602	760.14
1018.893	782.06
1019.185	764.43
1019.476	755.16
1019.767	782.06
1020.058	759.01
1020.35	746.35
1020.641	767.37
1020.932	745.22
1021.223	751.77
1021.514	725.79
1021.804	715.84
1022.095	745.22
1022.386	716.97
1022.677	720.14
1022.967	735.28
1023.258	713.13
1023.548	742.51
1023.839	706.35
1024.129	718.55
1024.419	700.93
1024.709	689.85
1025	695.96
1025.29	683.98
1025.58	669.29
1025.87	697.31
1026.16	694.15
1026.449	667.03
1026.739	695.28
1027.029	695.28
1027.319	658.22
1027.608	645.34
1027.898	648.95
1028.187	658.44
1028.477	679.01
1028.766	641.95
1029.055	664.54
1029.344	643.53
1029.634	632.91
1029.923	643.3
1030.212	628.16
1030.501	635.39
1030.79	627.26
1031.078	646.01
1031.367	634.04
1031.656	614.83
1031.945	613.92
1032.233	619.12
1032.522	612.57
1032.81	631.78
1033.099	617.54
1033.387	622.51
1033.675	620.25
1033.963	593.59
1034.251	621.61
1034.54	596.3
1034.828	611.21
1035.116	599.91
1035.403	606.24
1035.691	585
1035.979	598.78
1036.267	581.61
1036.554	584.77
1036.842	580.93
1037.129	606.69
1037.417	572.8
1037.704	582.06
1037.992	557.43
1038.279	554.94
1038.566	557.65
1038.853	557.65
1039.14	557.65
