Data from black_metal_pc_casing_FLMS001491_00099.txt Node
Date: Wed Feb 08 14:33:48 GMT 2017
User: dcchb
Spectrometer: FLMS00149
Trigger mode: 0
Integration Time (sec): 2.000000E-2
Scans to average: 10
Electric dark correction enabled: true
Nonlinearity correction enabled: false
Boxcar width: 0
XAxis mode: Wavelengths
Number of Pixels in Spectrum: 2048
>>>>>Begin Spectral Data<<<<<
341.393	-8.05
341.776	-8.05
342.16	-8.05
342.543	-57.77
342.927	-55.73
343.31	-58.22
343.693	-65.9
344.077	-63.87
344.46	-58.22
344.843	-43.53
345.226	-28.84
345.61	-56.86
345.993	-32.23
346.376	-3.3
346.759	-8.73
347.142	14.55
347.525	51.38
347.908	83.25
348.291	83.92
348.674	93.87
349.057	92.74
349.44	143.58
349.823	166.86
350.206	163.47
350.588	197.59
350.971	196.24
351.354	224.26
351.737	243.69
352.119	264.48
352.502	264.94
352.884	257.25
353.267	267.87
353.65	297.25
354.032	285.73
354.414	304.26
354.797	321.21
355.179	298.16
355.562	294.09
355.944	325.05
356.326	322.56
356.709	317.59
357.091	326.86
357.473	339.06
357.855	332.73
358.238	339.28
358.62	325.73
359.002	343.8
359.384	329.57
359.766	323.47
360.148	317.36
360.53	326.86
360.912	328.21
361.294	350.36
361.676	339.28
362.057	340.19
362.439	303.81
362.821	319.85
363.203	327.31
363.584	330.25
363.966	309
364.348	319.85
364.729	334.54
365.111	291.6
365.493	315.56
365.874	308.55
366.256	330.25
366.637	310.81
367.019	328.44
367.4	303.13
367.781	309.46
368.163	306.07
368.544	321.66
368.925	304.71
369.306	313.07
369.688	309.23
370.069	316.69
370.45	310.81
370.831	325.95
371.212	307.42
371.593	327.08
371.974	324.37
372.355	307.87
372.736	321.21
373.117	332.96
373.498	323.92
373.879	328.44
374.26	306.74
374.641	311.71
375.021	352.84
375.402	328.21
375.783	338.61
376.163	331.83
376.544	333.41
376.925	332.73
377.305	334.31
377.686	330.25
378.066	348.78
378.447	327.53
378.827	323.69
379.208	351.71
379.588	342
379.968	337.25
380.349	342.9
380.729	355.78
381.109	321.43
381.489	350.36
381.87	338.38
382.25	347.65
382.63	341.32
383.01	356.69
383.39	347.65
383.77	353.75
384.15	345.61
384.53	380.87
384.91	364.14
385.29	353.07
385.67	369.11
386.049	362.11
386.429	369.57
386.809	392.84
387.189	381.32
387.568	379.06
387.948	387.42
388.328	376.12
388.707	387.19
389.087	373.18
389.466	375.67
389.846	414.76
390.225	381.32
390.605	389.23
390.984	392.84
391.363	407.98
391.743	420.41
392.122	398.49
392.501	396.23
392.881	404.82
393.26	420.86
393.639	430.13
394.018	398.72
394.397	426.97
394.776	434.2
395.155	411.15
395.534	404.82
395.913	419.06
396.292	458.38
396.671	427.87
397.05	415.89
397.429	436.46
397.808	445.27
398.186	439.85
398.565	436.23
398.944	444.82
399.323	460.86
399.701	473.29
400.08	453.86
400.458	436.91
400.837	486.85
401.215	459.06
401.594	462.22
401.972	474.65
402.351	471.26
402.729	469.45
403.107	452.95
403.486	481.2
403.864	484.14
404.242	496.57
404.62	469
404.999	499.96
405.377	489.11
405.755	510.58
406.133	516
406.511	523.91
406.889	499.28
407.267	491.82
407.645	526.85
408.023	514.87
408.401	538.38
408.779	517.13
409.156	524.36
409.534	520.52
409.912	551.03
410.29	535.66
410.667	533.86
411.045	563.69
411.422	555.1
411.8	569.11
412.178	589.22
412.555	585.15
412.933	598.94
413.31	608.43
413.687	596.45
414.065	585.83
414.442	590.13
414.819	611.14
415.197	600.75
415.574	597.36
415.951	615.89
416.328	624.48
416.705	632.84
417.082	631.25
417.46	633.74
417.837	645.27
418.214	646.85
418.591	632.84
418.967	642.1
419.344	674.87
419.721	653.17
420.098	669.9
420.475	663.8
420.852	687.75
421.228	695.66
421.605	690.91
421.982	664.47
422.358	693.85
422.735	685.94
423.111	717.58
423.488	709.22
423.864	728.2
424.241	730.24
424.617	725.26
424.994	740.18
425.37	740.86
425.746	744.7
426.123	750.57
426.499	750.12
426.875	754.87
427.251	772.04
427.627	790.57
428.003	796.9
428.379	806.62
428.756	804.81
429.132	813.85
429.507	811.81
429.883	820.85
430.259	832.83
430.635	843.9
431.011	847.07
431.387	873.06
431.763	839.38
432.138	881.64
432.514	879.16
432.89	888.42
433.265	911.93
433.641	915.54
434.016	916.22
434.392	913.51
434.767	966.16
435.143	933.62
435.518	965.26
435.894	965.26
436.269	978.14
436.644	986.5
437.02	1002.77
437.395	995.99
437.77	1008.65
438.145	1031.7
438.52	1021.07
438.895	1013.39
439.271	1024.24
439.646	1062.2
440.021	1060.4
440.395	1078.25
440.77	1084.12
441.145	1095.42
441.52	1095.2
441.895	1095.88
442.27	1106.72
442.645	1116.21
443.019	1132.26
443.394	1123.9
443.769	1144.24
444.143	1145.82
444.518	1161.41
444.892	1134.07
445.267	1147.63
445.641	1152.37
446.016	1166.16
446.39	1173.39
446.764	1195.76
447.139	1199.83
447.513	1171.81
447.887	1202.31
448.262	1210.45
448.636	1202.54
449.01	1226.49
449.384	1256.32
449.758	1246.83
450.132	1273.72
450.506	1256.55
450.88	1268.07
451.254	1278.47
451.628	1274.18
452.002	1313.95
452.376	1274.18
452.75	1312.59
453.123	1309.65
453.497	1328.86
453.871	1358.69
454.244	1379.94
454.618	1369.99
454.992	1402.99
455.365	1382.87
455.739	1425.36
456.112	1427.62
456.486	1444.34
456.859	1450.89
457.232	1471.46
457.606	1485.02
457.979	1508.75
458.352	1522.53
458.725	1554.62
459.099	1567.5
459.472	1572.25
459.845	1600.04
460.218	1642.3
460.591	1637.78
460.964	1627.16
461.337	1663.09
461.71	1686.82
462.083	1701.73
462.456	1696.99
462.829	1722.53
463.201	1752.36
463.574	1765.69
463.947	1783.31
464.32	1817.66
464.692	1841.84
465.065	1856.99
465.438	1848.62
465.81	1886.59
466.183	1915.06
466.555	1909.19
466.928	1943.08
467.3	1970.2
467.672	1976.53
468.045	1996.64
468.417	2023.76
468.789	2030.31
469.161	2083.65
469.534	2074.15
469.906	2136.3
470.278	2150.08
470.65	2202.51
471.022	2254.04
471.394	2222.4
471.766	2256.75
472.138	2296.3
472.51	2338.33
472.882	2340.59
473.253	2434.37
473.625	2452.22
473.997	2485.9
474.369	2498.32
474.74	2499.91
475.112	2561.37
475.484	2599.34
475.855	2606.12
476.227	2656.51
476.598	2716.62
476.97	2737.64
477.341	2789.39
477.713	2838.65
478.084	2861.7
478.455	2875.94
478.827	2934.7
479.198	3004.07
479.569	3042.26
479.94	3129.04
480.311	3152.77
480.682	3207.91
481.053	3316.38
481.424	3266.67
481.795	3338.75
482.166	3398.64
482.537	3414.91
482.908	3516.15
483.279	3513.21
483.65	3596.6
484.021	3637.05
484.391	3652.64
484.762	3719.99
485.133	3797.95
485.503	3843.6
485.874	3870.27
486.244	3934.22
486.615	4019.19
486.985	4052.18
487.356	4133.76
487.726	4173.99
488.097	4171.27
488.467	4206.08
488.837	4338.73
489.207	4392.51
489.578	4441.1
489.948	4462.11
490.318	4537.82
490.688	4534.65
491.058	4619.85
491.428	4674.09
491.798	4705.95
492.168	4759.06
492.538	4806.96
492.908	4850.13
493.278	4898.04
493.648	4957.92
494.017	5009.44
494.387	5023.46
494.757	5099.39
495.126	5145.94
495.496	5170.8
495.866	5216.9
496.235	5244.01
496.605	5322.43
496.974	5334.41
497.344	5357.01
497.713	5401.07
498.082	5439.49
498.452	5497.57
498.821	5546.61
499.19	5627.06
499.559	5624.57
499.928	5701.18
500.298	5683.1
500.667	5735.53
501.036	5787.5
501.405	5778.69
501.774	5843.09
502.143	5908.4
502.512	5933.71
502.88	5924
503.249	5994.96
503.618	6020.27
503.987	6046.48
504.356	6107.95
504.724	6143.43
505.093	6162.18
505.462	6195.18
505.83	6215.06
506.199	6242.41
506.567	6372.8
506.936	6379.13
507.304	6442.85
507.672	6483.98
508.041	6529.63
508.409	6538.22
508.777	6585
509.145	6628.61
509.514	6723.3
509.882	6722.62
510.25	6729.63
510.618	6802.62
510.986	6782.28
511.354	6956.96
511.722	6938.43
512.09	6963.52
512.458	7027.7
512.826	7065.44
513.193	7120.8
513.561	7171.42
513.929	7221.82
514.297	7270.63
514.664	7293
515.032	7302.94
515.4	7407.57
515.767	7490.06
516.135	7427.23
516.502	7446.67
516.869	7677.85
517.237	7656.83
517.604	7669.71
517.972	7780.45
518.339	7805.76
518.706	7828.81
519.073	7871.06
519.44	7953.32
519.808	8038.97
520.175	8057.27
520.542	8131.62
520.909	8233.54
521.276	8235.35
521.643	8262.92
522.009	8357.38
522.376	8386.98
522.743	8508.34
523.11	8573.19
523.477	8572.97
523.843	8693.64
524.21	8716.69
524.577	8829.01
524.943	8902.68
525.31	8947.65
525.676	9022.9
526.043	9068.32
526.409	9156.68
526.776	9204.81
527.142	9276.9
527.508	9280.07
527.874	9346.28
528.241	9428.99
528.607	9481.19
528.973	9536.33
529.339	9573.62
529.705	9682.32
530.071	9739.94
530.437	9813.39
530.803	9851.13
531.169	9961.18
531.535	9881.18
531.901	9987.17
532.267	9973.38
532.632	10106.71
532.998	10154.17
533.364	10206.37
533.73	10128.18
534.095	10226.48
534.461	10363.43
534.826	10354.84
535.192	10436.65
535.557	10466.25
535.923	10572.46
536.288	10552.35
536.653	10619.92
537.019	10612.91
537.384	10594.61
537.749	10660.14
538.114	10698.33
538.479	10743.53
538.845	10828.05
539.21	10860.59
539.575	10917.31
539.94	10900.14
540.305	10926.35
540.67	11005.45
541.034	11079.34
541.399	11118.66
541.764	11054.03
542.129	11143.75
542.494	11162.05
542.858	11242.95
543.223	11293.8
543.587	11326.57
543.952	11342.84
544.316	11368.37
544.681	11483.62
545.045	11425.55
545.41	11536.28
545.774	11588.48
546.138	11596.16
546.503	11628.93
546.867	11629.38
547.231	11763.84
547.595	11782.15
547.959	11813.79
548.324	11797.06
548.688	11857.4
549.052	11963.39
549.416	11880.68
549.779	11966.55
550.143	11995.48
550.507	12107.34
550.871	12144.4
551.235	12149.37
551.599	12209.48
551.962	12237.96
552.326	12275.92
552.689	12357.95
553.053	12337.39
553.417	12395.01
553.78	12498.29
554.143	12426.65
554.507	12543.03
554.87	12663.03
555.234	12713.42
555.597	12669.13
555.96	12693.99
556.323	12812.18
556.686	12823.93
557.05	12942.12
557.413	12968.33
557.776	12955
558.139	13012.17
558.502	13019.18
558.865	13088.33
559.228	13210.81
559.59	13296.91
559.953	13229.12
560.316	13424.36
560.679	13429.11
561.041	13495.78
561.404	13681.31
561.767	13717.46
562.129	13654.19
562.492	13853.51
562.854	13799.27
563.217	13822.32
563.579	13884.01
563.941	13957.01
564.304	14012.6
564.666	14108.41
565.028	14155.64
565.39	14185.25
565.753	14244.23
566.115	14394.73
566.477	14393.15
566.839	14309.31
567.201	14521.06
567.563	14479.48
567.925	14620.04
568.287	14748.85
568.648	14673.37
569.01	14796.08
569.372	14841.05
569.734	14781.17
570.095	14938.68
570.457	15003.08
570.819	15038.79
571.18	15046.92
571.542	15173.7
571.903	15186.13
572.265	15234.49
572.626	15371.21
572.987	15320.13
573.349	15293.69
573.71	15345.44
574.071	15453.24
574.432	15577.98
574.794	15594.25
575.155	15622.5
575.516	15491.65
575.877	15579.56
576.238	15690.52
576.599	15662.05
576.96	15705.21
577.32	15714.93
577.681	15766.68
578.042	15774.36
578.403	15782.49
578.763	15920.12
579.124	15921.25
579.485	15933.9
579.845	16006.44
580.206	15979.78
580.566	15977.07
580.927	15991.3
581.287	16096.38
581.648	15950.85
582.008	16104.29
582.368	16039.89
582.728	16100.23
583.089	16077.18
583.449	16082.83
583.809	16106.1
584.169	16098.87
584.529	16047.57
584.889	16253.22
585.249	16029.49
585.609	16060.91
585.969	16144.74
586.329	16170.73
586.688	16182.03
587.048	16108.14
587.408	16092.77
587.768	16123.05
588.127	16084.86
588.487	16149.49
588.846	16309.03
589.206	16145.65
589.565	16233.33
589.925	16213.44
590.284	16113.11
590.643	16155.37
591.003	16170.51
591.362	16208.02
591.721	16357.62
592.08	16227.91
592.44	16366.21
592.799	16416.15
593.158	16344.74
593.517	16215.48
593.876	16289.37
594.235	16361.46
594.593	16262.26
594.952	16343.61
595.311	16266.1
595.67	16313.1
596.029	16431.52
596.387	16503.38
596.746	16436.04
597.104	16290.96
597.463	16341.58
597.822	16422.93
598.18	16389.26
598.538	16384.96
598.897	16459.31
599.255	16437.62
599.613	16609.14
599.972	16555.58
600.33	16518.97
600.688	16444.62
601.046	16555.36
601.404	16631.29
601.762	16530.5
602.12	16612.98
602.478	16618.63
602.836	16638.29
603.194	16509.48
603.552	16542.25
603.91	16600.55
604.268	16554.68
604.625	16583.6
604.983	16760.32
605.341	16600.78
605.698	16658.18
606.056	16826.08
606.413	16670.83
606.771	16756.03
607.128	16812.75
607.485	16787.44
607.843	16777.95
608.2	16810.49
608.557	16928
608.914	16838.29
609.272	16940.43
609.629	16917.15
609.986	16986.98
610.343	16792.86
610.7	17058.85
611.057	16935.68
611.414	17016.13
611.771	17055.23
612.127	17106.08
612.484	17052.07
612.841	17092.74
613.198	17012.52
613.554	17067.66
613.911	17133.42
614.267	17141.33
614.624	17144.27
614.98	17184.94
615.337	17242.12
615.693	17232.4
616.05	17179.29
616.406	17287.31
616.762	17318.73
617.118	17149.69
617.475	17304.04
617.831	17336.13
618.187	17358.05
618.543	17331.83
618.899	17357.59
619.255	17371.38
619.611	17385.84
619.967	17459.06
620.323	17436.69
620.678	17422
621.034	17374.54
621.39	17408.21
621.746	17435.56
622.101	17473.98
622.457	17464.71
622.812	17483.92
623.168	17555.78
623.523	17429.23
623.879	17559.62
624.234	17374.09
624.589	17566.18
624.945	17568.66
625.3	17486.18
625.655	17397.37
626.01	17488.44
626.365	17538.83
626.72	17509
627.075	17504.94
627.43	17466.97
627.785	17497.7
628.14	17479.63
628.495	17530.02
628.85	17506.07
629.205	17496.57
629.559	17487.99
629.914	17360.98
630.269	17406.63
630.623	17273.75
630.978	17408.44
631.332	17401.44
631.687	17352.17
632.041	17412.96
632.396	17356.46
632.75	17285.05
633.104	17342
633.459	17234.21
633.813	17280.31
634.167	17253.64
634.521	17247.99
634.875	17310.59
635.229	17184.72
635.583	17101.56
635.937	17160.76
636.291	17175.9
636.645	17178.62
636.999	17095.91
637.352	17139.52
637.706	17032.41
638.06	17116.47
638.413	17104.72
638.767	17038.28
639.121	16946.31
639.474	16882.13
639.828	16887.32
640.181	16952.18
640.534	16957.15
640.888	16828.12
641.241	16824.28
641.594	16871.28
641.947	16870.38
642.301	16788.12
642.654	16824.5
643.007	16829.25
643.36	16836.25
643.713	16821.56
644.066	16761.9
644.419	16780.89
644.771	16604.62
645.124	16431.07
645.477	16373.67
645.83	16322.59
646.182	16298.87
646.535	16143.39
646.888	16199.21
647.24	16159.43
647.593	16171.41
647.945	16178.64
648.298	16060.23
648.65	16114.46
649.002	16070.62
649.355	16070.17
649.707	16139.55
650.059	16094.58
650.411	16304.97
650.763	16299.32
651.115	16470.84
651.467	16433.32
651.819	16403.27
652.171	16351.52
652.523	16424.96
652.875	16336.38
653.227	16388.35
653.578	16310.62
653.93	16295.48
654.282	16238.53
654.633	16144.29
654.985	16280.11
655.337	16141.13
655.688	16254.8
656.039	16285.08
656.391	16177.29
656.742	16180.9
657.094	16207.57
657.445	16233.56
657.796	16156.04
658.147	16156.72
658.498	16166.67
658.849	16193.78
659.2	16178.19
659.551	16154.24
659.902	16170.96
660.253	16172.54
660.604	16103.62
660.955	16067.68
661.306	16077.85
661.656	16030.62
662.007	15993.11
662.358	16019.55
662.708	16046.22
663.059	16040.11
663.409	15932.55
663.76	16017.29
664.11	15968.03
664.461	15925.32
664.811	16036.05
665.161	15982.72
665.511	15916.5
665.862	15845.77
666.212	15962.6
666.562	16031.98
666.912	15988.14
667.262	15947.01
667.612	15889.61
667.962	15961.02
668.312	15882.6
668.662	15987.69
669.011	15942.04
669.361	15902.72
669.711	15872.21
670.06	15907.46
670.41	15869.72
670.76	15779.1
671.109	15873.79
671.459	15823.85
671.808	15790.63
672.157	15919.67
672.507	15704.76
672.856	15756.28
673.205	15824.53
673.554	15840.57
673.904	15722.38
674.253	15730.07
674.602	15810.29
674.951	15556.51
675.3	15446.46
675.649	15620.92
675.998	15660.46
676.346	15726.22
676.695	15704.53
677.044	15544.31
677.393	15654.59
677.741	15527.59
678.09	15553.12
678.438	15508.83
678.787	15631.54
679.135	15535.72
679.484	15435.84
679.832	15473.35
680.181	15365.33
680.529	15452.79
680.877	15407.82
681.225	15356.29
681.573	15516.06
681.922	15315.84
682.27	15331.66
682.618	15408.49
682.966	15299.34
683.314	15288.72
683.661	15228.16
684.009	15164.88
684.357	15191.55
684.705	15134.6
685.053	15175.05
685.4	15157.88
685.748	15028.62
686.095	15025.45
686.443	15036.98
686.79	15023.19
687.138	15021.38
687.485	14999.92
687.832	14908.62
688.18	14935.06
688.527	14870.65
688.874	14867.49
689.221	14778
689.568	14765.12
689.915	14750.66
690.262	14772.58
690.609	14603.77
690.956	14702.52
691.303	14648.29
691.65	14568.06
691.997	14550.21
692.344	14443.09
692.69	14450.1
693.037	14489.87
693.383	14248.98
693.73	14372.59
694.077	14290.1
694.423	14293.95
694.769	14225.7
695.116	14243.33
695.462	14175.76
695.808	14072.03
696.155	14160.62
696.501	13979.83
696.847	13964.24
697.193	13906.84
697.539	13907.74
697.885	13830.23
698.231	13824.35
698.577	13783.9
698.923	13809.44
699.269	13737.12
699.614	13763.34
699.96	13637.24
700.306	13628.65
700.651	13658.71
700.997	13630.69
701.342	13563.34
701.688	13547.3
702.033	13541.2
702.379	13516.57
702.724	13411.94
703.069	13528.54
703.415	13285.16
703.76	13250.36
704.105	13306.63
704.45	13265.5
704.795	13258.27
705.14	13189.12
705.485	13200.42
705.83	13108.67
706.175	13069.57
706.52	13100.31
706.865	12997.71
707.209	12987.09
707.554	12975.11
707.899	12976.92
708.243	12884.94
708.588	12934.66
708.932	12846.07
709.277	12804.04
709.621	12825.96
709.966	12753.42
710.31	12734.89
710.654	12659.64
710.998	12628
711.342	12704.16
711.687	12675.46
712.031	12589.36
712.375	12597.49
712.719	12554.33
713.063	12571.05
713.407	12593.2
713.75	12457.38
714.094	12497.16
714.438	12508.46
714.782	12536.93
715.125	12464.39
715.469	12432.75
715.812	12388.91
716.156	12281.12
716.499	12303.72
716.843	12247.9
717.186	12187.11
717.53	12247.9
717.873	12209.03
718.216	12192.76
718.559	12076.83
718.902	12064.4
719.246	12116.38
719.589	12156.38
719.932	12060.78
720.275	12043.61
720.617	12060.11
720.96	11990.96
721.303	11924.52
721.646	11921.35
721.989	11859.43
722.331	11994.35
722.674	11892.88
723.016	11921.35
723.359	11945.76
723.701	11891.52
724.044	11774.01
724.386	11743.05
724.729	11841.13
725.071	11794.8
725.413	11710.96
725.755	11759.1
726.097	11676.84
726.439	11632.32
726.782	11609.27
727.124	11676.61
727.465	11633.23
727.807	11611.08
728.149	11569.95
728.491	11596.84
728.833	11614.02
729.175	11553.23
729.516	11569.95
729.858	11560.68
730.199	11465.09
730.541	11500.35
730.882	11461.25
731.224	11447.92
731.565	11437.07
731.906	11370.41
732.248	11435.49
732.589	11469.61
732.93	11331.76
733.271	11381.71
733.612	11401.82
733.953	11347.13
734.294	11286.34
734.635	11266.46
734.976	11258.55
735.317	11254.48
735.658	11190.3
735.999	11236.17
736.339	11203.18
736.68	11241.82
737.021	11155.27
737.361	11133.8
737.702	11139.68
738.042	11127.48
738.383	11120.24
738.723	11136.06
739.063	11120.24
739.404	11066.01
739.744	11012.45
740.084	10982.39
740.424	11035.95
740.764	10983.75
741.104	11029.85
741.444	10951.66
741.784	10967.48
742.124	10917.54
742.464	10914.6
742.804	10865.56
743.143	10880.02
743.483	10846.13
743.823	10871.44
744.162	10816.52
744.502	10872.57
744.841	10767.03
745.181	10785.34
745.52	10746.24
745.86	10804.32
746.199	10704.89
746.538	10687.71
746.877	10705.79
747.216	10716.87
747.556	10629.41
747.895	10717.32
748.234	10601.61
748.573	10632.57
748.911	10560.94
749.25	10588.73
749.589	10540.6
749.928	10566.13
750.267	10605.23
750.605	10508.73
750.944	10508.51
751.283	10468.51
751.621	10421.73
751.96	10395.52
752.298	10377.66
752.636	10373.15
752.975	10253.6
753.313	10316.88
753.651	10303.99
753.989	10191.23
754.327	10266.93
754.666	10149.2
755.004	10225.8
755.342	10199.82
755.679	10134.96
756.017	10151.23
756.355	10146.26
756.693	10106.26
757.031	10108.97
757.368	9967.96
757.706	9986.94
758.044	9996.43
758.381	10009.09
758.719	9928.64
759.056	9949.88
759.394	9944.23
759.731	9881.86
760.068	9875.76
760.405	9865.59
760.743	9823.33
761.08	9754.86
761.417	9808.19
761.754	9698.13
762.091	9679.6
762.428	9597.35
762.765	9595.09
763.102	9607.29
763.438	9512.6
763.775	9511.93
764.112	9512.83
764.449	9488.42
764.785	9504.69
765.122	9336.34
765.458	9365.26
765.795	9384.7
766.131	9287.07
766.467	9274.42
766.804	9224.93
767.14	9257.47
767.476	9220.18
767.812	9154.65
768.148	9148.09
768.485	9136.34
768.821	9133.86
769.157	9066.96
769.492	9050.47
769.828	9065.38
770.164	8983.35
770.5	8988.32
770.836	8998.49
771.171	8920.98
771.507	8859.96
771.842	8805.05
772.178	8762.34
772.513	8792.4
772.849	8778.84
773.184	8699.29
773.519	8624.49
773.855	8675.56
774.19	8702.91
774.525	8620.65
774.86	8603.25
775.195	8627.88
775.53	8544.49
775.865	8485.51
776.2	8464.95
776.535	8446.64
776.87	8446.87
777.205	8402.8
777.539	8385.85
777.874	8339.53
778.209	8277.38
778.543	8258.4
778.878	8172.53
779.212	8216.82
779.547	8121.91
779.881	8142.92
780.215	8117.84
780.55	8096.82
780.884	8049.82
781.218	8072.41
781.552	7975.47
781.886	7957.62
782.22	7973.66
782.554	7939.31
782.888	7889.82
783.222	7814.79
783.556	7787.22
783.889	7820.67
784.223	7714.91
784.557	7718.98
784.89	7756.94
785.224	7638.98
785.557	7670.62
785.891	7640.56
786.224	7632.65
786.558	7586.78
786.891	7514.01
787.224	7515.14
787.557	7487.35
787.891	7509.27
788.224	7483.73
788.557	7465.88
788.89	7421.58
789.223	7388.37
789.556	7338.42
789.888	7364.86
790.221	7293.9
790.554	7309.5
790.887	7292.32
791.219	7222.04
791.552	7217.97
791.884	7174.13
792.217	7145.21
792.549	7139.33
792.882	7055.27
793.214	7120.58
793.546	7071.09
793.879	6991.31
794.211	6978.43
794.543	7014.59
794.875	7043.06
795.207	7031.99
795.539	6901.37
795.871	6961.03
796.203	6871.32
796.535	6801.26
796.867	6811.66
797.198	6755.39
797.53	6808.95
797.862	6761.49
798.193	6781.6
798.525	6755.61
798.856	6759
799.188	6697.99
799.519	6631.77
799.85	6581.15
800.182	6639.91
800.513	6601.72
800.844	6626.35
801.175	6619.8
801.506	6580.02
801.837	6554.04
802.168	6560.14
802.499	6458.45
802.83	6476.52
803.161	6463.42
803.491	6471.1
803.822	6473.81
804.153	6386.13
804.483	6396.07
804.814	6323.53
805.145	6368.73
805.475	6332.12
805.805	6340.71
806.136	6336.42
806.466	6304.55
806.796	6257.1
807.126	6203.99
807.457	6216.64
807.787	6226.14
808.117	6201.96
808.447	6191.79
808.777	6215.06
809.107	6158.57
809.436	6182.97
809.766	6119.25
810.096	6055.29
810.426	6071.79
810.755	6086.25
811.085	6070.43
811.414	6016.65
811.744	6056.42
812.073	6018.68
812.403	6034.95
812.732	5981.17
813.061	6015.29
813.39	5929.19
813.719	5916.31
814.049	6003.99
814.378	5873.38
814.707	5862.76
815.036	5912.92
815.365	5835.64
815.693	5815.07
816.022	5836.99
816.351	5811.01
816.68	5788.63
817.008	5810.55
817.337	5759.71
817.665	5749.09
817.994	5760.39
818.322	5730.33
818.651	5722.87
818.979	5691.23
819.307	5733.95
819.636	5707.73
819.964	5606.04
820.292	5663.44
820.62	5660.05
820.948	5615.08
821.276	5658.69
821.604	5658.47
821.932	5662.53
822.259	5617.34
822.587	5629.99
822.915	5598.36
823.243	5662.31
823.57	5612.82
823.898	5636.77
824.225	5642.2
824.553	5602.88
824.88	5589.77
825.207	5584.12
825.535	5578.7
825.862	5605.81
826.189	5608.52
826.516	5591.35
826.843	5581.63
827.17	5587.96
827.497	5654.63
827.824	5615.53
828.151	5606.72
828.478	5601.97
828.805	5599.26
829.131	5608.07
829.458	5626.83
829.785	5544.8
830.111	5566.49
830.438	5629.99
830.764	5613.5
831.09	5602.65
831.417	5569.43
831.743	5640.16
832.069	5617.56
832.395	5643.1
832.722	5621.41
833.048	5606.94
833.374	5555.64
833.7	5566.49
834.026	5544.57
834.351	5573.05
834.677	5519.49
835.003	5561.97
835.329	5532.82
835.654	5564.91
835.98	5482.88
836.306	5535.31
836.631	5516.78
836.956	5554.51
837.282	5470.22
837.607	5531.69
837.932	5439.04
838.258	5486.49
838.583	5468.87
838.908	5486.04
839.233	5448.98
839.558	5471.58
839.883	5442.88
840.208	5433.84
840.533	5431.13
840.858	5381.41
841.182	5428.19
841.507	5410.79
841.832	5372.15
842.156	5381.86
842.481	5384.35
842.805	5284.69
843.13	5330.57
843.454	5337.12
843.778	5303.22
844.103	5362.88
844.427	5341.41
844.751	5324.24
845.075	5287.86
845.399	5299.38
845.723	5240.17
846.047	5179.16
846.371	5179.16
846.695	5199.04
847.019	5153.17
847.343	5149.55
847.666	5098.48
847.99	5056.22
848.313	5111.59
848.637	5086.05
848.96	5018.03
849.284	4994.08
849.607	5005.83
849.931	4995.89
850.254	5025.26
850.577	4953.4
850.9	4903.46
851.223	4890.58
851.546	4886.51
851.869	4804.25
852.192	4850.58
852.515	4794.08
852.838	4759.28
853.161	4822.33
853.483	4814.42
853.806	4754.76
854.129	4751.82
854.451	4784.82
854.774	4742.78
855.096	4718.38
855.419	4670.24
855.741	4736.01
856.063	4681.32
856.385	4692.39
856.708	4671.83
857.03	4613.75
857.352	4693.29
857.674	4626.4
857.996	4616.23
858.318	4611.04
858.64	4583.02
858.961	4553.86
859.283	4512.28
859.605	4504.6
859.926	4517.71
860.248	4541.21
860.57	4549.12
860.891	4489.46
861.212	4491.27
861.534	4489.23
861.855	4492.85
862.176	4476.35
862.498	4540.3
862.819	4458.27
863.14	4427.99
863.461	4435.67
863.782	4419.4
864.103	4407.88
864.424	4394.09
864.745	4417.37
865.065	4392.96
865.386	4379.18
865.707	4347.09
866.027	4359.74
866.348	4384.83
866.668	4352.29
866.989	4356.13
867.309	4340.76
867.63	4320.2
867.95	4308.9
868.27	4303.02
868.59	4333.76
868.91	4327.43
869.23	4291.5
869.55	4293.76
869.87	4284.94
870.19	4244.94
870.51	4290.37
870.83	4207.43
871.15	4221.67
871.469	4263.48
871.789	4220.76
872.109	4241.78
872.428	4233.19
872.748	4236.13
873.067	4251.05
873.386	4221.67
873.706	4184.16
874.025	4197.94
874.344	4149.35
874.663	4136.02
874.982	4195.91
875.301	4194.1
875.62	4148.68
875.939	4126.08
876.258	4122.69
876.577	4131.28
876.896	4156.81
877.214	4139.18
877.533	4121.78
877.852	4097.38
878.17	4107.77
878.489	4111.84
878.807	4060.77
879.125	4073.88
879.444	4066.87
879.762	4061.45
880.08	4077.49
880.398	4055.35
880.716	4079.53
881.034	3995.69
881.352	4047.44
881.67	4045.85
881.988	4029.58
882.306	4018.51
882.624	4022.58
882.941	3994.33
883.259	3963.82
883.577	4002.01
883.894	3987.78
884.212	3983.48
884.529	4003.6
884.846	3975.8
885.164	3981.22
885.481	3983.71
885.798	3953.43
886.115	3919.98
886.432	3913.43
886.75	3919.76
887.067	3946.65
887.383	3891.28
887.7	3861.23
888.017	3910.49
888.334	3863.26
888.651	3865.52
888.967	3859.87
889.284	3840.44
889.6	3861
889.917	3798.85
890.233	3802.47
890.55	3791.4
890.866	3779.19
891.182	3787.78
891.498	3768.35
891.815	3787.78
892.131	3748.23
892.447	3713.89
892.763	3690.16
893.079	3677.05
893.395	3673.89
893.71	3717.28
894.026	3685.86
894.342	3674.56
894.657	3651.74
894.973	3617.16
895.289	3645.64
895.604	3630.5
895.92	3633.89
896.235	3635.47
896.55	3622.14
896.865	3603.61
897.181	3582.36
897.496	3583.27
897.811	3574.45
898.126	3541.91
898.441	3498.75
898.756	3522.7
899.071	3484.96
899.386	3521.12
899.7	3498.3
900.015	3483.16
900.33	3443.84
900.644	3468.92
900.959	3470.05
901.273	3411.75
901.588	3437.73
901.902	3378.53
902.216	3398.87
902.531	3394.35
902.845	3388.02
903.159	3348.92
903.473	3333.56
903.787	3328.36
904.101	3308.7
904.415	3318.42
904.729	3315.93
905.042	3330.84
905.356	3231.64
905.67	3284.29
905.984	3255.14
906.297	3248.59
906.611	3221.24
906.924	3232.09
907.237	3209.94
907.551	3216.27
907.864	3194.58
908.177	3223.95
908.491	3165.2
908.804	3175.82
909.117	3156.39
909.43	3114.13
909.743	3157.06
910.056	3098.99
910.368	3127.91
910.681	3108.25
910.994	3057.63
911.307	3063.73
911.619	3036.16
911.932	3048.59
912.244	3064.86
912.557	3041.36
912.869	3024.41
913.181	3015.37
913.494	3000.01
913.806	2928.37
914.118	2943.96
914.43	2928.82
914.742	2940.57
915.054	2926.11
915.366	2937.86
915.678	2925.43
915.99	2899.67
916.302	2879.56
916.613	2876.17
916.925	2851.54
917.236	2866.22
917.548	2863.74
917.859	2873.46
918.171	2851.99
918.482	2829.61
918.794	2837.07
919.105	2796.62
919.416	2773.57
919.727	2744.65
920.038	2760.01
920.349	2746
920.66	2738.77
920.971	2764.31
921.282	2760.46
921.593	2727.24
921.903	2658.77
922.214	2677.98
922.525	2680.01
922.835	2673.23
923.146	2655.38
923.456	2638.21
923.767	2649.73
924.077	2628.94
924.387	2655.16
924.697	2629.85
925.008	2634.37
925.318	2579.23
925.628	2581.94
925.938	2571.09
926.248	2564.54
926.558	2574.71
926.867	2535.16
927.177	2534.26
927.487	2544.2
927.796	2478.44
928.106	2522.5
928.416	2510.98
928.725	2474.37
929.034	2472.11
929.344	2480.25
929.653	2431.66
929.962	2414.48
930.271	2455.84
930.581	2413.13
930.89	2401.15
931.199	2413.35
931.508	2425.78
931.817	2397.76
932.125	2399.12
932.434	2371.55
932.743	2368.84
933.051	2350.08
933.36	2329.52
933.669	2313.02
933.977	2339.91
934.286	2286.35
934.594	2285.9
934.902	2279.35
935.21	2305.33
935.519	2279.8
935.827	2280.48
936.135	2268.95
936.443	2257.88
936.751	2245.22
937.059	2226.47
937.367	2236.41
937.674	2210.42
937.982	2235.51
938.29	2207.94
938.597	2218.56
938.905	2157.09
939.213	2220.59
939.52	2157.77
939.827	2167.03
940.135	2169.52
940.442	2165.23
940.749	2132.68
941.056	2137.2
941.363	2136.53
941.67	2100.37
941.977	2113.02
942.284	2088.84
942.591	2117.32
942.898	2058.11
943.205	2092.91
943.511	2089.07
943.818	2072.8
944.125	2028.73
944.431	2038.9
944.738	2035.29
945.044	2024.44
945.35	2026.7
945.657	2003.87
945.963	1974.72
946.269	2024.66
946.575	2028.51
946.881	1972.46
947.187	1983.99
947.493	1958.9
947.799	1911.67
948.105	1941.95
948.41	1924.33
948.716	1906.25
949.022	1934.72
949.327	1902.63
949.633	1943.76
949.938	1906.93
950.244	1897.21
950.549	1869.64
950.854	1870.77
951.16	1875.74
951.465	1871.22
951.77	1866.93
952.075	1851.79
952.38	1841.17
952.685	1836.87
952.99	1856.08
953.294	1848.4
953.599	1799.81
953.904	1793.03
954.209	1784.44
954.513	1799.59
954.818	1781.73
955.122	1781.05
955.426	1779.47
955.731	1770.43
956.035	1776.76
956.339	1745.12
956.643	1811.34
956.948	1742.41
957.252	1748.74
957.556	1754.61
957.86	1733.6
958.163	1734.95
958.467	1713.71
958.771	1723.43
959.075	1707.84
959.378	1678.46
959.682	1729.08
959.985	1697.67
960.289	1675.52
960.592	1671.68
960.896	1673.04
961.199	1688.4
961.502	1659.25
961.805	1683.43
962.108	1669.87
962.411	1662.87
962.714	1626.03
963.017	1621.29
963.32	1638.23
963.623	1613.15
963.926	1640.27
964.228	1603.88
964.531	1587.16
964.833	1614.28
965.136	1580.83
965.438	1579.48
965.741	1562.08
966.043	1586.03
966.345	1568.18
966.648	1529.31
966.95	1577.67
967.252	1567.5
967.554	1553.26
967.856	1566.37
968.158	1533.83
968.46	1499.25
968.761	1502.87
969.063	1511.46
969.365	1501.06
969.666	1488.18
969.968	1499.03
970.269	1520.72
970.571	1464
970.872	1481.18
971.174	1482.76
971.475	1469.2
971.776	1444.57
972.077	1448.63
972.378	1453.83
972.679	1450.22
972.98	1447.28
973.281	1436.66
973.582	1465.58
973.883	1414.51
974.183	1404.79
974.484	1387.17
974.785	1412.7
975.085	1371.57
975.386	1403.21
975.686	1375.19
975.986	1368.64
976.287	1364.79
976.587	1366.6
976.887	1391.91
977.187	1366.15
977.487	1390.56
977.787	1327.51
978.087	1344
978.387	1347.39
978.687	1346.72
978.987	1350.11
979.286	1346.72
979.586	1339.71
979.885	1346.49
980.185	1321.18
980.484	1311.46
980.784	1319.15
981.083	1271.69
981.382	1304.01
981.682	1292.48
981.981	1309.65
982.28	1288.64
982.579	1297.9
982.878	1307.62
983.177	1290.45
983.475	1282.99
983.774	1270.11
984.073	1261.97
984.372	1245.48
984.67	1253.39
984.969	1253.61
985.267	1241.41
985.566	1249.09
985.864	1211.58
986.162	1215.65
986.461	1221.3
986.759	1212.93
987.057	1212.03
987.355	1194.4
987.653	1196.66
987.951	1201.18
988.249	1188.75
988.547	1195.08
988.844	1167.06
989.142	1181.97
989.44	1173.61
989.737	1141.3
990.035	1142.65
990.332	1165.7
990.63	1158.92
990.927	1141.3
991.224	1128.19
991.521	1136.55
991.819	1132.71
992.116	1142.88
992.413	1123.22
992.71	1115.54
993.006	1113.5
993.303	1132.71
993.6	1098.36
993.897	1098.13
994.193	1077.12
994.49	1092.49
994.787	1100.39
995.083	1085.93
995.379	1091.36
995.676	1103.33
995.972	1079.15
996.268	1075.76
996.565	1063.11
996.861	1043.45
997.157	1044.13
997.453	1073.5
997.749	1055.88
998.044	1052.94
998.34	1043.67
998.636	1046.61
998.932	1030.79
999.227	1040.06
999.523	1027.4
999.818	1029.21
1000.114	1024.24
1000.409	1000.74
1000.704	1009.32
1001	1003.9
1001.295	1026.05
1001.59	1017.23
1001.885	1020.85
1002.18	984.69
1002.475	973.62
1002.77	978.36
1003.065	981.3
1003.359	1001.19
1003.654	963.68
1003.949	955.99
1004.243	968.87
1004.538	969.78
1004.832	959.61
1005.127	944.92
1005.421	961.42
1005.715	919.38
1006.009	920.51
1006.304	918.7
1006.598	911.7
1006.892	917.57
1007.186	914.86
1007.48	946.95
1007.773	916.22
1008.067	917.8
1008.361	919.61
1008.655	903.34
1008.948	891.13
1009.242	886.84
1009.535	890.23
1009.829	887.29
1010.122	890.68
1010.415	887.75
1010.708	874.41
1011.001	877.58
1011.295	856.11
1011.588	858.37
1011.881	860.85
1012.173	874.19
1012.466	862.43
1012.759	831.48
1013.052	856.56
1013.344	850.01
1013.637	815.66
1013.93	820.85
1014.222	843.9
1014.514	827.86
1014.807	828.31
1015.099	840.06
1015.391	821.76
1015.683	808.43
1015.976	817.24
1016.268	796.22
1016.56	798.03
1016.851	806.17
1017.143	787.63
1017.435	788.31
1017.727	772.04
1018.018	785.83
1018.31	787.86
1018.602	769.33
1018.893	751.7
1019.185	769.78
1019.476	748.99
1019.767	752.83
1020.058	730.46
1020.35	744.47
1020.641	737.01
1020.932	737.24
1021.223	748.77
1021.514	739.27
1021.804	726.62
1022.095	727.75
1022.386	735.66
1022.677	711.25
1022.967	713.29
1023.258	723
1023.548	727.75
1023.839	737.01
1024.129	711.7
1024.419	681.65
1024.709	716.9
1025	684.36
1025.29	704.47
1025.58	693.4
1025.87	693.4
1026.16	686.85
1026.449	668.99
1026.739	650.01
1027.029	685.26
1027.319	670.8
1027.608	657.47
1027.898	663.57
1028.187	664.7
1028.477	677.36
1028.766	649.56
1029.055	644.14
1029.344	655.89
1029.634	663.57
1029.923	629.9
1030.212	632.16
1030.501	647.3
1030.79	632.38
1031.078	628.99
1031.367	650.24
1031.656	611.37
1031.945	621.09
1032.233	628.32
1032.522	623.8
1032.81	614.31
1033.099	601.65
1033.387	636.23
1033.675	610.69
1033.963	580.63
1034.251	587.19
1034.54	593.74
1034.828	611.59
1035.116	603.91
1035.403	591.48
1035.691	587.41
1035.979	594.42
1036.267	563.01
1036.554	587.41
1036.842	565.49
1037.129	587.41
1037.417	566.4
1037.704	569.79
1037.992	579.28
1038.279	561.2
1038.566	548.09
1038.853	548.09
1039.14	548.09
