Data from black_metal_pc_casing_FLMS001491_00100.txt Node
Date: Wed Feb 08 14:33:49 GMT 2017
User: dcchb
Spectrometer: FLMS00149
Trigger mode: 0
Integration Time (sec): 2.000000E-2
Scans to average: 10
Electric dark correction enabled: true
Nonlinearity correction enabled: false
Boxcar width: 0
XAxis mode: Wavelengths
Number of Pixels in Spectrum: 2048
>>>>>Begin Spectral Data<<<<<
341.393	-5.3
341.776	-5.3
342.16	-5.3
342.543	-76.03
342.927	-81.23
343.31	-73.09
343.693	-57.27
344.077	-55.24
344.46	-66.99
344.843	-58.63
345.226	-35.58
345.61	-25.86
345.993	-23.38
346.376	-15.01
346.759	25.66
347.142	35.83
347.525	40.35
347.908	62.27
348.291	86
348.674	77.87
349.057	83.06
349.44	149.05
349.823	133.46
350.206	170.97
350.588	193.57
350.971	199.67
351.354	203.96
351.737	219.78
352.119	255.71
352.502	265.2
352.884	279.67
353.267	264.53
353.65	286.9
354.032	277.18
354.414	297.97
354.797	303.17
355.179	316.05
355.562	328.25
355.944	305.88
356.326	312.44
356.709	321.02
357.091	343.62
357.473	330.51
357.855	339.33
358.238	318.31
358.62	328.93
359.002	322.6
359.384	335.71
359.766	349.5
360.148	327.35
360.53	339.55
360.912	309.95
361.294	329.84
361.676	333
362.057	331.87
362.439	337.52
362.821	330.06
363.203	324.19
363.584	349.5
363.966	327.8
364.348	310.63
364.729	315.6
365.111	316.5
365.493	330.29
365.874	321.02
366.256	309.5
366.637	290.74
367.019	313.11
367.4	316.95
367.781	307.24
368.163	320.8
368.544	318.08
368.925	344.75
369.306	335.26
369.688	306.33
370.069	308.59
370.45	340.68
370.831	311.53
371.212	335.71
371.593	309.72
371.974	329.84
372.355	346.33
372.736	312.89
373.117	305.2
373.498	331.42
373.879	305.43
374.26	311.98
374.641	321.25
375.021	328.03
375.402	312.21
375.783	328.93
376.163	329.38
376.544	345.88
376.925	331.19
377.305	328.25
377.686	334.13
378.066	343.17
378.447	341.36
378.827	332.77
379.208	325.77
379.588	347.69
379.968	362.38
380.349	350.63
380.729	349.27
381.109	336.39
381.489	355.6
381.87	340.01
382.25	363.28
382.63	347.69
383.01	364.64
383.39	386.11
383.77	373.22
384.15	356.28
384.53	376.61
384.91	355.6
385.29	372.09
385.67	384.98
386.049	387.46
386.429	393.11
386.809	362.6
387.189	392.89
387.568	381.81
387.948	396.5
388.328	384.07
388.707	396.95
389.087	376.39
389.466	396.73
389.846	361.25
390.225	373.22
390.605	398.53
390.984	397.18
391.363	397.63
391.743	400.79
392.122	397.18
392.501	398.99
392.881	415.48
393.26	411.42
393.639	434.01
394.018	432.88
394.397	434.69
394.776	415.71
395.155	422.49
395.534	420.91
395.913	434.92
396.292	415.94
396.671	443.28
397.05	436.05
397.429	449.15
397.808	448.02
398.186	448.02
398.565	426.33
398.944	443.05
399.323	456.84
399.701	442.15
400.08	463.84
400.458	447.12
400.837	460.68
401.215	460.45
401.594	472.66
401.972	465.88
402.351	478.53
402.729	481.24
403.107	464.97
403.486	473.34
403.864	488.93
404.242	494.8
404.62	493.9
404.999	499.77
405.377	516.95
405.755	488.93
406.133	494.35
406.511	497.06
406.889	518.31
407.267	516.72
407.645	510.17
408.023	500
408.401	544.75
408.779	539.1
409.156	551.98
409.534	534.12
409.912	531.41
410.29	538.19
410.667	562.37
411.045	572.32
411.422	575.03
411.8	551.75
412.178	561.02
412.555	586.78
412.933	572.99
413.31	594.01
413.687	608.02
414.065	613.44
414.442	603.5
414.819	612.54
415.197	622.48
415.574	618.64
415.951	599.43
416.328	619.55
416.705	632.43
417.082	636.49
417.46	656.38
417.837	629.04
418.214	655.48
418.591	667.91
418.967	664.29
419.344	668.36
419.721	665.65
420.098	665.19
420.475	659.54
420.852	669.49
421.228	662.71
421.605	692.54
421.982	688.47
422.358	688.24
422.735	695.7
423.111	720.56
423.488	725.08
423.864	714.91
424.241	748.13
424.617	738.41
424.994	712.65
425.37	720.56
425.746	742.03
426.123	724.4
426.499	754.46
426.875	753.78
427.251	761.69
427.627	796.72
428.003	794.23
428.379	799.2
428.756	785.87
429.132	801.69
429.507	812.54
429.883	835.81
430.259	852.08
430.635	835.59
431.011	832.65
431.387	850.73
431.763	879.43
432.138	881.23
432.514	893.66
432.89	902.48
433.265	889.6
433.641	908.58
434.016	919.88
434.392	928.46
434.767	948.35
435.143	918.97
435.518	961.23
435.894	958.52
436.269	974.34
436.644	994
437.02	988.12
437.395	998.29
437.77	984.73
438.145	1015.47
438.52	1001.46
438.895	1050.04
439.271	1049.14
439.646	1051.85
440.021	1050.04
440.395	1067.9
440.77	1051.85
441.145	1094.34
441.52	1084.17
441.895	1086.2
442.27	1100.44
442.645	1115.58
443.019	1144.05
443.394	1121
443.769	1118.97
444.143	1095.92
444.518	1142.02
444.892	1124.39
445.267	1155.12
445.641	1154.9
446.016	1158.29
446.39	1208
446.764	1169.81
447.139	1166.42
447.513	1177.72
447.887	1166.42
448.262	1197.38
448.636	1198.97
449.01	1245.74
449.384	1236.7
449.758	1242.13
450.132	1265.18
450.506	1286.19
450.88	1261.79
451.254	1276.93
451.628	1262.24
452.002	1290.71
452.376	1339.53
452.75	1293.88
453.123	1339.75
453.497	1351.5
453.871	1347.66
454.244	1382.24
454.618	1380.88
454.992	1401.22
455.365	1387.21
455.739	1438.28
456.112	1426.76
456.486	1451.61
456.859	1490.26
457.232	1495
457.606	1477.6
457.979	1500.43
458.352	1527.77
458.725	1536.58
459.099	1557.37
459.472	1602.34
459.845	1617.26
460.218	1596.92
460.591	1617.03
460.964	1632.17
461.337	1687.09
461.71	1693.87
462.083	1730.25
462.456	1728.9
462.829	1737.48
463.201	1772.96
463.574	1731.16
463.947	1765.5
464.32	1778.84
464.692	1838.5
465.065	1851.83
465.438	1886.63
465.81	1872.39
466.183	1873.3
466.555	1932.96
466.928	1928.89
467.3	1948.55
467.672	1962.11
468.045	2047.76
468.417	2022.9
468.789	2066.29
469.161	2063.8
469.534	2120.98
469.906	2120.75
470.278	2136.12
470.65	2182.44
471.022	2215.44
471.394	2230.35
471.766	2280.75
472.138	2287.52
472.51	2342.66
472.882	2361.87
473.253	2415.43
473.625	2441.42
473.997	2455.66
474.369	2522.32
474.74	2515.54
475.112	2566.39
475.484	2602.77
475.855	2659.27
476.227	2673.96
476.598	2716.67
476.97	2734.29
477.341	2825.59
477.713	2818.58
478.084	2810.67
478.455	2923.44
478.827	2967.28
479.198	3001.86
479.569	3024.91
479.94	3094.51
480.311	3124.79
480.682	3174.51
481.053	3261.28
481.424	3305.8
481.795	3345.8
482.166	3408.63
482.537	3409.53
482.908	3512.8
483.279	3517.32
483.65	3608.62
484.021	3628.51
484.391	3668.73
484.762	3721.61
485.133	3737.88
485.503	3800.03
485.874	3880.03
486.244	3919.57
486.615	3977.65
486.985	4031.21
487.356	4117.53
487.726	4134.03
488.097	4196.85
488.467	4213.35
488.837	4331.76
489.207	4334.48
489.578	4449.5
489.948	4441.59
490.318	4508.03
490.688	4549.84
491.058	4643.39
491.428	4638.88
491.798	4713
492.168	4797.29
492.538	4861.47
492.908	4873.67
493.278	4961.8
493.648	4956.61
494.017	4995.48
494.387	5079.32
494.757	5129.48
495.126	5158.64
495.496	5160.22
495.866	5206.32
496.235	5279.31
496.605	5293.55
496.974	5319.08
497.344	5353.43
497.713	5428.46
498.082	5492.41
498.452	5492.86
498.821	5557.95
499.19	5549.13
499.559	5633.65
499.928	5678.62
500.298	5654.89
500.667	5742.57
501.036	5727.66
501.405	5803.36
501.774	5841.56
502.143	5866.41
502.512	5908.67
502.88	5919.75
503.249	5971.95
503.618	6017.6
503.987	6051.49
504.356	6089.91
504.724	6118.84
505.093	6170.13
505.462	6184.82
505.83	6263.69
506.199	6337.81
506.567	6351.82
506.936	6351.82
507.304	6446.74
507.672	6468.43
508.041	6494.87
508.409	6572.16
508.777	6606.96
509.145	6657.81
509.514	6631.59
509.882	6721.31
510.25	6727.63
510.618	6810.8
510.986	6856.9
511.354	6934.41
511.722	6938.7
512.09	7017.57
512.458	6992.94
512.826	7062.09
513.193	7083.56
513.561	7183.67
513.929	7206.04
514.297	7281.29
514.664	7348.41
515.032	7320.61
515.4	7388.86
515.767	7432.7
516.135	7514.73
516.502	7487.16
516.869	7611
517.237	7616.42
517.604	7622.75
517.972	7751.34
518.339	7789.53
518.706	7849.19
519.073	7942.07
519.44	7988.39
519.808	8034.72
520.175	8023.64
520.542	8127.6
520.909	8207.82
521.276	8216.41
521.643	8344.77
522.009	8356.29
522.376	8399.23
522.743	8456.18
523.11	8481.03
523.477	8680.12
523.843	8660.46
524.21	8730.07
524.577	8861.59
524.943	8900.01
525.31	8974.81
525.676	9048.02
526.043	9047.8
526.409	9122.6
526.776	9237.85
527.142	9273.1
527.508	9349.03
527.874	9403.5
528.241	9391.74
528.607	9469.71
528.973	9539.76
529.339	9559.42
529.705	9658.86
530.071	9721.23
530.437	9774.11
530.803	9860.43
531.169	9850.72
531.535	9833.77
531.901	10012.07
532.267	10029.24
532.632	10049.35
532.998	10172.52
533.364	10139.75
533.73	10270.37
534.095	10294.55
534.461	10308.1
534.826	10387.2
535.192	10456.12
535.557	10528.21
535.923	10503.58
536.288	10516.23
536.653	10591.94
537.019	10665.84
537.384	10658.83
537.749	10719.17
538.114	10674.42
538.479	10760.52
538.845	10834.64
539.21	10863.8
539.575	10876.23
539.94	10968.2
540.305	10944.92
540.67	11014.07
541.034	11066.05
541.399	11071.7
541.764	11152.38
542.129	11102.21
542.494	11266.05
542.858	11197.35
543.223	11303.56
543.587	11340.85
543.952	11307.17
544.316	11298.36
544.681	11358.92
545.045	11469.2
545.41	11589.65
545.774	11508.3
546.138	11573.16
546.503	11640.5
546.867	11699.48
547.231	11723.66
547.595	11760.72
547.959	11811.12
548.324	11729.76
548.688	11886.82
549.052	11885.69
549.416	11867.61
549.779	11989.87
550.143	11996.2
550.507	12023.77
550.871	12080.94
551.235	12120.26
551.599	12223.31
551.962	12237.09
552.326	12273.48
552.689	12294.04
553.053	12295.62
553.417	12361.61
553.78	12482.28
554.143	12475.73
554.507	12562.73
554.87	12665.56
555.234	12763.18
555.597	12628.95
555.96	12739.23
556.323	12795.5
556.686	12824.2
557.05	12911.88
557.413	12954.81
557.776	13026.23
558.139	13102.38
558.502	13136.28
558.865	13114.58
559.228	13205.43
559.59	13292.66
559.953	13287.69
560.316	13404.97
560.679	13414.69
561.041	13496.95
561.404	13582.59
561.767	13634.8
562.129	13705.76
562.492	13801.35
562.854	13791.63
563.217	13842.02
563.579	13897.39
563.941	14047.67
564.304	14075.01
564.666	14154.33
565.028	14120.43
565.39	14196.59
565.753	14313.88
566.115	14312.29
566.477	14482.68
566.839	14392.29
567.201	14579.18
567.563	14497.83
567.925	14613.53
568.287	14646.3
568.648	14660.98
569.01	14741.89
569.372	14910.47
569.734	14836.35
570.095	14940.3
570.457	15018.94
570.819	14991.37
571.18	15028.21
571.542	15165.6
571.903	15186.39
572.265	15254.64
572.626	15249.67
572.987	15310.46
573.349	15337.12
573.71	15410.8
574.071	15363.11
574.432	15481.3
574.794	15602.2
575.155	15626.61
575.516	15497.35
575.877	15634.74
576.238	15688.53
576.599	15713.16
576.96	15681.07
577.32	15713.84
577.681	15719.94
578.042	15767.4
578.403	15856.43
578.763	15928.75
579.124	15938.47
579.485	15946.15
579.845	16006.71
580.206	15993.38
580.566	15978.92
580.927	15967.84
581.287	16092.13
581.648	15998.58
582.008	16119.7
582.368	16073.38
582.728	16198.35
583.089	16068.41
583.449	16102.98
583.809	16130.78
584.169	16176.42
584.529	16107.5
584.889	16214.62
585.249	16073.38
585.609	16095.52
585.969	16243.32
586.329	16099.36
586.688	16175.52
587.048	16188.85
587.408	16105.24
587.768	16031.57
588.127	16297.33
588.487	16136.88
588.846	16319.7
589.206	16040.16
589.565	16172.13
589.925	16299.81
590.284	16180.72
590.643	16223.88
591.003	16318.12
591.362	16226.82
591.721	16255.29
592.08	16303.88
592.44	16302.98
592.799	16316.76
593.158	16312.92
593.517	16269.3
593.876	16257.1
594.235	16246.71
594.593	16374.84
594.952	16361.96
595.311	16214.39
595.67	16345.69
596.029	16416.42
596.387	16391.56
596.746	16473.14
597.104	16289.42
597.463	16381.62
597.822	16411.9
598.18	16318.34
598.538	16343.88
598.897	16452.8
599.255	16513.14
599.613	16605.11
599.972	16412.58
600.33	16579.35
600.688	16455.74
601.046	16553.82
601.404	16605.57
601.762	16564.66
602.12	16593.36
602.478	16719.01
602.836	16646.02
603.194	16512.46
603.552	16615.51
603.91	16545
604.268	16754.49
604.625	16709.29
604.983	16593.14
605.341	16603.08
605.698	16743.87
606.056	16708.84
606.413	16733.47
606.771	16863.19
607.128	16738.67
607.485	16712
607.843	16800.59
608.2	16847.37
608.557	16920.13
608.914	16893.47
609.272	16943.41
609.629	16968.72
609.986	16962.17
610.343	16905.45
610.7	17035.61
611.057	16991.77
611.414	17041.03
611.771	17026.8
612.127	17096.85
612.484	17125.33
612.841	17083.29
613.198	17060.47
613.554	17071.99
613.911	17187.47
614.267	17245.1
614.624	17188.38
614.98	17174.36
615.337	17332.78
615.693	17238.77
616.05	17183.63
616.406	17310.18
616.762	17285.32
617.118	17217.98
617.475	17214.82
617.831	17325.32
618.187	17393.57
618.543	17365.09
618.899	17367.58
619.255	17415.26
619.611	17376.62
619.967	17512.66
620.323	17455.71
620.678	17337.98
621.034	17337.75
621.39	17336.62
621.746	17297.98
622.101	17586.33
622.457	17317.86
622.812	17468.59
623.168	17485.77
623.523	17513.56
623.879	17519.44
624.234	17431.08
624.589	17510.63
624.945	17503.4
625.3	17545.88
625.655	17498.65
626.01	17594.01
626.365	17528.03
626.72	17471.08
627.075	17493.9
627.43	17533
627.785	17370.97
628.14	17559.21
628.495	17618.87
628.85	17497.52
629.205	17426.34
629.559	17514.47
629.914	17368.71
630.269	17353.12
630.623	17368.03
630.978	17285.32
631.332	17436.05
631.687	17494.58
632.041	17321.25
632.396	17371.65
632.75	17236.96
633.104	17302.27
633.459	17264.53
633.813	17280.8
634.167	17283.97
634.521	17228.15
634.875	17315.6
635.229	17138.21
635.583	17106.34
635.937	17201.71
636.291	17168.04
636.645	17208.71
636.999	17123.74
637.352	17130.07
637.706	17059.11
638.06	17184.76
638.413	17032
638.767	17034.03
639.121	17010.53
639.474	16963.3
639.828	16879.46
640.181	16995.61
640.534	16925.33
640.888	16962.84
641.241	16910.87
641.594	16898.67
641.947	16844.2
642.301	16816.63
642.654	16848.5
643.007	16806.24
643.36	16754.71
643.713	16738.22
644.066	16847.14
644.419	16748.84
644.771	16609.18
645.124	16421.84
645.477	16380.71
645.83	16357.66
646.182	16269.08
646.535	16180.27
646.888	16221.85
647.24	16122.64
647.593	16245.58
647.945	16120.83
648.298	16054.39
648.65	16076.77
649.002	16055.98
649.355	16078.35
649.707	16064.11
650.059	16208.29
650.411	16355.86
650.763	16379.36
651.115	16532.57
651.467	16408.74
651.819	16383.2
652.171	16385.68
652.523	16251.23
652.875	16372.58
653.227	16192.02
653.578	16366.93
653.93	16355.86
654.282	16180.72
654.633	16191.11
654.985	16275.86
655.337	16312.69
655.688	16285.12
656.039	16249.64
656.391	16214.16
656.742	16141.4
657.094	16140.72
657.445	16177.78
657.796	16172.81
658.147	16119.48
658.498	16163.54
658.849	16225.01
659.2	16109.99
659.551	16028.86
659.902	16185.01
660.253	16162.64
660.604	16156.31
660.955	16007.16
661.306	16073.38
661.656	16061.63
662.007	16012.36
662.358	16037.67
662.708	15985.7
663.059	16016.43
663.409	15856.43
663.76	15976.2
664.11	15926.04
664.461	16007.84
664.811	15983.44
665.161	16031.57
665.511	15924.91
665.862	16011.91
666.212	15908.18
666.562	16032.47
666.912	15943.66
667.262	15951.35
667.612	15959.71
667.962	15871.57
668.312	15946.37
668.662	15952.02
669.011	15942.98
669.361	15805.59
669.711	15795.64
670.06	15838.81
670.41	15893.04
670.76	15822.08
671.109	15880.39
671.459	15843.33
671.808	15812.14
672.157	15812.59
672.507	15716.78
672.856	15716.1
673.205	15743.67
673.554	15884
673.904	15771.01
674.253	15855.98
674.602	15701.86
674.951	15609.43
675.3	15503
675.649	15630.68
675.998	15685.59
676.346	15743.44
676.695	15725.36
677.044	15545.71
677.393	15591.58
677.741	15695.31
678.09	15521.3
678.438	15513.17
678.787	15551.36
679.135	15594.75
679.484	15423.9
679.832	15541.41
680.181	15363.79
680.529	15414.19
680.877	15276.79
681.225	15394.07
681.573	15512.26
681.922	15372.6
682.27	15326.28
682.618	15237.47
682.966	15324.92
683.314	15333.74
683.661	15185.94
684.009	15186.17
684.357	15207.64
684.705	15135.77
685.053	15143.68
685.4	15091.48
685.748	15035.66
686.095	15019.17
686.443	15039.05
686.79	14962.22
687.138	15038.6
687.485	14999.51
687.832	14897.36
688.18	14904.82
688.527	14832.96
688.874	14906.4
689.221	14852.62
689.568	14810.59
689.915	14741.89
690.262	14654.66
690.609	14650.82
690.956	14608.78
691.303	14605.84
691.65	14566.07
691.997	14469.8
692.344	14467.54
692.69	14428.22
693.037	14450.37
693.383	14337.15
693.73	14419.41
694.077	14305.74
694.423	14334.44
694.769	14164.73
695.116	14238.17
695.462	14195.23
695.808	14097.38
696.155	14244.5
696.501	14011.96
696.847	14003.6
697.193	13916.37
697.539	13945.98
697.885	13872.76
698.231	13839.54
698.577	13772.65
698.923	13821.23
699.269	13728.35
699.614	13774
699.96	13693.33
700.306	13725.42
700.651	13661.69
700.997	13637.96
701.342	13541.69
701.688	13487.23
702.033	13549.15
702.379	13519.09
702.724	13457.63
703.069	13489.04
703.415	13335.82
703.76	13326.33
704.105	13312.55
704.45	13192.77
704.795	13199.33
705.14	13211.53
705.485	13221.7
705.83	13176.73
706.175	13188.71
706.52	13110.74
706.865	13080.91
707.209	12984.64
707.554	12939
707.899	13107.35
708.243	13005.66
708.588	12874.14
708.932	12823.07
709.277	12899.67
709.621	12843.41
709.966	12788.49
710.31	12765.22
710.654	12632.56
710.998	12710.08
711.342	12720.02
711.687	12694.71
712.031	12626.91
712.375	12496.07
712.719	12646.8
713.063	12581.49
713.407	12623.07
713.75	12550.98
714.094	12487.71
714.438	12501.04
714.782	12386.02
715.125	12422.85
715.469	12411.33
715.812	12397.32
716.156	12310.09
716.499	12294.49
716.843	12312.35
717.186	12240.26
717.53	12284.32
717.873	12241.39
718.216	12201.61
718.559	12226.47
718.902	12073.03
719.246	12165
719.589	12063.09
719.932	11978.8
720.275	12101.5
720.617	11971.56
720.96	11966.82
721.303	11998.46
721.646	12018.12
721.989	11867.39
722.331	12025.57
722.674	11976.08
723.016	11872.58
723.359	11899.48
723.701	11923.2
724.044	11784.9
724.386	11756.65
724.729	11812.92
725.071	11825.13
725.413	11760.72
725.755	11778.12
726.097	11671.23
726.439	11666.94
726.782	11688.41
727.124	11732.02
727.465	11700.38
727.807	11535.87
728.149	11560.28
728.491	11568.41
728.833	11597.11
729.175	11548.75
729.516	11503.1
729.858	11521.63
730.199	11501.75
730.541	11471.24
730.882	11498.58
731.224	11487.28
731.565	11399.15
731.906	11456.55
732.248	11359.83
732.589	11357.57
732.93	11278.93
733.271	11420.39
733.612	11337.91
733.953	11382.2
734.294	11337.46
734.635	11315.31
734.976	11307.85
735.317	11240.74
735.658	11157.8
735.999	11210.23
736.339	11119.61
736.68	11287.29
737.021	11242.09
737.361	11169.55
737.702	11115.32
738.042	11182.43
738.383	11074.64
738.723	11105.37
739.063	11064.92
739.404	11135.2
739.744	11078.71
740.084	11045.26
740.424	11044.81
740.764	11018.59
741.104	11024.7
741.444	11003.91
741.784	10894.53
742.124	10946.73
742.464	10972.72
742.804	10903.8
743.143	10906.28
743.483	10896.56
743.823	10867.19
744.162	10817.24
744.502	10841.2
744.841	10784.25
745.181	10851.14
745.52	10810.69
745.86	10765.04
746.199	10744.25
746.538	10775.44
746.877	10657.47
747.216	10696.34
747.556	10624.71
747.895	10682.33
748.234	10611.83
748.573	10620.19
748.911	10617.48
749.25	10593.52
749.589	10563.24
749.928	10516.01
750.267	10572.73
750.605	10548.78
750.944	10465.61
751.283	10514.65
751.621	10491.6
751.96	10315.56
752.298	10263.13
752.636	10358.72
752.975	10261.78
753.313	10295.68
753.651	10392.85
753.989	10298.16
754.327	10299.07
754.666	10238.5
755.004	10212.06
755.342	10165.74
755.679	10152.18
756.017	10172.06
756.355	10163.25
756.693	10090.48
757.031	10135.45
757.368	9998.73
757.706	10063.14
758.044	9992.63
758.381	9949.47
758.719	9923.71
759.056	9889.36
759.394	9918.06
759.731	9894.33
760.068	9830.38
760.405	9873.77
760.743	9829.93
761.08	9801.68
761.417	9754.67
761.754	9700.89
762.091	9726.2
762.428	9664.73
762.765	9652.3
763.102	9619.31
763.438	9525.53
763.775	9543.15
764.112	9484.85
764.449	9543.38
764.785	9461.12
765.122	9338.41
765.458	9354.91
765.795	9345.87
766.131	9335.7
766.467	9278.75
766.804	9225.87
767.14	9237.85
767.476	9190.62
767.812	9224.74
768.148	9162.6
768.485	9121.02
768.821	9131.86
769.157	9130.96
769.492	9015.94
769.828	9021.36
770.164	9031.98
770.5	8941.59
770.836	9006.9
771.171	8869.72
771.507	8880.12
771.842	8797.86
772.178	8799.67
772.513	8807.13
772.849	8785.43
773.184	8696.4
773.519	8711.31
773.855	8743.17
774.19	8684.87
774.525	8593.12
774.86	8587.02
775.195	8544.31
775.53	8564.2
775.865	8545.89
776.2	8467.93
776.535	8446.91
776.87	8412.34
777.205	8368.04
777.539	8356.07
777.874	8392
778.209	8268.38
778.543	8253.02
778.878	8223.19
779.212	8189.97
779.547	8146.81
779.881	8170.08
780.215	8151.1
780.55	8066.13
780.884	8053.25
781.218	8028.16
781.552	8089.18
781.886	7976.19
782.22	7919.69
782.554	8001.27
782.888	7853.93
783.222	7869.75
783.556	7760.83
783.889	7814.38
784.223	7686.48
784.557	7725.12
784.89	7773.03
785.224	7651.9
785.557	7695.97
785.891	7638.8
786.224	7673.82
786.558	7597.89
786.891	7562.41
787.224	7531.91
787.557	7502.75
787.891	7457.78
788.224	7451
788.557	7478.8
788.89	7378.92
789.223	7410.33
789.556	7375.75
789.888	7309.99
790.221	7269.77
790.554	7295.08
790.887	7251.01
791.219	7217.79
791.552	7175.31
791.884	7115.87
792.217	7102.99
792.549	7138.24
792.882	7095.76
793.214	7058.02
793.546	7119.71
793.879	7039.94
794.211	6954.52
794.543	7067.96
794.875	7049.66
795.207	6991.36
795.539	6956.33
795.871	6924.24
796.203	6844.01
796.535	6877.23
796.867	6829.33
797.198	6787.97
797.53	6794.98
797.862	6762.21
798.193	6741.42
798.525	6773.28
798.856	6771.02
799.188	6645.83
799.519	6634.53
799.85	6630.46
800.182	6661.87
800.513	6641.53
800.844	6593.85
801.175	6608.09
801.506	6641.31
801.837	6525.38
802.168	6504.14
802.499	6523.12
802.83	6383.24
803.161	6456.68
803.491	6470.47
803.822	6461.43
804.153	6448.32
804.483	6366.51
804.814	6329.9
805.145	6392.95
805.475	6385.04
805.805	6310.02
806.136	6293.52
806.466	6304.82
806.796	6272.96
807.126	6260.75
807.457	6237.93
807.787	6202.22
808.117	6203.35
808.447	6189.79
808.777	6244.71
809.107	6117.71
809.436	6138.27
809.766	6156.12
810.096	6111.38
810.426	6120.19
810.755	6048.1
811.085	6048.33
811.414	6064.37
811.744	6010.82
812.073	5986.86
812.403	6004.71
812.732	5967.88
813.061	5983.25
813.39	5934.43
813.719	5949.12
814.049	5966.52
814.378	5930.14
814.707	5866.19
815.036	5807.66
815.365	5876.13
815.693	5836.58
816.022	5759.07
816.351	5809.01
816.68	5759.52
817.008	5764.04
817.337	5731.05
817.665	5755.91
817.994	5756.81
818.322	5743.93
818.651	5698.73
818.979	5688.34
819.307	5737.83
819.636	5670.94
819.964	5681.33
820.292	5684.05
820.62	5704.61
820.948	5612.41
821.276	5643.82
821.604	5625.97
821.932	5670.26
822.259	5675.23
822.587	5634.56
822.915	5600.66
823.243	5617.38
823.57	5663.93
823.898	5629.58
824.225	5623.93
824.553	5611.05
824.88	5571.51
825.207	5628
825.535	5589.36
825.862	5581.22
826.189	5599.3
826.516	5613.76
826.843	5662.13
827.17	5620.09
827.497	5564.73
827.824	5633.65
828.151	5630.94
828.478	5605.86
828.805	5621.22
829.131	5610.83
829.458	5635.01
829.785	5576.48
830.111	5566.53
830.438	5616.7
830.764	5604.05
831.09	5623.03
831.417	5570.83
831.743	5599.98
832.069	5595.23
832.395	5604.95
832.722	5551.17
833.048	5573.99
833.374	5583.94
833.7	5531.73
834.026	5573.77
834.351	5565.63
834.677	5570.83
835.003	5549.36
835.329	5598.17
835.654	5535.35
835.98	5556.82
836.306	5522.47
836.631	5499.87
836.956	5534.9
837.282	5544.84
837.607	5460.1
837.932	5483.37
838.258	5482.92
838.583	5472.75
838.908	5453.09
839.233	5429.81
839.558	5444.73
839.883	5430.49
840.208	5449.02
840.533	5476.37
840.858	5404.28
841.182	5419.87
841.507	5420.78
841.832	5380.1
842.156	5363.6
842.481	5388.91
842.805	5345.3
843.13	5343.49
843.454	5336.26
843.778	5323.15
844.103	5309.14
844.427	5315.92
844.751	5237.05
845.075	5247.9
845.399	5252.87
845.723	5200.44
846.047	5229.37
846.371	5177.62
846.695	5176.94
847.019	5153.89
847.343	5150.5
847.666	5133.55
847.99	5073.44
848.313	5139.65
848.637	5062.59
848.96	5060.11
849.284	5056.94
849.607	4984.63
849.931	4988.47
850.254	4943.5
850.577	4966.1
850.9	4884.52
851.223	4906.21
851.546	4857.4
851.869	4878.42
852.192	4895.14
852.515	4828.25
852.838	4822.15
853.161	4818.53
853.483	4776.72
853.806	4729.49
854.129	4757.06
854.451	4790.96
854.774	4756.61
855.096	4754.35
855.419	4687.91
855.741	4698.31
856.063	4649.72
856.385	4698.31
856.708	4660.57
857.03	4642.49
857.352	4640.01
857.674	4635.49
857.996	4607.46
858.318	4621.7
858.64	4549.39
858.961	4531.31
859.283	4559.33
859.605	4495.6
859.926	4506.45
860.248	4546.67
860.57	4506.68
860.891	4528.82
861.212	4472.33
861.534	4501.48
861.855	4456.96
862.176	4498.54
862.498	4455.6
862.819	4455.6
863.14	4427.36
863.461	4447.02
863.782	4398.88
864.103	4421.25
864.424	4397.3
864.745	4454.47
865.065	4424.19
865.386	4374.02
865.707	4372.22
866.027	4329.73
866.348	4341.26
866.668	4381.48
866.989	4388.26
867.309	4312.78
867.63	4337.41
867.95	4297.19
868.27	4303.06
868.59	4324.31
868.91	4329.05
869.23	4237.76
869.55	4280.92
869.87	4302.39
870.19	4290.41
870.51	4265.78
870.83	4221.71
871.15	4256.96
871.469	4254.48
871.789	4236.85
872.109	4225.33
872.428	4208.15
872.748	4220.13
873.067	4223.29
873.386	4261.94
873.706	4190.07
874.025	4209.06
874.344	4178.1
874.663	4202.28
874.982	4175.16
875.301	4190.53
875.62	4140.13
875.939	4143.07
876.258	4148.94
876.577	4159.57
876.896	4170.41
877.214	4154.37
877.533	4115.95
877.852	4121.83
878.17	4100.36
878.489	4097.65
878.807	4109.17
879.125	4095.84
879.444	4142.62
879.762	4091.77
880.08	4079.79
880.398	4108.95
880.716	4068.95
881.034	4070.75
881.352	4049.06
881.67	4060.13
881.988	4034.82
882.306	4035.5
882.624	4009.74
882.941	3964.77
883.259	3959.35
883.577	4011.77
883.894	3961.38
884.212	3989.63
884.529	3978.1
884.846	3971.77
885.164	3956.86
885.481	3937.88
885.798	3965.22
886.115	3939.01
886.432	3888.16
886.75	3911.66
887.067	3903.08
887.383	3880.48
887.7	3894.94
888.017	3871.66
888.334	3890.42
888.651	3882.28
888.967	3875.05
889.284	3804.32
889.6	3833.02
889.917	3851.78
890.233	3827.15
890.55	3816.75
890.866	3811.33
891.182	3801.16
891.498	3757.54
891.815	3766.36
892.131	3764.32
892.447	3720.26
892.763	3710.09
893.079	3707.83
893.395	3690.88
893.71	3698.33
894.026	3690.65
894.342	3668.28
894.657	3668.73
894.973	3645.91
895.289	3655.62
895.604	3618.11
895.92	3614.27
896.235	3589.41
896.55	3642.07
896.865	3611.11
897.181	3551.9
897.496	3593.25
897.811	3534.27
898.126	3522.97
898.441	3543.08
898.756	3532.46
899.071	3499.92
899.386	3480.49
899.7	3454.27
900.015	3421.51
900.33	3417.44
900.644	3427.83
900.959	3419.7
901.273	3442.3
901.588	3428.06
901.902	3398
902.216	3423.31
902.531	3423.31
902.845	3386.25
903.159	3367.04
903.473	3335.63
903.787	3313.94
904.101	3321.17
904.415	3288.18
904.729	3305.35
905.042	3297.22
905.356	3316.65
905.67	3290.89
905.984	3267.84
906.297	3278.91
906.611	3251.57
906.924	3266.26
907.237	3217.9
907.551	3188.52
907.864	3188.74
908.177	3180.16
908.491	3180.83
908.804	3169.31
909.117	3136.32
909.43	3140.61
909.743	3111.91
910.056	3102.19
910.368	3124.56
910.681	3111.01
910.994	3077.79
911.307	3064
911.619	3053.61
911.932	3035.98
912.244	3058.13
912.557	3030.56
912.869	3028.3
913.181	3009.99
913.494	3013.83
913.806	2971.57
914.118	2975.42
914.43	2965.7
914.742	2952.59
915.054	2977
915.366	2918.02
915.678	2934.74
915.99	2885.47
916.302	2868.3
916.613	2852.93
916.925	2831.47
917.236	2879.83
917.548	2867.4
917.859	2883.22
918.171	2816.32
918.482	2809.54
918.794	2835.08
919.105	2806.83
919.416	2760.28
919.727	2761.64
920.038	2773.61
920.349	2744.91
920.66	2765.03
920.971	2760.51
921.282	2730.68
921.593	2739.49
921.903	2668.31
922.214	2696.33
922.525	2695.42
922.835	2666.05
923.146	2673.05
923.456	2642.32
923.767	2656.1
924.077	2590.12
924.387	2654.07
924.697	2612.26
925.008	2609.55
925.318	2603.45
925.628	2582.88
925.938	2566.84
926.248	2594.41
926.558	2561.19
926.867	2520.96
927.177	2566.39
927.487	2514.64
927.796	2548.76
928.106	2526.84
928.416	2527.74
928.725	2492.26
929.034	2485.49
929.344	2487.07
929.653	2473.73
929.962	2417.01
930.271	2459.05
930.581	2434.87
930.89	2445.03
931.199	2404.13
931.508	2418.59
931.817	2359.39
932.125	2381.99
932.434	2369.33
932.743	2383.12
933.051	2319.61
933.36	2314.19
933.669	2339.73
933.977	2334.98
934.286	2324.13
934.594	2263.34
934.902	2272.38
935.21	2296.11
935.519	2292.04
935.827	2274.64
936.135	2275.32
936.443	2265.83
936.751	2222.67
937.059	2227.41
937.367	2194.42
937.674	2241.88
937.982	2207.3
938.29	2216.11
938.597	2199.17
938.905	2169.56
939.213	2171.37
939.52	2169.79
939.827	2174.99
940.135	2152.84
940.442	2176.79
940.749	2136.12
941.056	2141.09
941.363	2106.29
941.67	2093.86
941.977	2113.07
942.284	2117.36
942.591	2094.54
942.898	2081.43
943.205	2099.51
943.511	2071.94
943.818	2064.25
944.125	2045.72
944.431	2058.15
944.738	2034.65
945.044	2033.97
945.35	2003.92
945.657	1981.77
945.963	1990.13
946.269	2000.07
946.575	1983.35
946.881	2003.24
947.187	1989
947.493	1970.7
947.799	1954.43
948.105	1971.15
948.41	1914.43
948.716	1953.52
949.022	1921.21
949.327	1931.6
949.633	1879.85
949.938	1910.81
950.244	1935.9
950.549	1897.03
950.854	1894.31
951.16	1868.78
951.465	1881.89
951.77	1864.94
952.075	1827.88
952.38	1835.11
952.685	1841.89
952.99	1822.68
953.294	1812.73
953.599	1848.21
953.904	1823.13
954.209	1809.35
954.513	1790.81
954.818	1777.48
955.122	1801.89
955.426	1801.66
955.731	1782
956.035	1739.74
956.339	1781.32
956.643	1774.09
956.948	1775.22
957.252	1742
957.556	1749.91
957.86	1739.97
958.163	1721.89
958.467	1741.1
958.771	1725.51
959.075	1697.48
959.378	1717.14
959.682	1686.64
959.985	1735.9
960.289	1693.19
960.592	1712.62
960.896	1705.17
961.199	1654.77
961.502	1670.14
961.805	1656.35
962.108	1660.65
962.411	1647.09
962.714	1635.11
963.017	1621.33
963.32	1622.91
963.623	1619.29
963.926	1609.12
964.228	1593.98
964.531	1619.07
964.833	1607.09
965.136	1573.65
965.438	1568
965.741	1580.65
966.043	1585.17
966.345	1587.88
966.648	1545.85
966.95	1527.77
967.252	1546.53
967.554	1547.66
967.856	1526.87
968.158	1516.02
968.46	1548.56
968.761	1529.58
969.063	1516.47
969.365	1472.18
969.666	1500.2
969.968	1485.96
970.269	1498.39
970.571	1438.28
970.872	1452.74
971.174	1480.09
971.475	1476.47
971.776	1466.76
972.077	1475.79
972.378	1458.85
972.679	1429.92
972.98	1441.9
973.281	1405.74
973.582	1432.86
973.883	1420.43
974.183	1421.56
974.484	1435.12
974.785	1397.83
975.085	1407.55
975.386	1395.34
975.686	1413.42
975.986	1379.53
976.287	1393.08
976.587	1364.84
976.887	1392.63
977.187	1369.58
977.487	1369.81
977.787	1362.58
978.087	1310.15
978.387	1353.76
978.687	1341.33
978.987	1343.82
979.286	1331.39
979.586	1306.31
979.885	1313.31
980.185	1311.05
980.484	1302.92
980.784	1308.57
981.083	1321.22
981.382	1291.39
981.682	1295.46
981.981	1258.4
982.28	1306.08
982.579	1247.1
982.878	1248
983.177	1259.08
983.475	1272.86
983.774	1271.96
984.073	1280.09
984.372	1244.16
984.67	1240.55
984.969	1262.24
985.267	1253.43
985.566	1246.42
985.864	1213.88
986.162	1224.73
986.461	1200.32
986.759	1223.6
987.057	1217.04
987.355	1198.97
987.653	1204.84
987.951	1182.69
988.249	1195.58
988.547	1184.28
988.844	1155.12
989.142	1199.64
989.44	1170.72
989.737	1168.01
990.035	1161.68
990.332	1147.22
990.63	1159.64
990.927	1168.68
991.224	1164.62
991.521	1161
991.819	1129.36
992.116	1151.28
992.413	1112.87
992.71	1132.53
993.006	1109.25
993.303	1099.99
993.6	1131.85
993.897	1117.84
994.193	1126.2
994.49	1106.99
994.787	1101.79
995.083	1097.27
995.379	1089.82
995.676	1100.66
995.972	1080.78
996.268	1089.59
996.565	1046.88
996.861	1069.93
997.157	1053.43
997.453	1082.36
997.749	1061.57
998.044	1025.18
998.34	1049.14
998.636	1031.29
998.932	1070.61
999.227	998.52
999.523	1029.7
999.818	1023.15
1000.114	1028.12
1000.409	1016.6
1000.704	1017.5
1001	994.9
1001.295	1009.14
1001.59	1004.39
1001.885	994.45
1002.18	1005.52
1002.475	986.99
1002.77	968.92
1003.065	974.56
1003.359	975.02
1003.654	975.02
1003.949	956.26
1004.243	951.29
1004.538	931.4
1004.832	948.58
1005.127	950.61
1005.421	965.75
1005.715	957.84
1006.009	958.52
1006.304	945.19
1006.598	934.57
1006.892	943.83
1007.186	920.1
1007.48	900.22
1007.773	926.43
1008.067	921.23
1008.361	910.84
1008.655	877.39
1008.948	893.44
1009.242	888.47
1009.535	875.36
1009.829	870.84
1010.122	893.44
1010.415	872.19
1010.708	865.87
1011.001	878.52
1011.295	862.03
1011.588	869.48
1011.881	852.53
1012.173	844.17
1012.466	858.18
1012.759	851.86
1013.052	842.36
1013.344	826.09
1013.637	850.05
1013.93	843.95
1014.222	856.38
1014.514	831.97
1014.807	806.66
1015.099	828.35
1015.391	805.76
1015.683	821.57
1015.976	797.62
1016.268	809.6
1016.56	819.99
1016.851	806.43
1017.143	791.97
1017.435	798.3
1017.727	771.41
1018.018	771.63
1018.31	758.75
1018.602	767.34
1018.893	769.82
1019.185	751.97
1019.476	779.77
1019.767	773.44
1020.058	775.25
1020.35	762.37
1020.641	772.08
1020.932	758.07
1021.223	732.09
1021.514	735.02
1021.804	747.23
1022.095	743.16
1022.386	742.71
1022.677	721.24
1022.967	728.02
1023.258	718.98
1023.548	725.53
1023.839	703.84
1024.129	712.65
1024.419	691.63
1024.709	731.18
1025	713.78
1025.29	701.13
1025.58	696.15
1025.87	671.07
1026.16	671.75
1026.449	695.48
1026.739	677.4
1027.029	661.35
1027.319	658.64
1027.608	690.73
1027.898	676.72
1028.187	670.39
1028.477	647.12
1028.766	664.06
1029.055	640.79
1029.344	639.88
1029.634	639.88
1029.923	629.49
1030.212	666.1
1030.501	646.89
1030.79	637.85
1031.078	632.2
1031.367	624.52
1031.656	610.28
1031.945	635.82
1032.233	634.46
1032.522	596.72
1032.81	624.52
1033.099	603.95
1033.387	622.03
1033.675	603.73
1033.963	596.5
1034.251	596.72
1034.54	584.97
1034.828	598.76
1035.116	596.72
1035.403	591.98
1035.691	571.41
1035.979	584.74
1036.267	601.69
1036.554	608.02
1036.842	573.45
1037.129	565.31
1037.417	579.55
1037.704	564.41
1037.992	569.6
1038.279	556.95
1038.566	573.67
1038.853	573.67
1039.14	573.67
