Data from black_plastic_tray_FLMS001491_094.txt Node
Date: Tue Feb 07 10:41:02 GMT 2017
User: dcchb
Spectrometer: FLMS00149
Trigger mode: 0
Integration Time (sec): 2.000000E-2
Scans to average: 10
Electric dark correction enabled: true
Nonlinearity correction enabled: false
Boxcar width: 0
XAxis mode: Wavelengths
Number of Pixels in Spectrum: 2048
>>>>>Begin Spectral Data<<<<<
341.393	-15.08
341.776	-15.08
342.16	-15.08
342.543	-54.18
342.927	-86.49
343.31	-61.64
343.693	-78.36
344.077	-72.71
344.46	-60.28
344.843	-50.11
345.226	-32.71
345.61	-19.38
345.993	-34.52
346.376	3.9
346.759	12.49
347.142	26.72
347.525	33.95
347.908	45.93
348.291	70.56
348.674	89.77
349.057	126.38
349.44	129.54
349.823	124.57
350.206	150.56
350.588	165.7
350.971	197.79
351.354	196.66
351.737	221.52
352.119	238.47
352.502	232.59
352.884	267.62
353.267	227.62
353.65	276.43
354.032	263.78
354.414	294.96
354.797	297.9
355.179	275.53
355.562	289.54
355.944	318.01
356.326	312.36
356.709	303.78
357.091	308.07
357.473	324.12
357.855	315.75
358.238	314.17
358.62	337
359.002	319.6
359.384	332.25
359.766	315.98
360.148	303.55
360.53	320.05
360.912	299.03
361.294	339.93
361.676	313.72
362.057	306.04
362.439	307.62
362.821	308.3
363.203	316.21
363.584	319.6
363.966	305.59
364.348	300.39
364.729	309.43
365.111	313.04
365.493	312.36
365.874	276.21
366.256	316.21
366.637	295.87
367.019	291.8
367.4	301.29
367.781	291.12
368.163	297.68
368.544	316.21
368.925	276.21
369.306	296.77
369.688	286.83
370.069	307.39
370.45	324.79
370.831	298.13
371.212	305.13
371.593	298.13
371.974	311.69
372.355	309.65
372.736	301.52
373.117	301.74
373.498	279.15
373.879	285.02
374.26	311.23
374.641	302.87
375.021	297.22
375.402	296.77
375.783	299.71
376.163	302.65
376.544	308.3
376.925	317.34
377.305	301.07
377.686	320.5
378.066	306.04
378.447	318.24
378.827	319.14
379.208	314.62
379.588	283.89
379.968	333.16
380.349	309.65
380.729	309.65
381.109	306.26
381.489	309.65
381.87	302.2
382.25	340.16
382.63	327.73
383.01	310.78
383.39	310.1
383.77	326.83
384.15	327.28
384.53	313.27
384.91	323.44
385.29	335.87
385.67	325.7
386.049	341.74
386.429	323.21
386.809	321.86
387.189	336.77
387.568	328.18
387.948	322.76
388.328	364.34
388.707	334.51
389.087	315.53
389.466	354.17
389.846	333.61
390.225	377.22
390.605	343.55
390.984	344.91
391.363	350.78
391.743	352.36
392.122	356.66
392.501	375.87
392.881	358.92
393.26	369.54
393.639	343.1
394.018	364.11
394.397	383.55
394.776	361.18
395.155	349.2
395.534	344
395.913	370.67
396.292	351.69
396.671	353.04
397.05	363.44
397.429	380.61
397.808	379.48
398.186	367.05
398.565	388.97
398.944	388.07
399.323	371.57
399.701	371.35
400.08	396.66
400.458	397.79
400.837	401.63
401.215	397.11
401.594	384
401.972	397.56
402.351	395.75
402.729	395.07
403.107	396.88
403.486	405.02
403.864	402.08
404.242	400.95
404.62	394.85
404.999	404.11
405.377	431.23
405.755	403.21
406.133	403.44
406.511	409.54
406.889	419.25
407.267	414.51
407.645	429.42
408.023	422.64
408.401	427.16
408.779	420.84
409.156	419.93
409.534	432.14
409.912	421.06
410.29	451.12
410.667	438.92
411.045	447.28
411.422	465.35
411.8	440.5
412.178	479.37
412.555	480.5
412.933	467.61
413.31	441.85
413.687	462.87
414.065	469.87
414.442	472.59
414.819	484.56
415.197	468.97
415.574	481.17
415.951	486.82
416.328	493.83
416.705	485.47
417.082	498.57
417.46	502.19
417.837	507.61
418.214	503.77
418.591	516.2
418.967	494.96
419.344	479.59
419.721	491.12
420.098	503.77
420.475	506.26
420.852	524.11
421.228	521.17
421.605	528.86
421.982	546.48
422.358	541.51
422.735	533.83
423.111	532.92
423.488	534.28
423.864	553.26
424.241	555.52
424.617	570.89
424.994	548.52
425.37	561.4
425.746	584.67
426.123	577.67
426.499	576.99
426.875	569.08
427.251	584.45
427.627	587.39
428.003	584.67
428.379	571.11
428.756	589.42
429.132	595.3
429.507	582.87
429.883	602.98
430.259	618.12
430.635	606.59
431.011	614.73
431.387	635.07
431.763	638.23
432.138	644.56
432.514	652.24
432.89	652.24
433.265	640.27
433.641	677.55
434.016	647.95
434.392	679.13
434.767	692.69
435.143	684.11
435.518	700.6
435.894	687.04
436.269	687.27
436.644	718.46
437.02	691.79
437.395	703.09
437.77	706.93
438.145	730.43
438.52	734.27
438.895	734.27
439.271	753.48
439.646	724.78
440.021	737.66
440.395	774.73
440.77	726.82
441.145	764.78
441.52	746.93
441.895	775.18
442.27	760.94
442.645	771.56
443.019	773.6
443.394	770.66
443.769	773.14
444.143	788.06
444.518	802.75
444.892	795.29
445.267	807.94
445.641	811.79
446.016	828.74
446.39	796.19
446.764	807.72
447.139	818.79
447.513	814.95
447.887	816.31
448.262	842.75
448.636	841.16
449.01	846.81
449.384	833.48
449.758	870.77
450.132	861.5
450.506	862.18
450.88	873.48
451.254	872.12
451.628	890.2
452.002	887.49
452.376	885.46
452.75	887.26
453.123	913.93
453.497	911.67
453.871	919.81
454.244	923.87
454.618	932.46
454.992	938.79
455.365	955.51
455.739	943.99
456.112	946.92
456.486	993.93
456.859	968.17
457.232	993.7
457.606	1009.52
457.979	982.86
458.352	1018.56
458.725	1031.22
459.099	1028.28
459.472	1063.76
459.845	1089.75
460.218	1106.92
460.591	1085
460.964	1097.65
461.337	1070.99
461.71	1101.5
462.083	1139.91
462.456	1112.34
462.829	1125.45
463.201	1144.43
463.574	1181.95
463.947	1186.69
464.32	1207.26
464.692	1186.01
465.065	1182.62
465.438	1211.1
465.81	1230.08
466.183	1259.91
466.555	1272.34
466.928	1289.51
467.3	1291.1
467.672	1310.3
468.045	1319.57
468.417	1329.74
468.789	1327.93
469.161	1341.26
469.534	1363.86
469.906	1372
470.278	1387.36
470.65	1409.51
471.022	1409.74
471.394	1454.48
471.766	1459.45
472.138	1464.2
472.51	1528.6
472.882	1518.21
473.253	1521.82
473.625	1533.8
473.997	1576.29
474.369	1590.98
474.74	1569.05
475.112	1631.43
475.484	1630.3
475.855	1675.04
476.227	1673.01
476.598	1716.4
476.97	1736.96
477.341	1751.87
477.713	1772.89
478.084	1796.85
478.455	1836.39
478.827	1852.21
479.198	1884.53
479.569	1893.11
479.94	1967.69
480.311	1982.15
480.682	2006.33
481.053	2026.22
481.424	2062.15
481.795	2093.79
482.166	2150.28
482.537	2155.93
482.908	2181.24
483.279	2203.84
483.65	2229.15
484.021	2273.22
484.391	2291.97
484.762	2317.51
485.133	2341.24
485.503	2352.76
485.874	2400.9
486.244	2420.56
486.615	2456.04
486.985	2461.69
487.356	2490.39
487.726	2536.71
488.097	2580.55
488.467	2607.45
488.837	2644.28
489.207	2648.8
489.578	2734.45
489.948	2717.95
490.318	2786.2
490.688	2789.81
491.058	2812.41
491.428	2861.22
491.798	2856.03
492.168	2922.69
492.538	2950.49
492.908	2990.94
493.278	3011.28
493.648	2992.29
494.017	3088.11
494.387	3063.25
494.757	3117.49
495.126	3154.55
495.496	3130.6
495.866	3198.39
496.235	3167.88
496.605	3209.46
496.974	3233.87
497.344	3293.53
497.713	3293.08
498.082	3342.34
498.452	3325.17
498.821	3328.1
499.19	3376.69
499.559	3386.18
499.928	3438.84
500.298	3442.23
500.667	3465.95
501.036	3480.87
501.405	3508.66
501.774	3514.31
502.143	3540.75
502.512	3573.3
502.88	3585.5
503.249	3665.5
503.618	3653.29
503.987	3656.46
504.356	3677.02
504.724	3704.14
505.093	3724.03
505.462	3722.44
505.83	3754.53
506.199	3765.38
506.567	3783.91
506.936	3862.33
507.304	3877.92
507.672	3906.39
508.041	3888.32
508.409	3945.26
508.777	3973.96
509.145	4019.39
509.514	4001.76
509.882	4007.18
510.25	4056.67
510.618	4109.78
510.986	4118.14
511.354	4139.61
511.722	4210.12
512.09	4178.03
512.458	4190
512.826	4228.87
513.193	4269.55
513.561	4307.06
513.929	4307.06
514.297	4351.35
514.664	4341.64
515.032	4412.37
515.4	4409.88
515.767	4464.12
516.135	4491.46
516.502	4472.71
516.869	4550.22
517.237	4554.06
517.604	4560.39
517.972	4610.33
518.339	4647.84
518.706	4667.96
519.073	4750.44
519.44	4704.79
519.808	4754.28
520.175	4791.57
520.542	4818.69
520.909	4886.93
521.276	4901.4
521.643	4954.95
522.009	4981.62
522.376	5021.85
522.743	5070.43
523.11	5116.76
523.477	5159.92
523.843	5150.66
524.21	5208.96
524.577	5198.56
524.943	5249.41
525.31	5306.36
525.676	5338.22
526.043	5360.37
526.409	5392.68
526.776	5461.61
527.142	5504.09
527.508	5479.69
527.874	5612.56
528.241	5594.49
528.607	5615.28
528.973	5674.71
529.339	5625.67
529.705	5728.95
530.071	5752
530.437	5748.38
530.803	5821.15
531.169	5820.47
531.535	5827.47
531.901	5855.04
532.267	5914.93
532.632	5981.14
532.998	5970.75
533.364	5997.86
533.73	6010.29
534.095	6129.84
534.461	6099.78
534.826	6133.68
535.192	6182.04
535.557	6198.09
535.923	6198.31
536.288	6222.27
536.653	6234.02
537.019	6216.62
537.384	6270.17
537.749	6336.84
538.114	6357.86
538.479	6351.75
538.845	6429.72
539.21	6349.95
539.575	6445.08
539.94	6492.54
540.305	6534.12
540.67	6480.79
541.034	6490.73
541.399	6552.43
541.764	6592.2
542.129	6587.45
542.494	6576.83
542.858	6602.82
543.223	6619.32
543.587	6724.63
543.952	6689.15
544.316	6745.19
544.681	6710.16
545.045	6748.58
545.41	6788.13
545.774	6806.43
546.138	6796.94
546.503	6796.49
546.867	6905.41
547.231	6899.54
547.595	6877.84
547.959	6944.96
548.324	6982.25
548.688	6917.39
549.052	6991.96
549.416	6978.63
549.779	6989.48
550.143	7097.27
550.507	7079.19
550.871	7130.94
551.235	7138.17
551.599	7161
551.962	7215.23
552.326	7206.42
552.689	7269.02
553.053	7257.04
553.417	7240.54
553.78	7371.61
554.143	7348.56
554.507	7357.83
554.87	7441.67
555.234	7492.29
555.597	7482.8
555.96	7464.04
556.323	7507.66
556.686	7548.56
557.05	7609.35
557.413	7618.84
557.776	7610.03
558.139	7677.14
558.502	7693.19
558.865	7721.44
559.228	7846.4
559.59	7834.43
559.953	7841.43
560.316	7932.5
560.679	7896.35
561.041	7982.45
561.404	7978.83
561.767	8003.91
562.129	7992.39
562.492	8014.99
562.854	8116
563.217	8110.13
563.579	8163.23
563.941	8235.55
564.304	8139.05
564.666	8239.61
565.028	8287.07
565.39	8380.85
565.753	8344.24
566.115	8381.76
566.477	8461.98
566.839	8428.08
567.201	8522.09
567.563	8513.05
567.925	8520.74
568.287	8607.97
568.648	8570.68
569.01	8632.6
569.372	8686.61
569.734	8662.43
570.095	8746.95
570.457	8756.44
570.819	8815.19
571.18	8801.86
571.542	8835.08
571.903	8925.25
572.265	8909.2
572.626	8920.05
572.987	8912.82
573.349	8954.4
573.71	8975.41
574.071	8993.94
574.432	9040.95
574.794	9052.7
575.155	9104.22
575.516	9089.54
575.877	9060.61
576.238	9097.22
576.599	9144
576.96	9275.07
577.32	9225.12
577.681	9239.59
578.042	9232.36
578.403	9194.17
578.763	9330.43
579.124	9276.87
579.485	9334.5
579.845	9330.66
580.206	9307.16
580.566	9335.86
580.927	9374.05
581.287	9376.08
581.648	9320.72
582.008	9358.23
582.368	9402.97
582.728	9399.13
583.089	9406.36
583.449	9405.68
583.809	9388.06
584.169	9435.97
584.529	9446.81
584.889	9483.87
585.249	9405.91
585.609	9384.89
585.969	9455.85
586.329	9435.06
586.688	9480.94
587.048	9408.4
587.408	9415.63
587.768	9378.11
588.127	9428.96
588.487	9459.24
588.846	9473.25
589.206	9392.58
589.565	9399.36
589.925	9462.41
590.284	9452.24
590.643	9501.05
591.003	9433.25
591.362	9502.18
591.721	9487.04
592.08	9490.2
592.44	9528.85
592.799	9479.13
593.158	9452.69
593.517	9490.43
593.876	9530.2
594.235	9518.68
594.593	9488.39
594.952	9569.97
595.311	9511.67
595.67	9480.71
596.029	9553.93
596.387	9532.69
596.746	9558
597.104	9492.01
597.463	9522.74
597.822	9573.14
598.18	9564.55
598.538	9536.53
598.897	9547.6
599.255	9546.7
599.613	9612.91
599.972	9541.95
600.33	9647.26
600.688	9567.94
601.046	9666.24
601.404	9645.45
601.762	9700.14
602.12	9706.47
602.478	9663.31
602.836	9712.8
603.194	9627.6
603.552	9672.57
603.91	9646.58
604.268	9714.83
604.625	9661.27
604.983	9647.71
605.341	9640.48
605.698	9727.94
606.056	9738.33
606.413	9646.58
606.771	9722.51
607.128	9806.13
607.485	9766.13
607.843	9751.44
608.2	9763.64
608.557	9854.49
608.914	9802.28
609.272	9885.45
609.629	9893.81
609.986	9857.42
610.343	9803.41
610.7	9872.34
611.057	9868.95
611.414	9924.99
611.771	9865.33
612.127	10008.83
612.484	9950.53
612.841	9963.41
613.198	9888.38
613.554	10007.7
613.911	10052
614.267	9953.92
614.624	9957.76
614.98	10005.67
615.337	10002.73
615.693	9926.58
616.05	10020.13
616.406	10021.71
616.762	10060.13
617.118	9994.6
617.475	9985.33
617.831	10045.44
618.187	10035.27
618.543	10047.48
618.899	10216.51
619.255	10168.38
619.611	10135.16
619.967	10139.68
620.323	10156.85
620.678	10064.42
621.034	10067.81
621.39	10106.23
621.746	10037.76
622.101	10131.32
622.457	10108.94
622.812	10182.16
623.168	10189.17
623.523	10130.86
623.879	10149.39
624.234	10182.39
624.589	10157.3
624.945	10193.01
625.3	10216.06
625.655	10097.64
626.01	10200.01
626.365	10192.56
626.72	10189.85
627.075	10190.3
627.43	10159.79
627.785	10154.37
628.14	10168.15
628.495	10160.47
628.85	10170.18
629.205	10144.87
629.559	10182.39
629.914	10065.55
630.269	10173.35
630.623	10112.56
630.978	10108.72
631.332	10059.68
631.687	10183.52
632.041	10129.06
632.396	10042.96
632.75	10005.9
633.104	10047.48
633.459	10033.69
633.813	10084.54
634.167	10036.4
634.521	9960.92
634.875	10018.55
635.229	10026.69
635.583	9973.35
635.937	9914.82
636.291	9884.32
636.645	9901.72
636.999	9808.84
637.352	9901.94
637.706	9910.98
638.06	9898.1
638.413	9904.2
638.767	9803.87
639.121	9756.41
639.474	9776.52
639.828	9748.05
640.181	9759.35
640.534	9731.33
640.888	9788.95
641.241	9747.82
641.594	9729.07
641.947	9741.5
642.301	9697.43
642.654	9672.57
643.007	9709.41
643.36	9699.91
643.713	9697.65
644.066	9719.57
644.419	9632.57
644.771	9569.75
645.124	9509.41
645.477	9527.72
645.83	9501.95
646.182	9350.77
646.535	9368.85
646.888	9387.15
647.24	9304.44
647.593	9428.28
647.945	9351.9
648.298	9284.78
648.65	9322.52
649.002	9203.66
649.355	9304.22
649.707	9264.45
650.059	9381.73
650.411	9476.87
650.763	9462.86
651.115	9576.08
651.467	9518.22
651.819	9467.15
652.171	9455.18
652.523	9428.06
652.875	9503.99
653.227	9482.75
653.578	9405.01
653.93	9400.94
654.282	9451.33
654.633	9369.75
654.985	9393.93
655.337	9335.18
655.688	9433.03
656.039	9383.54
656.391	9309.19
656.742	9278.91
657.094	9320.94
657.445	9375.4
657.796	9374.27
658.147	9364.78
658.498	9309.64
658.849	9346.7
659.2	9305.8
659.551	9308.06
659.902	9391.22
660.253	9341.05
660.604	9326.59
660.955	9319.13
661.306	9291.11
661.656	9262.64
662.007	9184.22
662.358	9248.17
662.708	9251.56
663.059	9232.36
663.409	9216.99
663.76	9241.85
664.11	9284.11
664.461	9255.41
664.811	9256.08
665.161	9278.23
665.511	9169.08
665.862	9251.79
666.212	9263.32
666.562	9272.58
666.912	9210.89
667.262	9226.71
667.612	9239.36
667.962	9257.67
668.312	9231.45
668.662	9191
669.011	9185.13
669.361	9146.26
669.711	9129.08
670.06	9169.53
670.41	9116.88
670.76	9050.89
671.109	9088.18
671.459	9119.14
671.808	9132.7
672.157	9115.3
672.507	9084.79
672.856	9124.79
673.205	9079.14
673.554	9127.73
673.904	9106.71
674.253	9173.6
674.602	9069.87
674.951	8975.64
675.3	8908.07
675.649	9037.33
675.998	8960.5
676.346	9022.19
676.695	9044.56
677.044	9072.59
677.393	9025.81
677.741	9026.03
678.09	9050.21
678.438	8928.64
678.787	9083.66
679.135	9015.41
679.484	8988.29
679.832	8975.19
680.181	8938.58
680.529	8911.23
680.877	8924.12
681.225	8959.37
681.573	8981.52
681.922	8928.18
682.27	8873.5
682.618	8897.45
682.966	8855.64
683.314	8951.69
683.661	8878.69
684.009	8805.47
684.357	8792.59
684.705	8785.81
685.053	8838.24
685.4	8785.81
685.748	8735.42
686.095	8722.09
686.443	8692.03
686.79	8629.89
687.138	8669.66
687.485	8666.95
687.832	8619.04
688.18	8702.43
688.527	8588.76
688.874	8597.8
689.221	8631.47
689.568	8596.44
689.915	8502.88
690.262	8548.53
690.609	8547.4
690.956	8403.9
691.303	8463.79
691.65	8424.24
691.997	8410.68
692.344	8317.35
692.69	8388.76
693.037	8395.32
693.383	8315.09
693.73	8334.3
694.077	8287.52
694.423	8382.89
694.769	8276.9
695.116	8291.14
695.462	8237.13
695.808	8272.61
696.155	8218.6
696.501	8118.71
696.847	8161.65
697.193	8089.79
697.539	8052.73
697.885	8107.19
698.231	8082.33
698.577	8077.58
698.923	8038.04
699.269	7981.09
699.614	7946.06
699.96	7928.44
700.306	7958.94
700.651	7913.07
700.997	7909
701.342	7793.52
701.688	7879.4
702.033	7862.9
702.379	7893.63
702.724	7837.59
703.069	7844.14
703.415	7765.05
703.76	7704.94
704.105	7781.09
704.45	7734.32
704.795	7653.64
705.14	7649.12
705.485	7699.97
705.83	7730.7
706.175	7582.23
706.52	7608.44
706.865	7586.75
707.209	7560.54
707.554	7629.91
707.899	7549.69
708.243	7528.9
708.588	7489.58
708.932	7419.07
709.277	7478.96
709.621	7449.8
709.966	7467.66
710.31	7422.01
710.654	7339.3
710.998	7392.63
711.342	7352.86
711.687	7367.77
712.031	7277.15
712.375	7298.17
712.719	7270.83
713.063	7329.58
713.407	7342.46
713.75	7282.12
714.094	7226.31
714.438	7191.05
714.782	7242.8
715.125	7176.14
715.469	7222.92
715.812	7176.36
716.156	7144.05
716.499	7139.76
716.843	7139.53
717.186	7059.31
717.53	7116.03
717.873	7090.04
718.216	7093.88
718.559	7035.35
718.902	7058.85
719.246	7076.03
719.589	7071.73
719.932	7020.44
720.275	6967.33
720.617	6964.85
720.96	6916.48
721.303	6965.75
721.646	6967.33
721.989	6949.93
722.331	6940.44
722.674	6930.04
723.016	6944.73
723.359	6913.77
723.701	6922.81
724.044	6838.29
724.386	6783.38
724.729	6798.3
725.071	6861.12
725.413	6821.8
725.755	6850.72
726.097	6779.77
726.439	6766.88
726.782	6786.54
727.124	6825.87
727.465	6755.59
727.807	6772.53
728.149	6693.89
728.491	6732.99
728.833	6731.4
729.175	6705.64
729.516	6729.82
729.858	6695.93
730.199	6658.19
730.541	6697.06
730.882	6638.53
731.224	6651.18
731.565	6647.34
731.906	6596.27
732.248	6664.06
732.589	6627.9
732.93	6579.32
733.271	6630.84
733.612	6612.31
733.953	6569.6
734.294	6619.09
734.635	6556.72
734.976	6615.48
735.317	6525.53
735.658	6518.76
735.999	6518.3
736.339	6492.54
736.68	6521.01
737.021	6478.98
737.361	6420.9
737.702	6450.96
738.042	6435.37
738.383	6423.39
738.723	6422.26
739.063	6410.74
739.404	6433.56
739.744	6365.76
740.084	6381.81
740.424	6351.75
740.764	6345.88
741.104	6418.64
741.444	6344.97
741.784	6337.97
742.124	6357.86
742.464	6355.37
742.804	6334.35
743.143	6314.92
743.483	6311.3
743.823	6280.57
744.162	6315.37
744.502	6265.65
744.841	6254.13
745.181	6231.76
745.52	6238.31
745.86	6244.19
746.199	6228.82
746.538	6226.11
746.877	6254.13
747.216	6205.54
747.556	6165.32
747.895	6167.58
748.234	6187.01
748.573	6176.84
748.911	6158.54
749.25	6162.38
749.589	6104.53
749.928	6097.52
750.267	6134.58
750.605	6131.42
750.944	6089.16
751.283	6095.72
751.621	6135.94
751.96	6054.59
752.298	6055.26
752.636	6030.63
752.975	6048.94
753.313	6012.55
753.651	6026.79
753.989	5994.02
754.327	5940.69
754.666	5940.92
755.004	5944.53
755.342	5949.96
755.679	5963.29
756.017	5815.27
756.355	5909.51
756.693	5849.62
757.031	5828.6
757.368	5866.12
757.706	5855.04
758.044	5856.4
758.381	5813.46
758.719	5785.22
759.056	5788.38
759.394	5773.24
759.731	5671.55
760.068	5736.4
760.405	5677.87
760.743	5677.42
761.08	5726.23
761.417	5654.37
761.754	5649.17
762.091	5638.33
762.428	5622.73
762.765	5647.59
763.102	5643.07
763.438	5617.54
763.775	5569.4
764.112	5536.41
764.449	5559.91
764.785	5486.47
765.122	5509.52
765.458	5517.43
765.795	5514.26
766.131	5528.72
766.467	5484.88
766.804	5449.4
767.14	5434.26
767.476	5394.26
767.812	5362.63
768.148	5378.9
768.485	5361.5
768.821	5320.59
769.157	5315.85
769.492	5278.79
769.828	5308.84
770.164	5279.69
770.5	5278.34
770.836	5246.25
771.171	5203.99
771.507	5190.88
771.842	5177.1
772.178	5193.82
772.513	5174.38
772.849	5133.03
773.184	5110.66
773.519	5064.56
773.855	5089.19
774.19	5062.75
774.525	5053.03
774.86	5040.6
775.195	4983.88
775.53	5041.05
775.865	5000.38
776.2	4958.12
776.535	4951.56
776.87	4942.3
777.205	4930.1
777.539	4901.17
777.874	4902.53
778.209	4858.91
778.543	4862.08
778.878	4834.51
779.212	4825.24
779.547	4816.43
779.881	4806.03
780.215	4786.6
780.55	4777.33
780.884	4710.44
781.218	4711.8
781.552	4716.77
781.886	4690.33
782.22	4627.05
782.554	4652.36
782.888	4600.39
783.222	4592.03
783.556	4556.32
783.889	4562.65
784.223	4546.6
784.557	4625.47
784.89	4587.73
785.224	4462.31
785.557	4498.24
785.891	4507.73
786.224	4517.68
786.558	4468.87
786.891	4397.68
787.224	4406.27
787.557	4428.19
787.891	4443.56
788.224	4438.58
788.557	4390.22
788.89	4417.57
789.223	4378.92
789.556	4307.51
789.888	4321.07
790.221	4364.24
790.554	4347.29
790.887	4314.29
791.219	4258.7
791.552	4266.84
791.884	4264.35
792.217	4259.61
792.549	4213.51
792.882	4188.19
793.214	4195.65
793.546	4209.44
793.879	4242.2
794.211	4107.29
794.543	4143
794.875	4120.17
795.207	4132.6
795.539	4114.98
795.871	4124.24
796.203	4084.69
796.535	4055.09
796.867	4048.31
797.198	4045.83
797.53	4024.58
797.862	4023.45
798.193	4020.74
798.525	3987.07
798.856	3991.82
799.188	3971.25
799.519	3967.86
799.85	3976
800.182	3931.03
800.513	3956.79
800.844	3893.29
801.175	3900.74
801.506	3893.51
801.837	3858.03
802.168	3880.18
802.499	3872.5
802.83	3854.87
803.161	3837.7
803.491	3824.14
803.822	3836.11
804.153	3851.71
804.483	3834.53
804.814	3806.28
805.145	3741.88
805.475	3787.75
805.805	3774.42
806.136	3764.48
806.466	3808.09
806.796	3746.17
807.126	3740.98
807.457	3717.47
807.787	3724.03
808.117	3710.24
808.447	3684.93
808.777	3662.33
809.107	3655.55
809.436	3637.7
809.766	3695.55
810.096	3633.41
810.426	3616.68
810.755	3614.88
811.085	3578.49
811.414	3595.44
811.744	3570.58
812.073	3601.32
812.403	3548.44
812.732	3507.99
813.061	3529.68
813.39	3540.3
813.719	3546.63
814.049	3556.8
814.378	3547.08
814.707	3525.16
815.036	3517.25
815.365	3496.01
815.693	3484.71
816.022	3488.1
816.351	3468.44
816.68	3480.87
817.008	3500.3
817.337	3511.38
817.665	3448.78
817.994	3472.28
818.322	3417.59
818.651	3446.29
818.979	3418.27
819.307	3414.88
819.636	3390.25
819.964	3418.05
820.292	3397.26
820.62	3387.09
820.948	3364.26
821.276	3432.73
821.604	3427.31
821.932	3372.4
822.259	3409.46
822.587	3392.06
822.915	3367.43
823.243	3389.12
823.57	3421.44
823.898	3416.24
824.225	3382.57
824.553	3377.14
824.88	3355.9
825.207	3364.49
825.535	3403.58
825.862	3373.75
826.189	3405.84
826.516	3387.99
826.843	3395.22
827.17	3426.63
827.497	3394.77
827.824	3366.75
828.151	3383.92
828.478	3387.31
828.805	3405.62
829.131	3384.83
829.458	3366.52
829.785	3335.11
830.111	3354.54
830.438	3392.96
830.764	3357.71
831.09	3391.61
831.417	3341.21
831.743	3378.5
832.069	3334.43
832.395	3355.9
832.722	3338.05
833.048	3362.45
833.374	3366.07
833.7	3298.27
834.026	3345.73
834.351	3347.77
834.677	3347.77
835.003	3337.37
835.329	3341.66
835.654	3343.02
835.98	3343.25
836.306	3382.11
836.631	3326.07
836.956	3339.63
837.282	3325.17
837.607	3314.55
837.932	3328.78
838.258	3284.49
838.583	3308.67
838.908	3280.42
839.233	3281.55
839.558	3263.02
839.883	3289.24
840.208	3275.9
840.533	3292.4
840.858	3283.59
841.182	3254.66
841.507	3261.21
841.832	3225.51
842.156	3230.93
842.481	3215.57
842.805	3188.9
843.13	3195
843.454	3192.06
843.778	3167.2
844.103	3200.42
844.427	3148
844.751	3169.46
845.075	3145.74
845.399	3167.43
845.723	3135.79
846.047	3154.32
846.371	3167.2
846.695	3150.71
847.019	3111.61
847.343	3127.88
847.666	3115
847.99	3070.03
848.313	3074.33
848.637	3077.04
848.96	3084.04
849.284	3038.85
849.607	3030.49
849.931	2994.78
850.254	2959.75
850.577	2942.35
850.9	2952.3
851.223	3010.6
851.546	2962.01
851.869	2929.7
852.192	2973.54
852.515	2913.43
852.838	2911.39
853.161	2917.04
853.483	2896.93
853.806	2851.51
854.129	2877.95
854.451	2854.67
854.774	2870.04
855.096	2844.73
855.419	2857.16
855.741	2812.19
856.063	2815.8
856.385	2821
856.708	2804.05
857.03	2816.93
857.352	2786.42
857.674	2800.89
857.996	2779.64
858.318	2769.48
858.64	2775.35
858.961	2766.09
859.283	2775.12
859.605	2730.15
859.926	2724.73
860.248	2711.4
860.57	2723.83
860.891	2712.08
861.212	2703.94
861.534	2708.46
861.855	2709.14
862.176	2717.95
862.498	2731.96
862.819	2718.18
863.14	2678.4
863.461	2694.67
863.782	2657.16
864.103	2679.53
864.424	2675.92
864.745	2658.52
865.065	2634.34
865.386	2633.89
865.707	2688.12
866.027	2692.87
866.348	2663.26
866.668	2645.41
866.989	2638.86
867.309	2638.63
867.63	2656.71
867.95	2586.2
868.27	2586.88
868.59	2668.91
868.91	2624.85
869.23	2658.52
869.55	2628.24
869.87	2643.15
870.19	2593.21
870.51	2606.77
870.83	2593.89
871.15	2573.32
871.469	2603.15
871.789	2598.86
872.109	2558.63
872.428	2567.22
872.748	2587.79
873.067	2559.31
873.386	2573.55
873.706	2587.79
874.025	2575.13
874.344	2557.96
874.663	2532.87
874.982	2564.28
875.301	2542.14
875.62	2527.9
875.939	2555.7
876.258	2573.32
876.577	2514.79
876.896	2451.74
877.214	2491.52
877.533	2513.21
877.852	2517.05
878.17	2529.71
878.489	2538.75
878.807	2547.33
879.125	2519.54
879.444	2527.22
879.762	2466.66
880.08	2472.53
880.398	2473.21
880.716	2497.17
881.034	2460.1
881.352	2484.28
881.67	2474.79
881.988	2510.27
882.306	2468.69
882.624	2462.36
882.941	2446.09
883.259	2468.69
883.577	2427.56
883.894	2442.48
884.212	2445.19
884.529	2452.65
884.846	2458.07
885.164	2450.39
885.481	2433.21
885.798	2414.91
886.115	2379.43
886.432	2410.16
886.75	2376.72
887.067	2381.01
887.383	2373.55
887.7	2383.04
888.017	2379.88
888.334	2402.93
888.651	2368.13
888.967	2340.33
889.284	2383.95
889.6	2358.19
889.917	2353.44
890.233	2329.94
890.55	2305.08
890.866	2313.67
891.182	2335.81
891.498	2317.51
891.815	2311.18
892.131	2289.49
892.447	2346.66
892.763	2270.96
893.079	2278.41
893.395	2292.88
893.71	2281.8
894.026	2280.9
894.342	2215.14
894.657	2264.4
894.973	2247.91
895.289	2260.34
895.604	2265.31
895.92	2214.91
896.235	2246.78
896.55	2203.84
896.865	2242.71
897.181	2209.94
897.496	2176.5
897.811	2185.31
898.126	2172.65
898.441	2182.37
898.756	2175.14
899.071	2192.77
899.386	2156.61
899.7	2155.48
900.015	2154.8
900.33	2150.06
900.644	2117.97
900.959	2100.11
901.273	2134.24
901.588	2122.71
901.902	2094.46
902.216	2099.89
902.531	2119.77
902.845	2101.24
903.159	2065.99
903.473	2094.01
903.787	2072.09
904.101	2091.53
904.415	2045.88
904.729	2056.5
905.042	2026.9
905.356	2024.41
905.67	2054.01
905.984	2003.39
906.297	2022.6
906.611	2025.99
906.924	2017.18
907.237	2033.68
907.551	1998.65
907.864	2031.64
908.177	1988.25
908.491	2005.2
908.804	1944.19
909.117	1967.01
909.43	1935.6
909.743	1933.56
910.056	1942.6
910.368	1919.1
910.681	1938.31
910.994	1921.59
911.307	1889.5
911.619	1921.14
911.932	1906.45
912.244	1905.77
912.557	1903.96
912.869	1879.78
913.181	1849.5
913.494	1880.23
913.806	1880.46
914.118	1881.81
914.43	1840.69
914.742	1836.39
915.054	1850.63
915.366	1823.96
915.678	1807.69
915.99	1850.86
916.302	1800.24
916.613	1790.52
916.925	1793
917.236	1798.2
917.548	1823.06
917.859	1784.19
918.171	1791.87
918.482	1751.42
918.794	1779.22
919.105	1759.11
919.416	1748.26
919.727	1751.42
920.038	1781.93
920.349	1734.02
920.66	1711.42
920.971	1737.64
921.282	1715.94
921.593	1708.71
921.903	1694.02
922.214	1700.35
922.525	1668.94
922.835	1691.54
923.146	1677.98
923.456	1675.94
923.767	1666.45
924.077	1655.83
924.387	1663.29
924.697	1623.74
925.008	1644.31
925.318	1659.9
925.628	1641.14
925.938	1615.16
926.248	1633.46
926.558	1631.88
926.867	1594.36
927.177	1587.13
927.487	1654.02
927.796	1613.57
928.106	1597.75
928.416	1614.48
928.725	1609.28
929.034	1597.08
929.344	1548.94
929.653	1550.07
929.962	1584.87
930.271	1561.37
930.581	1555.95
930.89	1535.84
931.199	1549.85
931.508	1535.61
931.817	1522.95
932.125	1519.79
932.434	1484.09
932.743	1504.42
933.051	1467.36
933.36	1479.57
933.669	1507.36
933.977	1492.22
934.286	1487.48
934.594	1472.79
934.902	1464.65
935.21	1467.36
935.519	1435.72
935.827	1476.85
936.135	1472.56
936.443	1450.87
936.751	1439.11
937.059	1423.52
937.367	1442.73
937.674	1435.72
937.982	1413.13
938.29	1389.4
938.597	1426.23
938.905	1394.6
939.213	1403.41
939.52	1409.74
939.827	1407.93
940.135	1402.05
940.442	1363.41
940.749	1385.33
941.056	1388.27
941.363	1359.79
941.67	1353.24
941.977	1376.97
942.284	1334.71
942.591	1350.98
942.898	1333.58
943.205	1375.16
943.511	1316.41
943.818	1340.81
944.125	1336.52
944.431	1300.14
944.738	1319.8
945.044	1330.64
945.35	1297.2
945.657	1307.14
945.963	1335.61
946.269	1302.4
946.575	1288.84
946.881	1278.67
947.187	1299.68
947.493	1260.59
947.799	1274.37
948.105	1256.97
948.41	1248.39
948.716	1261.94
949.022	1268.05
949.327	1248.39
949.633	1234.37
949.938	1242.28
950.244	1250.87
950.549	1219.01
950.854	1237.76
951.16	1223.98
951.465	1229.63
951.77	1211.32
952.075	1217.88
952.38	1214.94
952.685	1204.54
952.99	1203.87
953.294	1184.43
953.599	1218.1
953.904	1205.45
954.209	1204.77
954.513	1178.56
954.818	1200.25
955.122	1172
955.426	1152.34
955.731	1150.53
956.035	1190.08
956.339	1182.85
956.643	1167.03
956.948	1182.62
957.252	1149.4
957.556	1162.51
957.86	1134.26
958.163	1144.66
958.467	1130.2
958.771	1123.87
959.075	1139.69
959.378	1115.06
959.682	1141.72
959.985	1121.16
960.289	1097.88
960.592	1090.42
960.896	1094.27
961.199	1101.27
961.502	1083.64
961.805	1094.49
962.108	1074.38
962.411	1094.27
962.714	1099.24
963.017	1088.62
963.32	1077.77
963.623	1052.01
963.926	1074.38
964.228	1064.89
964.531	1063.53
964.833	1064.21
965.136	1039.8
965.438	1040.03
965.741	1031.44
966.043	1043.42
966.345	1051.55
966.648	1037.32
966.95	1040.48
967.252	1025.79
967.554	1051.1
967.856	1038.9
968.158	1008.39
968.46	1042.06
968.761	1029.86
969.063	996.87
969.365	1006.36
969.666	988.73
969.968	1024.44
970.269	990.54
970.571	983.76
970.872	972.01
971.174	984.66
971.475	959.81
971.776	974.27
972.077	983.53
972.378	955.29
972.679	983.08
972.98	972.91
973.281	957.77
973.582	954.83
973.883	950.54
974.183	937.66
974.484	947.15
974.785	948.51
975.085	949.18
975.386	927.94
975.686	939.92
975.986	927.04
976.287	927.94
976.587	924.33
976.887	907.6
977.187	921.16
977.487	948.28
977.787	907.6
978.087	917.55
978.387	930.2
978.687	900.15
978.987	891.33
979.286	906.47
979.586	912.35
979.885	915.06
980.185	890.65
980.484	912.8
980.784	873.03
981.083	900.82
981.382	909.19
981.682	889.3
981.981	900.6
982.28	888.62
982.579	850.2
982.878	873.71
983.177	875.29
983.475	854.72
983.774	865.57
984.073	860.15
984.372	870.99
984.67	875.51
984.969	857.89
985.267	845.01
985.566	849.3
985.864	806.14
986.162	831.22
986.461	835.97
986.759	857.44
987.057	827.61
987.355	830.77
987.653	824.67
987.951	847.04
988.249	833.03
988.547	812.92
988.844	796.19
989.142	813.82
989.44	811.11
989.737	807.04
990.035	802.3
990.332	802.3
990.63	801.62
990.927	792.8
991.224	795.52
991.521	795.06
991.819	779.92
992.116	820.83
992.413	771.79
992.71	787.61
993.006	766.36
993.303	761.39
993.6	777.44
993.897	791.22
994.193	775.86
994.49	771.56
994.787	765.23
995.083	794.16
995.379	771.79
995.676	745.57
995.972	756.19
996.268	727.27
996.565	756.42
996.861	725.69
997.157	767.95
997.453	746.7
997.749	731.79
998.044	740.15
998.34	750.55
998.636	748.96
998.932	728.85
999.227	725.01
999.523	746.48
999.818	725.91
1000.114	725.24
1000.409	720.49
1000.704	734.95
1001	719.13
1001.295	714.39
1001.59	701.28
1001.885	720.26
1002.18	686.37
1002.475	695.63
1002.77	712.58
1003.065	709.64
1003.359	724.78
1003.654	696.54
1003.949	695.41
1004.243	679.13
1004.538	671.45
1004.832	699.02
1005.127	696.54
1005.421	680.72
1005.715	671
1006.009	667.84
1006.304	686.82
1006.598	671
1006.892	676.87
1007.186	674.39
1007.48	652.02
1007.773	644.79
1008.067	656.99
1008.361	643.88
1008.655	643.2
1008.948	654.73
1009.242	645.01
1009.535	661.51
1009.829	622.19
1010.122	649.3
1010.415	636.65
1010.708	641.4
1011.001	620.83
1011.295	638.23
1011.588	617.22
1011.881	623.99
1012.173	606.59
1012.466	625.8
1012.759	606.82
1013.052	625.12
1013.344	613.83
1013.637	632.58
1013.93	631.45
1014.222	624.67
1014.514	616.76
1014.807	620.61
1015.099	605.92
1015.391	612.47
1015.683	597.78
1015.976	587.84
1016.268	613.83
1016.56	621.74
1016.851	597.55
1017.143	586.93
1017.435	578.57
1017.727	562.08
1018.018	588.29
1018.31	595.3
1018.602	567.27
1018.893	579.93
1019.185	582.64
1019.476	579.93
1019.767	567.05
1020.058	541.96
1020.35	568.63
1020.641	565.01
1020.932	566.82
1021.223	557.33
1021.514	549.42
1021.804	540.83
1022.095	538.12
1022.386	530.66
1022.677	547.39
1022.967	540.16
1023.258	555.3
1023.548	525.47
1023.839	548.06
1024.129	552.58
1024.419	538.35
1024.709	530.66
1025	521.85
1025.29	531.34
1025.58	526.6
1025.87	540.61
1026.16	513.26
1026.449	510.33
1026.739	512.59
1027.029	525.47
1027.319	532.92
1027.608	507.16
1027.898	509.65
1028.187	525.47
1028.477	506.03
1028.766	512.81
1029.055	493.38
1029.344	499.7
1029.634	502.42
1029.923	508.29
1030.212	504.22
1030.501	487.28
1030.79	520.95
1031.078	492.47
1031.367	501.29
1031.656	503.77
1031.945	478.69
1032.233	501.96
1032.522	502.19
1032.81	496.77
1033.099	504
1033.387	491.79
1033.675	461.97
1033.963	471.91
1034.251	477.33
1034.54	474.85
1034.828	476.2
1035.116	479.14
1035.403	465.13
1035.691	442.53
1035.979	453.38
1036.267	478.69
1036.554	464.68
1036.842	451.34
1037.129	483.21
1037.417	471.46
1037.704	479.59
1037.992	452.47
1038.279	429.2
1038.566	468.07
1038.853	468.07
1039.14	468.07
