Data from blue_clamp_base_FLMS001491_00054.txt Node
Date: Wed Feb 08 15:16:12 GMT 2017
User: dcchb
Spectrometer: FLMS00149
Trigger mode: 0
Integration Time (sec): 2.000000E-2
Scans to average: 10
Electric dark correction enabled: true
Nonlinearity correction enabled: false
Boxcar width: 0
XAxis mode: Wavelengths
Number of Pixels in Spectrum: 2048
>>>>>Begin Spectral Data<<<<<
341.393	-26.12
341.776	-26.12
342.16	-26.12
342.543	-45.55
342.927	-88.49
343.31	-69.05
343.693	-64.98
344.077	-72.44
344.46	-60.46
344.843	-64.31
345.226	-49.84
345.61	-21.6
345.993	-37.87
346.376	13.21
346.759	17.73
347.142	59.76
347.525	27.22
347.908	62.02
348.291	68.12
348.674	97.27
349.057	95.24
349.44	131.39
349.823	140.66
350.206	166.87
350.588	177.72
350.971	203.48
351.354	231.73
351.737	234.89
352.119	241
352.502	238.06
352.884	259.53
353.267	266.98
353.65	290.26
354.032	300.2
354.414	305.4
354.797	292.75
355.179	324.16
355.562	313.31
355.944	319.19
356.326	328.23
356.709	323.93
357.091	336.36
357.473	336.59
357.855	323.25
358.238	338.62
358.62	334.78
359.002	354.21
359.384	338.17
359.766	341.11
360.148	332.07
360.53	318.73
360.912	326.87
361.294	329.36
361.676	330.71
362.057	342.01
362.439	323.71
362.821	342.24
363.203	321.22
363.584	311.5
363.966	309.92
364.348	327.55
364.729	316.02
365.111	318.96
365.493	309.7
365.874	313.54
366.256	315.8
366.637	302.46
367.019	302.46
367.4	316.25
367.781	322.35
368.163	330.49
368.544	291.62
368.925	305.18
369.306	308.57
369.688	311.96
370.069	310.37
370.45	322.58
370.831	308.57
371.212	307.21
371.593	322.35
371.974	312.41
372.355	291.84
372.736	309.24
373.117	314.21
373.498	324.16
373.879	312.18
374.26	329.36
374.641	315.12
375.021	304.27
375.402	324.84
375.783	338.17
376.163	322.35
376.544	306.98
376.925	314.44
377.305	319.64
377.686	309.02
378.066	325.51
378.447	330.71
378.827	311.96
379.208	337.49
379.588	353.08
379.968	336.59
380.349	324.38
380.729	337.72
381.109	338.62
381.489	342.24
381.87	323.03
382.25	321.22
382.63	320.77
383.01	332.75
383.39	340.2
383.77	331.84
384.15	344.5
384.53	347.21
384.91	351.5
385.29	351.95
385.67	357.6
386.049	350.15
386.429	335.68
386.809	358.28
387.189	329.81
387.568	348.79
387.948	355.12
388.328	370.48
388.707	351.28
389.087	388.79
389.466	368.22
389.846	388.11
390.225	367.77
390.605	386.76
390.984	375.91
391.363	371.39
391.743	375.68
392.122	378.62
392.501	370.71
392.881	393.08
393.26	404.38
393.639	398.96
394.018	409.58
394.397	398.73
394.776	414.1
395.155	403.03
395.534	414.1
395.913	421.33
396.292	415.91
396.671	436.25
397.05	461.33
397.429	435.57
397.808	436.25
398.186	455.45
398.565	442.8
398.944	451.61
399.323	459.3
399.701	433.99
400.08	451.39
400.458	490.93
400.837	474.89
401.215	464.49
401.594	476.92
401.972	480.31
402.351	478.5
402.729	509.24
403.107	497.03
403.486	517.83
403.864	517.6
404.242	539.75
404.62	530.03
404.999	537.03
405.377	542.23
405.755	539.07
406.133	574.55
406.511	587.2
406.889	540.2
407.267	558.28
407.645	556.69
408.023	608.22
408.401	599.63
408.779	591.27
409.156	619.52
409.534	561.89
409.912	621.55
410.29	620.2
410.667	629.23
411.045	623.13
411.422	626.52
411.8	650.48
412.178	665.62
412.555	659.29
412.933	668.56
413.31	657.71
413.687	691.83
414.065	710.59
414.442	696.58
414.819	684.6
415.197	714.88
415.574	711.94
415.951	770.47
416.328	743.36
416.705	743.36
417.082	735.67
417.46	748.55
417.837	760.08
418.214	751.72
418.591	789.91
418.967	776.12
419.344	771.83
419.721	789.68
420.098	805.5
420.475	772.51
420.852	805.28
421.228	835.33
421.605	842.34
421.982	848.44
422.358	872.39
422.735	861.09
423.111	858.38
423.488	893.86
423.864	889.57
424.241	899.51
424.617	920.75
424.994	897.02
425.37	915.33
425.746	926.4
426.123	945.16
426.499	947.64
426.875	972.5
427.251	991.49
427.627	997.36
428.003	990.13
428.379	1036
428.756	1038.04
429.132	1028.55
429.507	1050.47
429.883	1067.87
430.259	1093.18
430.635	1090.69
431.011	1118.49
431.387	1167.53
431.763	1155.55
432.138	1146.74
432.514	1121.88
432.89	1142.44
433.265	1216.11
433.641	1258.37
434.016	1220.63
434.392	1264.92
434.767	1266.28
435.143	1280.07
435.518	1277.58
435.894	1308.09
436.269	1297.24
436.644	1327.75
437.02	1370.01
437.395	1327.97
437.77	1400.74
438.145	1389.89
438.52	1410.23
438.895	1422.43
439.271	1435.09
439.646	1489.1
440.021	1472.38
440.395	1488.2
440.77	1491.13
441.145	1504.69
441.52	1523
441.895	1549.89
442.27	1541.3
442.645	1560.74
443.019	1591.7
443.394	1588.08
443.769	1590.11
444.143	1614.75
444.518	1617.23
444.892	1622.66
445.267	1659.72
445.641	1648.87
446.016	1683.9
446.39	1702.2
446.764	1694.07
447.139	1711.24
447.513	1722.09
447.887	1708.3
448.262	1743.1
448.636	1748.53
449.01	1781.07
449.384	1774.29
449.758	1789.88
450.132	1818.81
450.506	1849.54
450.88	1846.6
451.254	1856.55
451.628	1896.32
452.002	1924.57
452.376	1939.93
452.75	1914.85
453.123	1956.21
453.497	1988.52
453.871	1995.53
454.244	2012.48
454.618	2038.92
454.992	2098.57
455.365	2049.99
455.739	2142.42
456.112	2148.06
456.486	2153.04
456.859	2184.22
457.232	2222.41
457.606	2249.98
457.979	2247.95
458.352	2263.32
458.725	2333.82
459.099	2332.01
459.472	2409.75
459.845	2403.43
460.218	2407.04
460.591	2454.5
460.964	2455.63
461.337	2484.55
461.71	2525.91
462.083	2546.25
462.456	2552.57
462.829	2594.15
463.201	2639.58
463.574	2610.65
463.947	2640.48
464.32	2716.64
464.692	2695.62
465.065	2749.63
465.438	2810.19
465.81	2800.25
466.183	2827.6
466.555	2901.49
466.928	2946.24
467.3	2915.28
467.672	2955.05
468.045	2987.14
468.417	3002.05
468.789	3045.89
469.161	3072.33
469.534	3129.73
469.906	3188.72
470.278	3192.11
470.65	3238.21
471.022	3273.23
471.394	3345.32
471.766	3344.42
472.138	3369.73
472.51	3470.06
472.882	3487.01
473.253	3513
473.625	3546.67
473.997	3611.98
474.369	3656.73
474.74	3679.1
475.112	3736.95
475.484	3827.79
475.855	3857.4
476.227	3881.35
476.598	3948.92
476.97	3966.55
477.341	4061.24
477.713	4126.77
478.084	4108.01
478.455	4200.21
478.827	4258.07
479.198	4288.8
479.569	4339.42
479.94	4445.18
480.311	4449.93
480.682	4536.02
481.053	4660.54
481.424	4646.76
481.795	4684.04
482.166	4737.83
482.537	4814.89
482.908	4909.35
483.279	4863.93
483.65	4972.4
484.021	5075.9
484.391	5092.17
484.762	5161.55
485.133	5134.2
485.503	5231.6
485.874	5342.11
486.244	5250.13
486.615	5346.62
486.985	5458.71
487.356	5492.84
487.726	5531.25
488.097	5590.46
488.467	5601.99
488.837	5698.93
489.207	5716.33
489.578	5751.13
489.948	5833.84
490.318	5879.72
490.688	5916.78
491.058	5923.33
491.428	6012.14
491.798	6026.83
492.168	6144.8
492.538	6140.95
492.908	6165.59
493.278	6206.04
493.648	6232.93
494.017	6257.79
494.387	6314.28
494.757	6331.01
495.126	6308.18
495.496	6380.95
495.866	6341.4
496.235	6419.14
496.605	6508.63
496.974	6465.92
497.344	6524.45
497.713	6570.32
498.082	6556.54
498.452	6627.95
498.821	6637.89
499.19	6598.34
499.559	6695.97
499.928	6676.31
500.298	6682.86
500.667	6728.96
501.036	6781.39
501.405	6768.06
501.774	6744.1
502.143	6756.08
502.512	6809.19
502.88	6827.94
503.249	6884.21
503.618	6841.73
503.987	6845.57
504.356	6957.43
504.724	6894.15
505.093	6921.72
505.462	6908.84
505.83	6950.2
506.199	6975.51
506.567	7043.08
506.936	7078.1
507.304	7065.9
507.672	7080.36
508.041	7110.42
508.409	7124.43
508.777	7174.15
509.145	7165.79
509.514	7176.63
509.882	7205.56
510.25	7179.57
510.618	7213.47
510.986	7285.56
511.354	7303.18
511.722	7284.43
512.09	7342.28
512.458	7294.82
512.826	7374.37
513.193	7388.61
513.561	7384.09
513.929	7443.07
514.297	7444.87
514.664	7486
515.032	7500.01
515.4	7542.95
515.767	7520.13
516.135	7547.7
516.502	7527.81
516.869	7544.99
517.237	7638.54
517.604	7502.05
517.972	7690.97
518.339	7659.78
518.706	7644.42
519.073	7641.93
519.44	7697.75
519.808	7746.34
520.175	7749.73
520.542	7823.85
520.909	7838.99
521.276	7836.95
521.643	7828.82
522.009	7864.3
522.376	7885.32
522.743	7937.74
523.11	7940.68
523.477	8050.96
523.843	8082.37
524.21	8112.65
524.577	8111.3
524.943	8143.16
525.31	8183.39
525.676	8216.83
526.043	8246.21
526.409	8208.24
526.776	8341.12
527.142	8325.98
527.508	8376.38
527.874	8373.89
528.241	8425.87
528.607	8411.63
528.973	8431.52
529.339	8487.11
529.705	8498.41
530.071	8642.58
530.437	8535.47
530.803	8624.96
531.169	8589.7
531.535	8566.43
531.901	8671.51
532.267	8701.11
532.632	8746.31
532.998	8745.86
533.364	8723.26
533.73	8774.33
534.095	8847.78
534.461	8880.32
534.826	8877.15
535.192	8913.54
535.557	8972.97
535.923	8859.75
536.288	8960.32
536.653	9010.94
537.019	8974.55
537.384	9065.85
537.749	9062.91
538.114	9061.56
538.479	9029.92
538.845	9104.49
539.21	9112.18
539.575	9171.61
539.94	9193.08
540.305	9195.56
540.67	9118.96
541.034	9194.66
541.399	9191.72
541.764	9279.4
542.129	9288.22
542.494	9278.27
542.858	9267.43
543.223	9301.78
543.587	9352.17
543.952	9333.41
544.316	9380.87
544.681	9318.27
545.045	9314.66
545.41	9425.16
545.774	9410.47
546.138	9487.08
546.503	9425.16
546.867	9445.73
547.231	9436.23
547.595	9471.26
547.959	9475.1
548.324	9488.44
548.688	9484.37
549.052	9524.14
549.416	9552.62
549.779	9452.96
550.143	9540.19
550.507	9592.84
550.871	9566.63
551.235	9595.78
551.599	9692.27
551.962	9580.41
552.326	9679.39
552.689	9704.25
553.053	9676.91
553.417	9686.17
553.78	9732.27
554.143	9751.93
554.507	9722.78
554.87	9806.85
555.234	9839.16
555.597	9748.54
555.96	9819.95
556.323	9880.74
556.686	9855.21
557.05	9841.42
557.413	9859.73
557.776	9882.1
558.139	9889.33
558.502	9870.12
558.865	9860.4
559.228	9938.82
559.59	10022.89
559.953	9998.71
560.316	9949.22
560.679	10042.55
561.041	10106.27
561.404	10117.8
561.767	10142.21
562.129	10137.69
562.492	10152.6
562.854	10142.21
563.217	10167.97
563.579	10145.82
563.941	10252.48
564.304	10273.28
564.666	10304.91
565.028	10305.59
565.39	10346.27
565.753	10366.61
566.115	10379.04
566.477	10384.91
566.839	10448.19
567.201	10518.01
567.563	10475.3
567.925	10624
568.287	10539.48
568.648	10514.4
569.01	10618.58
569.372	10768.63
569.734	10733.6
570.095	10732.25
570.457	10829.19
570.819	10782.19
571.18	10802.07
571.542	10816.99
571.903	10862.19
572.265	10910.55
572.626	10953.03
572.987	10951.9
573.349	10955.97
573.71	10969.98
574.071	10972.69
574.432	11030.54
574.794	11008.4
575.155	11078.9
575.516	11043.88
575.877	11158.22
576.238	11171.1
576.599	11232.12
576.96	11146.02
577.32	11223.76
577.681	11292.91
578.042	11286.81
578.403	11221.95
578.763	11320.25
579.124	11331.55
579.485	11320.93
579.845	11373.36
580.206	11431.21
580.566	11350.76
580.927	11442.74
581.287	11473.92
581.648	11383.08
582.008	11496.75
582.368	11426.69
582.728	11539.68
583.089	11458.33
583.449	11506.91
583.809	11526.8
584.169	11507.59
584.529	11515.5
584.889	11589.85
585.249	11533.13
585.609	11490.64
585.969	11585.56
586.329	11527.03
586.688	11588.72
587.048	11563.64
587.408	11558.67
587.768	11587.36
588.127	11530.42
588.487	11510.3
588.846	11664.65
589.206	11580.59
589.565	11513.24
589.925	11657.42
590.284	11674.14
590.643	11637.98
591.003	11691.09
591.362	11681.83
591.721	11746
592.08	11700.13
592.44	11718.66
592.799	11680.92
593.158	11745.1
593.517	11734.03
593.876	11666.01
594.235	11659.68
594.593	11711.88
594.952	11735.61
595.311	11732.67
595.67	11760.69
596.029	11835.04
596.387	11807.7
596.746	11848.83
597.104	11802.73
597.463	11742.84
597.822	11885.44
598.18	11754.82
598.538	11734.93
598.897	11889.73
599.255	11757.08
599.613	11951.88
599.972	11878.66
600.33	11915.49
600.688	11913.91
601.046	11871.65
601.404	11964.98
601.762	11901.71
602.12	12016.05
602.478	11955.49
602.836	11865.1
603.194	11860.8
603.552	11938.32
603.91	11866
604.268	11917.53
604.625	11888.6
604.983	11951.2
605.341	11918.2
605.698	11933.8
606.056	12002.5
606.413	11967.47
606.771	12037.52
607.128	12010.63
607.485	11879.56
607.843	11965.21
608.2	12051.99
608.557	12088.37
608.914	12041.14
609.272	12060.57
609.629	12130.4
609.986	12084.98
610.343	12054.47
610.7	12074.36
611.057	12126.11
611.414	12121.81
611.771	12160.23
612.127	12270.28
612.484	12222.15
612.841	12195.26
613.198	12197.97
613.554	12210.4
613.911	12263.96
614.267	12247.91
614.624	12242.26
614.98	12291.75
615.337	12358.87
615.693	12272.32
616.05	12207.91
616.406	12422.82
616.762	12364.07
617.118	12362.71
617.475	12407
617.831	12416.5
618.187	12451.52
618.543	12443.61
618.899	12588.24
619.255	12504.18
619.611	12472.99
619.967	12503.27
620.323	12446.33
620.678	12543.27
621.034	12465.31
621.39	12552.09
621.746	12457.62
622.101	12683.38
622.457	12491.75
622.812	12606.55
623.168	12598.41
623.523	12676.15
623.879	12689.71
624.234	12611.52
624.589	12700.78
624.945	12723.61
625.3	12724.28
625.655	12621.24
626.01	12652.65
626.365	12727
626.72	12645.64
627.075	12700.56
627.43	12729.26
627.785	12724.28
628.14	12738.75
628.495	12818.52
628.85	12744.17
629.205	12760.89
629.559	12818.52
629.914	12837.05
630.269	12821.68
630.623	12832.08
630.978	12849.93
631.332	12891.51
631.687	12850.83
632.041	12843.6
632.396	12858.74
632.75	12797.95
633.104	12909.82
633.459	12767.22
633.813	12824.62
634.167	12882.47
634.521	12896.48
634.875	12849.93
635.229	12882.02
635.583	12901.45
635.937	12922.92
636.291	12921.57
636.645	12951.62
636.999	12901.91
637.352	12948.01
637.706	12887.22
638.06	13026.42
638.413	13127.89
638.767	12973.09
639.121	13038.63
639.474	13086.53
639.828	13008.57
640.181	13067.55
640.534	13076.37
640.888	13035.46
641.241	13022.36
641.594	13005.41
641.947	13094.22
642.301	13013.09
642.654	13086.31
643.007	13173.54
643.36	13142.35
643.713	13186.87
644.066	13190.94
644.419	13077.27
644.771	13091.96
645.124	13046.76
645.477	13002.47
645.83	13073.88
646.182	12998.18
646.535	12888.35
646.888	12875.24
647.24	12884.05
647.593	12932.87
647.945	12892.42
648.298	12824.39
648.65	12797.28
649.002	12861.23
649.355	12952.98
649.707	12964.73
650.059	13120.88
650.411	13213.31
650.763	13221.22
651.115	13408.11
651.467	13321.1
651.819	13426.86
652.171	13432.06
652.523	13419.86
652.875	13463.25
653.227	13315.68
653.578	13464.6
653.93	13498.73
654.282	13407.43
654.633	13453.08
654.985	13471.16
655.337	13500.99
655.688	13476.81
656.039	13595.67
656.391	13492.63
656.742	13565.84
657.094	13568.78
657.445	13669.12
657.796	13553.87
658.147	13531.04
658.498	13604.03
658.849	13587.76
659.2	13640.19
659.551	13507.09
659.902	13669.8
660.253	13596.35
660.604	13688.55
660.955	13658.72
661.306	13694.65
661.656	13674.09
662.007	13724.94
662.358	13728.78
662.708	13677.48
663.059	13685.61
663.409	13687.2
663.76	13823.69
664.11	13694.43
664.461	13684.26
664.811	13737.82
665.161	13732.39
665.511	13693.52
665.862	13738.72
666.212	13771.94
666.562	13695.11
666.912	13799.28
667.262	13684.03
667.612	13723.81
667.962	13738.49
668.312	13718.38
668.662	13821.43
669.011	13729.23
669.361	13678.84
669.711	13611.27
670.06	13624.83
670.41	13623.02
670.76	13642.23
671.109	13601.1
671.459	13658.27
671.808	13592.74
672.157	13630.7
672.507	13412.18
672.856	13461.44
673.205	13506.41
673.554	13504.38
673.904	13383.48
674.253	13520.42
674.602	13283.37
674.951	13138.51
675.3	13075.69
675.649	13333.31
675.998	13252.18
676.346	13329.01
676.695	13369.46
677.044	13213.08
677.393	13092.18
677.741	13253.08
678.09	13220.77
678.438	13189.13
678.787	13149.36
679.135	13141.9
679.484	13018.74
679.832	13078.4
680.181	12951.85
680.529	13050.38
680.877	13012.19
681.225	12922.7
681.573	12958.18
681.922	12858.52
682.27	12845.86
682.618	12899.65
682.966	12837.73
683.314	12823.04
683.661	12771.97
684.009	12682.93
684.357	12690.84
684.705	12682.03
685.053	12689.03
685.4	12653.55
685.748	12514.12
686.095	12618.75
686.443	12496.72
686.79	12484.06
687.138	12558.86
687.485	12449.04
687.832	12498.98
688.18	12481.13
688.527	12459.21
688.874	12425.31
689.221	12345.99
689.568	12327.91
689.915	12351.41
690.262	12337.63
690.609	12258.76
690.956	12241.81
691.303	12241.36
691.65	12172.66
691.997	12270.74
692.344	12054.92
692.69	12103.96
693.037	12191.64
693.383	12129.27
693.73	12070.97
694.077	11995.26
694.423	11957.07
694.769	11972.44
695.116	11965.66
695.462	12052.66
695.808	11981.7
696.155	12011.76
696.501	11918.88
696.847	11904.42
697.193	11787.59
697.539	11888.37
697.885	11871.2
698.231	11865.55
698.577	11849.96
698.923	11843.86
699.269	11804.31
699.614	11712.33
699.96	11830.52
700.306	11753.46
700.651	11782.84
700.997	11751.43
701.342	11761.6
701.688	11662.84
702.033	11665.33
702.379	11715.95
702.724	11657.42
703.069	11787.59
703.415	11643.86
703.76	11613.8
704.105	11648.61
704.45	11593.01
704.795	11586.69
705.14	11519.57
705.485	11595.5
705.83	11430.08
706.175	11546.01
706.52	11450.87
706.865	11404.32
707.209	11485.22
707.554	11513.24
707.899	11551.66
708.243	11494.49
708.588	11445.67
708.932	11382.4
709.277	11394.83
709.621	11443.19
709.966	11352.12
710.31	11444.77
710.654	11315.28
710.998	11388.05
711.342	11383.08
711.687	11375.84
712.031	11407.03
712.375	11303.76
712.719	11339.24
713.063	11358.67
713.407	11374.49
713.75	11346.47
714.094	11425.79
714.438	11278.9
714.782	11310.76
715.125	11345.79
715.469	11348.95
715.812	11289.07
716.156	11242.97
716.499	11280.03
716.843	11305.34
717.186	11209.97
717.53	11263.98
717.873	11282.29
718.216	11320.48
718.559	11261.95
718.902	11182.86
719.246	11223.31
719.589	11230.54
719.932	11115.06
720.275	11174.95
720.617	11153.25
720.96	11104.67
721.303	11231.89
721.646	11158.9
721.989	11100.15
722.331	11162.74
722.674	11162.29
723.016	11172.69
723.359	11175.4
723.701	11131.33
724.044	11084.33
724.386	11038.9
724.729	11195.74
725.071	11183.31
725.413	11144.21
725.755	11123.65
726.097	11161.16
726.439	11007.72
726.782	11099.47
727.124	11140.82
727.465	11100.82
727.807	11160.48
728.149	11066.93
728.491	11101.28
728.833	11155.96
729.175	11105.57
729.516	11137.89
729.858	11169.07
730.199	11112.8
730.541	11202.29
730.882	11146.47
731.224	11199.13
731.565	11143.08
731.906	11200.26
732.248	11166.58
732.589	11151.44
732.93	11185.34
733.271	11165.68
733.612	11230.09
733.953	11212.46
734.294	11240.71
734.635	11201.61
734.976	11295.17
735.317	11231.89
735.658	11322.51
735.999	11291.55
736.339	11309.18
736.68	11332.91
737.021	11327.26
737.361	11334.04
737.702	11414.49
738.042	11431.44
738.383	11400.48
738.723	11450.19
739.063	11411.78
739.404	11508.5
739.744	11440.25
740.084	11515.05
740.424	11486.35
740.764	11484.54
741.104	11580.36
741.444	11637.76
741.784	11571.77
742.124	11593.47
742.464	11663.52
742.804	11632.11
743.143	11667.81
743.483	11761.6
743.823	11725.44
744.162	11689.28
744.502	11714.14
744.841	11741.71
745.181	11877.53
745.52	11817.42
745.86	11929.28
746.199	11904.42
746.538	11877.98
746.877	11989.39
747.216	12044.98
747.556	12049.73
747.895	12084.3
748.234	12104.64
748.573	12161.81
748.911	12163.85
749.25	12229.38
749.589	12200.91
749.928	12309.83
750.267	12336.72
750.605	12295.14
750.944	12425.99
751.283	12320.9
751.621	12529.26
751.96	12387.12
752.298	12508.7
752.636	12528.81
752.975	12513.44
753.313	12598.64
753.651	12607.9
753.989	12623.5
754.327	12659.65
754.666	12569.26
755.004	12746.43
755.342	12772.19
755.679	12812.87
756.017	12772.19
756.355	12883.38
756.693	12857.16
757.031	12976.71
757.368	12933.54
757.706	12893.09
758.044	12932.41
758.381	12990.04
758.719	12992.3
759.056	13085.86
759.394	13099.87
759.731	13117.72
760.068	13129.7
760.405	13106.42
760.743	13073.65
761.08	13197.49
761.417	13138.96
761.754	13156.36
762.091	13260.09
762.428	13252.18
762.765	13274.78
763.102	13325.4
763.438	13217.38
763.775	13251.28
764.112	13292.86
764.449	13453.08
764.785	13385.51
765.122	13284.5
765.458	13372.4
765.795	13345.74
766.131	13456.69
766.467	13388.45
766.804	13328.11
767.14	13474.32
767.476	13451.5
767.812	13384.83
768.148	13454.43
768.485	13427.99
768.821	13406.75
769.157	13461.89
769.492	13453.08
769.828	13435.45
770.164	13403.14
770.5	13391.61
770.836	13481.33
771.171	13371.05
771.507	13505.73
771.842	13338.28
772.178	13436.58
772.513	13499.63
772.849	13498.28
773.184	13497.15
773.519	13579.85
773.855	13446.3
774.19	13439.29
774.525	13393.65
774.86	13501.44
775.195	13526.3
775.53	13488.56
775.865	13441.1
776.2	13396.13
776.535	13377.15
776.87	13387.09
777.205	13382.57
777.539	13414.89
777.874	13411.27
778.209	13348.22
778.543	13333.53
778.878	13293.53
779.212	13314.78
779.547	13400.42
779.881	13444.94
780.215	13363.36
780.55	13380.99
780.884	13377.6
781.218	13305.51
781.552	13373.31
781.886	13379.18
782.22	13219.64
782.554	13302.12
782.888	13176.7
783.222	13187.32
783.556	13202.46
783.889	13164.72
784.223	13149.81
784.557	13102.13
784.89	13151.17
785.224	13105.52
785.557	13113.88
785.891	13170.37
786.224	13208.11
786.558	13125.63
786.891	13015.8
787.224	13060.09
787.557	13075.24
787.891	13039.3
788.224	13162.69
788.557	13035.24
788.89	12997.27
789.223	13118.62
789.556	12986.42
789.888	12902.13
790.221	12895.58
790.554	12842.47
790.887	12905.75
791.219	12915.24
791.552	12891.51
791.884	12921.79
792.217	12825.07
792.549	12868.91
792.882	12816.94
793.214	12771.06
793.546	12806.99
793.879	12823.72
794.211	12731.97
794.543	12814.45
794.875	12791.4
795.207	12785.3
795.539	12792.98
795.871	12777.39
796.203	12674.12
796.535	12660.78
796.867	12714.34
797.198	12554.57
797.53	12645.87
797.862	12624.63
798.193	12607.68
798.525	12642.25
798.856	12641.35
799.188	12432.99
799.519	12510.73
799.85	12421.92
800.182	12572.88
800.513	12534.23
800.844	12426.89
801.175	12476.61
801.506	12505.76
801.837	12423.05
802.168	12364.75
802.499	12396.16
802.83	12341.7
803.161	12334.24
803.491	12242.04
803.822	12320.9
804.153	12305.99
804.483	12249.95
804.814	12190.51
805.145	12197.52
805.475	12279.32
805.805	12132.21
806.136	12100.12
806.466	12165.43
806.796	12178.76
807.126	12076.39
807.457	12011.76
807.787	12105.54
808.117	12056.73
808.447	11989.39
808.777	12017.86
809.107	11966.11
809.436	11991.87
809.766	12004.08
810.096	12037.75
810.426	11891.54
810.755	11887.7
811.085	12001.59
811.414	11859.45
811.744	11871.65
812.073	11805.66
812.403	11823.97
812.732	11757.53
813.061	11763.41
813.39	11714.37
813.719	11733.12
814.049	11748.49
814.378	11712.56
814.707	11689.28
815.036	11664.88
815.365	11641.6
815.693	11653.35
816.022	11597.53
816.351	11608.16
816.68	11474.83
817.008	11590.98
817.337	11526.35
817.665	11476.41
817.994	11498.78
818.322	11553.24
818.651	11400.93
818.979	11413.36
819.307	11439.57
819.636	11432.34
819.964	11292.68
820.292	11299.01
820.62	11409.29
820.948	11343.98
821.276	11424.43
821.604	11393.7
821.932	11356.18
822.259	11412.23
822.587	11448.84
822.915	11459.01
823.243	11474.15
823.57	11414.49
823.898	11491.32
824.225	11430.98
824.553	11441.15
824.88	11434.15
825.207	11568.61
825.535	11483.41
825.862	11551.89
826.189	11464.66
826.516	11541.26
826.843	11618.1
827.17	11645.44
827.497	11515.28
827.824	11492.23
828.151	11586.91
828.478	11556.18
828.805	11605.9
829.131	11527.48
829.458	11469.18
829.785	11546.91
830.111	11524.99
830.438	11584.43
830.764	11536.52
831.09	11624.43
831.417	11559.34
831.743	11522.06
832.069	11570.19
832.395	11479.8
832.722	11597.31
833.048	11495.16
833.374	11502.17
833.7	11452.45
834.026	11521.38
834.351	11555.05
834.677	11487.93
835.003	11491.1
835.329	11444.09
835.654	11477.99
835.98	11497.42
836.306	11515.5
836.631	11382.17
836.956	11417.88
837.282	11487.48
837.607	11343.08
837.932	11447.48
838.258	11488.61
838.583	11402.96
838.908	11333.13
839.233	11360.25
839.558	11298.33
839.883	11247.49
840.208	11326.35
840.533	11224.44
840.858	11318.9
841.182	11256.3
841.507	11294.72
841.832	11223.53
842.156	11205.68
842.481	11200.48
842.805	11183.99
843.13	11155.06
843.454	11083.2
843.778	11127.04
844.103	11067.38
844.427	11087.72
844.751	11062.63
845.075	11005.69
845.399	10967.27
845.723	10944.22
846.047	10988.74
846.371	10887.5
846.695	10864.67
847.019	10794.62
847.343	10769.99
847.666	10795.07
847.99	10669.2
848.313	10612.25
848.637	10670.78
848.96	10529.99
849.284	10551.23
849.607	10527.51
849.931	10477.79
850.254	10368.64
850.577	10372.93
850.9	10274.18
851.223	10276.89
851.546	10188.76
851.869	10179.94
852.192	10282.54
852.515	10125.26
852.838	10108.31
853.161	10163.67
853.483	9995.54
853.806	10019.72
854.129	10013.17
854.451	9913.51
854.774	9901.76
855.096	9870.35
855.419	9866.51
855.741	9889.1
856.063	9760.29
856.385	9790.58
856.708	9785.15
857.03	9714.87
857.352	9756.23
857.674	9732.27
857.996	9652.95
858.318	9613.41
858.64	9611.82
858.961	9570.69
859.283	9547.19
859.605	9562.56
859.926	9555.78
860.248	9472.39
860.57	9484.14
860.891	9485.95
861.212	9462
861.534	9396.69
861.855	9365.73
862.176	9410.02
862.498	9407.76
862.819	9444.37
863.14	9389.91
863.461	9334.99
863.782	9310.59
864.103	9377.25
864.424	9296.13
864.745	9232.4
865.065	9256.8
865.386	9260.87
865.707	9185.17
866.027	9219.29
866.348	9177.94
866.668	9170.48
866.989	9132.97
867.309	9139.07
867.63	9152.63
867.95	9175.22
868.27	9048.9
868.59	9053.65
868.91	9082.8
869.23	9068.34
869.55	9026.98
869.87	9073.31
870.19	9046.41
870.51	9021.33
870.83	9048.9
871.15	8938.17
871.469	8997.38
871.789	9004.61
872.109	8970.94
872.428	8907.89
872.748	8904.95
873.067	8947.66
873.386	8955.57
873.706	8932.52
874.025	8901.11
874.344	8836.02
874.663	8845.29
874.982	8828.12
875.301	8786.08
875.62	8770.04
875.939	8765.74
876.258	8790.38
876.577	8755.12
876.896	8752.86
877.214	8814.56
877.533	8687.55
877.852	8719.42
878.17	8739.08
878.489	8763.26
878.807	8667.44
879.125	8680.32
879.444	8651.62
879.762	8621.57
880.08	8654.11
880.398	8602.58
880.716	8634.9
881.034	8623.6
881.352	8589.03
881.67	8544.96
881.988	8521.68
882.306	8491.85
882.624	8451.63
882.941	8411.63
883.259	8449.82
883.577	8450.95
883.894	8447.11
884.212	8325.53
884.529	8391.52
884.846	8351.97
885.164	8345.64
885.481	8349.94
885.798	8380.9
886.115	8262.93
886.432	8285.08
886.75	8259.54
887.067	8256.15
887.383	8208.92
887.7	8229.71
888.017	8216.61
888.334	8184.74
888.651	8137.29
888.967	8089.6
889.284	8102.48
889.6	8085.54
889.917	8054.8
890.233	8030.17
890.55	8044.41
890.866	8029.94
891.182	8050.96
891.498	7911.98
891.815	7925.09
892.131	7915.14
892.447	7864.75
892.763	7810.97
893.079	7820.01
893.395	7751.53
893.71	7792.66
894.026	7729.16
894.342	7756.05
894.657	7701.14
894.973	7698.2
895.289	7689.61
895.604	7692.33
895.92	7550.18
896.235	7587.7
896.55	7569.84
896.865	7522.61
897.181	7495.95
897.496	7508.15
897.811	7452.56
898.126	7486.46
898.441	7415.05
898.756	7377.98
899.071	7325.33
899.386	7398.55
899.7	7298.66
900.015	7283.75
900.33	7229.51
900.644	7196.52
900.959	7239.23
901.273	7255.05
901.588	7205.11
901.902	7140.48
902.216	7073.36
902.531	7139.12
902.845	7100.25
903.159	7041.04
903.473	6961.72
903.787	6936.87
904.101	6898.9
904.415	6968.28
904.729	6893.02
905.042	6894.83
905.356	6844.66
905.67	6841.5
905.984	6817.77
906.297	6795.17
906.611	6759.47
906.924	6742.52
907.237	6716.31
907.551	6676.99
907.864	6668.17
908.177	6670.88
908.491	6670.21
908.804	6594.5
909.117	6594.73
909.43	6581.62
909.743	6510.66
910.056	6535.75
910.368	6455.3
910.681	6523.54
910.994	6401.06
911.307	6359.48
911.619	6324
911.932	6321.29
912.244	6317.45
912.557	6261.18
912.869	6244.68
913.181	6190.9
913.494	6271.35
913.806	6120.84
914.118	6190.44
914.43	6111.8
914.742	6112.71
915.054	6061.63
915.366	6043.33
915.678	6035.65
915.99	6053.5
916.302	5981.86
916.613	5953.16
916.925	5936.44
917.236	5934.18
917.548	5850.11
917.859	5869.78
918.171	5821.41
918.482	5791.36
918.794	5797.23
919.105	5788.42
919.416	5694.41
919.727	5734.86
920.038	5690.34
920.349	5663
920.66	5702.55
920.971	5642.44
921.282	5584.13
921.593	5557.47
921.903	5577.35
922.214	5532.38
922.525	5569.44
922.835	5513.17
923.146	5467.07
923.456	5452.38
923.767	5395.21
924.077	5409
924.387	5427.3
924.697	5356.57
925.008	5375.55
925.318	5355.89
925.628	5286.51
925.938	5224.82
926.248	5220.98
926.558	5213.07
926.867	5184.6
927.177	5202
927.487	5125.61
927.796	5157.48
928.106	5089
928.416	5105.95
928.725	5045.84
929.034	5056.01
929.344	5001.32
929.653	5028.67
929.962	5010.36
930.271	4978.95
930.581	4959.97
930.89	4901.89
931.199	4921.33
931.508	4910.93
931.817	4868.22
932.125	4832.06
932.434	4870.93
932.743	4783.02
933.051	4796.58
933.36	4777.6
933.669	4738.96
933.977	4721.33
934.286	4761.33
934.594	4736.25
934.902	4656.7
935.21	4653.31
935.519	4617.83
935.827	4620.99
936.135	4578.28
936.443	4589.36
936.751	4579.41
937.059	4574.67
937.367	4563.14
937.674	4513.88
937.982	4500.55
938.29	4468
938.597	4478.4
938.905	4410.15
939.213	4383.03
939.52	4371.28
939.827	4378.51
940.135	4293.09
940.442	4305.3
940.749	4311.62
941.056	4286.09
941.363	4301
941.67	4237.28
941.977	4238.63
942.284	4210.61
942.591	4196.6
942.898	4182.59
943.205	4192.53
943.511	4167.22
943.818	4179.42
944.125	4156.37
944.431	4138.75
944.738	4053.78
945.044	4085.64
945.35	4050.39
945.657	4022.14
945.963	4052.42
946.269	4012.2
946.575	4006.77
946.881	3999.99
947.187	3973.33
947.493	3935.81
947.799	3952.76
948.105	3917.96
948.41	3886.32
948.716	3899.21
949.022	3810.17
949.327	3844.97
949.633	3794.8
949.938	3826.89
950.244	3823.73
950.549	3785.31
950.854	3743.73
951.16	3760.45
951.465	3752.32
951.77	3733.11
952.075	3696.5
952.38	3700.34
952.685	3667.12
952.99	3662.6
953.294	3611.76
953.599	3643.84
953.904	3609.5
954.209	3566.56
954.513	3595.71
954.818	3544.64
955.122	3535.15
955.426	3536.96
955.731	3501.7
956.035	3533.34
956.339	3478.43
956.643	3484.75
956.948	3480.23
957.252	3438.2
957.556	3435.94
957.86	3425.55
958.163	3402.04
958.467	3422.61
958.771	3396.85
959.075	3360.91
959.378	3370.86
959.682	3310.75
959.985	3310.29
960.289	3286.11
960.592	3250.41
960.896	3218.55
961.199	3291.54
961.502	3273.46
961.805	3235.95
962.108	3242.95
962.411	3191.43
962.714	3190.98
963.017	3195.27
963.32	3204.76
963.623	3155.95
963.926	3147.13
964.228	3127.7
964.531	3086.12
964.833	3084.76
965.136	3077.31
965.438	3057.42
965.741	3075.72
966.043	3033.92
966.345	3009.96
966.648	3016.97
966.95	3043.41
967.252	2999.12
967.554	2984.43
967.856	2952.34
968.158	2955.95
968.46	2982.85
968.761	2910.53
969.063	2946.69
969.365	2875.28
969.666	2899.68
969.968	2862.17
970.269	2867.59
970.571	2858.1
970.872	2837.76
971.174	2825.11
971.475	2827.14
971.776	2826.92
972.077	2797.09
972.378	2810.87
972.679	2786.01
972.98	2824.88
973.281	2762.51
973.582	2738.56
973.883	2704.21
974.183	2719.58
974.484	2720.25
974.785	2720.25
975.085	2699.01
975.386	2708.95
975.686	2673.25
975.986	2663.53
976.287	2626.02
976.587	2630.09
976.887	2629.63
977.187	2627.83
977.487	2598.45
977.787	2586.7
978.087	2583.31
978.387	2561.84
978.687	2583.53
978.987	2561.84
979.286	2565.68
979.586	2539.02
979.885	2480.94
980.185	2503.99
980.484	2490.43
980.784	2470.54
981.083	2452.24
981.382	2456.31
981.682	2457.66
981.981	2472.8
982.28	2432.13
982.579	2389.87
982.878	2419.7
983.177	2388.06
983.475	2355.29
983.774	2396.87
984.073	2358.91
984.372	2340.38
984.67	2351
984.969	2337.66
985.267	2339.47
985.566	2313.94
985.864	2320.72
986.162	2266.93
986.461	2283.43
986.759	2268.74
987.057	2283.65
987.355	2245.46
987.653	2255.18
987.951	2220.83
988.249	2219.02
988.547	2222.64
988.844	2202.3
989.142	2185.8
989.44	2195.97
989.737	2185.13
990.035	2179.7
990.332	2148.52
990.63	2160.72
990.927	2107.61
991.224	2156.65
991.521	2137.44
991.819	2145.58
992.116	2084.11
992.413	2078.46
992.71	2079.37
993.006	2123.21
993.303	2050.67
993.6	2062.42
993.897	2047.5
994.193	2042.98
994.49	2026.71
994.787	1990.78
995.083	2052.02
995.379	1985.58
995.676	1987.17
995.972	1972.48
996.268	1962.08
996.565	1952.82
996.861	1953.95
997.157	1964.79
997.453	1932.03
997.749	1929.09
998.044	1903.1
998.34	1869.43
998.636	1897.68
998.932	1851.58
999.227	1864.68
999.523	1845.7
999.818	1895.42
1000.114	1813.16
1000.409	1808.64
1000.704	1857.23
1001	1805.25
1001.295	1807.28
1001.59	1787.17
1001.885	1796.21
1002.18	1760.96
1002.475	1769.09
1002.77	1806.15
1003.065	1754.18
1003.359	1751.47
1003.654	1739.26
1003.949	1740.62
1004.243	1730.67
1004.538	1727.29
1004.832	1682.09
1005.127	1680.73
1005.421	1675.08
1005.715	1664.46
1006.009	1661.98
1006.304	1628.98
1006.598	1605.93
1006.892	1638.47
1007.186	1648.64
1007.48	1627.85
1007.773	1618.14
1008.067	1606.84
1008.361	1596.44
1008.655	1590.79
1008.948	1573.84
1009.242	1561.64
1009.535	1558.93
1009.829	1533.17
1010.122	1512.83
1010.415	1542.66
1010.708	1496.1
1011.001	1493.17
1011.295	1526.16
1011.588	1513.96
1011.881	1473.73
1012.173	1492.04
1012.466	1483.22
1012.759	1469.89
1013.052	1467.86
1013.344	1457.24
1013.637	1445.71
1013.93	1443.9
1014.222	1422.43
1014.514	1397.8
1014.807	1405.94
1015.099	1392.38
1015.391	1403.45
1015.683	1397.12
1015.976	1372.94
1016.268	1359.16
1016.56	1366.84
1016.851	1336.11
1017.143	1346.05
1017.435	1363.9
1017.727	1358.93
1018.018	1325.04
1018.31	1324.81
1018.602	1297.92
1018.893	1299.5
1019.185	1307.41
1019.476	1300.18
1019.767	1267.64
1020.058	1270.8
1020.35	1257.01
1020.641	1243.46
1020.932	1247.07
1021.223	1266.96
1021.514	1254.08
1021.804	1224.7
1022.095	1205.26
1022.386	1193.74
1022.677	1197.81
1022.967	1172.95
1023.258	1160.52
1023.548	1161.2
1023.839	1167.75
1024.129	1181.76
1024.419	1165.04
1024.709	1144.7
1025	1146.74
1025.29	1150.58
1025.58	1114.87
1025.87	1120.97
1026.16	1113.06
1026.449	1154.42
1026.739	1108.54
1027.029	1095.44
1027.319	1076.45
1027.608	1096.57
1027.898	1084.59
1028.187	1066.51
1028.477	1055.66
1028.766	1066.96
1029.055	1036.23
1029.344	1031.71
1029.634	1046.17
1029.923	1026.96
1030.212	1023.57
1030.501	1016.12
1030.79	1003.24
1031.078	985.84
1031.367	976.57
1031.656	989.45
1031.945	982.22
1032.233	974.08
1032.522	978.15
1032.81	948.55
1033.099	973.86
1033.387	970.92
1033.675	914.65
1033.963	957.14
1034.251	938.38
1034.54	920.3
1034.828	932.28
1035.116	921.2
1035.403	921.66
1035.691	879.62
1035.979	885.95
1036.267	933.63
1036.554	874.65
1036.842	877.14
1037.129	876.69
1037.417	897.93
1037.704	877.14
1037.992	852.28
1038.279	856.57
1038.566	852.28
1038.853	852.28
1039.14	852.28
