Data from blue_shiny_book_FLMS001491_00045.txt Node
Date: Wed Feb 08 15:27:01 GMT 2017
User: dcchb
Spectrometer: FLMS00149
Trigger mode: 0
Integration Time (sec): 2.000000E-2
Scans to average: 10
Electric dark correction enabled: true
Nonlinearity correction enabled: false
Boxcar width: 0
XAxis mode: Wavelengths
Number of Pixels in Spectrum: 2048
>>>>>Begin Spectral Data<<<<<
341.393	-17.8
341.776	-17.8
342.16	-17.8
342.543	-53.95
342.927	-64.12
343.31	-65.03
343.693	-62.99
344.077	-83.11
344.46	-37
344.843	-51.24
345.226	-53.28
345.61	-28.87
345.993	-19.6
346.376	-15.76
346.759	8.19
347.142	20.39
347.525	38.25
347.908	62.65
348.291	80.73
348.674	91.35
349.057	115.31
349.44	134.06
349.823	132.26
350.206	176.78
350.588	189.88
350.971	191.69
351.354	237.79
351.737	225.14
352.119	255.42
352.502	272.59
352.884	273.95
353.267	277.11
353.65	288.41
354.032	300.61
354.414	312.82
354.797	328.64
355.179	338.58
355.562	330.22
355.944	332.48
356.326	324.79
356.709	347.39
357.091	342.87
357.473	330.22
357.855	367.5
358.238	347.39
358.62	340.84
359.002	375.41
359.384	354.17
359.766	356.21
360.148	361.63
360.53	371.57
360.912	368.41
361.294	342.19
361.676	366.6
362.057	346.71
362.439	330.9
362.821	345.81
363.203	348.97
363.584	351.69
363.966	332.03
364.348	363.21
364.729	352.36
365.111	365.7
365.493	328.18
365.874	343.55
366.256	309.43
366.637	348.52
367.019	331.57
367.4	319.82
367.781	342.65
368.163	336.77
368.544	337.9
368.925	355.98
369.306	355.75
369.688	347.17
370.069	356.66
370.45	359.82
370.831	342.65
371.212	339.03
371.593	352.14
371.974	354.85
372.355	351.01
372.736	357.34
373.117	350.1
373.498	353.27
373.879	336.09
374.26	355.08
374.641	355.53
375.021	333.61
375.402	332.03
375.783	365.24
376.163	385.13
376.544	374.06
376.925	391.46
377.305	374.96
377.686	357.56
378.066	381.74
378.447	396.2
378.827	392.36
379.208	400.5
379.588	382.42
379.968	386.49
380.349	378.8
380.729	398.92
381.109	411.12
381.489	408.86
381.87	403.21
382.25	396.88
382.63	411.8
383.01	420.38
383.39	422.87
383.77	407.73
384.15	426.94
384.53	431.68
384.91	438.01
385.29	409.09
385.67	426.49
386.049	433.27
386.429	445.92
386.809	450.67
387.189	456.09
387.568	466.26
387.948	441.4
388.328	445.24
388.707	453.38
389.087	462.64
389.466	492.02
389.846	475.75
390.225	485.69
390.605	478.01
390.984	483.89
391.363	480.04
391.743	505.13
392.122	484.11
392.501	518.69
392.881	505.58
393.26	506.26
393.639	492.02
394.018	525.47
394.397	519.14
394.776	524.11
395.155	547.61
395.534	552.58
395.913	546.03
396.292	534.51
396.671	543.32
397.05	548.06
397.429	570.89
397.808	562.08
398.186	572.02
398.565	573.15
398.944	569.99
399.323	578.12
399.701	581.96
400.08	598.46
400.458	600.94
400.837	622.64
401.215	637.78
401.594	642.75
401.972	612.47
402.351	666.25
402.729	639.36
403.107	617.44
403.486	667.61
403.864	678.46
404.242	678.68
404.62	703.77
404.999	685.01
405.377	697.67
405.755	709.42
406.133	704.44
406.511	737.21
406.889	758.91
407.267	733.37
407.645	755.52
408.023	748.29
408.401	800.04
408.779	772.69
409.156	793.71
409.534	798.23
409.912	794.39
410.29	811.56
410.667	831.67
411.045	827.38
411.422	859.24
411.8	861.05
412.178	879.81
412.555	903.76
412.933	916.64
413.31	915.96
413.687	925.23
414.065	946.7
414.442	947.38
414.819	970.2
415.197	959.81
415.574	988.96
415.951	981.95
416.328	992.35
416.705	1013.14
417.082	1030.54
417.46	1066.47
417.837	1050.42
418.214	1062.63
418.591	1079.58
418.967	1089.75
419.344	1115.51
419.721	1121.16
420.098	1125
420.475	1123.64
420.852	1138.33
421.228	1121.38
421.605	1175.62
421.982	1170.87
422.358	1177.2
422.735	1207.03
423.111	1202.06
423.488	1227.59
423.864	1237.54
424.241	1242.06
424.617	1240.7
424.994	1276.18
425.37	1302.4
425.746	1290.42
426.123	1331.77
426.499	1341.49
426.875	1364.99
427.251	1389.4
427.627	1421.49
428.003	1433.24
428.379	1443.18
428.756	1468.49
429.132	1490.19
429.507	1501.03
429.883	1517.76
430.259	1535.38
430.635	1578.09
431.011	1582.61
431.387	1579.68
431.763	1659.45
432.138	1649.05
432.514	1698.32
432.89	1696.74
433.265	1725.43
433.641	1752.1
434.016	1773.57
434.392	1814.7
434.767	1825.32
435.143	1839.1
435.518	1850.63
435.894	1873
436.269	1916.39
436.644	1961.13
437.02	1969.27
437.395	1974.69
437.77	2033.9
438.145	2028.03
438.52	2045.65
438.895	2059.44
439.271	2105.99
439.646	2120.23
440.021	2129.72
440.395	2157.74
440.77	2138.98
441.145	2198.19
441.52	2227.34
441.895	2202.94
442.27	2272.99
442.645	2301.69
443.019	2282.03
443.394	2322.26
443.769	2314.35
444.143	2335.14
444.518	2404.51
444.892	2367.68
445.267	2371.07
445.641	2420.33
446.016	2439.77
446.39	2470.5
446.764	2498.07
447.139	2516.83
447.513	2552.98
447.887	2512.98
448.262	2557.5
448.636	2579.2
449.01	2597.73
449.384	2616.26
449.758	2667.56
450.132	2637.5
450.506	2684.51
450.88	2684.51
451.254	2710.95
451.628	2733.54
452.002	2810.38
452.376	2847.67
452.75	2851.51
453.123	2915.23
453.497	2950.26
453.871	2972.63
454.244	3060.99
454.618	3046.3
454.992	3057.6
455.365	3071.84
455.739	3144.61
456.112	3198.16
456.486	3209.92
456.859	3240.65
457.232	3352.96
457.606	3319.74
457.979	3395
458.352	3463.47
458.725	3524.94
459.099	3524.26
459.472	3623.69
459.845	3638.15
460.218	3660.75
460.591	3677.02
460.964	3674.99
461.337	3807.87
461.71	3822.78
462.083	3961.08
462.456	3958.14
462.829	3995.66
463.201	4025.26
463.574	4069.1
463.947	4190.45
464.32	4255.76
464.692	4307.97
465.065	4309.77
465.438	4356.78
465.81	4380.96
466.183	4457.11
466.555	4523.55
466.928	4570.78
467.3	4531.91
467.672	4681.29
468.045	4789.76
468.417	4856.43
468.789	4874.96
469.161	4936.2
469.534	4980.04
469.906	5108.4
470.278	5136.64
470.65	5194.72
471.022	5294.15
471.394	5430.87
471.766	5484.88
472.138	5479.23
472.51	5541.61
472.882	5681.94
473.253	5759.45
473.625	5878.55
473.997	5965.32
474.369	5989.05
474.74	6099.78
475.112	6221.81
475.484	6324.18
475.855	6445.54
476.227	6539.32
476.598	6729.37
476.97	6766.66
477.341	6866.77
477.713	7001.68
478.084	7055.01
478.455	7251.17
478.827	7281.22
479.198	7488.22
479.569	7530.25
479.94	7769.34
480.311	7846.4
480.682	7991.71
481.053	8207.3
481.424	8336.11
481.795	8441.64
482.166	8572.03
482.537	8666.04
482.908	8860.16
483.279	8936.09
483.65	9106.03
484.021	9221.96
484.391	9374.5
484.762	9403.43
485.133	9494.27
485.503	9705.79
485.874	9883.86
486.244	10024.2
486.615	10220.58
486.985	10392.33
487.356	10553.23
487.726	10633.22
488.097	10938.98
488.467	10997.96
488.837	11135.58
489.207	11305.97
489.578	11440.43
489.948	11547.55
490.318	11706.42
490.688	11814.89
491.058	11901.66
491.428	12149.12
491.798	12343.46
492.168	12549.56
492.538	12622.1
492.908	12806.05
493.278	12870
493.648	13004.46
494.017	13200.61
494.387	13354.51
494.757	13502.53
495.126	13708.17
495.496	13629.3
495.866	13720.83
496.235	13897.32
496.605	14015.96
496.974	14134.15
497.344	14301.15
497.713	14314.26
498.082	14505.66
498.452	14677.18
498.821	14755.15
499.19	14818.42
499.559	15038.98
499.928	15052.99
500.298	15214.8
500.667	15336.83
501.036	15382.93
501.405	15563.94
501.774	15631.28
502.143	15702.24
502.512	15890.71
502.88	15969.81
503.249	15982.46
503.618	16171.83
503.987	16221.1
504.356	16313.53
504.724	16454.09
505.093	16602.78
505.462	16666.51
505.83	16801.87
506.199	16957.8
506.567	17233.05
506.936	17085.93
507.304	17386.27
507.672	17376.55
508.041	17542.65
508.409	17618.12
508.777	17760.04
509.145	17973.37
509.514	18017.89
509.882	18205.91
510.25	18209.97
510.618	18398.22
510.986	18473.7
511.354	18613.35
511.722	18798.21
512.09	18990.29
512.458	18947.58
512.826	19095.37
513.193	19153.68
513.561	19313
513.929	19395.03
514.297	19599.32
514.664	19779.65
515.032	19795.92
515.4	20036.14
515.767	20131.73
516.135	20358.17
516.502	20210.6
516.869	20620.76
517.237	20728.1
517.604	20716.12
517.972	21054.19
518.339	21082.67
518.706	21211.02
519.073	21355.65
519.44	21441.98
519.808	21668.19
520.175	21657.34
520.542	22013.71
520.909	22068.85
521.276	22066.14
521.643	22428.62
522.009	22520.59
522.376	22654.83
522.743	22791.55
523.11	22995.61
523.477	23268.37
523.843	23383.85
524.21	23782.48
524.577	23920.78
524.943	24040.55
525.31	24073.32
525.676	24374.33
526.043	24440.54
526.409	24769.8
526.776	24944.94
527.142	25059.28
527.508	25187.19
527.874	25365.94
528.241	25494.3
528.607	25612.94
528.973	25774.97
529.339	25789.43
529.705	26171.12
530.071	26298.35
530.437	26461.51
530.803	26722.97
531.169	26831.44
531.535	26869.63
531.901	27116.41
532.267	27191.66
532.632	27349.17
532.998	27450.18
533.364	27772.66
533.73	27770.4
534.095	28065.76
534.461	28066.66
534.826	28173.1
535.192	28346.88
535.557	28519.31
535.923	28464.62
536.288	28482.25
536.653	28656.48
537.019	28708.91
537.384	28958.84
537.749	29144.15
538.114	29240.87
538.479	29329.91
538.845	29494.42
539.21	29482.45
539.575	29588.43
539.94	29827.29
540.305	29869.1
540.67	29973.51
541.034	30112.94
541.399	30246.72
541.764	30276.77
542.129	30353.16
542.494	30428.86
542.858	30505.92
543.223	30535.3
543.587	30629.53
543.952	30750.43
544.316	30780.04
544.681	30780.49
545.045	31015.96
545.41	31059.35
545.774	31272.91
546.138	31313.58
546.503	31462.28
546.867	31437.87
547.231	31669.96
547.595	31782.27
547.959	32008.48
548.324	31986.79
548.688	32058.87
549.052	32353.56
549.416	32358.3
549.779	32250.96
550.143	32326.21
550.507	32505.87
550.871	32612.53
551.235	32418.19
551.599	32706.09
551.962	32752.64
552.326	32901.56
552.689	32888.68
553.053	32854.56
553.417	33004.39
553.78	33313.76
554.143	33322.8
554.507	33479.63
554.87	33758.72
555.234	34002.55
555.597	33688.66
555.96	34076.22
556.323	34300.62
556.686	34450.68
557.05	34652.48
557.413	34758.01
557.776	34775.64
558.139	34980.61
558.502	35021.28
558.865	34947.39
559.228	35047.5
559.59	35072.58
559.953	34974.5
560.316	35407.71
560.679	35460.82
561.041	35634.15
561.404	35739.46
561.767	35947.36
562.129	35792.11
562.492	36307.12
562.854	36385.77
563.217	36428.03
563.579	36738.3
563.941	36815.13
564.304	37115.69
564.666	37274.1
565.028	37248.34
565.39	37470.26
565.753	37775.79
566.115	37917.7
566.477	38023.24
566.839	38108.43
567.201	38012.62
567.563	38086.96
567.925	38427.07
568.287	38320.86
568.648	38253.97
569.01	38585.03
569.372	38591.58
569.734	38463.45
570.095	38745.93
570.457	38963.1
570.819	38938.69
571.18	39139.82
571.542	39288.06
571.903	39488.74
572.265	39728.5
572.626	39754.27
572.987	39935.05
573.349	40269.05
573.71	40446
574.071	40597.41
574.432	40552.44
574.794	40753.34
575.155	40710.85
575.516	40665.2
575.877	40706.33
576.238	40724.41
576.599	40816.38
576.96	40846.67
577.32	40705.43
577.681	40984.97
578.042	41110.39
578.403	41017.28
578.763	41011.18
579.124	40971.41
579.485	41245.53
579.845	41404.17
580.206	41346.99
580.566	41358.74
580.927	41713.99
581.287	41830.37
581.648	41699.98
582.008	42098.61
582.368	42044.15
582.728	42142.68
583.089	42152.17
583.449	41981.1
583.809	42196.46
584.169	42271.49
584.529	42189.46
584.889	42572.27
585.249	42024.71
585.609	42106.52
585.969	42158.72
586.329	41973.19
586.688	42097.93
587.048	41948.56
587.408	41833.53
587.768	41822.91
588.127	41764.38
588.487	41688.23
588.846	42190.36
589.206	41941.78
589.565	41922.12
589.925	42163.02
590.284	41984.94
590.643	42126.63
591.003	42357.13
591.362	42572.72
591.721	42535.44
592.08	42556.68
592.44	42757.35
592.799	42750.8
593.158	42887.06
593.517	42852.94
593.876	42811.13
594.235	42786.73
594.593	42874.86
594.952	42570.69
595.311	42588.32
595.67	42588.99
596.029	42862.43
596.387	42727.75
596.746	42724.36
597.104	42437.58
597.463	42519.39
597.822	42502.22
598.18	42573.63
598.538	42383.8
598.897	42721.42
599.255	42357.13
599.613	42984.46
599.972	42922.54
600.33	42982.66
600.688	42953.28
601.046	43182.2
601.404	43438.69
601.762	43382.19
602.12	43584.45
602.478	43641.17
602.836	43611.57
603.194	43444.79
603.552	43585.13
603.91	43445.92
604.268	43600.49
604.625	43319.82
604.983	43503.09
605.341	43128.41
605.698	43349.2
606.056	43374.74
606.413	43381.51
606.771	43491.79
607.128	43501.74
607.485	43356.2
607.843	43234.17
608.2	43588.06
608.557	43557.78
608.914	43515.97
609.272	43718.68
609.629	43870.09
609.986	44101.5
610.343	43980.37
610.7	44342.62
611.057	44145.79
611.414	44403.86
611.771	44562.27
612.127	44621.93
612.484	44623.52
612.841	44754.81
613.198	44760.69
613.554	44755.04
613.911	44915.94
614.267	44893.34
614.624	44734.02
614.98	44937.18
615.337	45086.33
615.693	44991.87
616.05	44699.45
616.406	44973.34
616.762	44748.03
617.118	44618.09
617.475	44590.97
617.831	44649.5
618.187	44705.32
618.543	44675.27
618.899	45100.34
619.255	44948.48
619.611	44839.1
619.967	45067.12
620.323	45154.58
620.678	45202.48
621.034	45167.23
621.39	45291.07
621.746	45222.6
622.101	45581
622.457	45480.67
622.812	45593.89
623.168	45582.59
623.523	45661.91
623.879	45785.07
624.234	45463.72
624.589	45579.2
624.945	45753.88
625.3	45567.22
625.655	45320.9
626.01	45422.59
626.365	45281.35
626.72	45235.25
627.075	45209.26
627.43	45169.72
627.785	45044.97
628.14	45135.59
628.495	45133.33
628.85	44986.67
629.205	45043.39
629.559	45089.72
629.914	45044.97
630.269	44929.27
630.623	45067.12
630.978	44930.17
631.332	45125.2
631.687	45393.21
632.041	45160
632.396	45243.61
632.75	45229.15
633.104	45293.78
633.459	45103.28
633.813	45307.34
634.167	45242.93
634.521	45224.86
634.875	45187.12
635.229	45113.45
635.583	44967.01
635.937	45001.36
636.291	44941.02
636.645	44879.78
636.999	44721.59
637.352	44723.17
637.706	44457.19
638.06	44585.78
638.413	44345.56
638.767	44223.98
639.121	44147.82
639.474	43810.2
639.828	43915.96
640.181	43979.47
640.534	43781.5
640.888	43796.42
641.241	43627.16
641.594	43715.52
641.947	43816.98
642.301	43824.89
642.654	43654.5
643.007	43813.37
643.36	43881.61
643.713	43871.45
644.066	44056.53
644.419	43968.62
644.771	43814.05
645.124	43842.07
645.477	43900.82
645.83	43511
646.182	43081.64
646.535	42657.92
646.888	42587.41
647.24	42380.19
647.593	42542.89
647.945	42384.25
648.298	42122.56
648.65	42163.69
649.002	41961.21
649.355	41999.86
649.707	42026.3
650.059	42395.1
650.411	42727.52
650.763	42751.93
651.115	43122.76
651.467	42854.97
651.819	42812.94
652.171	42727.75
652.523	42643.46
652.875	42651.36
653.227	42540.41
653.578	42975.88
653.93	42851.59
654.282	42793.51
654.633	42651.82
654.985	42624.02
655.337	42700.63
655.688	42744.92
656.039	43007.74
656.391	42593.74
656.742	42821.53
657.094	42936.1
657.445	43041.18
657.796	43102.2
658.147	42999.15
658.498	42932.94
658.849	43175.42
659.2	42831.92
659.551	42920.96
659.902	42988.3
660.253	42751.93
660.604	42873.28
660.955	42628.77
661.306	42660.86
661.656	42447.3
662.007	42529.56
662.358	42247.08
662.708	42259.96
663.059	42154.2
663.409	41952.85
663.76	42115.56
664.11	42027.2
664.461	42069.23
664.811	41951.27
665.161	41930.71
665.511	42022
665.862	42004.15
666.212	42190.36
666.562	42234.88
666.912	42292.73
667.262	42222.9
667.612	42396.23
667.962	42540.86
668.312	42421.31
668.662	42611.14
669.011	42606.17
669.361	42578.6
669.711	42515.77
670.06	42481.88
670.41	42578.15
670.76	42286.18
671.109	42564.36
671.459	42308.77
671.808	42313.07
672.157	42460.63
672.507	42088.22
672.856	42133.86
673.205	42023.58
673.554	42123.24
673.904	41845.96
674.253	41986.75
674.602	41862.23
674.951	41254.56
675.3	40846.89
675.649	41409.14
675.998	41165.08
676.346	41191.97
676.695	41349.7
677.044	40929.15
677.393	41196.26
677.741	41281.68
678.09	41029.03
678.438	40905.65
678.787	41068.58
679.135	41122.14
679.484	40774.35
679.832	41101.57
680.181	40860
680.529	41169.37
680.877	41057.96
681.225	41071.29
681.573	41356.71
681.922	41170.27
682.27	41153.55
682.618	41130.05
682.966	41096.83
683.314	41186.54
683.661	40954.01
684.009	40798.76
684.357	40782.49
684.705	40684.18
685.053	40690.29
685.4	40565.09
685.748	40324.42
686.095	40280.13
686.443	40026.35
686.79	39804.21
687.138	39852.34
687.485	39805.56
687.832	39646.02
688.18	39540.26
688.527	39223.21
688.874	39156.32
689.221	39018.47
689.568	38975.53
689.915	38900.73
690.262	38747.29
690.609	38637.46
690.956	38463.23
691.303	38657.35
691.65	38421.87
691.997	38422.1
692.344	38150.47
692.69	38122.44
693.037	38228.2
693.383	37989.57
693.73	38158.38
694.077	38026.18
694.423	38164.02
694.769	37988.89
695.116	37894.43
695.462	37842.68
695.808	37787.76
696.155	37826.18
696.501	37626.41
696.847	37623.25
697.193	37470.71
697.539	37425.74
697.885	37238.4
698.231	37028.69
698.577	37194.11
698.923	37006.54
699.269	36822.59
699.614	36412.66
699.96	36239.78
700.306	36217.64
700.651	36073.23
700.997	35874.37
701.342	35686.58
701.688	35555.28
702.033	35365
702.379	35289.98
702.724	35255.4
703.069	35435.96
703.415	35002.98
703.76	34903.09
704.105	34859.93
704.45	34774.74
704.795	34629.88
705.14	34447.51
705.485	34423.78
705.83	34316.44
706.175	34336.1
706.52	34402.77
706.865	34270.34
707.209	34256.78
707.554	34334.75
707.899	34467.62
708.243	34209.78
708.588	34159.84
708.932	34160.51
709.277	34063.79
709.621	34201.64
709.966	33985.83
710.31	34056.79
710.654	33854.53
710.998	33923.68
711.342	33870.58
711.687	33746.74
712.031	33582.45
712.375	33355.34
712.719	33502.68
713.063	33385.17
713.407	33298.84
713.75	33226.08
714.094	33070.6
714.438	32811.85
714.782	32918.74
715.125	32805.75
715.469	32678.75
715.812	32440.79
716.156	32264.52
716.499	32075.82
716.843	32132.09
717.186	31857.52
717.53	32013.9
717.873	31938.88
718.216	31892.1
718.559	31748.15
718.902	31493.47
719.246	31783.4
719.589	31629.06
719.932	31638.09
720.275	31733.46
720.617	31644.2
720.96	31629.06
721.303	31672.44
721.646	31855.94
721.989	31660.01
722.331	31817.98
722.674	31823.85
723.016	31884.19
723.359	31750.86
723.701	31757.64
724.044	31516.97
724.386	31478.55
724.729	31625.21
725.071	31531.88
725.413	31617.08
725.755	31692.56
726.097	31521.49
726.439	31451.66
726.782	31329.18
727.124	31526.23
727.465	31229.07
727.807	31187.71
728.149	30979.35
728.491	30858.45
728.833	30989.07
729.175	30806.25
729.516	30749.76
729.858	30766.25
730.199	30763.99
730.541	30558.35
730.882	30680.15
731.224	30582.08
731.565	30384.12
731.906	30364.23
732.248	30452.14
732.589	30323.78
732.93	30243.1
733.271	30345.02
733.612	30394.29
733.953	30413.27
734.294	30281.29
734.635	30348.41
734.976	30391.8
735.317	30187.74
735.658	30233.39
735.999	30430.44
736.339	30389.99
736.68	30535.75
737.021	30578.91
737.361	30368.98
737.702	30592.47
738.042	30563.55
738.383	30536.43
738.723	30720.83
739.063	30508.41
739.404	30679.02
739.744	30697.33
740.084	30545.47
740.424	30753.6
740.764	30557.9
741.104	30858.91
741.444	30555.41
741.784	30505.47
742.124	30545.02
742.464	30615.52
742.804	30593.15
743.143	30414.85
743.483	30368.3
743.823	30345.7
744.162	30221.63
744.502	30294.18
744.841	30083.56
745.181	30257.57
745.52	30098.7
745.86	30106.16
746.199	30038.59
746.538	29958.59
746.877	30169.43
747.216	30083.33
747.556	30067.97
747.895	30109.1
748.234	29996.33
748.573	30113.39
748.911	30100.28
749.25	30104.58
749.589	30067.29
749.928	30069.32
750.267	30244.68
750.605	30209.43
750.944	30157.91
751.283	30243.56
751.621	30250.33
751.96	30280.84
752.298	30331.91
752.636	30489.88
752.975	30409.43
753.313	30345.47
753.651	30551.8
753.989	30375.75
754.327	30453.95
754.666	30396.55
755.004	30641.51
755.342	30702.3
755.679	30619.59
756.017	30700.04
756.355	30705.01
756.693	30500.72
757.031	30560.16
757.368	30612.36
757.706	30428.18
758.044	30382.76
758.381	30460.72
758.719	30392.7
759.056	30496.2
759.394	30348.19
759.731	30189.77
760.068	30204.91
760.405	30152.71
760.743	29979.38
761.08	30104.12
761.417	30041.98
761.754	30048.98
762.091	29952.94
762.428	29933.73
762.765	29753.62
763.102	30004.47
763.438	29712.95
763.775	29676.11
764.112	29678.37
764.449	29690.8
764.785	29585.72
765.122	29580.52
765.458	29509.56
765.795	29461.2
766.131	29635.66
766.467	29536.46
766.804	29602.44
767.14	29445.61
767.476	29397.02
767.812	29360.41
768.148	29484.25
768.485	29308.66
768.821	29195.67
769.157	29182.57
769.492	29173.3
769.828	29080.2
770.164	29048.11
770.5	29027.54
770.836	29133.08
771.171	28774.67
771.507	28832.07
771.842	28761.33
772.178	28700.32
772.513	28732.63
772.849	28582.36
773.184	28385.07
773.519	28482.02
773.855	28254
774.19	28100.79
774.525	28134.23
774.86	28013.56
775.195	28025.31
775.53	27929.49
775.865	27702.6
776.2	27632.55
776.535	27387.13
776.87	27400.24
777.205	27274.14
777.539	27059.91
777.874	27116.86
778.209	26873.93
778.543	26898.78
778.878	26675.74
779.212	26642.75
779.547	26652.24
779.881	26527.72
780.215	26453.15
780.55	26484.11
780.884	26328.63
781.218	26329.99
781.552	26169.76
781.886	26048.86
782.22	25866.04
782.554	25659.95
782.888	25597.58
783.222	25565.03
783.556	25467.86
783.889	25431.25
784.223	25217.02
784.557	25121.66
784.89	25295.21
785.224	25000.98
785.557	25035.1
785.891	25065.84
786.224	25081.43
786.558	25115.55
786.891	24857.03
787.224	24860.19
787.557	24705.17
787.891	24783.59
788.224	24631.5
788.557	24792.4
788.89	24640.54
789.223	24550.82
789.556	24355.35
789.888	24486.64
790.221	24344.5
790.554	24126.43
790.887	24248.91
791.219	23967.34
791.552	23900.9
791.884	23697.51
792.217	23735.93
792.549	23629.72
792.882	23455.94
793.214	23397.18
793.546	23505.43
793.879	23259.56
794.211	23158.77
794.543	23201.93
794.875	23089.17
795.207	23117.41
795.539	22988.38
795.871	22827.48
796.203	22652.34
796.535	22456.64
796.867	22440.6
797.198	22318.79
797.53	22282.63
797.862	22123.09
798.193	22173.48
798.525	22060.72
798.856	22156.76
799.188	21924.45
799.519	21872.48
799.85	21716.1
800.182	21743.44
800.513	21741.18
800.844	21604.01
801.175	21733.95
801.506	21644.01
801.837	21549.55
802.168	21420.96
802.499	21430.23
802.83	21484.01
803.161	21333.73
803.491	21296.22
803.822	21316.78
804.153	21155.21
804.483	21083.34
804.814	21085.15
805.145	21144.13
805.475	21118.37
805.805	20856.91
806.136	20983.69
806.466	20952.27
806.796	20959.73
807.126	20768.78
807.457	20750.92
807.787	20712.05
808.117	20690.13
808.447	20534.66
808.777	20687.87
809.107	20497.37
809.436	20499.63
809.766	20521.1
810.096	20298.73
810.426	20338.5
810.755	20201.79
811.085	20207.89
811.414	20111.62
811.744	19971.51
812.073	19897.16
812.403	19943.26
812.732	19761.57
813.061	19653.78
813.39	19530.39
813.719	19524.29
814.049	19665.75
814.378	19504.4
814.707	19351.19
815.036	19303.05
815.365	19108.71
815.693	19162.26
816.022	19069.16
816.351	19024.87
816.68	19093.11
817.008	19120.91
817.337	18873.46
817.665	18839.11
817.994	18852.22
818.322	18774.7
818.651	18664.42
818.979	18595.05
819.307	18766.34
819.636	18599.12
819.964	18482.96
820.292	18567.03
820.62	18596.4
820.948	18578.55
821.276	18616.74
821.604	18569.74
821.932	18604.31
822.259	18568.38
822.587	18603.18
822.915	18585.33
823.243	18604.99
823.57	18642.5
823.898	18708.27
824.225	18651.54
824.553	18599.34
824.88	18785.55
825.207	18741.03
825.535	18791.65
825.862	18800.69
826.189	18608.83
826.516	18802.5
826.843	18857.64
827.17	18770.18
827.497	18795.95
827.824	18821.71
828.151	18830.07
828.478	18697.42
828.805	18873.68
829.131	18748.49
829.458	18602.51
829.785	18640.02
830.111	18487.25
830.438	18615.16
830.764	18554.14
831.09	18569.06
831.417	18462.85
831.743	18603.18
832.069	18531.09
832.395	18485.9
832.722	18614.48
833.048	18514.6
833.374	18437.31
833.7	18321.38
834.026	18335.39
834.351	18243.19
834.677	18357.77
835.003	18244.77
835.329	18312.57
835.654	18260.37
835.98	18231.44
836.306	18125
836.631	17954.39
836.956	18071.9
837.282	18077.77
837.607	17995.97
837.932	17976.08
838.258	17907.38
838.583	17944.44
838.908	17759.82
839.233	17922.75
839.558	17728.86
839.883	17787.16
840.208	17698.8
840.533	17712.36
840.858	17757.56
841.182	17768.85
841.507	17753.94
841.832	17658.12
842.156	17668.97
842.481	17664.45
842.805	17670.33
843.13	17584.45
843.454	17549.43
843.778	17513.27
844.103	17534.96
844.427	17534.74
844.751	17495.19
845.075	17455.42
845.399	17444.57
845.723	17415.19
846.047	17417.68
846.371	17262.43
846.695	17176.1
847.019	17024.02
847.343	16987.41
847.666	16901.08
847.99	16832.83
848.313	16853.85
848.637	16683.01
848.96	16724.59
849.284	16652.73
849.607	16504.48
849.931	16475.1
850.254	16354.88
850.577	16276.01
850.9	16022.01
851.223	16177.48
851.546	15969.13
851.869	15887.1
852.192	15934.1
852.515	15801
852.838	15619.53
853.161	15676.25
853.483	15554.9
853.806	15460.89
854.129	15478.52
854.451	15365.75
854.774	15388.35
855.096	15273.78
855.419	15214.35
855.741	15177.74
856.063	15139.77
856.385	14979.55
856.708	14939.78
857.03	14939.32
857.352	14921.25
857.674	14863.62
857.996	14849.61
858.318	14833.34
858.64	14759.44
858.961	14682.38
859.283	14680.12
859.605	14659.11
859.926	14723.74
860.248	14578.43
860.57	14507.47
860.891	14615.72
861.212	14479.45
861.534	14447.81
861.855	14514.7
862.176	14433.58
862.498	14464.31
862.819	14446.23
863.14	14427.02
863.461	14393.12
863.782	14416.63
864.103	14403.52
864.424	14409.17
864.745	14445.1
865.065	14436.06
865.386	14304.54
865.707	14361.03
866.027	14355.39
866.348	14299.79
866.668	14263.64
866.989	14326.23
867.309	14157.42
867.63	14215.95
867.95	14237.42
868.27	14048.95
868.59	14121.72
868.91	14090.31
869.23	14003.08
869.55	13970.08
869.87	14083.53
870.19	13961.95
870.51	13913.59
870.83	13983.19
871.15	13902.97
871.469	13875.62
871.789	13840.6
872.109	13775.06
872.428	13658.23
872.748	13745.23
873.067	13619.36
873.386	13686.7
873.706	13654.16
874.025	13501.4
874.344	13527.84
874.663	13548.4
874.982	13398.8
875.301	13356.54
875.62	13316.54
875.939	13237.45
876.258	13167.39
876.577	13194.51
876.896	13256.66
877.214	13273.38
877.533	13115.19
877.852	13159.48
878.17	13141.63
878.489	13178.02
878.807	13095.98
879.125	13060.96
879.444	13056.44
879.762	13115.64
880.08	12988.42
880.398	12947.96
880.716	12936.44
881.034	12906.84
881.352	12979.83
881.67	12872.03
881.988	12889.66
882.306	12849.89
882.624	12733.28
882.941	12798.82
883.259	12832.94
883.577	12824.13
883.894	12718.14
884.212	12809.44
884.529	12709.1
884.846	12712.94
885.164	12717.69
885.481	12714.75
885.798	12798.59
886.115	12646.28
886.432	12669.55
886.75	12663.45
887.067	12640.4
887.383	12580.52
887.7	12588.43
888.017	12548.65
888.334	12583
888.651	12517.92
888.967	12475.66
889.284	12499.39
889.6	12498.26
889.917	12253.75
890.233	12352.5
890.55	12274.99
890.866	12264.82
891.182	12173.3
891.498	12165.84
891.815	12176.69
892.131	12133.52
892.447	12022.11
892.763	11961.55
893.079	11979.85
893.395	11838.39
893.71	11868.67
894.026	11745.74
894.342	11794.55
894.657	11730.82
894.973	11644.5
895.289	11657.38
895.604	11555.01
895.92	11495.12
896.235	11370.6
896.55	11512.75
896.865	11461
897.181	11303.71
897.496	11279.76
897.811	11202.25
898.126	11190.5
898.441	11150.72
898.756	11119.76
899.071	11051.07
899.386	11023.5
899.7	11012.65
900.015	10952.08
900.33	10800
900.644	10831.18
900.959	10866.21
901.273	10774.01
901.588	10811.07
901.902	10756.84
902.216	10743.05
902.531	10704.41
902.845	10665.76
903.159	10580.34
903.473	10526.11
903.787	10516.62
904.101	10464.41
904.415	10435.26
904.729	10476.84
905.042	10314.14
905.356	10406.79
905.67	10335.83
905.984	10278.88
906.297	10304.19
906.611	10256.06
906.924	10271.88
907.237	10198.88
907.551	10160.92
907.864	10123.18
908.177	10178.55
908.491	10146
908.804	10099.68
909.117	10037.08
909.43	9934.71
909.743	9900.14
910.056	9935.16
910.368	9842.28
910.681	9861.04
910.994	9772.68
911.307	9801.83
911.619	9787.37
911.932	9771.32
912.244	9672.12
912.557	9712.8
912.869	9607.04
913.181	9544.66
913.494	9520.03
913.806	9417.89
914.118	9434.84
914.43	9348.29
914.742	9366.14
915.054	9313.26
915.366	9295.18
915.678	9270.32
915.99	9152.81
916.302	9074.39
916.613	9061.29
916.925	9091.57
917.236	8977.22
917.548	8933.38
917.859	8931.57
918.171	8858.81
918.482	8789.88
918.794	8727.06
919.105	8702.65
919.416	8646.61
919.727	8591.24
920.038	8577.01
920.349	8497.69
920.66	8542.88
920.971	8411.59
921.282	8414.75
921.593	8398.71
921.903	8332.94
922.214	8290.69
922.525	8217.69
922.835	8256.56
923.146	8190.35
923.456	8118.04
923.767	8044.36
924.077	8148.09
924.387	8060.41
924.697	8055.89
925.008	8093.85
925.318	7950.36
925.628	7951.26
925.938	7936.34
926.248	7869.68
926.558	7809.34
926.867	7809.12
927.177	7779.06
927.487	7685.28
927.796	7692.06
928.106	7700.87
928.416	7652.28
928.725	7577.71
929.034	7559.86
929.344	7530.03
929.653	7537.49
929.962	7477.37
930.271	7481.22
930.581	7428.79
930.89	7504.72
931.199	7427.88
931.508	7407.09
931.817	7297.04
932.125	7297.27
932.434	7299.07
932.743	7237.15
933.051	7192.41
933.36	7241.45
933.669	7146.31
933.977	7204.61
934.286	7158.51
934.594	7099.08
934.902	7075.58
935.21	7080.55
935.519	7055.69
935.827	7046.2
936.135	7032.87
936.443	6870.38
936.751	6966.43
937.059	6922.36
937.367	6933.43
937.674	6902.25
937.982	6868.12
938.29	6806.21
938.597	6827.67
938.905	6702.71
939.213	6662.03
939.52	6563.27
939.827	6626.32
940.135	6573.67
940.442	6566.66
940.749	6542.26
941.056	6519.89
941.363	6437.63
941.67	6416.84
941.977	6337.29
942.284	6251.64
942.591	6286.44
942.898	6284.41
943.205	6204.19
943.511	6205.77
943.818	6218.42
944.125	6166.45
944.431	6077.18
944.738	6105.21
945.044	6043.51
945.35	6022.5
945.657	5950.63
945.963	5995.38
946.269	5941.14
946.575	5958.77
946.881	5899.34
947.187	5865.44
947.493	5890.52
947.799	5849.85
948.105	5839.68
948.41	5795.84
948.716	5778.44
949.022	5760.58
949.327	5746.12
949.633	5659.57
949.938	5677.2
950.244	5630.87
950.549	5529.85
950.854	5545.9
951.16	5505.22
951.465	5545.45
951.77	5504.54
952.075	5509.06
952.38	5475.17
952.685	5462.29
952.99	5408.73
953.294	5381.16
953.599	5420.25
953.904	5311.78
954.209	5322.85
954.513	5389.52
954.818	5311.1
955.122	5308.17
955.426	5273.14
955.731	5267.26
956.035	5265.91
956.339	5250.99
956.643	5222.29
956.948	5190.43
957.252	5153.82
957.556	5180.26
957.86	5124.44
958.163	5144.1
958.467	5136.42
958.771	5091.67
959.075	5079.02
959.378	5034.73
959.682	5004.22
959.985	5030.43
960.289	4973.49
960.592	4971.9
960.896	4942.75
961.199	4914.28
961.502	4896.42
961.805	4878.8
962.108	4873.37
962.411	4843.32
962.714	4840.83
963.017	4838.35
963.32	4777.56
963.623	4766.03
963.926	4695.98
964.228	4763.32
964.531	4677.45
964.833	4672.25
965.136	4602.87
965.438	4615.3
965.741	4599.71
966.043	4557.68
966.345	4550.22
966.648	4503.67
966.95	4499.15
967.252	4523.55
967.554	4454.18
967.856	4408.98
968.158	4416.21
968.46	4396.55
968.761	4371.69
969.063	4362.2
969.365	4352.03
969.666	4257.35
969.968	4295.76
970.269	4254.63
970.571	4216.89
970.872	4218.02
971.174	4137.35
971.475	4185.03
971.776	4172.15
972.077	4142.09
972.378	4122.66
972.679	4098.93
972.98	4098.93
973.281	4048.54
973.582	4021.87
973.883	4021.65
974.183	3973.96
974.484	3978.93
974.785	3920.18
975.085	3947.3
975.386	3939.61
975.686	3925.6
975.986	3926.51
976.287	3860.75
976.587	3827.75
976.887	3836.57
977.187	3865.49
977.487	3834.08
977.787	3836.11
978.087	3787.75
978.387	3754.76
978.687	3771.93
978.987	3782.1
979.286	3745.95
979.586	3717.7
979.885	3719.73
980.185	3725.38
980.484	3644.25
980.784	3657.36
981.083	3638.83
981.382	3604.71
981.682	3572.84
981.981	3587.31
982.28	3565.61
982.579	3593.63
982.878	3636.8
983.177	3533.75
983.475	3542.11
983.774	3527.42
984.073	3507.76
984.372	3519.06
984.67	3497.37
984.969	3510.25
985.267	3489.68
985.566	3462.79
985.864	3442
986.162	3502.34
986.461	3382.57
986.759	3397.26
987.057	3367.88
987.355	3392.51
987.653	3380.08
987.951	3331.72
988.249	3357.26
988.547	3330.59
988.844	3334.43
989.142	3286.3
989.44	3228.22
989.737	3219.63
990.035	3208.56
990.332	3210.82
990.63	3173.98
990.927	3186.41
991.224	3141.44
991.521	3136.02
991.819	3096.02
992.116	3089.92
992.413	3093.31
992.71	3091.95
993.006	3021.22
993.303	3037.26
993.6	3046.98
993.897	2988.45
994.193	2948.23
994.49	3009.69
994.787	2932.41
995.083	2946.65
995.379	2939.19
995.676	2925.63
995.972	2909.58
996.268	2887.66
996.565	2848.8
996.861	2841.34
997.157	2797.27
997.453	2826.65
997.749	2803.37
998.044	2741.23
998.34	2780.55
998.636	2708.69
998.932	2760.89
999.227	2759.31
999.523	2720.89
999.818	2674.79
1000.114	2646.09
1000.409	2673.66
1000.704	2627.33
1001	2626.65
1001.295	2602.93
1001.59	2598.63
1001.885	2616.48
1002.18	2578.52
1002.475	2557.28
1002.77	2525.19
1003.065	2516.15
1003.359	2526.09
1003.654	2535.13
1003.949	2509.37
1004.243	2515.24
1004.538	2499.43
1004.832	2470.95
1005.127	2464.4
1005.421	2442.25
1005.715	2437.51
1006.009	2408.13
1006.304	2398.41
1006.598	2364.06
1006.892	2364.06
1007.186	2367.45
1007.48	2333.1
1007.773	2331.97
1008.067	2303.5
1008.361	2311.63
1008.655	2320.45
1008.948	2262.37
1009.242	2309.6
1009.535	2263.95
1009.829	2279.32
1010.122	2262.6
1010.415	2263.05
1010.708	2213.33
1011.001	2197.51
1011.295	2188.93
1011.588	2180.56
1011.881	2157.97
1012.173	2188.02
1012.466	2188.25
1012.759	2161.81
1013.052	2145.31
1013.344	2115.48
1013.637	2105.99
1013.93	2094.69
1014.222	2096.72
1014.514	2077.97
1014.807	2074.35
1015.099	2069.38
1015.391	2019.44
1015.683	2029.61
1015.976	2023.51
1016.268	2009.27
1016.56	1988.7
1016.851	1988.25
1017.143	1957.07
1017.435	1928.14
1017.727	1915.49
1018.018	1927.46
1018.31	1924.3
1018.602	1897.86
1018.893	1895.6
1019.185	1875.04
1019.476	1869.16
1019.767	1873
1020.058	1847.01
1020.35	1829.16
1020.641	1822.61
1020.932	1807.47
1021.223	1777.64
1021.514	1795.04
1021.804	1730.41
1022.095	1727.92
1022.386	1725.89
1022.677	1725.89
1022.967	1694.25
1023.258	1709.84
1023.548	1687.47
1023.839	1669.62
1024.129	1676.85
1024.419	1675.27
1024.709	1613.8
1025	1626.23
1025.29	1626.91
1025.58	1617.19
1025.87	1594.36
1026.16	1558.43
1026.449	1575.16
1026.739	1564.99
1027.029	1564.54
1027.319	1534.71
1027.608	1540.35
1027.898	1544.87
1028.187	1486.8
1028.477	1482.96
1028.766	1483.41
1029.055	1489.28
1029.344	1480.92
1029.634	1455.61
1029.923	1441.83
1030.212	1439.79
1030.501	1430.98
1030.79	1408.38
1031.078	1426.69
1031.367	1382.17
1031.656	1399.34
1031.945	1363.86
1032.233	1363.41
1032.522	1357.08
1032.81	1336.52
1033.099	1324.77
1033.387	1343.98
1033.675	1329.51
1033.963	1319.12
1034.251	1319.12
1034.54	1303.53
1034.828	1284.09
1035.116	1264.2
1035.403	1265.33
1035.691	1260.36
1035.979	1259.91
1036.267	1235.73
1036.554	1230.76
1036.842	1250.42
1037.129	1228.95
1037.417	1219.01
1037.704	1228.5
1037.992	1220.36
1038.279	1195.96
1038.566	1204.32
1038.853	1204.32
1039.14	1204.32
