Data from blue_surface_keyboard_FLMS001491_023.txt Node
Date: Tue Feb 07 11:12:51 GMT 2017
User: dcchb
Spectrometer: FLMS00149
Trigger mode: 0
Integration Time (sec): 2.000000E-2
Scans to average: 10
Electric dark correction enabled: true
Nonlinearity correction enabled: false
Boxcar width: 0
XAxis mode: Wavelengths
Number of Pixels in Spectrum: 2048
>>>>>Begin Spectral Data<<<<<
341.393	-13.88
341.776	-13.88
342.16	-13.88
342.543	-49.82
342.927	-63.37
343.31	-66.54
343.693	-87.1
344.077	-54.11
344.46	-45.3
344.843	-55.01
345.226	-56.14
345.61	-38.97
345.993	-21.57
346.376	-0.78
346.759	3.74
347.142	48.94
347.525	50.75
347.908	75.61
348.291	68.37
348.674	85.55
349.057	92.55
349.44	122.38
349.823	126.23
350.206	148.82
350.588	184.53
350.971	188.6
351.354	189.73
351.737	210.97
352.119	218.88
352.502	240.57
352.884	254.81
353.267	255.71
353.65	267.69
354.032	274.7
354.414	306.33
354.797	301.14
355.179	309.27
355.562	288.71
355.944	307.24
356.326	291.42
356.709	309.05
357.091	321.25
357.473	332.77
357.855	322.83
358.238	328.93
358.62	306.11
359.002	341.36
359.384	309.95
359.766	326.9
360.148	318.76
360.53	325.32
360.912	345.88
361.294	318.99
361.676	305.2
362.057	303.17
362.439	314.47
362.821	301.81
363.203	309.95
363.584	300.68
363.966	297.75
364.348	295.71
364.729	294.81
365.111	302.27
365.493	291.87
365.874	287.13
366.256	305.2
366.637	281.93
367.019	295.94
367.4	285.09
367.781	278.76
368.163	305.88
368.544	283.28
368.925	275.15
369.306	286.45
369.688	270.4
370.069	283.06
370.45	279.44
370.831	296.39
371.212	292.55
371.593	290.06
371.974	292.55
372.355	289.16
372.736	283.96
373.117	292.77
373.498	290.97
373.879	294.81
374.26	288.26
374.641	288.03
375.021	286.45
375.402	285.32
375.783	291.19
376.163	283.28
376.544	299.55
376.925	300.91
377.305	298.2
377.686	295.03
378.066	292.1
378.447	289.84
378.827	303.4
379.208	272.66
379.588	301.81
379.968	311.98
380.349	275.83
380.729	306.11
381.109	303.85
381.489	303.4
381.87	273.79
382.25	293.68
382.63	323.96
383.01	300.23
383.39	291.19
383.77	306.56
384.15	295.49
384.53	309.95
384.91	293.45
385.29	305.2
385.67	296.84
386.049	330.29
386.429	320.12
386.809	308.82
387.189	318.31
387.568	304.53
387.948	325.99
388.328	315.83
388.707	315.83
389.087	319.67
389.466	307.24
389.846	309.05
390.225	308.37
390.605	304.75
390.984	312.44
391.363	318.76
391.743	324.19
392.122	314.24
392.501	325.99
392.881	337.29
393.26	303.17
393.639	332.32
394.018	316.28
394.397	339.1
394.776	335.26
395.155	336.39
395.534	338.65
395.913	313.34
396.292	332.1
396.671	324.64
397.05	312.21
397.429	349.72
397.808	315.83
398.186	328.93
398.565	331.64
398.944	328.25
399.323	335.94
399.701	341.59
400.08	335.26
400.458	333
400.837	331.19
401.215	351.08
401.594	346.33
401.972	339.33
402.351	344.52
402.729	337.29
403.107	347.69
403.486	332.32
403.864	378.65
404.242	350.85
404.62	354.02
404.999	337.52
405.377	356.73
405.755	366.45
406.133	337.75
406.511	365.09
406.889	346.56
407.267	350.4
407.645	369.83
408.023	349.27
408.401	354.47
408.779	354.47
409.156	365.54
409.534	352.43
409.912	365.32
410.29	379.1
410.667	353.11
411.045	377.74
411.422	369.83
411.8	358.31
412.178	361.7
412.555	357.41
412.933	385.43
413.31	380.91
413.687	394.02
414.065	381.13
414.442	351.3
414.819	377.07
415.197	370.96
415.574	386.33
415.951	397.4
416.328	384.07
416.705	370.96
417.082	391.3
417.46	379.1
417.837	387.46
418.214	397.63
418.591	411.19
418.967	377.52
419.344	391.08
419.721	408.7
420.098	377.52
420.475	390.17
420.852	418.65
421.228	417.07
421.605	393.79
421.982	403.05
422.358	395.6
422.735	399.21
423.111	412.32
423.488	420.46
423.864	404.64
424.241	399.89
424.617	422.04
424.994	408.48
425.37	385.65
425.746	408.03
426.123	417.74
426.499	427.91
426.875	440.57
427.251	412.55
427.627	435.37
428.003	435.82
428.379	444.18
428.756	432.43
429.132	447.35
429.507	443.96
429.883	440.12
430.259	448.93
430.635	434.92
431.011	452.77
431.387	457.52
431.763	464.07
432.138	462.26
432.514	445.77
432.89	462.04
433.265	453.45
433.641	475.59
434.016	488.48
434.392	458.42
434.767	465.65
435.143	467.23
435.518	468.36
435.894	485.99
436.269	473.34
436.644	505.65
437.02	494.58
437.395	499.1
437.77	481.92
438.145	500.68
438.52	485.54
438.895	500.68
439.271	496.61
439.646	520.57
440.021	523.96
440.395	488.48
440.77	492.54
441.145	512.2
441.52	513.11
441.895	518.76
442.27	523.5
442.645	500.23
443.019	521.02
443.394	516.5
443.769	525.09
444.143	516.05
444.518	530.73
444.892	507.23
445.267	520.57
445.641	545.88
446.016	547.91
446.39	543.39
446.764	535.03
447.139	541.13
447.513	537.29
447.887	540.23
448.262	546.55
448.636	540.9
449.01	547.68
449.384	551.75
449.758	533.45
450.132	556.72
450.506	539.55
450.88	563.73
451.254	557.17
451.628	566.89
452.002	582.03
452.376	572.54
452.75	586.78
453.123	564.63
453.497	584.74
453.871	577.29
454.244	577.97
454.618	594.46
454.992	597.4
455.365	595.59
455.739	610.28
456.112	609.38
456.486	628.13
456.859	624.52
457.232	606.21
457.606	603.5
457.979	580.9
458.352	615.93
458.725	631.3
459.099	635.36
459.472	629.49
459.845	643.73
460.218	645.53
460.591	635.36
460.964	615.48
461.337	632.43
461.71	657.96
462.083	671.07
462.456	664.97
462.829	655.03
463.201	663.16
463.574	650.28
463.947	682.82
464.32	668.13
464.692	707.23
465.065	702.03
465.438	693.22
465.81	712.88
466.183	713.78
466.555	712.42
466.928	717.85
467.3	704.29
467.672	667
468.045	737.28
468.417	733.67
468.789	745.19
469.161	730.5
469.534	765.08
469.906	764.17
470.278	759.66
470.65	751.97
471.022	767.56
471.394	777.51
471.766	800.11
472.138	790.16
472.51	795.81
472.882	813.89
473.253	793.78
473.625	796.94
473.997	812.31
474.369	796.72
474.74	821.8
475.112	844.62
475.484	869.03
475.855	839.88
476.227	850.05
476.598	878.07
476.97	869.48
477.341	891.63
477.713	893.66
478.084	863.16
478.455	902.7
478.827	949.93
479.198	950.61
479.569	951.06
479.94	943.38
480.311	954.45
480.682	938.41
481.053	980.89
481.424	963.94
481.795	1003.49
482.166	994
482.537	1012.53
482.908	1007.33
483.279	1008.01
483.65	1031.74
484.021	1034.45
484.391	1034.9
484.762	1061.57
485.133	1036.94
485.503	1062.47
485.874	1094.34
486.244	1078.74
486.615	1080.78
486.985	1116.93
487.356	1124.62
487.726	1104.5
488.097	1127.33
488.467	1120.55
488.837	1131.17
489.207	1138.4
489.578	1165.52
489.948	1146.54
490.318	1169.14
490.688	1164.39
491.058	1176.59
491.428	1216.14
491.798	1192.86
492.168	1239.64
492.538	1206.88
492.908	1212.52
493.278	1210.49
493.648	1214.33
494.017	1223.15
494.387	1225.86
494.757	1248.91
495.126	1241.9
495.496	1225.86
495.866	1266.08
496.235	1252.75
496.605	1259.98
496.974	1254.11
497.344	1286.87
497.713	1316.7
498.082	1278.96
498.452	1293.43
498.821	1267.89
499.19	1279.19
499.559	1278.51
499.928	1296.14
500.298	1295.91
500.667	1309.02
501.036	1305.4
501.405	1292.75
501.774	1320.32
502.143	1323.93
502.512	1298.85
502.88	1309.02
503.249	1345.63
503.618	1331.84
503.987	1327.32
504.356	1344.95
504.724	1326.19
505.093	1340.2
505.462	1335.23
505.83	1344.27
506.199	1348.57
506.567	1370.49
506.936	1329.13
507.304	1355.12
507.672	1376.14
508.041	1407.55
508.409	1367.1
508.777	1399.86
509.145	1361.45
509.514	1378.4
509.882	1370.26
510.25	1357.61
510.618	1377.27
510.986	1392.41
511.354	1399.64
511.722	1376.59
512.09	1416.59
512.458	1387.21
512.826	1408.9
513.193	1414.33
513.561	1405.74
513.929	1405.51
514.297	1417.49
514.664	1438.51
515.032	1430.6
515.4	1448.22
515.767	1446.87
516.135	1411.62
516.502	1401.67
516.869	1435.12
517.237	1433.54
517.604	1436.25
517.972	1441.9
518.339	1450.03
518.706	1418.85
519.073	1434.89
519.44	1424.04
519.808	1444.61
520.175	1436.93
520.542	1455.46
520.909	1447.32
521.276	1440.32
521.643	1468.34
522.009	1476.7
522.376	1485.51
522.743	1455
523.11	1497.94
523.477	1516.7
523.843	1496.58
524.21	1487.77
524.577	1496.36
524.943	1492.74
525.31	1491.16
525.676	1497.49
526.043	1494.55
526.409	1551.27
526.776	1520.99
527.142	1505.17
527.508	1535
527.874	1535.68
528.241	1527.32
528.607	1543.14
528.973	1542.01
529.339	1528.22
529.705	1566.64
530.071	1533.42
530.437	1556.02
530.803	1569.8
531.169	1561.89
531.535	1554.66
531.901	1570.93
532.267	1546.3
532.632	1556.47
532.998	1567.09
533.364	1578.84
533.73	1588.33
534.095	1584.49
534.461	1580.42
534.826	1565.06
535.192	1588.79
535.557	1591.72
535.923	1596.02
536.288	1601.21
536.653	1607.09
537.019	1568.22
537.384	1609.35
537.749	1609.8
538.114	1584.49
538.479	1612.29
538.845	1614.77
539.21	1606.64
539.575	1607.99
539.94	1606.86
540.305	1591.5
540.67	1606.64
541.034	1613.64
541.399	1616.13
541.764	1602.34
542.129	1598.73
542.494	1586.98
542.858	1605.51
543.223	1608.67
543.587	1610.25
543.952	1617.26
544.316	1574.77
544.681	1627.88
545.045	1599.18
545.41	1636.92
545.774	1604.83
546.138	1617.49
546.503	1611.38
546.867	1615.68
547.231	1603.47
547.595	1621.78
547.959	1632.17
548.324	1640.76
548.688	1606.19
549.052	1613.87
549.416	1622.23
549.779	1637.6
550.143	1650.48
550.507	1643.93
550.871	1650.48
551.235	1603.47
551.599	1643.93
551.962	1625.62
552.326	1659.07
552.689	1626.98
553.053	1622.91
553.417	1636.24
553.78	1631.5
554.143	1640.76
554.507	1637.15
554.87	1661.78
555.234	1666.3
555.597	1667.65
555.96	1663.81
556.323	1641.67
556.686	1638.05
557.05	1648.9
557.413	1665.85
557.776	1652.06
558.139	1674.43
558.502	1666.75
558.865	1662.46
559.228	1666.3
559.59	1684.38
559.953	1692.06
560.316	1701.1
560.679	1666.07
561.041	1683.02
561.404	1691.83
561.767	1702.91
562.129	1685.96
562.492	1701.55
562.854	1685.73
563.217	1704.49
563.579	1689.12
563.941	1726.18
564.304	1673.3
564.666	1713.08
565.028	1717.37
565.39	1737.48
565.753	1721.89
566.115	1680.99
566.477	1723.7
566.839	1699.29
567.201	1733.64
567.563	1733.64
567.925	1740.19
568.287	1782.45
568.648	1726.18
569.01	1747.65
569.372	1759.18
569.734	1763.24
570.095	1787.65
570.457	1768.22
570.819	1780.19
571.18	1758.05
571.542	1740.65
571.903	1794.88
572.265	1755.79
572.626	1786.97
572.987	1782.68
573.349	1782.45
573.71	1751.49
574.071	1795.33
574.432	1784.04
574.794	1784.71
575.155	1779.52
575.516	1803.7
575.877	1804.37
576.238	1810.93
576.599	1811.15
576.96	1774.09
577.32	1771.83
577.681	1832.17
578.042	1783.58
578.403	1838.95
578.763	1814.77
579.124	1827.88
579.485	1808.67
579.845	1815.22
580.206	1798.72
580.566	1797.14
580.927	1793.3
581.287	1794.66
581.648	1806.18
582.008	1813.19
582.368	1848.21
582.728	1797.59
583.089	1826.29
583.449	1858.61
583.809	1805.73
584.169	1852.28
584.529	1793.98
584.889	1858.38
585.249	1839.17
585.609	1823.36
585.969	1847.99
586.329	1803.02
586.688	1834.66
587.048	1827.65
587.408	1819.97
587.768	1791.94
588.127	1825.62
588.487	1830.59
588.846	1826.07
589.206	1830.36
589.565	1819.06
589.925	1857.93
590.284	1862.68
590.643	1864.71
591.003	1844.37
591.362	1825.84
591.721	1832.17
592.08	1838.72
592.44	1816.35
592.799	1876.24
593.158	1831.27
593.517	1868.78
593.876	1855.22
594.235	1854.32
594.593	1835.33
594.952	1883.69
595.311	1844.15
595.67	1845.5
596.029	1858.61
596.387	1893.41
596.746	1876.24
597.104	1882.11
597.463	1869.91
597.822	1869.46
598.18	1878.04
598.538	1891.83
598.897	1874.65
599.255	1857.71
599.613	1843.92
599.972	1880.3
600.33	1864.26
600.688	1864.94
601.046	1893.41
601.404	1890.02
601.762	1910.59
602.12	1880.53
602.478	1900.42
602.836	1885.5
603.194	1884.82
603.552	1864.48
603.91	1895.67
604.268	1879.63
604.625	1896.8
604.983	1887.31
605.341	1885.95
605.698	1923.47
606.056	1879.17
606.413	1900.64
606.771	1930.47
607.128	1908.1
607.485	1900.87
607.843	1896.12
608.2	1924.6
608.557	1923.69
608.914	1929.34
609.272	1923.47
609.629	1940.19
609.986	1951.26
610.343	1941.54
610.7	1949
611.057	1958.49
611.414	1940.42
611.771	1942.22
612.127	1962.11
612.484	1927.31
612.841	1977.48
613.198	1964.6
613.554	1957.36
613.911	1943.8
614.267	1949.91
614.624	1948.1
614.98	1953.75
615.337	1958.49
615.693	1956.91
616.05	1985.16
616.406	2009.11
616.762	1941.32
617.118	1974.76
617.475	1998.72
617.831	2024.03
618.187	2005.27
618.543	1977.48
618.899	2004.82
619.255	2024.48
619.611	1988.55
619.967	2012.05
620.323	2022.45
620.678	1975.44
621.034	1997.36
621.39	2017.25
621.746	2001.88
622.101	2027.64
622.457	2052.95
622.812	1998.49
623.168	2028.77
623.523	1999.62
623.879	2040.3
624.234	2019.28
624.589	2018.15
624.945	2021.09
625.3	2018.38
625.655	2070.81
626.01	2021.77
626.365	2038.72
626.72	2043.92
627.075	2054.76
627.43	2049.34
627.785	2029.23
628.14	2045.72
628.495	2046.85
628.85	2069.23
629.205	2055.21
629.559	2062.45
629.914	2026.51
630.269	2073.97
630.623	2050.69
630.978	2064.71
631.332	2091.15
631.687	2080.98
632.041	2058.6
632.396	2078.94
632.75	2102.22
633.104	2087.08
633.459	2060.64
633.813	2084.59
634.167	2066.74
634.521	2082.33
634.875	2094.76
635.229	2113.97
635.583	2110.35
635.937	2107.42
636.291	2108.09
636.645	2103.57
636.999	2092.95
637.352	2113.07
637.706	2104.48
638.06	2137.02
638.413	2127.3
638.767	2107.64
639.121	2153.52
639.474	2133.18
639.828	2158.71
640.181	2167.98
640.534	2145.38
640.888	2129.11
641.241	2163.69
641.594	2175.21
641.947	2183.35
642.301	2146.29
642.654	2202.1
643.007	2206.62
643.36	2202.33
643.713	2183.35
644.066	2193.29
644.419	2151.26
644.771	2159.39
645.124	2154.87
645.477	2167.98
645.83	2198.04
646.182	2166.85
646.535	2169.79
646.888	2189
647.24	2197.81
647.593	2212.27
647.945	2219.96
648.298	2189.22
648.65	2219.28
649.002	2231.93
649.355	2213.63
649.707	2267.41
650.059	2244.59
650.411	2292.5
650.763	2281.65
651.115	2293.17
651.467	2335.88
651.819	2315.55
652.171	2366.84
652.523	2342.44
652.875	2358.26
653.227	2353.74
653.578	2346.73
653.93	2336.79
654.282	2356
654.633	2345.15
654.985	2404.13
655.337	2412.95
655.688	2424.47
656.039	2436
656.391	2424.47
656.742	2434.87
657.094	2438.71
657.445	2444.81
657.796	2460.85
658.147	2486.84
658.498	2462.44
658.849	2495.43
659.2	2492.04
659.551	2479.38
659.902	2510.57
660.253	2532.49
660.604	2523
660.955	2514.19
661.306	2540.63
661.656	2560.51
662.007	2566.16
662.358	2599.83
662.708	2583.79
663.059	2582.43
663.409	2623.79
663.76	2622.43
664.11	2674.41
664.461	2642.09
664.811	2679.15
665.161	2651.13
665.511	2662.66
665.862	2706.5
666.212	2736.55
666.562	2707.4
666.912	2730
667.262	2722.77
667.612	2751.69
667.962	2779.26
668.312	2754.86
668.662	2804.8
669.011	2782.65
669.361	2820.17
669.711	2847.74
670.06	2835.08
670.41	2833.05
670.76	2782.65
671.109	2872.59
671.459	2825.36
671.808	2824.91
672.157	2851.58
672.507	2871.92
672.856	2881.86
673.205	2896.32
673.554	2936.1
673.904	2921.41
674.253	2980.61
674.602	2966.6
674.951	2915.3
675.3	2906.49
675.649	2958.47
675.998	2986.94
676.346	2978.58
676.695	2999.82
677.044	2985.36
677.393	3035.75
677.741	3045.7
678.09	3047.28
678.438	3024.45
678.787	3012.7
679.135	3056.54
679.484	3063.55
679.832	3081.18
680.181	3101.29
680.529	3092.25
680.877	3119.82
681.225	3083.66
681.573	3101.51
681.922	3102.87
682.27	3127.28
682.618	3124.11
682.966	3150.1
683.314	3154.62
683.661	3160.27
684.009	3144.45
684.357	3163.89
684.705	3145.36
685.053	3193.72
685.4	3200.95
685.748	3174.51
686.095	3135.64
686.443	3199.37
686.79	3178.35
687.138	3246.14
687.485	3223.09
687.832	3250.44
688.18	3268.29
688.527	3226.71
688.874	3244.11
689.221	3234.39
689.568	3233.04
689.915	3255.63
690.262	3193.94
690.609	3218.57
690.956	3231.23
691.303	3246.37
691.65	3218.57
691.997	3218.57
692.344	3188.52
692.69	3252.24
693.037	3252.7
693.383	3260.15
693.73	3226.26
694.077	3246.14
694.423	3233.49
694.769	3236.65
695.116	3241.17
695.462	3245.24
695.808	3240.95
696.155	3273.49
696.501	3234.62
696.847	3238.23
697.193	3202.53
697.539	3264.67
697.885	3266.93
698.231	3222.87
698.577	3238.23
698.923	3206.14
699.269	3218.8
699.614	3235.07
699.96	3177.22
700.306	3230.78
700.651	3209.08
700.997	3225.35
701.342	3200.95
701.688	3193.26
702.033	3199.82
702.379	3180.38
702.724	3182.64
703.069	3190.78
703.415	3161.63
703.76	3161.17
704.105	3193.72
704.45	3172.7
704.795	3123.89
705.14	3153.94
705.485	3147.16
705.83	3106.26
706.175	3140.38
706.52	3124.11
706.865	3135.64
707.209	3136.09
707.554	3140.61
707.899	3144.45
708.243	3145.81
708.588	3138.58
708.932	3111.23
709.277	3080.95
709.621	3158.91
709.966	3123.66
710.31	3105.58
710.654	3076.88
710.998	3121.4
711.342	3125.47
711.687	3085.24
712.031	3092.93
712.375	3073.94
712.719	3090.89
713.063	3034.17
713.407	3093.15
713.75	3088.18
714.094	3076.88
714.438	3096.77
714.782	3064.45
715.125	3067.17
715.469	3090.67
715.812	3092.02
716.156	3053.61
716.499	3081.18
716.843	3111.01
717.186	3071.46
717.53	3086.6
717.873	3078.01
718.216	3077.56
718.559	3073.27
718.902	3085.47
719.246	3066.71
719.589	3048.86
719.932	3053.83
720.275	3054.96
720.617	3085.47
720.96	3088.86
721.303	3072.81
721.646	3061.29
721.989	3027.62
722.331	3087.5
722.674	3081.18
723.016	3082.98
723.359	3099.03
723.701	3059.71
724.044	3027.17
724.386	3079.14
724.729	3072.14
725.071	3057.45
725.413	3090.89
725.755	3057.67
726.097	3071.68
726.439	3085.24
726.782	3032.59
727.124	3095.86
727.465	3094.51
727.807	3075.07
728.149	3079.59
728.491	3079.37
728.833	3124.56
729.175	3106.94
729.516	3077.56
729.858	3061.29
730.199	3112.59
730.541	3058.58
730.882	3086.6
731.224	3082.98
731.565	3066.71
731.906	3090.44
732.248	3090.67
732.589	3074.17
732.93	3125.24
733.271	3075.07
733.612	3106.03
733.953	3116.88
734.294	3155.75
734.635	3133.15
734.976	3090.67
735.317	3113.49
735.658	3102.19
735.999	3136.32
736.339	3128.63
736.68	3148.52
737.021	3128.41
737.361	3146.49
737.702	3180.16
738.042	3136.54
738.383	3127.5
738.723	3167.5
739.063	3142.87
739.404	3163.43
739.744	3199.37
740.084	3183.32
740.424	3174.51
740.764	3227.61
741.104	3233.49
741.444	3210.44
741.784	3228.06
742.124	3220.16
742.464	3272.58
742.804	3235.3
743.143	3276.43
743.483	3298.35
743.823	3285.01
744.162	3314.39
744.502	3316.65
744.841	3290.89
745.181	3362.07
745.52	3353.03
745.86	3392.35
746.199	3357.55
746.538	3402.3
746.877	3418.34
747.216	3407.5
747.556	3414.73
747.895	3467.61
748.234	3431.45
748.573	3448.85
748.911	3461.28
749.25	3527.49
749.589	3527.72
749.928	3524.1
750.267	3575.85
750.605	3559.81
750.944	3630.54
751.283	3614.27
751.621	3649.52
751.96	3629.41
752.298	3631.9
752.636	3684.1
752.975	3749.63
753.313	3723.87
753.651	3739.92
753.989	3772.01
754.327	3816.07
754.666	3782.17
755.004	3783.98
755.342	3864.21
755.679	3836.18
756.017	3868.95
756.355	3865.56
756.693	3940.36
757.031	3945.33
757.368	3916.18
757.706	3991.66
758.044	3948.27
758.381	3984.66
758.719	4026.46
759.056	4048.38
759.394	4050.19
759.731	4054.48
760.068	4048.38
760.405	4087.03
760.743	4082.73
761.08	4083.18
761.417	4102.17
761.754	4172.9
762.091	4127.48
762.428	4167.7
762.765	4153.24
763.102	4175.38
763.438	4222.61
763.775	4186.91
764.112	4254.93
764.449	4241.15
764.785	4290.41
765.122	4267.59
765.458	4238.66
765.795	4208.38
766.131	4251.09
766.467	4242.73
766.804	4259.22
767.14	4201.37
767.476	4242.5
767.812	4211.09
768.148	4229.62
768.485	4233.46
768.821	4224.2
769.157	4268.94
769.492	4255.61
769.828	4264.65
770.164	4203.86
770.5	4268.26
770.836	4285.21
771.171	4237.76
771.507	4256.51
771.842	4237.53
772.178	4212.22
772.513	4262.84
772.849	4247.25
773.184	4234.59
773.519	4216.51
773.855	4200.02
774.19	4222.39
774.525	4177.42
774.86	4198.89
775.195	4216.97
775.53	4153.24
775.865	4159.34
776.2	4115.5
776.535	4100.13
776.87	4116.4
777.205	4133.8
777.539	4120.92
777.874	4142.17
778.209	4101.26
778.543	4103.3
778.878	4072.11
779.212	4072.34
779.547	4057.42
779.881	4088.38
780.215	3990.53
780.55	4054.26
780.884	4010.87
781.218	4002.73
781.552	4021.94
781.886	4008.16
782.22	4019.91
782.554	3979.91
782.888	3906.01
783.222	3939.91
783.556	3925.9
783.889	3956.63
784.223	3916.18
784.557	3938.55
784.89	3888.61
785.224	3877.77
785.557	3857.43
785.891	3902.62
786.224	3851.1
786.558	3865.11
786.891	3808.39
787.224	3818.56
787.557	3886.35
787.891	3809.52
788.224	3833.7
788.557	3835.73
788.89	3820.14
789.223	3788.28
789.556	3766.13
789.888	3743.98
790.221	3740.82
790.554	3729.07
790.887	3726.58
791.219	3717.32
791.552	3708.05
791.884	3713.7
792.217	3713.48
792.549	3670.31
792.882	3658.34
793.214	3623.76
793.546	3649.52
793.879	3632.35
794.211	3585.12
794.543	3637.32
794.875	3631.44
795.207	3624.89
795.539	3616.3
795.871	3605.23
796.203	3574.27
796.535	3543.99
796.867	3518.9
797.198	3563.42
797.53	3524.33
797.862	3538.79
798.193	3534.05
798.525	3492.69
798.856	3495.63
799.188	3485.69
799.519	3458.12
799.85	3459.02
800.182	3440.49
800.513	3454.95
800.844	3446.59
801.175	3463.54
801.506	3382.64
801.837	3412.69
802.168	3402.3
802.499	3402.75
802.83	3386.7
803.161	3370.21
803.491	3383.77
803.822	3404.56
804.153	3386.93
804.483	3354.84
804.814	3307.61
805.145	3331.34
805.475	3315.07
805.805	3319.59
806.136	3319.36
806.466	3331.79
806.796	3345.12
807.126	3306.03
807.457	3297.89
807.787	3294.73
808.117	3291.79
808.447	3226.48
808.777	3258.57
809.107	3267.16
809.436	3236.2
809.766	3214.51
810.096	3177.44
810.426	3200.27
810.755	3242.3
811.085	3228.06
811.414	3202.98
811.744	3204.79
812.073	3134.06
812.403	3176.77
812.732	3155.07
813.061	3135.41
813.39	3112.36
813.719	3130.21
814.049	3181.96
814.378	3125.02
814.707	3119.37
815.036	3156.65
815.365	3076.66
815.693	3090.89
816.022	3119.82
816.351	3076.2
816.68	3069.42
817.008	3041.86
817.337	3063.55
817.665	3049.99
817.994	3036.88
818.322	3047.5
818.651	3055.19
818.979	3011.35
819.307	3025.36
819.636	3042.53
819.964	3023.1
820.292	3016.32
820.62	3045.92
820.948	2998.69
821.276	3032.59
821.604	3030.33
821.932	3005.47
822.259	3000.05
822.587	3005.92
822.915	2970.67
823.243	3055.87
823.57	3001.86
823.898	2990.33
824.225	2999.82
824.553	2970.22
824.88	2968.86
825.207	2976.55
825.535	2982.2
825.862	3020.61
826.189	2996.66
826.516	3002.76
826.843	3015.42
827.17	3003.66
827.497	3010.9
827.824	2965.02
828.151	3013.16
828.478	3007.28
828.805	3017.45
829.131	2975.64
829.458	2985.13
829.785	2994.62
830.111	2958.47
830.438	2988.98
830.764	2962.54
831.09	2965.92
831.417	2962.08
831.743	2985.13
832.069	3030.56
832.395	2973.61
832.722	2988.98
833.048	2990.78
833.374	3006.6
833.7	2991.23
834.026	2984
834.351	2984.91
834.677	2986.49
835.003	2946.94
835.329	2930.45
835.654	2972.48
835.98	2979.26
836.306	2956.21
836.631	2959.37
836.956	2934.29
837.282	2951.69
837.607	2923.89
837.932	2923.67
838.258	2960.05
838.583	2900.84
838.908	2916.43
839.233	2921.41
839.558	2945.59
839.883	2904.46
840.208	2916.43
840.533	2886.6
840.858	2909.66
841.182	2887.06
841.507	2920.5
841.832	2889.99
842.156	2886.6
842.481	2854.29
842.805	2872.59
843.13	2871.92
843.454	2881.63
843.778	2926.83
844.103	2880.05
844.427	2855.42
844.751	2850.67
845.075	2826.27
845.399	2838.02
845.723	2809.32
846.047	2845.02
846.371	2810
846.695	2812.93
847.019	2756.66
847.343	2782.2
847.666	2766.16
847.99	2748.53
848.313	2749.21
848.637	2731.58
848.96	2739.94
849.284	2721.19
849.607	2710.11
849.931	2690.23
850.254	2674.41
850.577	2650
850.9	2672.83
851.223	2651.13
851.546	2636.67
851.869	2599.38
852.192	2646.16
852.515	2611.58
852.838	2619.27
853.161	2607.06
853.483	2614.52
853.806	2585.14
854.129	2606.61
854.451	2584.47
854.774	2544.69
855.096	2571.13
855.419	2567.97
855.741	2597.12
856.063	2551.7
856.385	2540.85
856.708	2538.37
857.03	2517.35
857.352	2540.17
857.674	2516.45
857.996	2470.12
858.318	2495.88
858.64	2514.41
858.961	2494.07
859.283	2469.44
859.605	2455.66
859.926	2459.5
860.248	2480.97
860.57	2464.7
860.891	2433.96
861.212	2439.16
861.534	2433.06
861.855	2465.6
862.176	2421.76
862.498	2443.9
862.819	2411.14
863.14	2412.04
863.461	2418.82
863.782	2388.09
864.103	2433.74
864.424	2419.5
864.745	2418.59
865.065	2398.71
865.386	2368.65
865.707	2414.07
866.027	2390.35
866.348	2378.37
866.668	2377.69
866.989	2396
867.309	2356.22
867.63	2364.13
867.95	2337.24
868.27	2393.28
868.59	2353.29
868.91	2347.41
869.23	2390.57
869.55	2340.18
869.87	2374.3
870.19	2339.5
870.51	2361.65
870.83	2348.31
871.15	2312.61
871.469	2311.93
871.789	2329.56
872.109	2320.97
872.428	2335.88
872.748	2326.62
873.067	2309.22
873.386	2353.96
873.706	2325.04
874.025	2306.06
874.344	2287.3
874.663	2293.63
874.982	2315.77
875.301	2309.44
875.62	2297.24
875.939	2287.52
876.258	2268.32
876.577	2277.81
876.896	2249.56
877.214	2284.59
877.533	2315.09
877.852	2246.4
878.17	2291.59
878.489	2255.66
878.807	2271.71
879.125	2247.3
879.444	2240.75
879.762	2254.08
880.08	2236.68
880.398	2267.41
880.716	2252.72
881.034	2262.44
881.352	2231.93
881.67	2239.16
881.988	2250.92
882.306	2230.35
882.624	2213.63
882.941	2202.1
883.259	2171.6
883.577	2212.27
883.894	2200.97
884.212	2190.58
884.529	2183.12
884.846	2191.48
885.164	2191.71
885.481	2171.37
885.798	2186.51
886.115	2156.23
886.432	2173.86
886.75	2169.79
887.067	2155.55
887.383	2175.21
887.7	2188.77
888.017	2100.64
888.334	2166.4
888.651	2132.73
888.967	2135.21
889.284	2118.94
889.6	2123.46
889.917	2110.58
890.233	2125.95
890.55	2102.9
890.866	2085.5
891.182	2092.05
891.498	2113.97
891.815	2098.83
892.131	2059.28
892.447	2078.04
892.763	2105.16
893.079	2062.45
893.395	2063.8
893.71	2044.59
894.026	2076
894.342	2067.19
894.657	2022.45
894.973	2038.49
895.289	2030.36
895.604	2036.91
895.92	1995.55
896.235	2026.97
896.55	2009.57
896.865	2013.63
897.181	1986.97
897.496	2009.11
897.811	2001.43
898.126	1993.97
898.441	1966.63
898.756	1949.45
899.071	1939.06
899.386	1951.26
899.7	1940.64
900.015	1956.91
900.33	1946.29
900.644	1919.85
900.959	1966.86
901.273	1925.05
901.588	1913.98
901.902	1934.77
902.216	1911.49
902.531	1926.18
902.845	1875.11
903.159	1897.48
903.473	1884.37
903.787	1891.38
904.101	1875.78
904.415	1824.03
904.729	1849.8
905.042	1863.13
905.356	1874.2
905.67	1864.71
905.984	1826.97
906.297	1842.56
906.611	1817.03
906.924	1808.89
907.237	1835.79
907.551	1831.27
907.864	1827.65
908.177	1817.71
908.491	1799.63
908.804	1801.44
909.117	1778.84
909.43	1788.78
909.743	1794.2
910.056	1782.91
910.368	1763.24
910.681	1772.96
910.994	1764.83
911.307	1736.13
911.619	1752.62
911.932	1744.94
912.244	1766.18
912.557	1716.92
912.869	1690.7
913.181	1697.48
913.494	1710.36
913.806	1716.01
914.118	1701.1
914.43	1692.29
914.742	1700.42
915.054	1676.69
915.366	1707.88
915.678	1674.89
915.99	1674.43
916.302	1682.12
916.613	1633.76
916.925	1646.41
917.236	1661.1
917.548	1645.96
917.859	1625.17
918.171	1658.16
918.482	1620.65
918.794	1597.15
919.105	1602.34
919.416	1626.98
919.727	1603.47
920.038	1587.66
920.349	1565.74
920.66	1581.78
920.971	1614.77
921.282	1591.27
921.593	1567.09
921.903	1584.04
922.214	1547.21
922.525	1553.08
922.835	1544.27
923.146	1536.58
923.456	1523.93
923.767	1544.72
924.077	1529.13
924.387	1519.41
924.697	1530.26
925.008	1513.76
925.318	1505.85
925.628	1513.99
925.938	1491.61
926.248	1487.77
926.558	1476.92
926.867	1499.75
927.177	1483.48
927.487	1469.69
927.796	1475.57
928.106	1457.26
928.416	1440.99
928.725	1445.74
929.034	1448.22
929.344	1451.61
929.653	1448.9
929.962	1428.34
930.271	1431.05
930.581	1424.5
930.89	1418.39
931.199	1411.84
931.508	1373.42
931.817	1387.44
932.125	1408.23
932.434	1392.86
932.743	1401.45
933.051	1384.27
933.36	1404.61
933.669	1357.61
933.977	1378.17
934.286	1367.1
934.594	1327.55
934.902	1342.69
935.21	1346.08
935.519	1358.96
935.827	1361.67
936.135	1349.7
936.443	1329.13
936.751	1346.76
937.059	1300.88
937.367	1302.47
937.674	1312.86
937.982	1314.44
938.29	1300.66
938.597	1295.46
938.905	1306.08
939.213	1302.01
939.52	1273.54
939.827	1295.69
940.135	1277.16
940.442	1258.17
940.749	1279.19
941.056	1255.46
941.363	1249.81
941.67	1255.69
941.977	1246.65
942.284	1254.33
942.591	1237.83
942.898	1225.18
943.205	1246.42
943.511	1232.41
943.818	1215.24
944.125	1236.03
944.431	1217.04
944.738	1241.45
945.044	1217.04
945.35	1223.6
945.657	1216.37
945.963	1197.61
946.269	1205.52
946.575	1204.39
946.881	1175.46
947.187	1181.79
947.493	1223.15
947.799	1193.99
948.105	1183.37
948.41	1156.93
948.716	1158.97
949.022	1155.58
949.327	1157.16
949.633	1165.75
949.938	1124.62
950.244	1156.03
950.549	1159.64
950.854	1156.03
951.16	1150.15
951.465	1142.92
951.77	1148.35
952.075	1114.22
952.38	1122.81
952.685	1165.52
952.99	1120.32
953.294	1122.36
953.599	1115.35
953.904	1107.89
954.209	1086.65
954.513	1109.93
954.818	1109.7
955.122	1099.31
955.426	1087.56
955.731	1096.6
956.035	1072.64
956.339	1080.55
956.643	1073.09
956.948	1071.74
957.252	1053.21
957.556	1064.96
957.86	1050.27
958.163	1055.24
958.467	1061.57
958.771	1058.63
959.075	1035.13
959.378	1051.17
959.682	1063.6
959.985	1040.33
960.289	1034
960.592	1034.22
960.896	1045.3
961.199	1025.86
961.502	1025.86
961.805	1012.76
962.108	1008.46
962.411	1003.26
962.714	1013.66
963.017	989.03
963.32	1010.5
963.623	989.71
963.926	1017.05
964.228	994.68
964.531	994.9
964.833	988.12
965.136	977.28
965.438	950.16
965.741	965.07
966.043	979.31
966.345	964.85
966.648	980.44
966.95	981.57
967.252	958.07
967.554	979.76
967.856	959.88
968.158	966.43
968.46	939.54
968.761	949.25
969.063	971.18
969.365	932.31
969.666	936.83
969.968	911.52
970.269	933.66
970.571	913.78
970.872	926.88
971.174	935.7
971.475	940.44
971.776	918.52
972.077	919.2
972.378	907.45
972.679	944.28
972.98	915.36
973.281	893.44
973.582	892.98
973.883	890.27
974.183	906.77
974.484	877.62
974.785	890.95
975.085	919.2
975.386	881.91
975.686	892.31
975.986	889.82
976.287	897.73
976.587	876.26
976.887	873.1
977.187	876.26
977.487	869.03
977.787	848.92
978.087	884.85
978.387	867
978.687	857.96
978.987	848.69
979.286	866.77
979.586	838.98
979.885	853.66
980.185	824.96
980.484	862.03
980.784	838.52
981.083	836.04
981.382	838.52
981.682	853.44
981.981	859.31
982.28	828.81
982.579	825.19
982.878	820.22
983.177	830.39
983.475	841.91
983.774	815.47
984.073	812.54
984.372	817.28
984.67	816.15
984.969	822.25
985.267	813.89
985.566	804.85
985.864	816.83
986.162	805.3
986.461	807.56
986.759	796.49
987.057	787.23
987.355	802.82
987.653	779.32
987.951	800.33
988.249	798.98
988.547	772.54
988.844	796.94
989.142	752.2
989.44	772.99
989.737	765.76
990.035	748.36
990.332	763.04
990.63	746.77
990.927	750.84
991.224	754.46
991.521	736.83
991.819	766.21
992.116	759.66
992.413	753.33
992.71	761.01
993.006	754.68
993.303	745.64
993.6	743.38
993.897	728.24
994.193	734.8
994.49	739.32
994.787	720.56
995.083	740.22
995.379	717.85
995.676	715.14
995.972	727.11
996.268	726.66
996.565	707.45
996.861	703.61
997.157	703.16
997.453	705.65
997.749	723.95
998.044	700
998.34	704.52
998.636	700.67
998.932	694.35
999.227	704.29
999.523	719.43
999.818	688.24
1000.114	701.8
1000.409	698.87
1000.704	692.76
1001	680.11
1001.295	658.41
1001.59	661.13
1001.885	693.44
1002.18	691.86
1002.475	696.38
1002.77	681.24
1003.065	680.11
1003.359	673.33
1003.654	690.05
1003.949	639.43
1004.243	652.09
1004.538	649.83
1004.832	658.19
1005.127	651.86
1005.421	642.82
1005.715	641.01
1006.009	651.41
1006.304	653.22
1006.598	644.18
1006.892	635.59
1007.186	615.93
1007.48	636.72
1007.773	648.25
1008.067	612.31
1008.361	620.68
1008.655	635.36
1008.948	635.82
1009.242	630.84
1009.535	632.65
1009.829	602.82
1010.122	622.94
1010.415	590.62
1010.708	624.52
1011.001	601.02
1011.295	587.23
1011.588	598.08
1011.881	607.57
1012.173	577.97
1012.466	595.14
1012.759	605.99
1013.052	595.14
1013.344	595.14
1013.637	603.5
1013.93	585.42
1014.222	598.76
1014.514	590.17
1014.807	569.15
1015.099	589.49
1015.391	595.14
1015.683	584.97
1015.976	574.8
1016.268	566.67
1016.56	556.04
1016.851	549.94
1017.143	580.22
1017.435	566.44
1017.727	591.3
1018.018	562.82
1018.31	552.88
1018.602	552.43
1018.893	565.99
1019.185	565.99
1019.476	529.6
1019.767	556.27
1020.058	555.14
1020.35	546.55
1020.641	549.04
1020.932	549.27
1021.223	531.86
1021.514	551.98
1021.804	544.97
1022.095	557.63
1022.386	558.3
1022.677	539.55
1022.967	530.06
1023.258	534.12
1023.548	515.14
1023.839	541.36
1024.129	514.01
1024.419	516.72
1024.709	512.43
1025	510.62
1025.29	516.95
1025.58	511.98
1025.87	525.76
1026.16	519.89
1026.449	513.79
1026.739	515.37
1027.029	515.59
1027.319	494.8
1027.608	499.1
1027.898	525.31
1028.187	501.36
1028.477	484.41
1028.766	498.87
1029.055	500.68
1029.344	477.63
1029.634	499.55
1029.923	483.5
1030.212	485.76
1030.501	479.21
1030.79	486.44
1031.078	473.56
1031.367	520.79
1031.656	460.23
1031.945	487.12
1032.233	484.63
1032.522	483.73
1032.81	492.54
1033.099	472.21
1033.387	485.99
1033.675	464.52
1033.963	467.23
1034.251	473.34
1034.54	468.82
1034.828	481.02
1035.116	477.4
1035.403	472.88
1035.691	478.08
1035.979	445.77
1036.267	451.41
1036.554	451.87
1036.842	445.09
1037.129	435.82
1037.417	476.27
1037.704	458.19
1037.992	461.81
1038.279	437.4
1038.566	462.26
1038.853	462.26
1039.14	462.26
