Data from blue_chair_FLMS001491_00044.txt Node
Date: Wed Feb 08 10:30:53 GMT 2017
User: dcchb
Spectrometer: FLMS00149
Trigger mode: 0
Integration Time (sec): 2.000000E-2
Scans to average: 10
Electric dark correction enabled: true
Nonlinearity correction enabled: false
Boxcar width: 0
XAxis mode: Wavelengths
Number of Pixels in Spectrum: 2048
>>>>>Begin Spectral Data<<<<<
341.393	-27.57
341.776	-27.57
342.16	-27.57
342.543	-51.3
342.927	-60.79
343.31	-64.63
343.693	-63.73
344.077	-45.2
344.46	-53.56
344.843	-29.15
345.226	-46.33
345.61	-37.29
345.993	-13.78
346.376	-11.3
346.759	-4.07
347.142	20.11
347.525	44.74
347.908	47.91
348.291	71.18
348.674	75.48
349.057	109.6
349.44	116.61
349.823	157.74
350.206	158.41
350.588	192.31
350.971	196.61
351.354	212.65
351.737	228.47
352.119	240.45
352.502	260.78
352.884	258.52
353.267	271.18
353.65	293.33
354.032	276.38
354.414	292.65
354.797	296.04
355.179	310.05
355.562	301.24
355.944	309.82
356.326	315.7
356.709	298.98
357.091	320.67
357.473	320.44
357.855	321.35
358.238	314.34
358.62	336.04
359.002	317.28
359.384	327.9
359.766	317.05
360.148	319.31
360.53	317.51
360.912	313.21
361.294	323.61
361.676	322.03
362.057	293.1
362.439	315.02
362.821	302.36
363.203	289.48
363.584	329.03
363.966	321.57
364.348	298.3
364.729	292.42
365.111	297.62
365.493	296.26
365.874	291.52
366.256	304.17
366.637	307.11
367.019	288.35
367.4	293.1
367.781	307.11
368.163	301.24
368.544	286.55
368.925	296.26
369.306	280.22
369.688	285.64
370.069	282.7
370.45	306.88
370.831	284.96
371.212	305.53
371.593	297.17
371.974	286.77
372.355	286.55
372.736	301.01
373.117	289.94
373.498	280.44
373.879	275.7
374.26	293.55
374.641	278.41
375.021	304.85
375.402	284.51
375.783	289.71
376.163	269.15
376.544	308.69
376.925	282.48
377.305	323.83
377.686	301.91
378.066	301.69
378.447	306.66
378.827	313.89
379.208	310.95
379.588	319.09
379.968	308.24
380.349	293.55
380.729	315.7
381.109	308.69
381.489	299.43
381.87	311.4
382.25	301.69
382.63	298.07
383.01	301.01
383.39	298.75
383.77	289.94
384.15	324.29
384.53	289.48
384.91	319.99
385.29	322.03
385.67	338.75
386.049	324.74
386.429	301.01
386.809	324.29
387.189	289.71
387.568	321.8
387.948	329.48
388.328	335.81
388.707	334.45
389.087	311.4
389.466	323.83
389.846	357.28
390.225	316.38
390.605	329.93
390.984	330.16
391.363	336.04
391.743	320.9
392.122	336.04
392.501	315.47
392.881	339.43
393.26	351.18
393.639	357.28
394.018	331.06
394.397	334.91
394.776	329.48
395.155	342.36
395.534	356.6
395.913	349.6
396.292	342.59
396.671	366.32
397.05	360.89
397.429	349.14
397.808	344.85
398.186	337.17
398.565	345.98
398.944	360.22
399.323	377.62
399.701	362.48
400.08	370.39
400.458	350.95
400.837	350.27
401.215	357.73
401.594	376.04
401.972	371.06
402.351	375.13
402.729	374.45
403.107	367.9
403.486	396.15
403.864	393.44
404.242	371.06
404.62	393.21
404.999	391.85
405.377	372.65
405.755	405.87
406.133	401.35
406.511	402.25
406.889	396.6
407.267	417.84
407.645	402.7
408.023	423.04
408.401	417.16
408.779	418.75
409.156	420.1
409.534	433.66
409.912	430.27
410.29	439.99
410.667	440.21
411.045	455.13
411.422	435.92
411.8	454.23
412.178	437.28
412.555	456.26
412.933	448.35
413.31	464.62
413.687	471.85
414.065	444.96
414.442	473.89
414.819	489.93
415.197	476.37
415.574	486.31
415.951	483.83
416.328	474.56
416.705	476.82
417.082	491.74
417.46	517.05
417.837	492.19
418.214	496.71
418.591	496.48
418.967	506.65
419.344	517.27
419.721	490.61
420.098	520.89
420.475	500.33
420.852	504.17
421.228	502.36
421.605	529.7
421.982	505.3
422.358	535.58
422.735	517.05
423.111	544.39
423.488	539.19
423.864	558.63
424.241	569.93
424.617	556.6
424.994	578.29
425.37	570.83
425.746	589.59
426.123	590.49
426.499	593.2
426.875	576.26
427.251	602.24
427.627	600.66
428.003	603.6
428.379	611.06
428.756	598.4
429.132	618.51
429.507	620.32
429.883	620.32
430.259	624.62
430.635	631.85
431.011	657.84
431.387	637.27
431.763	643.82
432.138	673.2
432.514	682.02
432.89	694.22
433.265	672.07
433.641	684.95
434.016	713.88
434.392	719.3
434.767	722.69
435.143	725.86
435.518	750.49
435.894	736.7
436.269	763.82
436.644	793.2
437.02	776.7
437.395	779.87
437.77	800.88
438.145	780.54
438.52	799.53
438.895	829.81
439.271	832.29
439.646	863.48
440.021	854.21
440.395	854.44
440.77	856.7
441.145	846.98
441.52	889.92
441.895	903.93
442.27	914.78
442.645	904.83
443.019	925.63
443.394	913.42
443.769	899.64
444.143	919.52
444.518	976.02
444.892	951.39
445.267	947.77
445.641	977.15
446.016	960.2
446.39	972.18
446.764	987.54
447.139	998.62
447.513	1009.24
447.887	1019.63
448.262	1010.37
448.636	1026.19
449.01	1022.57
449.384	1054.66
449.758	1063.02
450.132	1058.05
450.506	1045.62
450.88	1086.3
451.254	1070.48
451.628	1067.32
452.002	1103.25
452.376	1093.3
452.75	1108.22
453.123	1141.21
453.497	1112.29
453.871	1134.43
454.244	1171.04
454.618	1165.85
454.992	1208.78
455.365	1188.44
455.739	1227.76
456.112	1220.98
456.486	1192.06
456.859	1234.77
457.232	1240.19
457.606	1263.47
457.979	1273.19
458.352	1292.17
458.725	1303.24
459.099	1281.77
459.472	1328.78
459.845	1334.43
460.218	1340.08
460.591	1379.85
460.964	1336.46
461.337	1357.93
461.71	1394.54
462.083	1428.44
462.456	1413.97
462.829	1415.56
463.201	1466.63
463.574	1473.41
463.947	1485.84
464.32	1516.57
464.692	1500.75
465.065	1501.43
465.438	1521.32
465.81	1558.6
466.183	1539.62
466.555	1569.45
466.928	1606.96
467.3	1624.14
467.672	1605.16
468.045	1633.18
468.417	1631.37
468.789	1667.98
469.161	1651.93
469.534	1683.57
469.906	1713.4
470.278	1697.13
470.65	1766.96
471.022	1760.41
471.394	1800.18
471.766	1786.62
472.138	1825.04
472.51	1863.91
472.882	1869.78
473.253	1881.08
473.625	1851.25
473.997	1899.84
474.369	1942.55
474.74	1964.24
475.112	2012.38
475.484	1991.59
475.855	2040.85
476.227	2028.65
476.598	2103.22
476.97	2081.08
477.341	2107.97
477.713	2164.46
478.084	2196.1
478.455	2229.77
478.827	2197
479.198	2286.27
479.569	2283.1
479.94	2311.35
480.311	2358.58
480.682	2356.32
481.053	2439.48
481.424	2438.13
481.795	2445.81
482.166	2487.17
482.537	2490.56
482.908	2560.61
483.279	2598.58
483.65	2581.18
484.021	2629.99
484.391	2642.87
484.762	2655.52
485.133	2667.73
485.503	2700.49
485.874	2723.54
486.244	2726.26
486.615	2808.51
486.985	2819.59
487.356	2879.02
487.726	2879.7
488.097	2897.32
488.467	2904.1
488.837	2970.54
489.207	2933.71
489.578	3012.12
489.948	3037.43
490.318	3008.73
490.688	3031.56
491.058	3061.39
491.428	3080.15
491.798	3089.18
492.168	3137.54
492.538	3162.18
492.908	3176.41
493.278	3214.38
493.648	3220.25
494.017	3183.65
494.387	3226.58
494.757	3268.84
495.126	3281.27
495.496	3230.42
495.866	3266.81
496.235	3316.75
496.605	3255.06
496.974	3305.9
497.344	3293.47
497.713	3303.19
498.082	3332.12
498.452	3355.62
498.821	3373.24
499.19	3359.23
499.559	3408.05
499.928	3366.69
500.298	3359.46
500.667	3432.23
501.036	3407.14
501.405	3361.49
501.774	3378.89
502.143	3419.8
502.512	3383.64
502.88	3361.27
503.249	3416.18
503.618	3416.86
503.987	3415.5
504.356	3419.12
504.724	3391.55
505.093	3452.56
505.462	3410.53
505.83	3412.79
506.199	3438.78
506.567	3434.94
506.936	3432.45
507.304	3445.11
507.672	3422.96
508.041	3465.22
508.409	3447.59
508.777	3450.3
509.145	3444.43
509.514	3480.59
509.882	3452.34
510.25	3464.99
510.618	3451.89
510.986	3459.57
511.354	3439.68
511.722	3471.55
512.09	3474.94
512.458	3439.46
512.826	3457.31
513.193	3454.15
513.561	3452.34
513.929	3435.62
514.297	3448.95
514.664	3429.74
515.032	3452.56
515.4	3442.4
515.767	3421.83
516.135	3455.73
516.502	3385.22
516.869	3446.24
517.237	3432.9
517.604	3364.21
517.972	3415.96
518.339	3368.5
518.706	3387.93
519.073	3386.8
519.44	3389.97
519.808	3376.18
520.175	3387.71
520.542	3419.12
520.909	3388.39
521.276	3359.69
521.643	3373.92
522.009	3366.92
522.376	3327.82
522.743	3358.33
523.11	3354.94
523.477	3416.86
523.843	3388.84
524.21	3441.49
524.577	3379.8
524.943	3373.24
525.31	3373.47
525.676	3352.68
526.043	3351.1
526.409	3327.37
526.776	3382.06
527.142	3349.06
527.508	3352.23
527.874	3364.21
528.241	3363.3
528.607	3349.06
528.973	3343.87
529.339	3360.14
529.705	3333.02
530.071	3371.66
530.437	3335.51
530.803	3311.55
531.169	3335.51
531.535	3313.13
531.901	3314.26
532.267	3287.6
532.632	3282.85
532.998	3294.83
533.364	3287.6
533.73	3284.21
534.095	3235.85
534.461	3225.45
534.826	3214.6
535.192	3265.9
535.557	3213.25
535.923	3217.54
536.288	3226.13
536.653	3209.63
537.019	3143.65
537.384	3206.02
537.749	3147.04
538.114	3161.95
538.479	3157.88
538.845	3167.83
539.21	3133.7
539.575	3157.88
539.94	3098.9
540.305	3110.65
540.67	3124.21
541.034	3098.9
541.399	3082.18
541.764	3073.59
542.129	3048.06
542.494	3023.2
542.858	3009.41
543.223	3030.43
543.587	3019.36
543.952	2996.98
544.316	3006.25
544.681	2953.82
545.045	3013.25
545.41	2979.81
545.774	2975.29
546.138	2960.37
546.503	2955.85
546.867	2909.53
547.231	2919.25
547.595	2930.32
547.959	2898.91
548.324	2912.24
548.688	2872.69
549.052	2862.52
549.416	2867.95
549.779	2839.02
550.143	2842.86
550.507	2835.63
550.871	2850.32
551.235	2787.05
551.599	2827.04
551.962	2819.81
552.326	2801.73
552.689	2800.6
553.053	2804.22
553.417	2731.23
553.78	2805.8
554.143	2726.03
554.507	2714.73
554.87	2775.97
555.234	2738.69
555.597	2738.01
555.96	2699.14
556.323	2728.06
556.686	2695.07
557.05	2704.56
557.413	2683.55
557.776	2711.34
558.139	2706.82
558.502	2664.79
558.865	2655.98
559.228	2697.78
559.59	2662.3
559.953	2633.6
560.316	2657.56
560.679	2681.06
561.041	2667.95
561.404	2616.2
561.767	2673.83
562.129	2677.22
562.492	2680.61
562.854	2679.03
563.217	2660.95
563.579	2681.06
563.941	2663.66
564.304	2688.74
564.666	2681.29
565.028	2694.84
565.39	2701.85
565.753	2675.41
566.115	2688.52
566.477	2716.31
566.839	2646.71
567.201	2703.43
567.563	2698.23
567.925	2684.68
568.287	2712.02
568.648	2692.81
569.01	2687.16
569.372	2730.32
569.734	2715.18
570.095	2679.7
570.457	2751.57
570.819	2729.87
571.18	2726.48
571.542	2733.71
571.903	2752.24
572.265	2746.59
572.626	2696.43
572.987	2768.97
573.349	2766.71
573.71	2761.28
574.071	2765.35
574.432	2749.53
574.794	2813.94
575.155	2808.29
575.516	2816.88
575.877	2808.29
576.238	2815.07
576.599	2819.13
576.96	2833.37
577.32	2787.72
577.681	2832.47
578.042	2831.56
578.403	2831.34
578.763	2890.32
579.124	2872.69
579.485	2878.57
579.845	2883.99
580.206	2859.13
580.566	2903.88
580.927	2870.21
581.287	2889.42
581.648	2881.73
582.008	2890.55
582.368	2890.09
582.728	2902.52
583.089	2920.83
583.449	2909.53
583.809	2928.74
584.169	2940.71
584.529	2928.06
584.889	2932.8
585.249	2951.33
585.609	2889.87
585.969	2947.49
586.329	2936.42
586.688	2982.29
587.048	2997.21
587.408	2963.09
587.768	2950.2
588.127	2956.53
588.487	2943.43
588.846	2981.16
589.206	2923.99
589.565	2961.5
589.925	2951.56
590.284	2944.1
590.643	2947.49
591.003	2973.26
591.362	2974.61
591.721	2959.24
592.08	2985.91
592.44	2969.64
592.799	2947.49
593.158	2960.83
593.517	2978.9
593.876	2970.77
594.235	2992.24
594.593	2960.83
594.952	2949.3
595.311	2962.41
595.67	2992.24
596.029	3000.83
596.387	2961.28
596.746	2971.67
597.104	2976.42
597.463	2952.92
597.822	2963.99
598.18	2965.8
598.538	2942.52
598.897	2954.72
599.255	2939.58
599.613	2975.51
599.972	2938
600.33	2966.93
600.688	2914.05
601.046	2938.23
601.404	2986.14
601.762	2985.23
602.12	2978.9
602.478	2956.98
602.836	2959.92
603.194	2971.45
603.552	2969.87
603.91	2966.93
604.268	2962.63
604.625	2941.39
604.983	2944.78
605.341	2980.26
605.698	2957.89
606.056	2952.24
606.413	3004.89
606.771	2986.14
607.128	3016.19
607.485	2947.95
607.843	2951.56
608.2	2963.99
608.557	3015.29
608.914	2964.89
609.272	2975.74
609.629	2979.36
609.986	2954.27
610.343	2980.71
610.7	3034.72
611.057	2961.73
611.414	2968.96
611.771	2953.59
612.127	2953.14
612.484	2977.32
612.841	2971
613.198	2952.46
613.554	2959.47
613.911	2980.71
614.267	2985.23
614.624	2980.26
614.98	3003.31
615.337	3012.58
615.693	3015.97
616.05	2994.72
616.406	3041.95
616.762	3010.99
617.118	3011.67
617.475	2984.33
617.831	3020.94
618.187	3004.44
618.543	3021.39
618.899	3018.68
619.255	3012.58
619.611	3027.27
619.967	3043.31
620.323	3038.11
620.678	3017.32
621.034	3041.73
621.39	3015.06
621.746	2993.82
622.101	3041.73
622.457	2978.68
622.812	3021.16
623.168	3035.85
623.523	3013.03
623.879	2996.31
624.234	3034.72
624.589	3034.72
624.945	3049.86
625.3	3013.71
625.655	3018
626.01	3021.16
626.365	3027.49
626.72	3030.65
627.075	3035.17
627.43	3013.48
627.785	3018.23
628.14	3000.6
628.495	2998.57
628.85	3027.27
629.205	3044.21
629.559	3023.88
629.914	3005.34
630.269	3040.37
630.623	3004.67
630.978	2979.13
631.332	3058.68
631.687	3014.38
632.041	3030.88
632.396	3035.63
632.75	2997.89
633.104	3021.39
633.459	2975.97
633.813	2996.53
634.167	2986.59
634.521	3007.6
634.875	2949.75
635.229	3016.64
635.583	2960.83
635.937	2971.22
636.291	2971.45
636.645	2980.49
636.999	2967.61
637.352	2971.45
637.706	2961.73
638.06	2978.9
638.413	2954.05
638.767	2978.68
639.121	2997.44
639.474	2930.54
639.828	2959.47
640.181	2940.71
640.534	2967.61
640.888	2952.92
641.241	2961.5
641.594	2936.19
641.947	2944.78
642.301	2957.89
642.654	2946.82
643.007	2967.15
643.36	2970.32
643.713	2972.58
644.066	2946.14
644.419	2907.95
644.771	2921.73
645.124	2907.27
645.477	2892.58
645.83	2914.95
646.182	2895.74
646.535	2891.68
646.888	2895.97
647.24	2864.78
647.593	2894.84
647.945	2866.82
648.298	2855.29
648.65	2876.31
649.002	2866.59
649.355	2863.65
649.707	2843.09
650.059	2866.59
650.411	2862.75
650.763	2918.79
651.115	2932.35
651.467	2927.15
651.819	2967.15
652.171	2955.63
652.523	2928.28
652.875	2927.61
653.227	2918.12
653.578	2933.03
653.93	2928.28
654.282	2925.35
654.633	2939.81
654.985	2953.59
655.337	2956.08
655.688	2962.18
656.039	2956.53
656.391	2927.15
656.742	2986.59
657.094	2916.99
657.445	2945.01
657.796	2989.98
658.147	2933.93
658.498	2949.07
658.849	2989.3
659.2	2975.29
659.551	2982.29
659.902	2961.28
660.253	2955.4
660.604	2955.4
660.955	2985.91
661.306	2989.3
661.656	2968.51
662.007	2961.05
662.358	2998.11
662.708	3007.15
663.059	2947.49
663.409	2937.78
663.76	2965.35
664.11	2971
664.461	2984.1
664.811	2980.71
665.161	2945.46
665.511	2935.06
665.862	2981.16
666.212	2951.11
666.562	2984.78
666.912	2948.62
667.262	2932.8
667.612	2938.91
667.962	2973.26
668.312	2931.9
668.662	2949.53
669.011	2971.9
669.361	2935.29
669.711	2954.27
670.06	2983.88
670.41	2945.01
670.76	2934.84
671.109	2934.61
671.459	2929.64
671.808	2933.93
672.157	2949.07
672.507	2915.86
672.856	2879.47
673.205	2944.56
673.554	2900.94
673.904	2914.73
674.253	2937.1
674.602	2919.47
674.951	2864.11
675.3	2845.57
675.649	2865.91
675.998	2875.18
676.346	2876.76
676.695	2881.51
677.044	2901.17
677.393	2896.65
677.741	2846.03
678.09	2862.3
678.438	2858.46
678.787	2837.67
679.135	2872.01
679.484	2864.78
679.832	2851.22
680.181	2879.47
680.529	2838.8
680.877	2864.33
681.225	2831.79
681.573	2852.13
681.922	2820.26
682.27	2808.74
682.618	2805.58
682.966	2824.78
683.314	2775.52
683.661	2808.06
684.009	2772.13
684.357	2798.57
684.705	2799.93
685.053	2784.79
685.4	2747.05
685.748	2731.91
686.095	2780.04
686.443	2747.95
686.79	2750.66
687.138	2748.63
687.485	2759.93
687.832	2678.35
688.18	2718.12
688.527	2704.34
688.874	2739.81
689.221	2715.86
689.568	2658.01
689.915	2668.63
690.262	2658.24
690.609	2660.04
690.956	2662.53
691.303	2667.95
691.65	2617.78
691.997	2655.98
692.344	2635.18
692.69	2638.8
693.037	2648.74
693.383	2589.31
693.73	2608.29
694.077	2590.89
694.423	2615.98
694.769	2574.4
695.116	2554.06
695.462	2520.84
695.808	2558.58
696.155	2514.06
696.501	2566.49
696.847	2546.15
697.193	2498.47
697.539	2529.2
697.885	2521.52
698.231	2523.78
698.577	2506.6
698.923	2475.42
699.269	2494.85
699.614	2469.54
699.96	2511.12
700.306	2479.03
700.651	2479.26
700.997	2461.4
701.342	2441.07
701.688	2448.98
702.033	2489.65
702.379	2418.24
702.724	2461.86
703.069	2453.72
703.415	2413.72
703.76	2437.45
704.105	2425.47
704.45	2448.75
704.795	2454.62
705.14	2424.34
705.485	2426.6
705.83	2410.56
706.175	2434.96
706.52	2389.77
706.865	2378.47
707.209	2411.46
707.554	2388.86
707.899	2400.61
708.243	2427.05
708.588	2429.99
708.932	2387.51
709.277	2397.9
709.621	2434.29
709.966	2388.64
710.31	2430.67
710.654	2416.21
710.998	2409.2
711.342	2390.22
711.687	2387.28
712.031	2402.65
712.375	2393.38
712.719	2374.63
713.063	2400.16
713.407	2399.48
713.75	2383.67
714.094	2384.57
714.438	2405.13
714.782	2405.13
715.125	2349.54
715.469	2421.86
715.812	2410.33
716.156	2413.27
716.499	2406.94
716.843	2473.16
717.186	2451.91
717.53	2435.19
717.873	2469.54
718.216	2439.03
718.559	2451.46
718.902	2420.28
719.246	2440.84
719.589	2436.55
719.932	2411.46
720.275	2458.01
720.617	2461.86
720.96	2429.31
721.303	2458.01
721.646	2482.65
721.989	2436.55
722.331	2456.43
722.674	2482.19
723.016	2462.08
723.359	2469.54
723.701	2495.08
724.044	2485.13
724.386	2491.46
724.729	2486.71
725.071	2503.89
725.413	2524.45
725.755	2484.45
726.097	2519.03
726.439	2509.99
726.782	2554.28
727.124	2554.28
727.465	2540.95
727.807	2556.09
728.149	2561.06
728.491	2538.24
728.833	2579.59
729.175	2565.13
729.516	2581.85
729.858	2580.72
730.199	2621.63
730.541	2582.08
730.882	2599.93
731.224	2615.07
731.565	2641.06
731.906	2660.72
732.248	2620.04
732.589	2685.58
732.93	2632.47
733.271	2656.43
733.612	2633.15
733.953	2689.87
734.294	2691.91
734.635	2652.81
734.976	2729.87
735.317	2753.15
735.658	2738.69
735.999	2761.28
736.339	2752.7
736.68	2763.54
737.021	2794.05
737.361	2802.19
737.702	2815.52
738.042	2800.83
738.383	2871.34
738.723	2887.16
739.063	2852.81
739.404	2895.74
739.744	2907.72
740.084	2891.22
740.424	2931.9
740.764	2979.36
741.104	2983.65
741.444	3003.99
741.784	3029.52
742.124	3033.14
742.464	3063.42
742.804	3082.4
743.143	3113.36
743.483	3123.53
743.823	3159.92
744.162	3236.75
744.502	3192.68
744.841	3246.92
745.181	3333.02
745.52	3323.08
745.86	3344.32
746.199	3419.57
746.538	3442.85
746.877	3455.5
747.216	3531.66
747.556	3535.05
747.895	3566.69
748.234	3666.34
748.573	3705.21
748.911	3714.25
749.25	3774.59
749.589	3829.96
749.928	3901.37
750.267	3940.01
750.605	3972.78
750.944	4045.77
751.283	4081.7
751.621	4141.13
751.96	4207.57
752.298	4330.28
752.636	4323.73
752.975	4399.43
753.313	4464.52
753.651	4569.37
753.989	4595.81
754.327	4691.18
754.666	4744.51
755.004	4837.16
755.342	4968.68
755.679	5039.64
756.017	5077.38
756.355	5177.27
756.693	5291.16
757.031	5348.79
757.368	5454.55
757.706	5562.11
758.044	5624.48
758.381	5733.63
758.719	5793.75
759.056	5854.31
759.394	5971.59
759.731	6012.27
760.068	6116.22
760.405	6238.03
760.743	6295.2
761.08	6330.68
761.417	6453.16
761.754	6486.61
762.091	6628.53
762.428	6723.67
762.765	6788.75
763.102	6939.25
763.438	6979.25
763.775	6953.04
764.112	7096.76
764.449	7162.75
764.785	7240.49
765.122	7259.47
765.458	7424.21
765.795	7470.99
766.131	7548.73
766.467	7576.3
766.804	7646.8
767.14	7682.96
767.476	7789.17
767.812	7788.72
768.148	7920.02
768.485	7873.69
768.821	8009.05
769.157	8071.2
769.492	8120.69
769.828	8196.85
770.164	8224.42
770.5	8247.01
770.836	8383.51
771.171	8303.51
771.507	8407.91
771.842	8398.2
772.178	8522.04
772.513	8523.39
772.849	8553.9
773.184	8545.09
773.519	8672.99
773.855	8675.93
774.19	8661.69
774.525	8644.52
774.86	8728.13
775.195	8764.29
775.53	8827.34
775.865	8707.79
776.2	8802.48
776.535	8798.86
776.87	8867.11
777.205	8813.78
777.539	8805.87
777.874	8880.22
778.209	8838.86
778.543	8919.31
778.878	8873.21
779.212	8874.79
779.547	8889.71
779.881	9037.05
780.215	8956.15
780.55	8974.91
780.884	8970.84
781.218	8949.6
781.552	9014.23
781.886	9011.06
782.22	8997.73
782.554	9053.1
782.888	8963.83
783.222	8951.86
783.556	9004.51
783.889	8913.44
784.223	8911.86
784.557	8914.34
784.89	8990.05
785.224	8921.57
785.557	8938.07
785.891	8933.78
786.224	8936.26
786.558	8987.33
786.891	8909.14
787.224	8891.97
787.557	8912.53
787.891	8964.28
788.224	8923.61
788.557	8952.98
788.89	8910.27
789.223	8889.94
789.556	8878.41
789.888	8953.21
790.221	8853.55
790.554	8821.91
790.887	8816.04
791.219	8802.48
791.552	8834.57
791.884	8807.9
792.217	8797.96
792.549	8742.37
792.882	8792.99
793.214	8715.7
793.546	8810.62
793.879	8746.66
794.211	8703.5
794.543	8739.88
794.875	8693.56
795.207	8791.41
795.539	8677.06
795.871	8760.9
796.203	8617.17
796.535	8627.57
796.867	8602.49
797.198	8558.19
797.53	8608.59
797.862	8570.85
798.193	8595.03
798.525	8568.14
798.856	8578.08
799.188	8493.11
799.519	8482.71
799.85	8491.3
800.182	8459.66
800.513	8523.84
800.844	8426.67
801.175	8482.94
801.506	8513
801.837	8433.22
802.168	8409.72
802.499	8333.79
802.83	8347.58
803.161	8350.74
803.491	8296.73
803.822	8340.12
804.153	8351.42
804.483	8311.19
804.814	8294.7
805.145	8253.57
805.475	8282.72
805.805	8299.44
806.136	8275.71
806.466	8228.48
806.796	8181.71
807.126	8192.1
807.457	8235.49
807.787	8240.01
808.117	8084.53
808.447	8159.33
808.777	8141.48
809.107	8144.87
809.436	8125.21
809.766	8077.98
810.096	8114.59
810.426	8088.37
810.755	8102.16
811.085	8079.34
811.414	8122.72
811.744	7961.15
812.073	8079.79
812.403	8058.55
812.732	7960.69
813.061	7973.58
813.39	7942.62
813.719	7953.92
814.049	8026
814.378	7983.29
814.707	7903.97
815.036	7975.61
815.365	7919.11
815.693	7892.67
816.022	7853.58
816.351	7847.93
816.68	7773.35
817.008	7834.37
817.337	7746.46
817.665	7778.78
817.994	7746.24
818.322	7800.25
818.651	7710.76
818.979	7678.67
819.307	7754.6
819.636	7707.59
819.964	7673.24
820.292	7703.53
820.62	7749.4
820.948	7752.79
821.276	7708.95
821.604	7709.4
821.932	7692.91
822.259	7739.01
822.587	7730.64
822.915	7715.28
823.243	7764.09
823.57	7702.85
823.898	7787.59
824.225	7767.03
824.553	7690.65
824.88	7731.1
825.207	7724.32
825.535	7755.95
825.862	7760.25
826.189	7743.53
826.516	7731.1
826.843	7812.9
827.17	7811.09
827.497	7843.18
827.824	7707.82
828.151	7836.86
828.478	7773.58
828.805	7800.92
829.131	7805.44
829.458	7826.69
829.785	7809.29
830.111	7782.39
830.438	7839.34
830.764	7819.91
831.09	7830.98
831.417	7781.94
831.743	7858.1
832.069	7779.91
832.395	7799.57
832.722	7804.09
833.048	7752.11
833.374	7846.12
833.7	7730.19
834.026	7794.6
834.351	7801.83
834.677	7776.29
835.003	7777.42
835.329	7779
835.654	7727.48
835.98	7729.29
836.306	7723.64
836.631	7696.52
836.956	7740.81
837.282	7746.91
837.607	7670.53
837.932	7720.47
838.258	7760.25
838.583	7695.84
838.908	7656.75
839.233	7721.15
839.558	7634.38
839.883	7646.8
840.208	7648.16
840.533	7635.28
840.858	7617.43
841.182	7680.02
841.507	7660.14
841.832	7555.28
842.156	7595.51
842.481	7558.67
842.805	7571.55
843.13	7513.93
843.454	7552.8
843.778	7456.98
844.103	7544.21
844.427	7476.41
844.751	7473.25
845.075	7443.65
845.399	7466.92
845.723	7402.52
846.047	7331.11
846.371	7303.31
846.695	7384.44
847.019	7294.95
847.343	7238.68
847.666	7201.39
847.99	7203.2
848.313	7217.89
848.637	7144.9
848.96	7165.46
849.284	7134.5
849.607	7094.05
849.931	7058.57
850.254	7008.18
850.577	6975.41
850.9	6963.88
851.223	6972.7
851.546	6913.49
851.869	6907.61
852.192	6909.2
852.515	6876.88
852.838	6831.46
853.161	6820.84
853.483	6767.05
853.806	6804.57
854.129	6748.52
854.451	6736.77
854.774	6742.65
855.096	6695.19
855.419	6620.62
855.741	6662.2
856.063	6588.75
856.385	6630.33
856.708	6592.82
857.03	6605.48
857.352	6547.17
857.674	6534.97
857.996	6579.26
858.318	6505.14
858.64	6499.94
858.961	6464.01
859.283	6440.06
859.605	6421.3
859.926	6473.05
860.248	6445.48
860.57	6413.62
860.891	6401.19
861.212	6358.02
861.534	6341.3
861.855	6355.31
862.176	6323.22
862.498	6345.37
862.819	6317.35
863.14	6287.74
863.461	6273.73
863.782	6304.92
864.103	6297.01
864.424	6298.82
864.745	6334.07
865.065	6252.72
865.386	6241.42
865.707	6240.74
866.027	6233.73
866.348	6220.18
866.668	6208.42
866.989	6155.54
867.309	6160.97
867.63	6180.85
867.95	6195.77
868.27	6139.95
868.59	6188.09
868.91	6129.56
869.23	6169.1
869.55	6064.7
869.87	6141.08
870.19	6097.47
870.51	6113.29
870.83	6111.03
871.15	6037.81
871.469	6055.89
871.789	6068.09
872.109	6067.86
872.428	5981.09
872.748	6034.19
873.067	6036.68
873.386	6029.9
873.706	5975.89
874.025	5924.14
874.344	6001.88
874.663	6024.47
874.982	5995.55
875.301	5985.38
875.62	5977.02
875.939	5930.69
876.258	5949.22
876.577	5907.87
876.896	5926.17
877.214	5904.93
877.533	5927.98
877.852	5892.73
878.17	5913.29
878.489	5890.24
878.807	5892.05
879.125	5902.22
879.444	5869.68
879.762	5840.98
880.08	5809.79
880.398	5765.5
880.716	5784.48
881.034	5808.43
881.352	5810.24
881.67	5763.01
881.988	5799.85
882.306	5738.61
882.624	5728.44
882.941	5776.12
883.259	5741.09
883.577	5729.79
883.894	5683.69
884.212	5637.14
884.529	5675.33
884.846	5662
885.164	5664.94
885.481	5576.8
885.798	5649.57
886.115	5565.96
886.432	5581.32
886.75	5603.24
887.067	5555.56
887.383	5528.89
887.7	5565.73
888.017	5501.55
888.334	5533.19
888.651	5471.49
888.967	5536.35
889.284	5458.39
889.6	5486.41
889.917	5429.91
890.233	5419.97
890.55	5458.61
890.866	5417.71
891.182	5416.58
891.498	5413.19
891.815	5356.47
892.131	5344.04
892.447	5365.06
892.763	5316.02
893.079	5296.36
893.395	5257.49
893.71	5228.79
894.026	5249.35
894.342	5268.79
894.657	5169.81
894.973	5213.87
895.289	5207.09
895.604	5171.39
895.92	5106.98
896.235	5137.49
896.55	5134.55
896.865	5089.58
897.181	5074.89
897.496	5085.97
897.811	5060.43
898.126	5029.92
898.441	4986.99
898.756	5017.72
899.071	4977.95
899.386	4973.88
899.7	4931.85
900.015	4894.33
900.33	4833.09
900.644	4870.61
900.959	4894.56
901.273	4858.4
901.588	4866.76
901.902	4784.51
902.216	4819.31
902.531	4807.56
902.845	4812.98
903.159	4762.59
903.473	4695.47
903.787	4766.88
904.101	4666.54
904.415	4682.81
904.729	4663.83
905.042	4634
905.356	4608.47
905.67	4668.8
905.984	4603.49
906.297	4659.09
906.611	4563.72
906.924	4579.54
907.237	4516.04
907.551	4503.38
907.864	4514.23
908.177	4481.92
908.491	4494.8
908.804	4418.87
909.117	4432.88
909.43	4417.28
909.743	4353.56
910.056	4403.5
910.368	4387.91
910.681	4329.15
910.994	4335.71
911.307	4302.49
911.619	4349.49
911.932	4305.2
912.244	4257.97
912.557	4276.27
912.869	4249.83
913.181	4229.27
913.494	4226.33
913.806	4193.11
914.118	4140
914.43	4153.11
914.742	4107.01
915.054	4091.64
915.366	4114.92
915.678	4113.11
915.99	4055.03
916.302	4066.33
916.613	4011.65
916.925	4013.68
917.236	4020.91
917.548	3993.79
917.859	3973.45
918.171	3975.26
918.482	3993.79
918.794	3881.48
919.105	3958.31
919.416	3912.44
919.727	3937.98
920.038	3886
920.349	3831.76
920.66	3829.05
920.971	3844.87
921.282	3819.33
921.593	3773.01
921.903	3758.77
922.214	3759
922.525	3759.9
922.835	3734.82
923.146	3711.09
923.456	3726.46
923.767	3695.72
924.077	3693.91
924.387	3712.9
924.697	3661.6
925.008	3673.35
925.318	3654.82
925.628	3594.93
925.938	3602.17
926.248	3573.92
926.558	3555.84
926.867	3573.92
927.177	3562.39
927.487	3562.62
927.796	3563.52
928.106	3522.17
928.416	3472.68
928.725	3477.42
929.034	3471.55
929.344	3474.03
929.653	3464.99
929.962	3403.98
930.271	3426.58
930.581	3413.24
930.89	3411.21
931.199	3382.28
931.508	3392.45
931.817	3407.82
932.125	3325.56
932.434	3363.08
932.743	3295.28
933.051	3329.4
933.36	3295.73
933.669	3274.49
933.977	3273.13
934.286	3236.3
934.594	3244.43
934.902	3222.29
935.21	3224.55
935.519	3215.28
935.827	3173.02
936.135	3169.86
936.443	3155.62
936.751	3167.83
937.059	3130.99
937.367	3104.1
937.674	3138.22
937.982	3109.75
938.29	3071.78
938.597	3062.97
938.905	3086.47
939.213	3074.5
939.52	3055.51
939.827	3056.19
940.135	3006.25
940.442	2987.72
940.749	3012.35
941.056	2974.84
941.363	2970.32
941.67	2948.62
941.977	2945.69
942.284	2922.41
942.591	2933.93
942.898	2930.77
943.205	2898.68
943.511	2902.07
943.818	2886.48
944.125	2849.42
944.431	2876.76
944.738	2863.88
945.044	2851.9
945.35	2842.41
945.657	2857.33
945.963	2813.26
946.269	2784.11
946.575	2779.36
946.881	2766.71
947.187	2779.36
947.493	2742.75
947.799	2723.54
948.105	2718.57
948.41	2707.5
948.716	2727.16
949.022	2675.41
949.327	2681.06
949.633	2654.62
949.938	2636.31
950.244	2639.03
950.549	2687.61
950.854	2647.84
951.16	2605.36
951.465	2598.12
951.77	2595.64
952.075	2572.81
952.38	2519.71
952.685	2560.84
952.99	2533.04
953.294	2535.07
953.599	2560.61
953.904	2558.12
954.209	2472.93
954.513	2543.66
954.818	2536.43
955.122	2554.74
955.426	2489.65
955.731	2462.31
956.035	2466.83
956.339	2467.28
956.643	2444.68
956.948	2411.01
957.252	2428.18
957.556	2404.91
957.86	2377.79
958.163	2386.15
958.467	2378.69
958.771	2346.83
959.075	2368.75
959.378	2348.64
959.682	2340.5
959.985	2345.48
960.289	2337.57
960.592	2291.92
960.896	2305.48
961.199	2309.09
961.502	2308.87
961.805	2252.82
962.108	2241.3
962.411	2263.67
962.714	2257.57
963.017	2259.38
963.32	2249.66
963.623	2238.13
963.926	2215.08
964.228	2185.48
964.531	2203.78
964.833	2190.45
965.136	2190.9
965.438	2176.21
965.741	2180.28
966.043	2154.52
966.345	2138.93
966.648	2139.15
966.95	2163.56
967.252	2159.49
967.554	2116.1
967.856	2123.56
968.158	2086.72
968.46	2107.97
968.761	2095.54
969.063	2061.64
969.365	2040.62
969.666	2077.91
969.968	2040.85
970.269	2039.49
970.571	2036.78
970.872	2034.97
971.174	2020.51
971.475	2013.96
971.776	1994.3
972.077	1990.68
972.378	2000.4
972.679	1990
972.98	1966.5
973.281	1961.76
973.582	1958.59
973.883	1955.2
974.183	1938.71
974.484	1951.59
974.785	1936.45
975.085	1921.98
975.386	1944.58
975.686	1887.41
975.986	1876.79
976.287	1907.07
976.587	1889.44
976.887	1878.82
977.187	1829.33
977.487	1846.96
977.787	1838.82
978.087	1818.71
978.387	1837.92
978.687	1818.03
978.987	1816.68
979.286	1806.05
979.586	1781.2
979.885	1796.56
980.185	1795.66
980.484	1788.65
980.784	1773.29
981.083	1773.51
981.382	1792.04
981.682	1780.07
981.981	1735.55
982.28	1732.38
982.579	1737.58
982.878	1712.27
983.177	1717.92
983.475	1699.84
983.774	1697.81
984.073	1686.51
984.372	1659.62
984.67	1678.15
984.969	1684.25
985.267	1654.42
985.566	1684.93
985.864	1623.46
986.162	1654.65
986.461	1677.24
986.759	1642.67
987.057	1618.94
987.355	1637.02
987.653	1611.94
987.951	1599.05
988.249	1587.08
988.547	1583.91
988.844	1581.2
989.142	1615.1
989.44	1579.62
989.737	1592.5
990.035	1540.3
990.332	1563.57
990.63	1529.45
990.927	1524.71
991.224	1554.31
991.521	1530.58
991.819	1558.38
992.116	1523.35
992.413	1501.43
992.71	1493.29
993.006	1469.11
993.303	1520.41
993.6	1487.19
993.897	1468.66
994.193	1478.61
994.49	1449.23
994.787	1429.57
995.083	1470.47
995.379	1427.31
995.676	1388.66
995.972	1416.01
996.268	1433.41
996.565	1425.95
996.861	1409.23
997.157	1392.96
997.453	1377.59
997.749	1381.21
998.044	1368.55
998.34	1385.73
998.636	1382.11
998.932	1378.95
999.227	1370.13
999.523	1362
999.818	1338.04
1000.114	1366.74
1000.409	1328.55
1000.704	1352.73
1001	1349.8
1001.295	1322.45
1001.59	1282.45
1001.885	1305.28
1002.18	1283.58
1002.475	1315.22
1002.77	1285.39
1003.065	1260.08
1003.359	1294.2
1003.654	1269.57
1003.949	1285.62
1004.243	1286.52
1004.538	1261.21
1004.832	1218.73
1005.127	1233.64
1005.421	1222.34
1005.715	1223.47
1006.009	1224.83
1006.304	1228.89
1006.598	1221.66
1006.892	1221.44
1007.186	1204.04
1007.48	1190.03
1007.773	1164.72
1008.067	1185.05
1008.361	1148.9
1008.655	1154.09
1008.948	1164.72
1009.242	1143.7
1009.535	1133.3
1009.829	1099.18
1010.122	1139.63
1010.415	1125.39
1010.708	1137.37
1011.001	1093.76
1011.295	1117.03
1011.588	1093.98
1011.881	1074.55
1012.173	1111.38
1012.466	1102.34
1012.759	1075.68
1013.052	1083.14
1013.344	1036.81
1013.637	1069.58
1013.93	1076.81
1014.222	1058.05
1014.514	1061.44
1014.807	1040.2
1015.099	1049.92
1015.391	1044.27
1015.683	1046.75
1015.976	1009.92
1016.268	1055.57
1016.56	1014.89
1016.851	1012.85
1017.143	1001.56
1017.435	983.48
1017.727	1007.43
1018.018	975.57
1018.31	982.57
1018.602	1001.56
1018.893	964.04
1019.185	978.96
1019.476	962.69
1019.767	968.79
1020.058	959.52
1020.35	935.79
1020.641	960.65
1020.932	933.53
1021.223	915
1021.514	894.21
1021.804	901.45
1022.095	921.11
1022.386	909.35
1022.677	895.12
1022.967	906.64
1023.258	858.28
1023.548	876.81
1023.839	860.09
1024.129	883.82
1024.419	868.68
1024.709	883.82
1025	871.16
1025.29	865.51
1025.58	862.58
1025.87	835.91
1026.16	828.45
1026.449	850.37
1026.739	825.29
1027.029	841.33
1027.319	811.73
1027.608	833.65
1027.898	824.61
1028.187	824.61
1028.477	780.54
1028.766	800.43
1029.055	799.75
1029.344	803.82
1029.634	805.18
1029.923	792.75
1030.212	786.19
1030.501	800.88
1030.79	776.25
1031.078	773.76
1031.367	774.44
1031.656	750.49
1031.945	758.62
1032.233	768.57
1032.522	752.3
1032.81	746.87
1033.099	765.18
1033.387	741.68
1033.675	753.43
1033.963	722.24
1034.251	734.67
1034.54	717.72
1034.828	730.38
1035.116	708.68
1035.403	708
1035.691	707.33
1035.979	696.48
1036.267	686.08
1036.554	719.3
1036.842	679.3
1037.129	703.26
1037.417	692.41
1037.704	669.81
1037.992	697.16
1038.279	672.52
1038.566	669.13
1038.853	669.13
1039.14	669.13
