Data from blue_shiny_book_FLMS001491_00018.txt Node
Date: Wed Feb 08 15:26:37 GMT 2017
User: dcchb
Spectrometer: FLMS00149
Trigger mode: 0
Integration Time (sec): 2.000000E-2
Scans to average: 10
Electric dark correction enabled: true
Nonlinearity correction enabled: false
Boxcar width: 0
XAxis mode: Wavelengths
Number of Pixels in Spectrum: 2048
>>>>>Begin Spectral Data<<<<<
341.393	-36.27
341.776	-36.27
342.16	-36.27
342.543	-64.97
342.927	-58.87
343.31	-78.75
343.693	-65.2
344.077	-63.61
344.46	-67
344.843	-50.96
345.226	-57.29
345.61	-28.13
345.993	-18.42
346.376	-3.05
346.759	17.74
347.142	17.51
347.525	66.55
347.908	58.19
348.291	62.48
348.674	95.7
349.057	114.23
349.44	132.31
349.823	128.02
350.206	148.58
350.588	194.68
350.971	222.71
351.354	246.43
351.737	236.26
352.119	262.03
352.502	279.2
352.884	286.21
353.267	302.7
353.65	314.23
354.032	302.03
354.414	312.42
354.797	328.24
355.179	336.6
355.562	330.27
355.944	346.32
356.326	346.54
356.709	339.77
357.091	359.2
357.473	354.91
357.855	331.18
358.238	347
358.62	347.67
359.002	368.92
359.384	365.98
359.766	367.79
360.148	348.58
360.53	344.96
360.912	356.94
361.294	365.53
361.676	347.67
362.057	364.62
362.439	359.43
362.821	356.04
363.203	347.22
363.584	351.97
363.966	357.84
364.348	364.85
364.729	357.17
365.111	353.55
365.493	326.21
365.874	322.14
366.256	346.32
366.637	351.74
367.019	339.54
367.4	357.84
367.781	358.97
368.163	358.3
368.544	347.67
368.925	361.46
369.306	358.97
369.688	351.52
370.069	349.48
370.45	342.7
370.831	340.22
371.212	341.12
371.593	343.38
371.974	362.82
372.355	344.06
372.736	385.19
373.117	337.51
373.498	371.4
373.879	370.5
374.26	355.58
374.641	364.4
375.021	342.93
375.402	356.49
375.783	370.95
376.163	410.5
376.544	398.52
376.925	393.55
377.305	383.61
377.686	380.44
378.066	374.57
378.447	403.04
378.827	409.59
379.208	396.03
379.588	403.04
379.968	435.13
380.349	404.62
380.729	436.49
381.109	409.82
381.489	429.03
381.87	426.09
382.25	427.9
382.63	415.47
383.01	432.87
383.39	414.11
383.77	427.67
384.15	442.81
384.53	445.07
384.91	449.37
385.29	437.62
385.67	449.59
386.049	448.91
386.429	470.61
386.809	466.09
387.189	481.68
387.568	488.91
387.948	501.79
388.328	515.58
388.707	526.2
389.087	506.77
389.466	505.86
389.846	493.21
390.225	509.93
390.605	498.63
390.984	510.83
391.363	509.03
391.743	515.58
392.122	543.83
392.501	539.31
392.881	563.94
393.26	561
393.639	576.6
394.018	591.28
394.397	589.93
394.776	574.11
395.155	583.83
395.534	596.03
395.913	585.63
396.292	584.96
396.671	631.06
397.05	592.87
397.429	622.92
397.808	633.09
398.186	626.54
398.565	631.96
398.944	642.81
399.323	670.83
399.701	654.11
400.08	651.62
400.458	678.97
400.837	681.68
401.215	715.57
401.594	710.15
401.972	708.12
402.351	704.05
402.729	712.41
403.107	755.57
403.486	744.27
403.864	742.92
404.242	739.75
404.62	749.7
404.999	766.87
405.377	768
405.755	823.14
406.133	826.08
406.511	822.92
406.889	819.07
407.267	839.19
407.645	836.7
408.023	853.42
408.401	870.82
408.779	885.06
409.156	906.76
409.534	913.76
409.912	917.15
410.29	947.66
410.667	943.59
411.045	946.98
411.422	988.56
411.8	1000.31
412.178	997.83
412.555	1025.62
412.933	1021.1
413.31	1057.71
413.687	1087.32
414.065	1063.36
414.442	1092.06
414.819	1092.29
415.197	1111.04
415.574	1151.72
415.951	1140.2
416.328	1163.47
416.705	1168.44
417.082	1166.64
417.46	1200.08
417.837	1212.74
418.214	1222.23
418.591	1243.24
418.967	1245.73
419.344	1286.41
419.721	1298.84
420.098	1292.51
420.475	1318.27
420.852	1334.77
421.228	1365.05
421.605	1331.38
421.982	1390.13
422.358	1414.99
422.735	1416.12
423.111	1421.09
423.488	1466.97
423.864	1487.53
424.241	1494.31
424.617	1511.03
424.994	1513.75
425.37	1528.89
425.746	1528.66
426.123	1593.29
426.499	1584.25
426.875	1632.84
427.251	1657.92
427.627	1690.01
428.003	1726.62
428.379	1729.56
428.756	1736.34
429.132	1768.43
429.507	1800.52
429.883	1812.49
430.259	1855.21
430.635	1836.67
431.011	1875.09
431.387	1947.41
431.763	1954.41
432.138	1980.17
432.514	1986.05
432.89	2057.69
433.265	2111.24
433.641	2134.97
434.016	2121.19
434.392	2160.51
434.767	2265.59
435.143	2188.3
435.518	2213.84
435.894	2268.53
436.269	2313.5
436.644	2344.68
437.02	2384.46
437.395	2414.29
437.77	2424.91
438.145	2465.81
438.52	2487.73
438.895	2512.59
439.271	2549.42
439.646	2591.23
440.021	2577.9
440.395	2608.18
440.77	2618.58
441.145	2640.27
441.52	2694.28
441.895	2744.67
442.27	2729.31
442.645	2758.46
443.019	2808.63
443.394	2783.54
443.769	2870.55
444.143	2845.91
444.518	2893.14
444.892	2855.41
445.267	2926.82
445.641	2918.91
446.016	2971.11
446.39	2968.17
446.764	3037.1
447.139	3035.06
447.513	3067.15
447.887	3101.5
448.262	3132.01
448.636	3159.8
449.01	3192.57
449.384	3246.58
449.758	3227.37
450.132	3265.56
450.506	3272.34
450.88	3317.99
451.254	3365.22
451.628	3378.56
452.002	3397.99
452.376	3477.76
452.75	3533.35
453.123	3546.01
453.497	3649.73
453.871	3663.29
454.244	3706.23
454.618	3780.13
454.992	3776.96
455.365	3828.94
455.739	3920.46
456.112	3892.21
456.486	3966.34
456.859	4032.55
457.232	4086.56
457.606	4125.88
457.979	4161.13
458.352	4277.74
458.725	4315.93
459.099	4350.51
459.472	4440
459.845	4499.88
460.218	4545.53
460.591	4573.55
460.964	4632.99
461.337	4732.87
461.71	4765.86
462.083	4896.03
462.456	4907.78
462.829	4988.68
463.201	5052.41
463.574	5060.09
463.947	5128.79
464.32	5276.36
464.692	5290.37
465.065	5336.92
465.438	5477.48
465.81	5530.82
466.183	5546.41
466.555	5735.56
466.928	5733.52
467.3	5716.57
467.672	5804.25
468.045	6003.12
468.417	5983.01
468.789	6078.82
469.161	6181.87
469.534	6289.44
469.906	6414.18
470.278	6430.23
470.65	6521.07
471.022	6649.88
471.394	6801.29
471.766	6852.36
472.138	6904.34
472.51	7071.34
472.882	7171.68
473.253	7298.68
473.625	7416.42
473.997	7548.39
474.369	7631.32
474.74	7720.59
475.112	7920.58
475.484	8067.47
475.855	8184.76
476.227	8295.26
476.598	8429.5
476.97	8561.47
477.341	8735.48
477.713	8827.45
478.084	8897.96
478.455	9213.66
478.827	9291.39
479.198	9538.17
479.569	9603.02
479.94	9912.62
480.311	9960.53
480.682	10246.85
481.053	10452.95
481.424	10629.21
481.795	10662.21
482.166	10856.55
482.537	10961.18
482.908	11264.9
483.279	11341.06
483.65	11519.36
484.021	11799.12
484.391	11925.68
484.762	12040.93
485.133	12207.93
485.503	12461.25
485.874	12745.77
486.244	12857.85
486.615	13041.58
486.985	13240.22
487.356	13535.8
487.726	13619.42
488.097	13962.01
488.467	13928.56
488.837	14288.78
489.207	14334.43
489.578	14551.37
489.948	14687.64
490.318	14933.05
490.688	15099.15
491.058	15365.81
491.428	15542.3
491.798	15766.48
492.168	16096.86
492.538	16176.64
492.908	16301.61
493.278	16621.37
493.648	16665.44
494.017	16903.4
494.387	16929.84
494.757	17140.91
495.126	17347.91
495.496	17458.64
495.866	17543.38
496.235	17682.81
496.605	18002.35
496.974	18121.22
497.344	18325.96
497.713	18369.35
498.082	18668.77
498.452	18915.55
498.821	18905.38
499.19	19103.57
499.559	19282.32
499.928	19406.38
500.298	19452.03
500.667	19676.66
501.036	19721.18
501.405	19946.93
501.774	19819.03
502.143	20130.43
502.512	20352.35
502.88	20590.31
503.249	20615.39
503.618	20663.07
503.987	20785.33
504.356	20947.81
504.724	21120.91
505.093	21340.79
505.462	21513.67
505.83	21708.47
506.199	21714.57
506.567	22151.17
506.936	22024.84
507.304	22290.15
507.672	22270.49
508.041	22413.76
508.409	22559.52
508.777	22717.03
509.145	22984.59
509.514	23034.08
509.882	23137.13
510.25	23252.61
510.618	23453.51
510.986	23647.63
511.354	23906.83
511.722	24148.4
512.09	24479.7
512.458	24433.59
512.826	24649.41
513.193	24792.68
513.561	24810.31
513.929	24992
514.297	25135.72
514.664	25306.34
515.032	25332.33
515.4	25615.03
515.767	25695.71
516.135	25865.42
516.502	25722.37
516.869	26403.03
517.237	26523.71
517.604	26604.61
517.972	26945.17
518.339	27214.31
518.706	27349
519.073	27443.69
519.44	27744.24
519.808	28066.49
520.175	27993.95
520.542	28480.95
520.909	28533.83
521.276	28425.81
521.643	28654.05
522.009	28843.65
522.376	29079.57
522.743	29165.67
523.11	29487.7
523.477	29656.06
523.843	29837.29
524.21	30339.88
524.577	30674.33
524.943	30833.65
525.31	31062.57
525.676	31378.27
526.043	31753.63
526.409	31744.82
526.776	32312.94
527.142	32338.7
527.508	32621.85
527.874	32747.95
528.241	32809.42
528.607	32866.14
528.973	33113.37
529.339	33147.04
529.705	33288.28
530.071	33495.96
530.437	33731.88
530.803	33889.84
531.169	34307.01
531.535	34345.2
531.901	34533.89
532.267	34774.57
532.632	35009.36
532.998	35384.27
533.364	35607.31
533.73	35871.94
534.095	36092.05
534.461	36135.43
534.826	36399.16
535.192	36418.36
535.557	36591.92
535.923	36515.54
536.288	36548.08
536.653	36777.23
537.019	36505.14
537.384	36779.26
537.749	36900.84
538.114	37069.19
538.479	37074.39
538.845	37478.9
539.21	37418.11
539.575	37699.01
539.94	37773.58
540.305	38184.65
540.67	38273.68
541.034	38586.44
541.399	38854.01
541.764	38778.08
542.129	38957.28
542.494	39068.24
542.858	39040.22
543.223	39136.71
543.587	39339.64
543.952	39168.57
544.316	39231.62
544.681	39202.25
545.045	39284.96
545.41	39492.18
545.774	39406.76
546.138	39568.34
546.503	39650.14
546.867	39760.42
547.231	40229.56
547.595	40283.8
547.959	40378.26
548.324	40703.22
548.688	40948.87
549.052	41126.94
549.416	41396.99
549.779	41190.44
550.143	41380.04
550.507	41570.55
550.871	41610.77
551.235	41434.5
551.599	41764.21
551.962	41654.61
552.326	41702.07
552.689	41723.76
553.053	41642.18
553.417	41789.52
553.78	42204.88
554.143	42019.8
554.507	42128.04
554.87	42438.09
555.234	43011.41
555.597	42747.92
555.96	43032.65
556.323	43374.34
556.686	43382.25
557.05	43893.42
557.413	43954.21
557.776	44175
558.139	44446.85
558.502	44478.94
558.865	44337.93
559.228	44687.07
559.59	44667.19
559.953	44630.35
560.316	44877.58
560.679	44736.79
561.041	44889.1
561.404	45085.71
561.767	45389.88
562.129	45212.26
562.492	45616.09
562.854	45593.04
563.217	45659.48
563.579	46029.86
563.941	46246.81
564.304	46454.48
564.666	46746.68
565.028	46984.41
565.39	47222.37
565.753	47570.84
566.115	47571.97
566.477	47888.57
566.839	47928.57
567.201	48082.24
567.563	47994.56
567.925	48226.19
568.287	48135.57
568.648	48110.03
569.01	48277.94
569.372	48308.22
569.734	48131.73
570.095	48345.96
570.457	48394.09
570.819	48462.34
571.18	48519.29
571.542	48701.88
571.903	48795.44
572.265	49028.43
572.626	49241.3
572.987	49283.34
573.349	49572.59
573.71	49903.66
574.071	50017.78
574.432	50110.89
574.794	50490.76
575.155	50376.19
575.516	50312.24
575.877	50457.77
576.238	50506.81
576.599	50637.65
576.96	50482.18
577.32	50361.27
577.681	50616.18
578.042	50648.95
578.403	50509.07
578.763	50548.61
579.124	50489.86
579.485	50673.13
579.845	50810.08
580.206	50575.28
580.566	50660.25
580.927	50752
581.287	51070.41
581.648	51021.82
582.008	51201.93
582.368	51249.84
582.728	51446.44
583.089	51362.38
583.449	51419.55
583.809	51575.71
584.169	51667.46
584.529	51564.41
584.889	51803.5
585.249	51563.05
585.609	51394.24
585.969	51644.4
586.329	51422.04
586.688	51462.04
587.048	51446.9
587.408	51455.94
587.768	51274.92
588.127	51221.37
588.487	51140.69
588.846	51432.66
589.206	51115.38
589.565	51121.93
589.925	51306.56
590.284	51207.81
590.643	51352.21
591.003	51496.61
591.362	51601.24
591.721	51626.78
592.08	51608.25
592.44	51875.59
592.799	51911.52
593.158	51838.3
593.517	51881.91
593.876	52020.44
594.235	51934.11
594.593	51976.6
594.952	52011.4
595.311	51823.38
595.67	51995.13
596.029	52009.59
596.387	52010.27
596.746	52029.93
597.104	51735.48
597.463	51748.58
597.822	51786.77
598.18	51697.96
598.538	51639.66
598.897	51742.26
599.255	51556.5
599.613	52004.4
599.972	51811.18
600.33	51986.99
600.688	51885.75
601.046	52031.29
601.404	52277.61
601.762	52172.3
602.12	52396.02
602.478	52486.64
602.836	52606.64
603.194	52497.72
603.552	52584.95
603.91	52428.56
604.268	52619.07
604.625	52417.72
604.983	52580.2
605.341	52345.4
605.698	52477.38
606.056	52606.64
606.413	52442.58
606.771	52535.45
607.128	52481.9
607.485	52316.03
607.843	52339.75
608.2	52546.3
608.557	52684.6
608.914	52503.14
609.272	52676.24
609.629	52605.74
609.986	52682.57
610.343	52488.45
610.7	52791.04
611.057	52816.35
611.414	52850.02
611.771	52864.71
612.127	53180.41
612.484	53131.37
612.841	53303.8
613.198	53219.73
613.554	53274.64
613.911	53406.39
614.267	53449.1
614.624	53423.57
614.98	53473.51
615.337	53621.3
615.693	53468.54
616.05	53454.75
616.406	53535.65
616.762	53402.32
617.118	53459.72
617.475	53369.33
617.831	53465.37
618.187	53428.09
618.543	53448.2
618.899	53606.84
619.255	53449.1
619.611	53520.51
619.967	53532.94
620.323	53527.52
620.678	53493.62
621.034	53455.43
621.39	53509.21
621.746	53361.42
622.101	53765.25
622.457	53634.63
622.812	53721.86
623.168	53827.4
623.523	53834.4
623.879	53986.26
624.234	53748.53
624.589	53919.83
624.945	53973.84
625.3	53963.89
625.655	54011.12
626.01	54047.96
626.365	53932.03
626.72	53906.94
627.075	53863.78
627.43	53793.5
627.785	53749.89
628.14	53732.71
628.495	53696.55
628.85	53696.55
629.205	53596.22
629.559	53671.7
629.914	53417.69
630.269	53513.96
630.623	53437.58
630.978	53321.87
631.332	53429.22
631.687	53604.58
632.041	53383.34
632.396	53532.72
632.75	53278.49
633.104	53488.65
633.459	53296.79
633.813	53362.33
634.167	53460.18
634.521	53371.59
634.875	53448.88
635.229	53348.54
635.583	53384.25
635.937	53378.14
636.291	53385.15
636.645	53487.52
636.999	53370.91
637.352	53355.55
637.706	53290.92
638.06	53290.92
638.413	53141.31
638.767	52999.4
639.121	53106.29
639.474	52770.48
639.828	52817.71
640.181	52679.86
640.534	52728.44
640.888	52424.95
641.241	52416.36
641.594	52467.21
641.947	52531.16
642.301	52306.76
642.654	52378.17
643.007	52363.48
643.36	52256.37
643.713	52236.71
644.066	52358.96
644.419	52385.85
644.771	52327.32
645.124	52201.45
645.477	52164.62
645.83	52051.63
646.182	51819.77
646.535	51461.81
646.888	51499.1
647.24	51268.6
647.593	51410.29
647.945	51335.94
648.298	51266.11
648.65	51212.33
649.002	51130.52
649.355	51272.89
649.707	51207.81
650.059	51424.52
650.411	51747
650.763	51909.71
651.115	51950.61
651.467	51737.51
651.819	51786.32
652.171	51658.19
652.523	51507.69
652.875	51608.02
653.227	51376.62
653.578	51662.48
653.93	51497.29
654.282	51276.96
654.633	51196.28
654.985	51265.88
655.337	51297.75
655.688	51352.44
656.039	51471.08
656.391	51196.96
656.742	51307.46
657.094	51443.28
657.445	51553.11
657.796	51574.12
658.147	51662.48
658.498	51588.81
658.849	51637.17
659.2	51612.77
659.551	51466.78
659.902	51739.77
660.253	51696.15
660.604	51627
660.955	51616.38
661.306	51606.67
661.656	51552.2
662.007	51446.67
662.358	51315.6
662.708	51334.36
663.059	51319.89
663.409	51090.97
663.76	51299.1
664.11	51130.52
664.461	51081.03
664.811	50972.11
665.161	50926.23
665.511	50878.78
665.862	50862.96
666.212	50848.04
666.562	50956.29
666.912	50901.37
667.262	50840.36
667.612	50902.73
667.962	51030.86
668.312	50942.73
668.662	51099.79
669.011	51079.45
669.361	51103.63
669.711	51030.86
670.06	51073.57
670.41	51056.85
670.76	51078.32
671.109	51192.89
671.459	51122.38
671.808	51066.79
672.157	51272.89
672.507	51137.07
672.856	50983.18
673.205	51107.24
673.554	51075.61
673.904	50912.22
674.253	51121.25
674.602	50854.37
674.951	50365.34
675.3	50160.83
675.649	50625.45
675.998	50287.38
676.346	50342.29
676.695	50258.45
677.044	49918.8
677.393	50146.82
677.741	50061.17
678.09	49943.43
678.438	49879.93
678.787	49754.28
679.135	49777.34
679.484	49585.48
679.832	49862.3
680.181	49669.54
680.529	49812.59
680.877	49734.62
681.225	49674.74
681.573	49938.23
681.922	49683.78
682.27	49758.58
682.618	49867.28
682.966	49762.42
683.314	49910.89
683.661	49781.18
684.009	49641.07
684.357	49584.8
684.705	49604.91
685.053	49592.71
685.4	49550.22
685.748	49460.28
686.095	49419.6
686.443	49253.06
686.79	49178.71
687.138	49222.55
687.485	49169.89
687.832	48842.44
688.18	48889
688.527	48594.77
688.874	48330.37
689.221	48270.48
689.568	48109.81
689.915	48056.93
690.262	47941
690.609	47687.45
690.956	47536.94
691.303	47418.3
691.65	47247.01
691.997	47189.15
692.344	46933.57
692.69	46942.61
693.037	46939.22
693.383	46703.07
693.73	46696.74
694.077	46611.54
694.423	46710.3
694.769	46612.67
695.116	46568.83
695.462	46575.16
695.808	46433.24
696.155	46628.27
696.501	46400.25
696.847	46572.67
697.193	46159.8
697.539	46375.39
697.885	46089.75
698.231	45990.54
698.577	46131.56
698.923	46033.48
699.269	45791.68
699.614	45596.88
699.96	45407.05
700.306	45370.45
700.651	45106.27
700.997	44826.5
701.342	44721.65
701.688	44530.47
702.033	44176.13
702.379	44309.91
702.724	43984.27
703.069	44136.35
703.415	43591.28
703.76	43489.36
704.105	43468.8
704.45	43194.23
704.795	43031.98
705.14	42808.48
705.485	42727.35
705.83	42584.98
706.175	42595.83
706.52	42569.62
706.865	42455.95
707.209	42380.47
707.554	42425.21
707.899	42452.33
708.243	42313.8
708.588	42338.66
708.932	42178.21
709.277	42223.64
709.621	42286.46
709.966	42046.01
710.31	42311.54
710.654	41984.09
710.998	42153.58
711.342	42208.27
711.687	42130.08
712.031	41947.71
712.375	41779.35
712.719	41836.3
713.063	41578.68
713.407	41644.67
713.75	41310.89
714.094	41386.6
714.438	41390.89
714.782	41359.25
715.125	41042.88
715.469	41026.83
715.812	40747.74
716.156	40688.08
716.499	40458.94
716.843	40286.74
717.186	40032.73
717.53	40184.14
717.873	39967.65
718.216	39600.43
718.559	39549.36
718.902	39387.78
719.246	39755.9
719.589	39440.66
719.932	39414.22
720.275	39326.08
720.617	39218.74
720.96	39216.26
721.303	39220.1
721.646	39315.24
721.989	39047
722.331	39352.3
722.674	39229.59
723.016	39364.73
723.359	39351.39
723.701	39572.41
724.044	39345.75
724.386	39151.17
724.729	39401.56
725.071	39193.21
725.413	39318.4
725.755	39283.83
726.097	39260.78
726.439	39088.8
726.782	39155.69
727.124	39133.32
727.465	38930.84
727.807	39067.56
728.149	38828.92
728.491	38724.52
728.833	38716.16
729.175	38610.4
729.516	38444.98
729.858	38393
730.199	38350.07
730.541	38157.3
730.882	38000.47
731.224	38193.69
731.565	38004.09
731.906	37793.02
732.248	37826.46
732.589	37556.41
732.93	37484.33
733.271	37581.72
733.612	37607.03
733.953	37652
734.294	37419.47
734.635	37458.11
734.976	37481.84
735.317	37393.03
735.658	37487.26
735.999	37540.14
736.339	37420.37
736.68	37565.45
737.021	37493.14
737.361	37436.42
737.702	37694.49
738.042	37296.99
738.383	37489.07
738.723	37612.68
739.063	37621.27
739.404	37597.77
739.744	37713.25
740.084	37657.2
740.424	37797.54
740.764	37790.53
741.104	37851.32
741.444	37571.1
741.784	37595.06
742.124	37717.77
742.464	37683.42
742.804	37628.73
743.143	37590.31
743.483	37470.31
743.823	37276.65
744.162	37358.23
744.502	37315.29
744.841	37263.54
745.181	37263.54
745.52	37061.74
745.86	37208.4
746.199	37090.66
746.538	37088.18
746.877	37160.94
747.216	37090.44
747.556	36999.59
747.895	36984.9
748.234	36955.98
748.573	36737.45
748.911	36734.06
749.25	36767.28
749.589	36705.36
749.928	36683.67
750.267	36859.03
750.605	36685.25
750.944	36708.98
751.283	36535.2
751.621	36772.71
751.96	36607.51
752.298	36714.18
752.636	36803.89
752.975	36742.2
753.313	36859.26
753.651	37062.42
753.989	36817
754.327	36920.72
754.666	36651.13
755.004	37045.92
755.342	37058.35
755.679	37115.3
756.017	37071.23
756.355	37111.45
756.693	36905.58
757.031	37039.14
757.368	36958.92
757.706	36983.55
758.044	36996.43
758.381	37039.59
758.719	36857.22
759.056	37039.82
759.394	36974.28
759.731	36732.25
760.068	36522.99
760.405	36617
760.743	36471.47
761.08	36603.44
761.417	36382.21
761.754	36226.05
762.091	36250.91
762.428	36256.56
762.765	35979.05
763.102	35915.55
763.438	35850.02
763.775	35555.56
764.112	35619.97
764.449	35756.01
764.785	35486.86
765.122	35315.57
765.458	35403.7
765.795	35197.61
766.131	35249.13
766.467	35300.43
766.804	35027.21
767.14	34929.14
767.476	34964.84
767.812	34862.25
768.148	35101.56
768.485	34844.85
768.821	34703.16
769.157	34672.2
769.492	34562.82
769.828	34553.33
770.164	34470.85
770.5	34429.04
770.836	34404.41
771.171	34250.96
771.507	34207.12
771.842	34096.84
772.178	34265.88
772.513	34232.21
772.849	33953.8
773.184	33863.63
773.519	33783.18
773.855	33760.81
774.19	33486.69
774.525	33411.21
774.86	33393.36
775.195	33388.16
775.53	33430.42
775.865	33102.29
776.2	33060.49
776.535	32818.69
776.87	32861.62
777.205	32651.23
777.539	32359.71
777.874	32340.05
778.209	32068.2
778.543	32006.28
778.878	31894.42
779.212	31891.03
779.547	31670.69
779.881	31581.43
780.215	31469.79
780.55	31432.96
780.884	31361.77
781.218	31089.47
781.552	30990.94
781.886	30867.55
782.22	30734.22
782.554	30630.72
782.888	30321.8
783.222	30470.72
783.556	30146.66
783.889	30138.3
784.223	29965.2
784.557	29974.69
784.89	30026.67
785.224	29800.01
785.557	29641.37
785.891	29542.84
786.224	29569.05
786.558	29574.93
786.891	29496.06
787.224	29308.95
787.557	29212.45
787.891	29209.74
788.224	29090.42
788.557	29242.06
788.89	28979.69
789.223	29213.13
789.556	28926.81
789.888	28787.6
790.221	28769.3
790.554	28629.87
790.887	28666.03
791.219	28524.56
791.552	28394.17
791.884	28350.78
792.217	28160.28
792.549	28053.84
792.882	27887.97
793.214	27893.84
793.546	27940.17
793.879	27616.56
794.211	27578.37
794.543	27548.99
794.875	27491.82
795.207	27430.13
795.539	27388.09
795.871	27131.38
796.203	26878.5
796.535	26758.51
796.867	26741.33
797.198	26807.09
797.53	26626.31
797.862	26381.34
798.193	26369.59
798.525	26200.33
798.856	26374.33
799.188	25896.61
799.519	25914.01
799.85	25728.25
800.182	25697.06
800.513	25646.67
800.844	25417.98
801.175	25578.88
801.506	25612.55
801.837	25452.33
802.168	25358.99
802.499	25243.74
802.83	25223.86
803.161	25191.54
803.491	25126.01
803.822	25165.1
804.153	25008.72
804.483	24916.97
804.814	24771.67
805.145	24724.21
805.475	24770.99
805.805	24592.23
806.136	24648.28
806.466	24697.09
806.796	24637.88
807.126	24431.34
807.457	24451.67
807.787	24488.73
808.117	24298.01
808.447	24296.2
808.777	24298.46
809.107	24254.84
809.436	24238.35
809.766	24211.45
810.096	24056.66
810.426	24038.58
810.755	24089.65
811.085	23900.05
811.414	23864.12
811.744	23734.4
812.073	23686.04
812.403	23643.56
812.732	23493.28
813.061	23456.22
813.39	23400.18
813.719	23202.44
814.049	23382.1
814.378	23241.99
814.707	23057.13
815.036	23133.52
815.365	22857.82
815.693	22725.39
816.022	22621.89
816.351	22572.4
816.68	22434.78
817.008	22524.04
817.337	22309.81
817.665	22166.31
817.994	22204.95
818.322	22220.77
818.651	22094
818.979	21993.21
819.307	21984.39
819.636	21875.24
819.964	21817.17
820.292	21921.57
820.62	21902.59
820.948	21830.27
821.276	21937.16
821.604	21793.89
821.932	21838.41
822.259	21835.02
822.587	21890.61
822.915	21829.6
823.243	21963.38
823.57	21903.94
823.898	21865.75
824.225	21776.94
824.553	21892.87
824.88	21956.15
825.207	21950.27
825.535	22009.48
825.862	22004.05
826.189	21928.35
826.516	22144.16
826.843	22110.27
827.17	22245.63
827.497	22118.85
827.824	22069.36
828.151	22156.82
828.478	22160.66
828.805	22185.07
829.131	22180.32
829.458	22135.12
829.785	22022.13
830.111	22140.32
830.438	22192.52
830.764	22089.7
831.09	22171.28
831.417	22042.25
831.743	22207.21
832.069	22171.73
832.395	22006.99
832.722	22091.74
833.048	21895.13
833.374	21944.62
833.7	21808.81
834.026	21858.52
834.351	21870.27
834.677	21790.27
835.003	21756.15
835.329	21718.19
835.654	21615.59
835.98	21473.45
836.306	21562.48
836.631	21470.51
836.956	21451.53
837.282	21404.97
837.607	21264.64
837.932	21098.09
838.258	21193.45
838.583	21067.36
838.908	21026.9
839.233	21030.97
839.558	20964.99
839.883	20882.5
840.208	20859.23
840.533	20822.16
840.858	20852.45
841.182	20882.73
841.507	20827.36
841.832	20639.12
842.156	20684.09
842.481	20614.94
842.805	20637.08
843.13	20677.76
843.454	20557.99
843.778	20530.65
844.103	20529.52
844.427	20449.97
844.751	20532.68
845.075	20407.26
845.399	20412.23
845.723	20282.29
846.047	20260.6
846.371	20043.2
846.695	20139.02
847.019	19949.19
847.343	20030.32
847.666	19840.5
847.99	19814.96
848.313	19944
848.637	19765.69
848.96	19849.99
849.284	19731.8
849.607	19541.29
849.931	19697
850.254	19369.55
850.577	19287.29
850.9	19192.6
851.223	19104.7
851.546	18952.38
851.869	18844.59
852.192	18987.86
852.515	18878.49
852.838	18778.83
853.161	18784.03
853.483	18596.91
853.806	18424.94
854.129	18466.97
854.451	18227.2
854.774	18248.45
855.096	18034.44
855.419	18128.9
855.741	17974.1
856.063	17832.19
856.385	17813.66
856.708	17739.99
857.03	17773.88
857.352	17736.37
857.674	17561.69
857.996	17535.92
858.318	17459.09
858.64	17356.94
858.961	17187.91
859.283	17269.94
859.605	17079.66
859.926	17099.1
860.248	17077.63
860.57	17052.32
860.891	17008.93
861.212	16992.43
861.534	16923.06
861.855	16879.44
862.176	16928.93
862.498	16943.17
862.819	16955.15
863.14	16873.57
863.461	16850.07
863.782	16778.88
864.103	16804.64
864.424	16770.29
864.745	16855.94
865.065	16726.23
865.386	16694.59
865.707	16633.8
866.027	16616.63
866.348	16595.61
866.668	16622.73
866.989	16606
867.309	16521.94
867.63	16662.5
867.95	16627.25
868.27	16499.79
868.59	16525.33
868.91	16567.14
869.23	16484.43
869.55	16461.83
869.87	16541.37
870.19	16484.88
870.51	16499.11
870.83	16463.86
871.15	16350.64
871.469	16360.59
871.789	16356.07
872.109	16306.8
872.428	16268.39
872.748	16291.44
873.067	16204.66
873.386	16242.85
873.706	16206.01
874.025	16021.61
874.344	16035.85
874.663	16042.63
874.982	16006.47
875.301	15957.66
875.62	15792.92
875.939	15768.29
876.258	15754.73
876.577	15710.21
876.896	15671.57
877.214	15609.19
877.533	15622.08
877.852	15578.69
878.17	15584.34
878.489	15468.86
878.807	15438.58
879.125	15472.7
879.444	15383.66
879.762	15352.48
880.08	15350.22
880.398	15054.86
880.716	15239.49
881.034	15174.86
881.352	15172.6
881.67	15100.96
881.988	15062.99
882.306	15062.32
882.624	15016.89
882.941	14919.49
883.259	14910
883.577	14973.28
883.894	14908.2
884.212	14858.03
884.529	14849.44
884.846	14785.03
885.164	14827.29
885.481	14767.63
885.798	14789.78
886.115	14799.72
886.432	14730.8
886.75	14796.33
887.067	14755.88
887.383	14749.33
887.7	14738.71
888.017	14716.11
888.334	14727.64
888.651	14625.94
888.967	14595.21
889.284	14604.47
889.6	14510.01
889.917	14482.67
890.233	14500.52
890.55	14427.08
890.866	14460.3
891.182	14434.08
891.498	14404.25
891.815	14369.68
892.131	14222.56
892.447	14253.3
892.763	14197.93
893.079	14214.88
893.395	14079.97
893.71	14032.51
894.026	14066.18
894.342	13978.05
894.657	13900.54
894.973	13869.58
895.289	13829.35
895.604	13790.26
895.92	13688.57
896.235	13662.8
896.55	13641.56
896.865	13514.33
897.181	13460.55
897.496	13461.23
897.811	13421
898.126	13353.89
898.441	13280.89
898.756	13281.8
899.071	13148.69
899.386	13127.45
899.7	12932.2
900.015	12900.11
900.33	12854.24
900.644	12820.11
900.959	12777.63
901.273	12751.19
901.588	12577.86
901.902	12492.44
902.216	12573.34
902.531	12543.51
902.845	12431.2
903.159	12373.35
903.473	12403.4
903.787	12266.23
904.101	12218.77
904.415	12239.34
904.729	12116.18
905.042	12051.32
905.356	11978.1
905.67	12018.33
905.984	12009.74
906.297	11980.59
906.611	11797.09
906.924	11943.75
907.237	11958.89
907.551	11750.76
907.864	11766.13
908.177	11803.19
908.491	11715.51
908.804	11619.24
909.117	11641.16
909.43	11605.68
909.743	11530.43
910.056	11586.93
910.368	11568.62
910.681	11499.92
910.994	11462.86
911.307	11433.03
911.619	11334.05
911.932	11379.47
912.244	11266.71
912.557	11321.17
912.869	11245.47
913.181	11187.84
913.494	11230.33
913.806	11062.87
914.118	11093.61
914.43	11039.14
914.742	11009.54
915.054	10969.54
915.366	10886.15
915.678	10965.25
915.99	10866.04
916.302	10720.74
916.613	10730.45
916.925	10690.91
917.236	10682.77
917.548	10570.91
917.859	10631.47
918.171	10485.26
918.482	10465.37
918.794	10397.81
919.105	10407.97
919.416	10245.95
919.727	10212.5
920.038	10200.75
920.349	10064.93
920.66	10004.37
920.971	9933.64
921.282	9903.58
921.593	9822.68
921.903	9720.76
922.214	9723.02
922.525	9640.99
922.835	9593.99
923.146	9610.71
923.456	9497.04
923.767	9474.44
924.077	9489.13
924.387	9433.09
924.697	9336.59
925.008	9320.55
925.318	9265.18
925.628	9242.81
925.938	9227.44
926.248	9099.31
926.558	9029.48
926.867	9039.2
927.177	8998.52
927.487	9020.67
927.796	8903.38
928.106	8866.77
928.416	8851.41
928.725	8834.23
929.034	8824.97
929.344	8814.8
929.653	8727.34
929.962	8691.64
930.271	8627.46
930.581	8590.85
930.89	8582.94
931.199	8578.64
931.508	8563.5
931.817	8596.5
932.125	8491.87
932.434	8499.1
932.743	8488.93
933.051	8470.4
933.36	8401.7
933.669	8367.12
933.977	8319.89
934.286	8311.53
934.594	8293.45
934.902	8234.7
935.21	8245.55
935.519	8316.73
935.827	8302.49
936.135	8233.57
936.443	8222.95
936.751	8182.04
937.059	8172.33
937.367	8068.15
937.674	8108.15
937.982	8068.6
938.29	8020.47
938.597	8004.42
938.905	7815.95
939.213	7834.26
939.52	7819.12
939.827	7852.79
940.135	7762.39
940.442	7730.76
940.749	7742.73
941.056	7689.63
941.363	7596.3
941.67	7642.62
941.977	7479.69
942.284	7500.25
942.591	7487.83
942.898	7380.03
943.205	7403.08
943.511	7366.02
943.818	7269.3
944.125	7233.6
944.431	7234.5
944.738	7207.83
945.044	7139.59
945.35	7099.36
945.657	7094.16
945.963	7054.39
946.269	6991.12
946.575	6970.55
946.881	6912.47
947.187	6881.51
947.493	6829.99
947.799	6766.49
948.105	6749.99
948.41	6726.49
948.716	6684.91
949.022	6658.24
949.327	6606.72
949.633	6531.69
949.938	6550
950.244	6491.92
950.549	6529.21
950.854	6448.76
951.16	6438.36
951.465	6429.32
951.77	6389.1
952.075	6365.14
952.38	6323.34
952.685	6331.02
952.99	6268.2
953.294	6316.11
953.599	6239.95
953.904	6213.06
954.209	6180.29
954.513	6197.92
954.818	6156.79
955.122	6128.77
955.426	6076.11
955.731	6100.29
956.035	6059.61
956.339	6042.44
956.643	6050.35
956.948	5977.36
957.252	6014.64
957.556	6025.27
957.86	5931.03
958.163	5928.09
958.467	5874.31
958.771	5881.99
959.075	5885.83
959.378	5856.46
959.682	5906.17
959.985	5839.96
960.289	5823.01
960.592	5803.8
960.896	5804.03
961.199	5803.35
961.502	5679.29
961.805	5698.04
962.108	5729
962.411	5638.83
962.714	5585.95
963.017	5639.96
963.32	5616.46
963.623	5598.61
963.926	5535.56
964.228	5476.81
964.531	5529.69
964.833	5472.74
965.136	5395.23
965.438	5399.52
965.741	5372.4
966.043	5353.87
966.345	5372.4
966.648	5336.7
966.95	5282.69
967.252	5269.8
967.554	5238.62
967.856	5230.03
968.158	5155.91
968.46	5115.23
968.761	5115.68
969.063	5056.93
969.365	5053.09
969.666	5028.23
969.968	4971.51
970.269	4972.19
970.571	4928.8
970.872	4887.67
971.174	4894.67
971.475	4912.98
971.776	4830.04
972.077	4798.18
972.378	4787.78
972.679	4772.19
972.98	4765.19
973.281	4746.65
973.582	4674.11
973.883	4681.12
974.183	4625.98
974.484	4636.15
974.785	4589.37
975.085	4575.36
975.386	4580.33
975.686	4537.39
975.986	4521.8
976.287	4476.15
976.587	4415.36
976.887	4391.86
977.187	4424.86
977.487	4392.09
977.787	4343.73
978.087	4305.99
978.387	4310.28
978.687	4322.03
978.987	4313.22
979.286	4263.05
979.586	4248.59
979.885	4230.51
980.185	4204.75
980.484	4216.95
980.784	4191.64
981.083	4218.31
981.382	4148.25
981.682	4140.12
981.981	4170.62
982.28	4119.78
982.579	4083.85
982.878	4118.65
983.177	4078.2
983.475	4059.89
983.774	4033.68
984.073	4002.49
984.372	4008.37
984.67	4012.66
984.969	3998.2
985.267	3958.43
985.566	3987.8
985.864	3967.24
986.162	3933.34
986.461	3950.74
986.759	3926.79
987.057	3910.52
987.355	3924.53
987.653	3871.65
987.951	3844.98
988.249	3851.76
988.547	3831.2
988.844	3835.49
989.142	3788.26
989.44	3762.73
989.737	3735.16
990.035	3769.05
990.332	3704.87
990.63	3734.93
990.927	3701.26
991.224	3655.38
991.521	3644.54
991.819	3591.21
992.116	3604.09
992.413	3616.06
992.71	3529.74
993.006	3564.31
993.303	3568.15
993.6	3514.82
993.897	3507.82
994.193	3449.51
994.49	3414.26
994.787	3413.36
995.083	3397.31
995.379	3388.95
995.676	3386.46
995.972	3352.12
996.268	3347.82
996.565	3289.29
996.861	3334.71
997.157	3279.8
997.453	3246.58
997.749	3236.86
998.044	3205.45
998.34	3178.11
998.636	3168.62
998.932	3144.44
999.227	3081.16
999.523	3087.49
999.818	3087.94
1000.114	3077.55
1000.409	3049.98
1000.704	3023.08
1001	3010.43
1001.295	2978.11
1001.59	2984.22
1001.885	2949.64
1002.18	2930.88
1002.475	2920.26
1002.77	2910.32
1003.065	2901.73
1003.359	2871.22
1003.654	2878.46
1003.949	2828.29
1004.243	2828.29
1004.538	2794.39
1004.832	2790.32
1005.127	2802.3
1005.421	2736.76
1005.715	2730.21
1006.009	2749.19
1006.304	2724.11
1006.598	2728.18
1006.892	2678.46
1007.186	2655.18
1007.48	2675.97
1007.773	2631.46
1008.067	2649.99
1008.361	2616.32
1008.655	2633.04
1008.948	2604.56
1009.242	2598.91
1009.535	2582.87
1009.829	2548.97
1010.122	2547.62
1010.415	2571.12
1010.708	2515.75
1011.001	2517.56
1011.295	2477.79
1011.588	2487.05
1011.881	2470.33
1012.173	2459.71
1012.466	2482.53
1012.759	2444.79
1013.052	2425.59
1013.344	2435.98
1013.637	2418.81
1013.93	2396.66
1014.222	2392.82
1014.514	2374.51
1014.807	2336.32
1015.099	2360.95
1015.391	2335.64
1015.683	2327.96
1015.976	2266.72
1016.268	2276.21
1016.56	2253.84
1016.851	2273.5
1017.143	2233.5
1017.435	2249.77
1017.727	2206.83
1018.018	2208.19
1018.31	2220.85
1018.602	2187.63
1018.893	2175.87
1019.185	2122.32
1019.476	2161.19
1019.767	2158.25
1020.058	2115.54
1020.35	2118.48
1020.641	2048.65
1020.932	2053.39
1021.223	2081.64
1021.514	2052.71
1021.804	2018.14
1022.095	1979.95
1022.386	1965.49
1022.677	1960.06
1022.967	1954.86
1023.258	1979.27
1023.548	1953.28
1023.839	1895.2
1024.129	1901.31
1024.419	1864.47
1024.709	1830.12
1025	1835.77
1025.29	1843
1025.58	1834.64
1025.87	1820.86
1026.16	1775.89
1026.449	1820.63
1026.739	1737.69
1027.029	1760.29
1027.319	1729.11
1027.608	1728.2
1027.898	1713.97
1028.187	1703.12
1028.477	1677.36
1028.766	1703.57
1029.055	1662.22
1029.344	1643.69
1029.634	1625.61
1029.923	1625.83
1030.212	1634.87
1030.501	1604.36
1030.79	1593.07
1031.078	1570.69
1031.367	1554.42
1031.656	1560.98
1031.945	1548.09
1032.233	1554.42
1032.522	1545.61
1032.81	1513.75
1033.099	1496.57
1033.387	1513.52
1033.675	1486.85
1033.963	1485.27
1034.251	1458.83
1034.54	1468.77
1034.828	1450.24
1035.116	1447.31
1035.403	1435.33
1035.691	1461.54
1035.979	1396.46
1036.267	1415.89
1036.554	1376.12
1036.842	1368.21
1037.129	1377.48
1037.417	1390.36
1037.704	1366.63
1037.992	1343.35
1038.279	1352.39
1038.566	1324.82
1038.853	1324.82
1039.14	1324.82
