Data from blue_shiny_book_FLMS001491_00049.txt Node
Date: Wed Feb 08 15:27:02 GMT 2017
User: dcchb
Spectrometer: FLMS00149
Trigger mode: 0
Integration Time (sec): 2.000000E-2
Scans to average: 10
Electric dark correction enabled: true
Nonlinearity correction enabled: false
Boxcar width: 0
XAxis mode: Wavelengths
Number of Pixels in Spectrum: 2048
>>>>>Begin Spectral Data<<<<<
341.393	-12.64
341.776	-12.64
342.16	-12.64
342.543	-65.75
342.927	-75.92
343.31	-65.07
343.693	-55.58
344.077	-64.84
344.46	-48.57
344.843	-55.13
345.226	-57.16
345.61	-42.47
345.993	-5.41
346.376	-5.41
346.759	7.92
347.142	22.39
347.525	45.89
347.908	38.66
348.291	84.98
348.674	79.79
349.057	120.01
349.44	136.73
349.823	127.92
350.206	174.02
350.588	211.99
350.971	228.26
351.354	229.61
351.737	234.13
352.119	260.8
352.502	275.71
352.884	272.55
353.267	282.27
353.65	293.57
354.032	310.51
354.414	322.04
354.797	332.66
355.179	329.05
355.562	343.96
355.944	343.06
356.326	360
356.709	343.96
357.091	345.99
357.473	357.74
357.855	357.97
358.238	349.84
358.62	350.74
359.002	342.6
359.384	355.49
359.766	360.46
360.148	336.95
360.53	339.21
360.912	371.3
361.294	343.73
361.676	354.36
362.057	340.34
362.439	353.68
362.821	354.13
363.203	342.15
363.584	343.28
363.966	349.84
364.348	339.21
364.729	306.45
365.111	344.64
365.493	351.19
365.874	339.67
366.256	318.88
366.637	330.4
367.019	343.06
367.4	335.6
367.781	298.31
368.163	320.91
368.544	326.79
368.925	344.64
369.306	342.38
369.688	344.64
370.069	346.22
370.45	331.3
370.831	339.21
371.212	362.49
371.593	334.69
371.974	349.16
372.355	343.51
372.736	353.45
373.117	323.62
373.498	332.21
373.879	351.19
374.26	367.91
374.641	338.31
375.021	355.49
375.402	353
375.783	361.81
376.163	379.44
376.544	371.76
376.925	362.49
377.305	383.28
377.686	375.6
378.066	376.95
378.447	364.75
378.827	393.22
379.208	365.43
379.588	387.12
379.968	384.18
380.349	393.9
380.729	399.33
381.109	379.67
381.489	386.44
381.87	392.09
382.25	418.31
382.63	397.07
383.01	422.6
383.39	418.53
383.77	425.54
384.15	416.05
384.53	426.44
384.91	426.67
385.29	410.85
385.67	448.82
386.049	430.29
386.429	446.33
386.809	458.53
387.189	448.14
387.568	459.21
387.948	448.82
388.328	455.37
388.707	482.94
389.087	474.8
389.466	468.93
389.846	461.02
390.225	475.26
390.605	498.98
390.984	494.01
391.363	487.68
391.743	491.75
392.122	504.18
392.501	497.18
392.881	530.17
393.26	516.61
393.639	537.4
394.018	515.71
394.397	518.64
394.776	541.02
395.155	531.53
395.534	554.58
395.913	552.32
396.292	561.36
396.671	571.98
397.05	554.12
397.429	565.42
397.808	548.93
398.186	567.68
398.565	577.4
398.944	560
399.323	589.6
399.701	582.6
400.08	590.96
400.458	612.88
400.837	609.49
401.215	620.79
401.594	611.98
401.972	621.24
402.351	642.48
402.729	645.42
403.107	662.37
403.486	649.26
403.864	663.95
404.242	675.48
404.62	688.58
404.999	693.78
405.377	680
405.755	699.88
406.133	700.33
406.511	717.06
406.889	739.88
407.267	714.57
407.645	758.86
408.023	734.91
408.401	771.97
408.779	783.27
409.156	771.07
409.534	788.92
409.912	805.64
410.29	822.37
410.667	833.21
411.045	848.13
411.422	865.3
411.8	839.99
412.178	872.99
412.555	880.67
412.933	872.08
413.31	912.31
413.687	909.14
414.065	954.34
414.442	934.23
414.819	964.28
415.197	988.01
415.574	987.11
415.951	977.62
416.328	989.59
416.705	1007.22
417.082	1025.75
417.46	1036.6
417.837	1070.27
418.214	1082.92
418.591	1084.73
418.967	1082.25
419.344	1090.83
419.721	1117.05
420.098	1117.05
420.475	1141.91
420.852	1113.88
421.228	1127.89
421.605	1177.61
421.982	1200.21
422.358	1192.98
422.735	1209.02
423.111	1184.84
423.488	1223.94
423.864	1243.6
424.241	1244.73
424.617	1264.61
424.994	1282.24
425.37	1292.18
425.746	1305.52
426.123	1328.79
426.499	1341
426.875	1384.84
427.251	1379.86
427.627	1411.95
428.003	1425.97
428.379	1449.69
428.756	1428.9
429.132	1492.18
429.507	1492.18
429.883	1514.32
430.259	1520.2
430.635	1543.7
431.011	1584.61
431.387	1611.5
431.763	1665.96
432.138	1638.39
432.514	1669.57
432.89	1690.59
433.265	1738.27
433.641	1747.09
434.016	1757.26
434.392	1784.6
434.767	1817.59
435.143	1811.49
435.518	1851.94
435.894	1885.84
436.269	1889.91
436.644	1910.02
437.02	1928.1
437.395	1963.35
437.77	2003.8
438.145	2029.11
438.52	2047.64
438.895	2086.96
439.271	2097.59
439.646	2147.53
440.021	2169.9
440.395	2127.19
440.77	2143.69
441.145	2178.04
441.52	2256
441.895	2232.27
442.27	2283.34
442.645	2261.65
443.019	2318.82
443.394	2321.08
443.769	2306.62
444.143	2309.78
444.518	2382.78
444.892	2343.46
445.267	2352.49
445.641	2392.72
446.016	2429.78
446.39	2481.3
446.764	2475.43
447.139	2452.61
447.513	2498.48
447.887	2516.33
448.262	2585.71
448.636	2549.1
449.01	2592.04
449.384	2599.95
449.758	2625.71
450.132	2645.14
450.506	2673.62
450.88	2667.97
451.254	2706.38
451.628	2742.09
452.002	2830.22
452.376	2812.37
452.75	2893.95
453.123	2888.98
453.497	2930.11
453.871	2949.32
454.244	3036.09
454.618	3007.62
454.992	3022.99
455.365	3082.42
455.739	3171.68
456.112	3167.39
456.486	3192.25
456.859	3262.98
457.232	3312.02
457.606	3323.77
457.979	3373.94
458.352	3419.59
458.725	3550.43
459.099	3547.94
459.472	3597.21
459.845	3622.07
460.218	3643.53
460.591	3681.27
460.964	3693.7
461.337	3747.03
461.71	3825.45
462.083	3919.46
462.456	3911.78
462.829	3959.68
463.201	4006.01
463.574	4013.02
463.947	4096.4
464.32	4253.01
464.692	4282.61
465.065	4301.14
465.438	4330.52
465.81	4373.46
466.183	4421.14
466.555	4548.82
466.928	4510.63
467.3	4530.29
467.672	4626.56
468.045	4806.22
468.417	4793.11
468.789	4823.62
469.161	4899.32
469.534	5012.54
469.906	5124.17
470.278	5133.89
470.65	5194.91
471.022	5295.02
471.394	5364.39
471.766	5430.61
472.138	5490.49
472.51	5553.31
472.882	5666.31
473.253	5688.23
473.625	5832.18
473.997	5978.84
474.369	5980.42
474.74	6062.45
475.112	6220.42
475.484	6351.49
475.855	6440.3
476.227	6479.62
476.598	6698.6
476.97	6688.88
477.341	6857.91
477.713	7020.85
478.084	6980.85
478.455	7196.44
478.827	7273.04
479.198	7511.46
479.569	7522.75
479.94	7726.82
480.311	7792.8
480.682	7933.14
481.053	8252.45
481.424	8292.68
481.795	8416.29
482.166	8576.51
482.537	8614.48
482.908	8864.41
483.279	8942.15
483.65	9064.41
484.021	9260.11
484.391	9329.94
484.762	9439.99
485.133	9517.28
485.503	9666.43
485.874	9888.79
486.244	10009.92
486.615	10244.94
486.985	10357.48
487.356	10475.44
487.726	10642.67
488.097	10905.26
488.467	10874.76
488.837	11142.55
489.207	11289.89
489.578	11440.39
489.948	11584.57
490.318	11725.58
490.688	11666.83
491.058	11938.68
491.428	12133.71
491.798	12293.02
492.168	12535.28
492.538	12572.56
492.908	12752.9
493.278	12874.03
493.648	12985.89
494.017	13134.81
494.387	13310.62
494.757	13400.11
495.126	13597.17
495.496	13602.14
495.866	13760.33
496.235	13886.88
496.605	14100.43
496.974	14176.59
497.344	14318.06
497.713	14322.35
498.082	14499.29
498.452	14664.71
498.821	14759.63
499.19	14851.6
499.559	14888.44
499.928	15077.58
500.298	15149.22
500.667	15284.36
501.036	15293.62
501.405	15462.66
501.774	15591.92
502.143	15625.14
502.512	15827.17
502.88	15933.61
503.249	15940.16
503.618	16071.68
503.987	16187.84
504.356	16307.61
504.724	16334.95
505.093	16466.7
505.462	16577.43
505.83	16717.09
506.199	16828.72
506.567	17035.27
506.936	17046.8
507.304	17300.8
507.672	17357.07
508.041	17480.23
508.409	17680.45
508.777	17643.62
509.145	17952.31
509.514	17928.13
509.882	18103.94
510.25	18239.08
510.618	18348.01
510.986	18491.51
511.354	18609.92
511.722	18725.62
512.09	18846.98
512.458	18964.26
512.826	19116.35
513.193	19184.37
513.561	19313.18
513.929	19487.41
514.297	19718.14
514.664	19751.59
515.032	19915.87
515.4	20072.25
515.767	20159.26
516.135	20271.35
516.502	20135.76
516.869	20559.25
517.237	20713.59
517.604	20636.08
517.972	21050.31
518.339	21002.4
518.706	21236.29
519.073	21196.74
519.44	21321.49
519.808	21643.29
520.175	21619.78
520.542	21960.34
520.909	22121.01
521.276	22064.52
521.643	22345.87
522.009	22528.46
522.376	22693.43
522.743	22879.19
523.11	23000.31
523.477	23146.07
523.843	23438.27
524.21	23701.09
524.577	23917.58
524.943	23974.3
525.31	24068.08
525.676	24219.72
526.043	24478.47
526.409	24609.31
526.776	24918.91
527.142	24946.02
527.508	25208.16
527.874	25292
528.241	25485.22
528.607	25568.16
528.973	25815.15
529.339	25752.33
529.705	26038.43
530.071	26245.65
530.437	26343.28
530.803	26685.64
531.169	26868.23
531.535	26777.62
531.901	26950.49
532.267	27080.43
532.632	27377.15
532.998	27545.73
533.364	27628.89
533.73	27717.7
534.095	28130.35
534.461	28037.24
534.826	28168.99
535.192	28266.39
535.557	28372.83
535.923	28493.28
536.288	28569.88
536.653	28698.92
537.019	28560.62
537.384	28800.39
537.749	29054.17
538.114	29096.65
538.479	29284.22
538.845	29471.1
539.21	29413.93
539.575	29599.91
539.94	29670.87
540.305	29881.26
540.67	29772.34
541.034	30079.45
541.399	30184.08
541.764	30182.72
542.129	30436.28
542.494	30382.49
542.858	30483.28
543.223	30505.65
543.587	30564.63
543.952	30693.44
544.316	30817.73
544.681	30662.26
545.045	30789.49
545.41	31043.49
545.774	31103.15
546.138	31173.66
546.503	31344.73
546.867	31303.15
547.231	31752.17
547.595	31824.26
547.959	31848.89
548.324	31913.53
548.688	32045.73
549.052	32122.33
549.416	32176.12
549.779	32229
550.143	32327.3
550.507	32536.79
550.871	32541.31
551.235	32379.28
551.599	32591.02
551.962	32685.03
552.326	32798.25
552.689	32809.77
553.053	32669.89
553.417	32965.93
553.78	33248.86
554.143	33302.87
554.507	33483.43
554.87	33619.92
555.234	33983.08
555.597	33762.06
555.96	33985.11
556.323	34266.01
556.686	34231.2
557.05	34567.92
557.413	34687.24
557.776	34753
558.139	34729.95
558.502	34764.07
558.865	34907.34
559.228	34986.89
559.59	34998.64
559.953	35035.7
560.316	35381
560.679	35541.45
561.041	35532.64
561.404	35731.28
561.767	35970.14
562.129	35815.12
562.492	36113.64
562.854	36277.25
563.217	36308.89
563.579	36641.31
563.941	36824.58
564.304	36942.09
564.666	37211.47
565.028	37372.14
565.39	37479.93
565.753	37716.99
566.115	37890.09
566.477	37948.17
566.839	38025.68
567.201	38168.5
567.563	38050.77
567.925	38364.43
568.287	38283.98
568.648	38293.02
569.01	38361.04
569.372	38533.92
569.734	38352.45
570.095	38681.26
570.457	38866.56
570.819	39056.16
571.18	39085.99
571.542	39235.59
571.903	39427.9
572.265	39713.55
572.626	39760.32
572.987	39870.15
573.349	40030.83
573.71	40413.87
574.071	40581.32
574.432	40655.89
574.794	40732.28
575.155	40711.49
575.516	40464.26
575.877	40715.33
576.238	40629.45
576.599	40833.52
576.96	40710.36
577.32	40825.38
577.681	40857.24
578.042	40826.96
578.403	41009.78
578.763	40965.94
579.124	40914.19
579.485	41131.59
579.845	41322.32
580.206	41248.65
580.566	41378.14
580.927	41486.83
581.287	41769.99
581.648	41646.6
582.008	41908.52
582.368	41873.49
582.728	42121.39
583.089	42093.14
583.449	42008.63
583.809	42172.92
584.169	42317.09
584.529	42083.2
584.889	42376.98
585.249	42058.57
585.609	42042.75
585.969	42142.86
586.329	42006.37
586.688	41926.14
587.048	41907.84
587.408	41819.48
587.768	41786.03
588.127	41801.63
588.487	41721.85
588.846	42039.36
589.206	41881.85
589.565	41871.68
589.925	42245.46
590.284	41974.28
590.643	42074.84
591.003	42282.74
591.362	42517.54
591.721	42509.4
592.08	42434.15
592.44	42696.07
592.799	42792.56
593.158	42859.68
593.517	42727.93
593.876	42795.05
594.235	42623.98
594.593	42706.91
594.952	42701.49
595.311	42596.41
595.67	42610.65
596.029	42765.22
596.387	42655.84
596.746	42746.46
597.104	42258.34
597.463	42370.43
597.822	42491.33
598.18	42548.05
598.538	42413.36
598.897	42626.24
599.255	42445.68
599.613	42896.51
599.972	42786.46
600.33	43082.5
600.688	42956.17
601.046	43226.45
601.404	43305.09
601.762	43291.98
602.12	43606.55
602.478	43536.95
602.836	43639.77
603.194	43425.09
603.552	43653.78
603.91	43432.77
604.268	43637.28
604.625	43376.05
604.983	43447.91
605.341	43045.21
605.698	43326.33
606.056	43454.46
606.413	43317.52
606.771	43426.22
607.128	43336.73
607.485	43174.25
607.843	43144.19
608.2	43344.19
608.557	43572.88
608.914	43425.31
609.272	43686.1
609.629	43717.51
609.986	43973.77
610.343	43880.22
610.7	44201.79
611.057	44282.69
611.414	44389.81
611.771	44424.83
612.127	44580.99
612.484	44577.37
612.841	44788.89
613.198	44600.2
613.554	44726.75
613.911	44816.91
614.267	44741.89
614.624	44725.39
614.98	44824.15
615.337	45016.91
615.693	44925.61
616.05	44604.94
616.406	44797.71
616.762	44673.42
617.118	44513.65
617.475	44444.27
617.831	44535.79
618.187	44557.03
618.543	44693.98
618.899	44905.05
619.255	44920.41
619.611	44827.31
619.967	44930.13
620.323	45071.6
620.678	44966.97
621.034	45157.24
621.39	45270.24
621.746	45308.43
622.101	45433.4
622.457	45361.31
622.812	45468.88
623.168	45423.9
623.523	45602.2
623.879	45670.9
624.234	45386.17
624.589	45509.1
624.945	45590.45
625.3	45478.82
625.655	45367.41
626.01	45348.65
626.365	45389.56
626.72	45219.39
627.075	45094.2
627.43	45149.34
627.785	44925.84
628.14	45041.09
628.495	44955.89
628.85	44902.79
629.205	44920.41
629.559	45130.13
629.914	44787.31
630.269	44902.34
630.623	44906.18
630.978	44815.33
631.332	44958.15
631.687	45232.5
632.041	45048.32
632.396	45190.01
632.75	44966.29
633.104	45218.94
633.459	45005.38
633.813	45251.93
634.167	45175.78
634.521	44995.44
634.875	45073.86
635.229	45051.48
635.583	45011.71
635.937	44912.28
636.291	44860.08
636.645	45054.42
636.999	44601.1
637.352	44562.46
637.706	44339.64
638.06	44415.34
638.413	44256.93
638.767	44061.45
639.121	44055.8
639.474	43673.67
639.828	43800.9
640.181	43812.87
640.534	43872.98
640.888	43747.11
641.241	43619.66
641.594	43630.28
641.947	43633.22
642.301	43764.51
642.654	43776.72
643.007	43780.33
643.36	43809.71
643.713	43746.66
644.066	43808.58
644.419	43808.13
644.771	43791.86
645.124	43776.94
645.477	43713.67
645.83	43368.14
646.182	42964.53
646.535	42703.07
646.888	42586.92
647.24	42306.25
647.593	42651.1
647.945	42318.45
648.298	42121.17
648.65	42063.77
649.002	41800.95
649.355	42136.99
649.707	41939.48
650.059	42146.25
650.411	42643.64
650.763	42809.28
651.115	43079.33
651.467	42807.02
651.819	42817.87
652.171	42582.85
652.523	42647.71
652.875	42522.51
653.227	42485.45
653.578	42949.85
653.93	42866.68
654.282	42534.26
654.633	42480.71
654.985	42642.51
655.337	42503.98
655.688	42803.18
656.039	42925.89
656.391	42606.35
656.742	42707.37
657.094	42724.54
657.445	42944.65
657.796	42997.53
658.147	42911.65
658.498	42743.3
658.849	43003.63
659.2	42785.33
659.551	42635.05
659.902	42881.15
660.253	42713.02
660.604	42741.49
660.955	42506.47
661.306	42553.47
661.656	42445.45
662.007	42311.44
662.358	42255.85
662.708	42329.97
663.059	42114.84
663.409	41778.8
663.76	41974.73
664.11	42002.07
664.461	42005.46
664.811	41903.09
665.161	41866.94
665.511	41866.26
665.862	42008.18
666.212	42044.56
666.562	42129.08
666.912	42118.23
667.262	42070.77
667.612	42339.01
667.962	42433.47
668.312	42293.14
668.662	42529.74
669.011	42419.46
669.361	42490.87
669.711	42518.67
670.06	42423.76
670.41	42453.14
670.76	42268.51
671.109	42408.39
671.459	42155.97
671.808	42162.97
672.157	42462.63
672.507	42174.27
672.856	42029.87
673.205	42040.26
673.554	42063.09
673.904	41882.98
674.253	42110.09
674.602	41716.88
674.951	41043.68
675.3	40683.69
675.649	41267.18
675.998	41186.5
676.346	41181.53
676.695	41316.67
677.044	40932.27
677.393	41089.1
677.741	41051.59
678.09	41065.6
678.438	40829.68
678.787	40903.57
679.135	41024.47
679.484	40786.74
679.832	41056.79
680.181	40789
680.529	41114.41
680.877	40892.5
681.225	41050.91
681.573	41350.57
681.922	41230.12
682.27	41042.78
682.618	40998.48
682.966	40947.41
683.314	40988.54
683.661	40833.06
684.009	40825.16
684.357	40556.24
684.705	40687.31
685.053	40597.36
685.4	40633.97
685.748	40213.87
686.095	40163.25
686.443	39785.63
686.79	39719.87
687.138	39735.24
687.485	39626.32
687.832	39375.48
688.18	39631.29
688.527	39156.95
688.874	39120.34
689.221	38838.31
689.568	38848.94
689.915	38632.44
690.262	38689.39
690.609	38656.62
690.956	38480.58
691.303	38463.86
691.65	38403.52
691.997	38347.93
692.344	38046.47
692.69	37960.37
693.037	38118.56
693.383	37880.15
693.73	38167.6
694.077	37877.66
694.423	38094.61
694.769	37914.27
695.116	37760.38
695.462	37695.52
695.808	37779.59
696.155	37849.41
696.501	37524.45
696.847	37604.45
697.193	37349.09
697.539	37371.69
697.885	37152.03
698.231	37110.45
698.577	36965.6
698.923	36890.57
699.269	36604.93
699.614	36484.48
699.96	36207.88
700.306	36182.11
700.651	36016.24
700.997	35766.98
701.342	35653.31
701.688	35592.07
702.033	35354.56
702.379	35213.55
702.724	35223.04
703.069	35135.59
703.415	34735.6
703.76	34955.71
704.105	34797.29
704.45	34676.16
704.795	34565.66
705.14	34491.54
705.485	34312.11
705.83	34385.78
706.175	34297.42
706.52	34272.11
706.865	34185.78
707.209	34301.94
707.554	34238.21
707.899	34306
708.243	34186.91
708.588	34174.93
708.932	34013.81
709.277	34055.62
709.621	34174.93
709.966	33846.13
710.31	34155.05
710.654	33774.95
710.998	33847.26
711.342	33795.74
711.687	33725.23
712.031	33552.13
712.375	33415.86
712.719	33455.41
713.063	33230.78
713.407	33368.4
713.75	33120.5
714.094	33163.44
714.438	32779.72
714.782	32763.67
715.125	32627.18
715.469	32599.61
715.812	32383.34
716.156	32136.34
716.499	32180.86
716.843	32105.38
717.186	31992.17
717.53	31882.34
717.873	31895.45
718.216	31771.16
718.559	31625.4
718.902	31529.35
719.246	31555.57
719.589	31654.1
719.932	31500.65
720.275	31544.72
720.617	31622.91
720.96	31589.01
721.303	31724.6
721.646	31610.71
721.989	31680.99
722.331	31775.45
722.674	31680.99
723.016	31802.57
723.359	31845.5
723.701	31645.06
724.044	31508.79
724.386	31360.77
724.729	31646.41
725.071	31611.39
725.413	31637.15
725.755	31581.78
726.097	31441.9
726.439	31360.32
726.782	31216.59
727.124	31397.61
727.465	31109.7
727.807	31100.89
728.149	30970.73
728.491	30901.8
728.833	30897.05
729.175	30779.09
729.516	30759.88
729.858	30616.16
730.199	30730.96
730.541	30657.06
730.882	30572.54
731.224	30704.29
731.565	30325.32
731.906	30330.52
732.248	30256.62
732.589	30290.97
732.93	30213.91
733.271	30361.48
733.612	30277.41
733.953	30443.51
734.294	30306.34
734.635	30273.79
734.976	30400.12
735.317	30287.35
735.658	30363.96
735.999	30369.16
736.339	30306.79
736.68	30460
737.021	30471.3
737.361	30410.97
737.702	30464.3
738.042	30614.8
738.383	30470.17
738.723	30599.21
739.063	30539.1
739.404	30551.53
739.744	30690.28
740.084	30568.93
740.424	30633.11
740.764	30559.89
741.104	30788.58
741.444	30466.33
741.784	30504.3
742.124	30605.99
742.464	30429.27
742.804	30380.01
743.143	30380.68
743.483	30414.58
743.823	30255.72
744.162	30128.04
744.502	30248.94
744.841	29978.43
745.181	30197.64
745.52	30063.4
745.86	30005.78
746.199	29832.45
746.538	29879
746.877	30125.55
747.216	29998.77
747.556	30035.16
747.895	29989.73
748.234	30027.25
748.573	29929.4
748.911	29949.74
749.25	30004.42
749.589	29997.64
749.928	30115.61
750.267	30050.07
750.605	30075.61
750.944	30023.63
751.283	30050.07
751.621	30302.72
751.96	30145.66
752.298	30232.44
752.636	30378.2
752.975	30307.01
753.313	30388.82
753.651	30565.31
753.989	30299.56
754.327	30398.54
754.666	30315.83
755.004	30653.22
755.342	30707.46
755.679	30595.14
756.017	30510.17
756.355	30600.79
756.693	30551.08
757.031	30460.91
757.368	30384.07
757.706	30393.57
758.044	30324.64
758.381	30310.18
758.719	30334.36
759.056	30379.33
759.394	30306.34
759.731	30078.77
760.068	30200.58
760.405	29973.69
760.743	29970.07
761.08	30111.99
761.417	29998.32
761.754	29910.19
762.091	29818.21
762.428	29846.91
762.765	29714.04
763.102	29915.84
763.438	29613.7
763.775	29589.52
764.112	29663.41
764.449	29758.1
764.785	29570.76
765.122	29453.25
765.458	29460.03
765.795	29573.93
766.131	29461.16
766.467	29505
766.804	29468.17
767.14	29332.12
767.476	29352.91
767.812	29316.08
768.148	29376.87
768.485	29200.38
768.821	29184.78
769.157	29227.27
769.492	29121.73
769.828	29194.95
770.164	28994.73
770.5	29001.51
770.836	29008.29
771.171	28806.49
771.507	28817.79
771.842	28636.55
772.178	28754.96
772.513	28591.13
772.849	28647.4
773.184	28381.87
773.519	28252.83
773.855	28272.27
774.19	28154.53
774.525	27879.96
774.86	28080.18
775.195	27973.97
775.53	27792.5
775.865	27864.59
776.2	27615.11
776.535	27388.45
776.87	27411.95
777.205	27184.84
777.539	26964.73
777.874	27144.84
778.209	26772.42
778.543	26758.63
778.878	26495.14
779.212	26645.64
779.547	26390.96
779.881	26593.67
780.215	26290.62
780.55	26407
780.884	26221.7
781.218	26183.51
781.552	26077.75
781.886	25947.13
782.22	25685.89
782.554	25712.78
782.888	25490.42
783.222	25496.07
783.556	25438.22
783.889	25425.56
784.223	25279.35
784.557	25142.63
784.89	25216.07
785.224	25080.71
785.557	24958
785.891	25015.63
786.224	24936.31
786.558	24971.11
786.891	24775.86
787.224	24834.84
787.557	24714.39
787.891	24673.26
788.224	24615.64
788.557	24628.29
788.89	24585.58
789.223	24556.2
789.556	24203.45
789.888	24330.22
790.221	24234.86
790.554	24086.84
790.887	24067.18
791.219	23964.58
791.552	23944.7
791.884	23858.6
792.217	23602.11
792.549	23515.33
792.882	23354.88
793.214	23377.03
793.546	23411.83
793.879	23232.62
794.211	23088.67
794.543	23259.52
794.875	23044.61
795.207	23027.88
795.539	22849.81
795.871	22792.64
796.203	22582.7
796.535	22293.67
796.867	22371.18
797.198	22335.02
797.53	22292.99
797.862	22104.52
798.193	22255.47
798.525	22059.32
798.856	22018.87
799.188	21857.97
799.519	21886.22
799.85	21768.26
800.182	21626.56
800.513	21736.62
800.844	21528.26
801.175	21731.42
801.506	21701.82
801.837	21489.84
802.168	21512.44
802.499	21454.37
802.83	21238.78
803.161	21303.41
803.491	21300.47
803.822	21272.22
804.153	21177.76
804.483	21084.43
804.814	21016.86
805.145	21031.55
805.475	21004.43
805.805	20822.29
806.136	20902.06
806.466	20907.04
806.796	20821.84
807.126	20755.17
807.457	20721.96
807.787	20681.28
808.117	20681.73
808.447	20510.44
808.777	20559.7
809.107	20557.44
809.436	20349.76
809.766	20387.27
810.096	20150.9
810.426	20257.56
810.755	20273.83
811.085	20013.27
811.414	20079.26
811.744	19887.63
812.073	19924.24
812.403	19800.62
812.732	19691.02
813.061	19664.13
813.39	19516.79
813.719	19487.41
814.049	19660.74
814.378	19423.46
814.707	19359.51
815.036	19354.31
815.365	19153.86
815.693	19044.71
816.022	19065.5
816.351	18924.94
816.68	18903.92
817.008	19047.2
817.337	18738.5
817.665	18915
817.994	18863.92
818.322	18706.87
818.651	18643.14
818.979	18588.9
819.307	18693.99
819.636	18590.71
819.964	18507.78
820.292	18564.05
820.62	18476.59
820.948	18527.44
821.276	18662.57
821.604	18477.27
821.932	18638.39
822.259	18680.43
822.587	18556.81
822.915	18544.16
823.243	18598.17
823.57	18547.32
823.898	18567.66
824.225	18558.17
824.553	18588.45
824.88	18749.8
825.207	18771.05
825.535	18733.31
825.862	18717.26
826.189	18607.89
826.516	18735.79
826.843	18761.78
827.17	18738.05
827.497	18687.88
827.824	18760.65
828.151	18886.75
828.478	18786.64
828.805	18846.98
829.131	18795
829.458	18654.44
829.785	18630.26
830.111	18592.07
830.438	18655.57
830.764	18679.07
831.09	18552.52
831.417	18559.53
831.743	18515.46
832.069	18561.56
832.395	18462.13
832.722	18500.32
833.048	18457.16
833.374	18433.2
833.7	18222.36
834.026	18213.77
834.351	18340.1
834.677	18226.2
835.003	18314.56
835.329	18079.76
835.654	18243.6
835.98	18117.73
836.306	18083.38
836.631	17957.96
836.956	17985.08
837.282	18062.59
837.607	17944.85
837.932	17979.43
838.258	17868.92
838.583	17924.97
838.908	17774.24
839.233	17754.8
839.558	17807
839.883	17700.79
840.208	17693.33
840.533	17702.37
840.858	17713.22
841.182	17788.47
841.507	17784.18
841.832	17628.03
842.156	17663.96
842.481	17622.83
842.805	17543.06
843.13	17598.65
843.454	17465.54
843.778	17529.27
844.103	17379.44
844.427	17442.95
844.751	17474.13
845.075	17377.18
845.399	17451.31
845.723	17401.36
846.047	17376.96
846.371	17162.95
846.695	17190.3
847.019	17026.91
847.343	16983.3
847.666	16806.8
847.99	16819.01
848.313	16760.25
848.637	16644.77
848.96	16609.29
849.284	16640.93
849.607	16443.2
849.931	16442.75
850.254	16229.19
850.577	16180.61
850.9	16143.77
851.223	16086.6
851.546	15996.66
851.869	15861.97
852.192	15862.87
852.515	15775.42
852.838	15685.25
853.161	15623.56
853.483	15541.98
853.806	15475.54
854.129	15385.37
854.451	15360.51
854.774	15276.9
855.096	15178.15
855.419	15231.25
855.741	15134.98
856.063	15005.04
856.385	14859.51
856.708	14892.5
857.03	14842.56
857.352	14924.59
857.674	14806.63
857.996	14781.55
858.318	14671.72
858.64	14731.6
858.961	14694.32
859.283	14663.81
859.605	14608.9
859.926	14564.83
860.248	14589.46
860.57	14490.48
860.891	14589.24
861.212	14572.96
861.534	14489.58
861.855	14433.53
862.176	14384.27
862.498	14445.51
862.819	14384.49
863.14	14388.11
863.461	14347.21
863.782	14243.71
864.103	14363.03
864.424	14335.23
864.745	14450.93
865.065	14328.45
865.386	14281.67
865.707	14250.26
866.027	14424.72
866.348	14207.1
866.668	14146.99
866.989	14230.15
867.309	14140.66
867.63	14149.47
867.95	14156.25
868.27	14019.08
868.59	14027.89
868.91	14116.71
869.23	14090.49
869.55	13933.21
869.87	13987.44
870.19	13888.91
870.51	13932.76
870.83	13888.01
871.15	13835.13
871.469	13875.81
871.789	13831.97
872.109	13763.27
872.428	13646.66
872.748	13711.07
873.067	13674.91
873.386	13616.15
873.706	13652.08
874.025	13459.1
874.344	13479.21
874.663	13520.56
874.982	13410.28
875.301	13455.71
875.62	13269.5
875.939	13171.65
876.258	13388.81
876.577	13204.64
876.896	13248.25
877.214	13217.07
877.533	13185.43
877.852	13154.24
878.17	13183.62
878.489	13068.37
878.807	13048.03
879.125	13021.82
879.444	13054.81
879.762	13024.3
880.08	13017.52
880.398	12883.74
880.716	12940.24
881.034	12937.98
881.352	12872.22
881.67	12871.31
881.988	12851.43
882.306	12850.52
882.624	12805.55
882.941	12809.85
883.259	12762.84
883.577	12760.81
883.894	12721.94
884.212	12733.46
884.529	12731.43
884.846	12707.7
885.164	12726.23
885.481	12657.53
885.798	12744.76
886.115	12657.99
886.432	12689.17
886.75	12615.28
887.067	12616.18
887.383	12617.99
887.7	12624.99
888.017	12491.66
888.334	12524.43
888.651	12451.21
888.967	12453.47
889.284	12512.45
889.6	12366.24
889.917	12318.11
890.233	12331.67
890.55	12276.98
890.866	12246.02
891.182	12207.83
891.498	12160.37
891.815	12169.19
892.131	12103.88
892.447	12039.02
892.763	11906.37
893.079	11946.59
893.395	11818.23
893.71	11857.78
894.026	11810.78
894.342	11742.08
894.657	11691.46
894.973	11680.61
895.289	11592.25
895.604	11578.47
895.92	11400.39
896.235	11456.89
896.55	11479.26
896.865	11415.31
897.181	11293.5
897.496	11270.68
897.811	11196.1
898.126	11171.02
898.441	11159.72
898.756	11118.59
899.071	11019.61
899.386	11081.76
899.7	11042.89
900.015	10970.35
900.33	10851.71
900.644	10797.47
900.959	10852.16
901.273	10848.99
901.588	10715.44
901.902	10618.72
902.216	10703.91
902.531	10657.59
902.845	10584.37
903.159	10520.42
903.473	10482.9
903.787	10452.39
904.101	10402
904.415	10407.42
904.729	10357.03
905.042	10327.65
905.356	10346.86
905.67	10292.17
905.984	10331.27
906.297	10241.1
906.611	10215.34
906.924	10190.25
907.237	10166.75
907.551	10164.94
907.864	10051.73
908.177	10101.67
908.491	10097.38
908.804	10057.15
909.117	10063.25
909.43	9929.92
909.743	9885.18
910.056	9901.9
910.368	9851.51
910.681	9807.44
910.994	9788.46
911.307	9753.66
911.619	9720.21
911.932	9705.07
912.244	9664.17
912.557	9651.29
912.869	9504.62
913.181	9478.86
913.494	9517.28
913.806	9418.3
914.118	9390.5
914.43	9329.94
914.742	9351.18
915.054	9280.9
915.366	9283.39
915.678	9180.56
915.99	9144.86
916.302	9089.49
916.613	9086.78
916.925	9056.73
917.236	8996.84
917.548	8940.57
917.859	8872.78
918.171	8851.76
918.482	8735.83
918.794	8748.26
919.105	8719.56
919.416	8585.55
919.727	8597.3
920.038	8554.14
920.349	8544.42
920.66	8468.27
920.971	8479.34
921.282	8420.58
921.593	8438.66
921.903	8313.47
922.214	8297.42
922.525	8277.76
922.835	8240.93
923.146	8197.54
923.456	8122.74
923.767	8068.73
924.077	8112.12
924.387	8087.49
924.697	8043.42
925.008	7987.83
925.318	7964.32
925.628	7922.07
925.938	7918.45
926.248	7819.92
926.558	7795.29
926.867	7719.81
927.177	7743.77
927.487	7738.12
927.796	7678.91
928.106	7638.01
928.416	7626.48
928.725	7593.71
929.034	7564.56
929.344	7588.29
929.653	7498.12
929.962	7523.21
930.271	7465.81
930.581	7433.72
930.89	7427.84
931.199	7338.35
931.508	7470.33
931.817	7361.85
932.125	7402.31
932.434	7292.03
932.743	7259.48
933.051	7244.57
933.36	7239.6
933.669	7251.8
933.977	7130.22
934.286	7133.84
934.594	7133.39
934.902	7036.89
935.21	7068.53
935.519	7103.1
935.827	7055.2
936.135	6980.17
936.443	6936.78
936.751	6914.63
937.059	6895.43
937.367	6884.35
937.674	6880.51
937.982	6844.81
938.29	6773.4
938.597	6785.15
938.905	6659.27
939.213	6652.04
939.52	6606.39
939.827	6644.59
940.135	6560.52
940.442	6515.78
940.749	6464.25
941.056	6486.4
941.363	6422.67
941.67	6376.8
941.977	6330.24
942.284	6327.31
942.591	6309.9
942.898	6261.09
943.205	6255.44
943.511	6192.17
943.818	6157.14
944.125	6092.28
944.431	6156.24
944.738	6081.44
945.044	6064.94
945.35	6008.67
945.657	5964.6
945.963	5990.37
946.269	5936.13
946.575	5944.72
946.881	5918.95
947.187	5882.8
947.493	5862.68
947.799	5806.64
948.105	5748.79
948.41	5748.56
948.716	5777.04
949.022	5681.45
949.327	5716.25
949.633	5644.84
949.938	5639.41
950.244	5635.57
950.549	5571.62
950.854	5536.82
951.16	5513.99
951.465	5499.98
951.77	5474.22
952.075	5407.78
952.38	5443.94
952.685	5499.76
952.99	5481.45
953.294	5392.19
953.599	5417.95
953.904	5390.83
954.209	5294.34
954.513	5329.14
954.818	5337.27
955.122	5301.57
955.426	5247.79
955.731	5260.67
956.035	5274.45
956.339	5259.99
956.643	5237.16
956.948	5229.26
957.252	5187.45
957.556	5160.33
957.86	5122.82
958.163	5163.72
958.467	5129.82
958.771	5041.46
959.075	5072.65
959.378	5040.79
959.682	4994.01
959.985	4976.15
960.289	4967.34
960.592	4937.29
960.896	4924.18
961.199	4885.76
961.502	4916.5
961.805	4870.62
962.108	4844.41
962.411	4829.72
962.714	4822.26
963.017	4817.74
963.32	4828.59
963.623	4742.71
963.926	4705.88
964.228	4647.35
964.531	4709.04
964.833	4684.18
965.136	4649.84
965.438	4641.02
965.741	4605.54
966.043	4594.92
966.345	4570.97
966.648	4551.31
966.95	4518.31
967.252	4473.57
967.554	4415.04
967.856	4460.91
968.158	4398.32
968.46	4395.38
968.761	4353.35
969.063	4343.63
969.365	4311.09
969.666	4307.92
969.968	4253.46
970.269	4196.74
970.571	4186.57
970.872	4205.33
971.174	4191.54
971.475	4213.46
971.776	4140.92
972.077	4112.9
972.378	4136.18
972.679	4089.85
972.98	4070.64
973.281	4047.14
973.582	4010.76
973.883	4004.43
974.183	3975.05
974.484	3967.59
974.785	3921.27
975.085	3912.68
975.386	3952.68
975.686	3930.98
975.986	3902.74
976.287	3925.33
976.587	3872.91
976.887	3839.69
977.187	3823.64
977.487	3823.19
977.787	3757.2
978.087	3769.41
978.387	3733.25
978.687	3782.29
978.987	3762.85
979.286	3739.8
979.586	3665.91
979.885	3701.84
980.185	3641.73
980.484	3672.69
980.784	3650.99
981.083	3649.18
981.382	3611.9
981.682	3623.2
981.981	3598.79
982.28	3564.67
982.579	3549.07
982.878	3585
983.177	3534.38
983.475	3564.67
983.774	3522.41
984.073	3516.08
984.372	3495.97
984.67	3484.44
984.969	3518.34
985.267	3499.58
985.566	3443.54
985.864	3470.66
986.162	3439.02
986.461	3423.88
986.759	3424.33
987.057	3400.83
987.355	3395.63
987.653	3351.79
987.951	3337.78
988.249	3295.75
988.547	3336.88
988.844	3259.59
989.142	3291.9
989.44	3258.69
989.737	3199.7
990.035	3202.19
990.332	3214.39
990.63	3190.89
990.927	3183.89
991.224	3154.51
991.521	3105.24
991.819	3131.01
992.116	3071.12
992.413	3045.81
992.71	3069.09
993.006	3056.66
993.303	2993.38
993.6	3017.34
993.897	3016.88
994.193	2952.7
994.49	2998.35
994.787	2962.87
995.083	2901.41
995.379	2928.07
995.676	2908.41
995.972	2876.1
996.268	2879.03
996.565	2842.43
996.861	2846.72
997.157	2850.11
997.453	2801.3
997.749	2762.88
998.044	2762.88
998.34	2730.11
998.636	2757.46
998.932	2725.37
999.227	2740.96
999.523	2716.55
999.818	2697.57
1000.114	2715.87
1000.409	2641.07
1000.704	2646.95
1001	2614.86
1001.295	2624.58
1001.59	2592.49
1001.885	2576.67
1002.18	2574.86
1002.475	2573.28
1002.77	2545.03
1003.065	2546.16
1003.359	2515.88
1003.654	2510.91
1003.949	2476.11
1004.243	2499.38
1004.538	2477.46
1004.832	2428.88
1005.127	2472.04
1005.421	2444.92
1005.715	2411.93
1006.009	2420.74
1006.304	2409.44
1006.598	2371.03
1006.892	2370.35
1007.186	2373.51
1007.48	2321.31
1007.773	2355.21
1008.067	2319.05
1008.361	2298.26
1008.655	2272.27
1008.948	2300.07
1009.242	2295.77
1009.535	2242.22
1009.829	2240.18
1010.122	2223.68
1010.415	2234.31
1010.708	2214.65
1011.001	2209.9
1011.295	2187.98
1011.588	2175.78
1011.881	2180.52
1012.173	2156.34
1012.466	2135.1
1012.759	2127.42
1013.052	2137.81
1013.344	2122.9
1013.637	2074.08
1013.93	2067.08
1014.222	2063.69
1014.514	2075.89
1014.807	2049
1015.099	2064.59
1015.391	2028.66
1015.683	1987.76
1015.976	2003.58
1016.268	1978.27
1016.56	1943.92
1016.851	1962
1017.143	1955.67
1017.435	1950.25
1017.727	1932.17
1018.018	1908.89
1018.31	1911.15
1018.602	1884.03
1018.893	1891.26
1019.185	1880.19
1019.476	1856.01
1019.767	1855.56
1020.058	1829.34
1020.35	1802.45
1020.641	1800.87
1020.932	1791.83
1021.223	1810.36
1021.514	1790.48
1021.804	1725.17
1022.095	1762.68
1022.386	1762.45
1022.677	1736.47
1022.967	1708.22
1023.258	1695.56
1023.548	1686.98
1023.839	1677.94
1024.129	1657.6
1024.419	1636.13
1024.709	1607.2
1025	1605.4
1025.29	1634.55
1025.58	1574.21
1025.87	1606.07
1026.16	1551.84
1026.449	1588.22
1026.739	1564.27
1027.029	1554.55
1027.319	1534.66
1027.608	1520.43
1027.898	1491.73
1028.187	1505.96
1028.477	1491.05
1028.766	1490.82
1029.055	1459.64
1029.344	1458.05
1029.634	1451.95
1029.923	1418.73
1030.212	1410.37
1030.501	1414.44
1030.79	1391.62
1031.078	1408.34
1031.367	1371.28
1031.656	1370.37
1031.945	1349.36
1032.233	1361.79
1032.522	1360.66
1032.81	1328.11
1033.099	1345.97
1033.387	1336.25
1033.675	1328.34
1033.963	1320.43
1034.251	1320.43
1034.54	1267.78
1034.828	1309.13
1035.116	1265.29
1035.403	1297.61
1035.691	1269.36
1035.979	1253.99
1036.267	1243.82
1036.554	1241.11
1036.842	1220.1
1037.129	1213.77
1037.417	1215.8
1037.704	1227.55
1037.992	1226.42
1038.279	1210.83
1038.566	1155.01
1038.853	1155.01
1039.14	1155.01
