Data from blue_shiny_book_FLMS001491_00013.txt Node
Date: Wed Feb 08 15:26:36 GMT 2017
User: dcchb
Spectrometer: FLMS00149
Trigger mode: 0
Integration Time (sec): 2.000000E-2
Scans to average: 10
Electric dark correction enabled: true
Nonlinearity correction enabled: false
Boxcar width: 0
XAxis mode: Wavelengths
Number of Pixels in Spectrum: 2048
>>>>>Begin Spectral Data<<<<<
341.393	-49.02
341.776	-49.02
342.16	-49.02
342.543	-67.78
342.927	-62.81
343.31	-84.05
343.693	-56.93
344.077	-52.64
344.46	-50.83
344.843	-43.6
345.226	-45.18
345.61	-31.85
345.993	-20.1
346.376	-22.13
346.759	15.83
347.142	28.94
347.525	50.63
347.908	46.11
348.291	78.2
348.674	72.1
349.057	115.49
349.44	99.22
349.823	131.76
350.206	176.51
350.588	183.29
350.971	234.58
351.354	236.62
351.737	254.24
352.119	253.79
352.502	264.87
352.884	286.56
353.267	280.23
353.65	305.99
354.032	326.11
354.414	315.71
354.797	340.12
355.179	340.34
355.562	343.96
355.944	344.64
356.326	340.57
356.709	348.71
357.091	343.51
357.473	347.58
357.855	368.37
358.238	380.8
358.62	361.36
359.002	366.78
359.384	354.36
359.766	347.35
360.148	361.81
360.53	343.06
360.912	336.28
361.294	357.97
361.676	355.26
362.057	355.03
362.439	357.97
362.821	323.62
363.203	336.28
363.584	364.75
363.966	343.96
364.348	345.54
364.729	345.77
365.111	357.97
365.493	346.67
365.874	362.94
366.256	348.48
366.637	348.03
367.019	348.48
367.4	345.32
367.781	351.64
368.163	370.85
368.544	360.91
368.925	356.84
369.306	343.06
369.688	359.33
370.069	346.9
370.45	324.53
370.831	343.73
371.212	334.24
371.593	362.04
371.974	356.39
372.355	345.54
372.736	356.16
373.117	345.54
373.498	360.46
373.879	376.95
374.26	378.54
374.641	354.58
375.021	347.35
375.402	356.84
375.783	381.25
376.163	406.11
376.544	404.98
376.925	401.36
377.305	400
377.686	382.83
378.066	395.94
378.447	386.22
378.827	395.26
379.208	410.85
379.588	381.25
379.968	412.88
380.349	419.66
380.729	410.62
381.109	430.06
381.489	417.86
381.87	435.48
382.25	434.58
382.63	410.17
383.01	430.96
383.39	437.06
383.77	437.74
384.15	458.08
384.53	436.84
384.91	420.34
385.29	454.69
385.67	468.25
386.049	474.35
386.429	459.44
386.809	467.35
387.189	486.33
387.568	482.04
387.948	495.59
388.328	486.56
388.707	498.53
389.087	503.28
389.466	496.95
389.846	504.63
390.225	523.16
390.605	518.64
390.984	538.08
391.363	536.72
391.743	546.89
392.122	552.09
392.501	550.73
392.881	560.45
393.26	575.82
393.639	571.75
394.018	571.75
394.397	578.08
394.776	561.81
395.155	584.63
395.534	588.02
395.913	595.93
396.292	607.91
396.671	589.38
397.05	612.43
397.429	613.11
397.808	636.16
398.186	611.98
398.565	627.12
398.944	634.35
399.323	660.56
399.701	681.8
400.08	676.15
400.458	665.99
400.837	694.01
401.215	694.01
401.594	715.02
401.972	701.92
402.351	727.45
402.729	731.07
403.107	722.48
403.486	736.27
403.864	745.08
404.242	743.05
404.62	760.22
404.999	770.39
405.377	783.72
405.755	776.49
406.133	794.57
406.511	811.07
406.889	823.72
407.267	822.82
407.645	829.37
408.023	852.65
408.401	862.36
408.779	882.93
409.156	876.15
409.534	908.46
409.912	911.63
410.29	969.48
410.667	952.98
411.045	991.63
411.422	972.19
411.8	1011.06
412.178	981.46
412.555	999.31
412.933	1040.21
413.31	1052.87
413.687	1084.05
414.065	1100.78
414.442	1110.04
414.819	1101.45
415.197	1141.23
415.574	1152.53
415.951	1154.79
416.328	1156.82
416.705	1182.81
417.082	1196.82
417.46	1194.78
417.837	1227.33
418.214	1256.03
418.591	1222.13
418.967	1250.6
419.344	1274.33
419.721	1305.52
420.098	1320.21
420.475	1335.57
420.852	1310.49
421.228	1354.55
421.605	1363.82
421.982	1350.04
422.358	1409.02
422.735	1449.92
423.111	1414.67
423.488	1448.56
423.864	1479.52
424.241	1495.34
424.617	1490.6
424.994	1521.56
425.37	1533.31
425.746	1553.65
426.123	1569.69
426.499	1592.97
426.875	1591.38
427.251	1679.07
427.627	1689.46
428.003	1740.08
428.379	1713.64
428.756	1750.02
429.132	1743.92
429.507	1773.75
429.883	1826.86
430.259	1865.28
430.635	1852.17
431.011	1874.32
431.387	1926.97
431.763	1956.57
432.138	1985.5
432.514	2025.72
432.89	2044.93
433.265	2088.77
433.641	2100.52
434.016	2128.77
434.392	2179.84
434.767	2192.72
435.143	2189.34
435.518	2232.95
435.894	2266.62
436.269	2310.24
436.644	2329.44
437.02	2390.69
437.395	2379.61
437.77	2435.43
438.145	2450.8
438.52	2490.8
438.895	2545.94
439.271	2497.8
439.646	2588.42
440.021	2628.87
440.395	2651.92
440.77	2611.47
441.145	2637.68
441.52	2733.5
441.895	2716.78
442.27	2749.32
442.645	2759.72
443.019	2856.21
443.394	2804.69
443.769	2847.85
444.143	2831.13
444.518	2885.36
444.892	2868.19
445.267	2876.32
445.641	2928.75
446.016	2917.9
446.39	2998.13
446.764	3027.51
447.139	3053.95
447.513	3131.01
447.887	3100.27
448.262	3161.06
448.636	3136.88
449.01	3189.31
449.384	3228.4
449.758	3229.76
450.132	3296.88
450.506	3296.88
450.88	3295.07
451.254	3321.51
451.628	3401.51
452.002	3413.94
452.376	3500.04
452.75	3492.8
453.123	3537.32
453.497	3644.44
453.871	3649.41
454.244	3756.07
454.618	3751.33
454.992	3765.34
455.365	3822.51
455.739	3874.94
456.112	3917.43
456.486	3974.82
456.859	4008.72
457.232	4125.33
457.606	4099.57
457.979	4172.56
458.352	4301.14
458.725	4323.06
459.099	4374.59
459.472	4514.25
459.845	4506.11
460.218	4536.17
460.591	4566.45
460.964	4653.23
461.337	4720.12
461.71	4752.88
462.083	4850.96
462.456	4899.09
462.829	4959.43
463.201	5039.43
463.574	5054.57
463.947	5183.61
464.32	5291.63
464.692	5299.54
465.065	5365.52
465.438	5468.12
465.81	5490.27
466.183	5606.65
466.555	5678.73
466.928	5727.77
467.3	5743.37
467.672	5802.8
468.045	5980.2
468.417	6004.38
468.789	6031.04
469.161	6181.09
469.534	6313.29
469.906	6444.59
470.278	6440.97
470.65	6555.1
471.022	6683
471.394	6773.85
471.766	6866.5
472.138	6891.81
472.51	7076.21
472.882	7233.95
473.253	7274.85
473.625	7452.47
473.997	7620.38
474.369	7730.43
474.74	7777.21
475.112	7878.68
475.484	8097.88
475.855	8211.32
476.227	8215.39
476.598	8483.41
476.97	8536.06
477.341	8725.21
477.713	8839.1
478.084	8928.37
478.455	9166.1
478.827	9301.69
479.198	9577.16
479.569	9623.72
479.94	9877.49
480.311	10010.37
480.682	10238.61
481.053	10475.9
481.424	10639.28
481.795	10649.23
482.166	10895.32
482.537	10999.27
482.908	11265.71
483.279	11371.47
483.65	11570.11
484.021	11827.05
484.391	11951.11
484.762	12078.57
485.133	12199.47
485.503	12462.74
485.874	12726.69
486.244	12817.98
486.615	13168.48
486.985	13378.19
487.356	13527.34
487.726	13585.65
488.097	14008.91
488.467	13915.13
488.837	14363.03
489.207	14356.92
489.578	14675.79
489.948	14774.31
490.318	15048.88
490.688	15151.71
491.058	15361.19
491.428	15610.9
491.798	15761.18
492.168	16178.35
492.538	16189.42
492.908	16368.17
493.278	16667.37
493.648	16655.62
494.017	16930.87
494.387	16998.89
494.757	17184.65
495.126	17380.35
495.496	17478.88
495.866	17613.34
496.235	17843.16
496.605	17972.2
496.974	18085.64
497.344	18347.33
497.713	18437.72
498.082	18672.74
498.452	18867.09
498.821	19051.04
499.19	19101.88
499.559	19258.26
499.928	19364.02
500.298	19502.1
500.667	19629.55
501.036	19689.67
501.405	19941.41
501.774	19970.11
502.143	20191.8
502.512	20201.06
502.88	20532.36
503.249	20537.78
503.618	20698.9
503.987	20860.93
504.356	21045.11
504.724	21171.89
505.093	21310.41
505.462	21497.3
505.83	21732.55
506.199	21803.96
506.567	22089.15
506.936	22062.03
507.304	22187.91
507.672	22273.78
508.041	22512.87
508.409	22498.86
508.777	22720.77
509.145	22878.51
509.514	22993.53
509.882	23230.14
510.25	23180.65
510.618	23492.28
510.986	23702.67
511.354	23971.81
511.722	24306.27
512.09	24405.47
512.458	24407.51
512.826	24706.71
513.193	24794.84
513.561	24892.47
513.929	25054.72
514.297	25151.22
514.664	25308.73
515.032	25417.42
515.4	25618.32
515.767	25697.87
516.135	25887.7
516.502	25922.27
516.869	26484.97
517.237	26527.9
517.604	26466.66
517.972	27014.67
518.339	27189.81
518.706	27280.65
519.073	27503.92
519.44	27768.32
519.808	28115.66
520.175	28073.63
520.542	28483.11
520.909	28502.99
521.276	28562.43
521.643	28639.04
522.009	28776.88
522.376	29126.48
522.743	29232.01
523.11	29533.25
523.477	29692.34
523.843	29919.91
524.21	30398.31
524.577	30582.26
524.943	30846.21
525.31	31019.31
525.676	31403.48
526.043	31608.9
526.409	31917.37
526.776	32206.85
527.142	32343.57
527.508	32643
527.874	32704.69
528.241	32908.98
528.607	32911.24
528.973	33082.31
529.339	33013.84
529.705	33376.09
530.071	33559.13
530.437	33642.75
530.803	33961.83
531.169	34222.39
531.535	34362.27
531.901	34471.65
532.267	34829.15
532.632	35185.76
532.998	35490.15
533.364	35718.17
533.73	35789.58
534.095	36147.76
534.461	36150.25
534.826	36378.72
535.192	36433.41
535.557	36544.14
535.923	36526.96
536.288	36546.17
536.653	36589.33
537.019	36548.66
537.384	36698.48
537.749	36866.39
538.114	37069.1
538.479	37135.31
538.845	37342.99
539.21	37412.82
539.575	37750.21
539.94	37898
540.305	38314.03
540.67	38241.49
541.034	38631.31
541.399	38830.41
541.764	38841.25
542.129	38926.67
542.494	39226.33
542.858	39280.79
543.223	39148.14
543.587	39278.98
543.952	39162.15
544.316	39260.9
544.681	39202.37
545.045	39285.08
545.41	39492.08
545.774	39500.67
546.138	39589.03
546.503	39738.63
546.867	39830.38
547.231	40208.22
547.595	40247.09
547.959	40564.15
548.324	40675.78
548.688	40855.66
549.052	41273.51
549.416	41265.82
549.779	41384.91
550.143	41416.78
550.507	41660.16
550.871	41695.64
551.235	41547.62
551.599	41701.06
551.962	41717.79
552.326	41829.42
552.689	41686.15
553.053	41708.52
553.417	41894.05
553.78	42258.56
554.143	42104.67
554.507	42287.26
554.87	42505.11
555.234	42884.99
555.597	42726.35
555.96	43172.66
556.323	43381.47
556.686	43561.81
557.05	43819.43
557.413	44059.42
557.776	44236.82
558.139	44517.49
558.502	44437.26
558.865	44601.33
559.228	44696.24
559.59	44783.47
559.953	44752.96
560.316	44930.36
560.679	44884.48
561.041	44976.01
561.404	45138.04
561.767	45349.33
562.129	45100.3
562.492	45614.86
562.854	45695.99
563.217	45589.32
563.579	45994.74
563.941	46247.61
564.304	46472.46
564.666	46787.48
565.028	46944.99
565.39	47180.92
565.753	47511.08
566.115	47672.88
566.477	47737.29
566.839	47864.07
567.201	48092.31
567.563	48027.9
567.925	48236.49
568.287	48325.75
568.648	48125.3
569.01	48273.1
569.372	48295.24
569.734	48124.4
570.095	48249.37
570.457	48404.39
570.819	48465.41
571.18	48511.96
571.542	48698.39
571.903	48781.56
572.265	49137.93
572.626	49348.55
572.987	49399.62
573.349	49757.35
573.71	49920.28
574.071	50126.15
574.432	50249.31
574.794	50479.36
575.155	50395.75
575.516	50223.55
575.877	50492.02
576.238	50513.04
576.599	50630.55
576.96	50529.53
577.32	50552.36
577.681	50689.98
578.042	50629.19
578.403	50585.8
578.763	50499.93
579.124	50670.09
579.485	50684.33
579.845	50852.01
580.206	50697.21
580.566	50764.33
580.927	50747.61
581.287	50965.45
581.648	51019.01
582.008	51256.52
582.368	51345.56
582.728	51468.27
583.089	51492.45
583.449	51479.56
583.809	51694.7
584.169	51677.75
584.529	51603.18
584.889	51915.71
585.249	51676.62
585.609	51466.23
585.969	51740.12
586.329	51534.25
586.688	51548.04
587.048	51483.41
587.408	51333.58
587.768	51324.99
588.127	51222.85
588.487	51230.08
588.846	51437.53
589.206	51181.04
589.565	51291.32
589.925	51328.61
590.284	51326.35
590.643	51444.31
591.003	51493.12
591.362	51615.38
591.721	51653.57
592.08	51792.32
592.44	51795.26
592.799	51866.45
593.158	51906.9
593.517	51854.7
593.876	52046.56
594.235	51975.37
594.593	52068.02
594.952	52047.69
595.311	51883.17
595.67	51937.63
596.029	52068.25
596.387	51937.86
596.746	51921.13
597.104	51805.21
597.463	51690.86
597.822	51866.9
598.18	51749.16
598.538	51766.79
598.897	51866
599.255	51609.96
599.613	52064.41
599.972	51771.53
600.33	51995.26
600.688	51959.55
601.046	52160.9
601.404	52284.74
601.762	52216.04
602.12	52512.98
602.478	52527.22
602.836	52597.5
603.194	52486.09
603.552	52649.03
603.91	52432.99
604.268	52674.11
604.625	52522.02
604.983	52595.47
605.341	52359.32
605.698	52507.79
606.056	52522.7
606.413	52518.18
606.771	52618.97
607.128	52442.7
607.485	52331.29
607.843	52415.13
608.2	52644.96
608.557	52736.93
608.914	52447.45
609.272	52682.47
609.629	52652.19
609.986	52776.25
610.343	52646.77
610.7	52842.69
611.057	52895.8
611.414	52906.19
611.771	52964.72
612.127	53169.46
612.484	53218.73
612.841	53263.7
613.198	53270.93
613.554	53397.93
613.911	53399.06
614.267	53391.15
614.624	53477.25
614.98	53528.78
615.337	53600.41
615.693	53481.32
616.05	53418.72
616.406	53618.04
616.762	53443.13
617.118	53394.99
617.475	53328.78
617.831	53399.29
618.187	53455.56
618.543	53397.93
618.899	53520.87
619.255	53476.35
619.611	53406.75
619.967	53595.89
620.323	53564.26
620.678	53460.76
621.034	53475.22
621.39	53544.82
621.746	53451.72
622.101	53758.37
622.457	53700.75
622.812	53776.91
623.168	53838.37
623.523	53832.95
623.879	53960.63
624.234	53793.63
624.589	53930.8
624.945	54021.64
625.3	54080.63
625.655	53953.62
626.01	54132.15
626.365	53912.04
626.72	53970.35
627.075	53862.33
627.43	53860.29
627.785	53711.37
628.14	53736.45
628.495	53651.48
628.85	53588.89
629.205	53503.47
629.559	53664.37
629.914	53541.21
630.269	53459.17
630.623	53340.53
630.978	53397.71
631.332	53457.14
631.687	53545.72
632.041	53519.28
632.396	53482.9
632.75	53468.21
633.104	53465.95
633.459	53425.5
633.813	53456.69
634.167	53493.07
634.521	53435.67
634.875	53372.85
635.229	53405.62
635.583	53350.7
635.937	53462.11
636.291	53431.6
636.645	53396.35
636.999	53326.52
637.352	53390.7
637.706	53250.59
638.06	53318.16
638.413	53165.17
638.767	53065.74
639.121	53102.35
639.474	52768.57
639.828	52751.4
640.181	52775.35
640.534	52662.13
640.888	52535.81
641.241	52378.07
641.594	52468.69
641.947	52433.66
642.301	52430.73
642.654	52525.19
643.007	52396.83
643.36	52431.4
643.713	52372.87
644.066	52448.35
644.419	52210.84
644.771	52344.17
645.124	52154.57
645.477	52240
645.83	52060.11
646.182	51786
646.535	51519.79
646.888	51567.47
647.24	51304.43
647.593	51512.33
647.945	51380.36
648.298	51299.91
648.65	51067.82
649.002	51218.78
649.355	51237.76
649.707	51263.52
650.059	51440.92
650.411	51794.58
650.763	51924.98
651.115	52086.78
651.467	51802.27
651.819	51720.01
652.171	51642.72
652.523	51591.43
652.875	51527.92
653.227	51428.27
653.578	51665.55
653.93	51614.93
654.282	51341.49
654.633	51178.56
654.985	51235.73
655.337	51352.34
655.688	51399.57
656.039	51473.69
656.391	51151.21
656.742	51396.63
657.094	51330.19
657.445	51654.48
657.796	51693.12
658.147	51716.85
658.498	51602.73
658.849	51720.46
659.2	51582.61
659.551	51574.25
659.902	51770.4
660.253	51620.8
660.604	51786.9
660.955	51495.61
661.306	51693.34
661.656	51569.28
662.007	51475.04
662.358	51471.2
662.708	51358.89
663.059	51364.31
663.409	51030.31
663.76	51329.29
664.11	51155.96
664.461	51109.63
664.811	50969.07
665.161	50852.46
665.511	50939.47
665.862	50904.89
666.212	50940.14
666.562	50960.03
666.912	50969.3
667.262	50835.97
667.612	50899.01
667.962	51049.97
668.312	50998.9
668.662	51160.93
669.011	51044.55
669.361	51096.52
669.711	51134.94
670.06	51063.08
670.41	51116.41
670.76	51156.41
671.109	51216.75
671.459	51119.12
671.808	51067.82
672.157	51217.2
672.507	51018.11
672.856	51074.38
673.205	51072.12
673.554	51139.69
673.904	50965.68
674.253	51148.5
674.602	50938.34
674.951	50369.31
675.3	50109.21
675.649	50546.48
675.998	50372.93
676.346	50351.68
676.695	50273.27
677.044	50117.79
677.393	50168.19
677.741	50050.45
678.09	49995.76
678.438	49741.08
678.787	49901.3
679.135	49847.52
679.484	49633.29
679.832	49806.39
680.181	49689.1
680.529	49829.66
680.877	49692.94
681.225	49682.55
681.573	49939.49
681.922	49846.16
682.27	49819.27
682.618	49913.28
682.966	49881.19
683.314	49902.2
683.661	49670.8
684.009	49740.18
684.357	49623.12
684.705	49643.91
685.053	49744.47
685.4	49726.39
685.748	49536.11
686.095	49431.71
686.443	49346.74
686.79	49210.25
687.138	49217.7
687.485	49151.94
687.832	48885.96
688.18	48932.51
688.527	48557.61
688.874	48417.72
689.221	48431.96
689.568	48174.34
689.915	48044.85
690.262	47803.28
690.609	47747.46
690.956	47535.94
691.303	47535.94
691.65	47318.32
691.997	47273.35
692.344	46889.63
692.69	46905.45
693.037	46908.61
693.383	46587.26
693.73	46841.95
694.077	46699.13
694.423	46783.19
694.769	46575.96
695.116	46634.49
695.462	46554.72
695.808	46555.85
696.155	46770.54
696.501	46484.89
696.847	46531.22
697.193	46333.94
697.539	46263.88
697.885	46164.45
698.231	46128.97
698.577	46024.79
698.923	46090.1
699.269	45798.58
699.614	45492.83
699.96	45320.18
700.306	45440.18
700.651	45228.88
700.997	44921.09
701.342	44619.41
701.688	44493.76
702.033	44369.47
702.379	44278.17
702.724	44121.57
703.069	44206.76
703.415	43620.56
703.76	43535.82
704.105	43314.13
704.45	43148.71
704.795	42910.75
705.14	42865.55
705.485	42667.37
705.83	42658.33
706.175	42719.12
706.52	42633.47
706.865	42537.43
707.209	42537.43
707.554	42451.78
707.899	42463.3
708.243	42359.8
708.588	42325.45
708.932	42183.54
709.277	42222.63
709.621	42247.49
709.966	42120.26
710.31	42425.11
710.654	41996.42
710.998	42160.94
711.342	42185.8
711.687	42011.79
712.031	41858.57
712.375	41746.49
712.719	41815.86
713.063	41653.38
713.407	41743.55
713.75	41485.7
714.094	41435.99
714.438	41361.19
714.782	41172.49
715.125	41171.13
715.469	40981.31
715.812	40788.32
716.156	40351.95
716.499	40410.48
716.843	40403.47
717.186	40088.9
717.53	40221.56
717.873	40003.71
718.216	39678.07
718.559	39733.88
718.902	39501.35
719.246	39607.79
719.589	39541.35
719.932	39380.45
720.275	39330.05
720.617	39390.84
720.96	39300.68
721.303	39375.7
721.646	39463.16
721.989	39213.67
722.331	39263.39
722.674	39251.64
723.016	39347.23
723.359	39441.01
723.701	39533.44
724.044	39328.02
724.386	39136.16
724.729	39491.18
725.071	39243.05
725.413	39288.92
725.755	39359.66
726.097	39274.69
726.439	39198.08
726.782	39142.94
727.124	39195.14
727.465	38964.87
727.807	38944.53
728.149	38761.71
728.491	38732.1
728.833	38764.42
729.175	38546.12
729.516	38559.45
729.858	38363.3
730.199	38437.65
730.541	38241.27
730.882	38250.99
731.224	38272.45
731.565	38008.96
731.906	37952.46
732.248	37958.34
732.589	37698.23
732.93	37537.78
733.271	37585.69
733.612	37677.44
733.953	37606.48
734.294	37442.19
734.635	37394.51
734.976	37521.06
735.317	37406.26
735.658	37395.87
735.999	37448.75
736.339	37522.64
736.68	37625.92
737.021	37498.01
737.361	37388.41
737.702	37686.03
738.042	37559.93
738.383	37613.94
738.723	37655.52
739.063	37596.54
739.404	37726.48
739.744	37683.32
740.084	37622.53
740.424	37832.69
740.764	37745.01
741.104	37949.52
741.444	37658.01
741.784	37608.06
742.124	37845.57
742.464	37601.06
742.804	37818.68
743.143	37587.5
743.483	37565.35
743.823	37359.48
744.162	37496.2
744.502	37475.86
744.841	37139.6
745.181	37338.92
745.52	37044.24
745.86	37186.16
746.199	36997.46
746.538	37083.56
746.877	37161.75
747.216	37197.23
747.556	37045.37
747.895	36946.16
748.234	36765.15
748.573	36855.99
748.911	36741.65
749.25	36748.65
749.589	36632.95
749.928	36712.5
750.267	36714.75
750.605	36846.28
750.944	36637.92
751.283	36735.09
751.621	36809.67
751.96	36589.11
752.298	36874.52
752.636	36918.59
752.975	36744.13
753.313	36986.84
753.651	37039.04
753.989	36880.17
754.327	37034.29
754.666	36750.01
755.004	37034.52
755.342	37041.07
755.679	37198.81
756.017	37005.82
756.355	37114.07
756.693	36998.36
757.031	37091.92
757.368	36938.25
757.706	36971.47
758.044	36838.14
758.381	37001.3
758.719	36939.83
759.056	37031.58
759.394	36862.55
759.731	36744.36
760.068	36747.75
760.405	36481.99
760.743	36498.49
761.08	36775.54
761.417	36298.95
761.754	36368.55
762.091	36281.09
762.428	36102.12
762.765	35798.62
763.102	36136.69
763.438	35827.32
763.775	35724.27
764.112	35685.4
764.449	35661
764.785	35629.59
765.122	35374
765.458	35240.22
765.795	35295.81
766.131	35326.32
766.467	35344.85
766.804	35142.82
767.14	34844.3
767.476	35024.4
767.812	35070.5
768.148	35034.8
768.485	34906.21
768.821	34714.81
769.157	34672.55
769.492	34678.2
769.828	34690.18
770.164	34539.9
770.5	34485.44
770.836	34515.94
771.171	34230.53
771.507	34240.92
771.842	34005.22
772.178	34106.24
772.513	34017.42
772.849	34013.36
773.184	33853.14
773.519	33845
773.855	33758.22
774.19	33536.31
774.525	33390.77
774.86	33465.12
775.195	33464.22
775.53	33374.96
775.865	33130.89
776.2	33095.42
776.535	32799.6
776.87	32795.08
777.205	32584.92
777.539	32465.15
777.874	32376.56
778.209	32067.42
778.543	32127.53
778.878	31841.66
779.212	31857.48
779.547	31684.83
779.881	31632.18
780.215	31539.75
780.55	31474.67
780.884	31475.34
781.218	31144.05
781.552	31109.03
781.886	30822.03
782.22	30685.76
782.554	30633.33
782.888	30475.82
783.222	30242.38
783.556	30337.97
783.889	30150.41
784.223	29966.01
784.557	29862.28
784.89	29944.31
785.224	29749.97
785.557	29746.8
785.891	29533.93
786.224	29719.46
786.558	29627.26
786.891	29285.12
787.224	29311.33
787.557	29224.78
787.891	29176.87
788.224	29126.71
788.557	29120.15
788.89	29093.71
789.223	29062.75
789.556	28934.17
789.888	28921.74
790.221	28836.54
790.554	28666.61
790.887	28574.18
791.219	28564.01
791.552	28563.78
791.884	28403.79
792.217	28182.55
792.549	28049.22
792.882	28014.64
793.214	28026.62
793.546	27908.43
793.879	27787.31
794.211	27691.04
794.543	27683.13
794.875	27546.41
795.207	27595.67
795.539	27201.11
795.871	27159.07
796.203	27010.6
796.535	26931.74
796.867	26805.64
797.198	26757.28
797.53	26656.49
797.862	26489.04
798.193	26374.69
798.525	26211.08
798.856	26287.68
799.188	26061.93
799.519	25920.46
799.85	25711.88
800.182	25788.04
800.513	25788.49
800.844	25418.1
801.175	25627.59
801.506	25560.02
801.837	25510.76
802.168	25404.32
802.499	25380.36
802.83	25306.02
803.161	25191.44
803.491	25183.98
803.822	25164.78
804.153	25018.79
804.483	24787.61
804.814	24843.43
805.145	24865.35
805.475	24803.43
805.805	24525.47
806.136	24708.97
806.466	24745.35
806.796	24680.72
807.126	24466.04
807.457	24406.83
807.787	24483.21
808.117	24320.05
808.447	24310.56
808.777	24408.41
809.107	24304.69
809.436	24308.3
809.766	24327.06
810.096	24100.4
810.426	23991.93
810.755	24073.96
811.085	23986.28
811.414	23890.69
811.744	23748.77
812.073	23813.4
812.403	23692.5
812.732	23592.84
813.061	23616.12
813.39	23326.63
813.719	23289.8
814.049	23318.27
814.378	23172.29
814.707	23069.46
815.036	23094.32
815.365	22910.82
815.693	22735.01
816.022	22707.21
816.351	22579.99
816.68	22478.29
817.008	22519.87
817.337	22274.91
817.665	22179.54
817.994	22168.7
818.322	22242.14
818.651	21990.62
818.979	21937.06
819.307	22002.15
819.636	22035.14
819.964	21898.42
820.292	21959.21
820.62	21907.69
820.948	21873.79
821.276	21903.84
821.604	21806.9
821.932	21698.43
822.259	21904.52
822.587	21866.56
822.915	21822.04
823.243	21926.67
823.57	21894.81
823.898	22016.38
824.225	21860.68
824.553	21933.22
824.88	22018.19
825.207	22105.87
825.535	22044.63
825.862	22070.62
826.189	21955.6
826.516	22189.04
826.843	22235.81
827.17	22290.05
827.497	22169.15
827.824	22092.31
828.151	22207.34
828.478	22192.88
828.805	22310.16
829.131	22137.51
829.458	22167.57
829.785	22050.28
830.111	22126.89
830.438	22248.69
830.764	22090.73
831.09	22207.57
831.417	22060.23
831.743	22154.23
832.069	22071.98
832.395	22007.57
832.722	22096.16
833.048	21945.88
833.374	21926.22
833.7	21897.29
834.026	21855.71
834.351	21789.95
834.677	21811.64
835.003	21777.07
835.329	21718.54
835.654	21675.38
835.98	21506.12
836.306	21453.01
836.631	21424.76
836.956	21535.49
837.282	21480.13
837.607	21269.06
837.932	21199.46
838.258	21106.8
838.583	21136.86
838.908	21122.17
839.233	21103.87
839.558	21046.69
839.883	20877.21
840.208	20764.44
840.533	20794.27
840.858	20884.21
841.182	20934.6
841.507	20938.67
841.832	20721.73
842.156	20739.13
842.481	20674.5
842.805	20638.57
843.13	20542.75
843.454	20596.08
843.778	20468.63
844.103	20426.37
844.427	20405.58
844.751	20494.84
845.075	20403.09
845.399	20347.28
845.723	20346.6
846.047	20249.65
846.371	20085.36
846.695	20143.67
847.019	20061.18
847.343	20019.6
847.666	19875.2
847.99	20059.6
848.313	19922.2
848.637	19741.42
848.96	19836.78
849.284	19769.89
849.607	19594.53
849.931	19563.57
850.254	19455.77
850.577	19346.4
850.9	19187.98
851.223	19042.68
851.546	19003.36
851.869	18862.57
852.192	19039.06
852.515	18736.47
852.838	18742.35
853.161	18709.58
853.483	18628.22
853.806	18520.43
854.129	18513.65
854.451	18401.34
854.774	18220.33
855.096	18134.23
855.419	18162.7
855.741	18054.45
856.063	17810.85
856.385	17802.71
856.708	17670.28
857.03	17684.07
857.352	17718.19
857.674	17592.09
857.996	17562.72
858.318	17494.47
858.64	17426.67
858.961	17283.85
859.283	17250.41
859.605	17119.56
859.926	17187.13
860.248	17109.39
860.57	17100.13
860.891	17035.27
861.212	17086.57
861.534	16949.4
861.855	16836.86
862.176	16966.8
862.498	16887.93
862.819	16915.95
863.14	16905.33
863.461	16856.52
863.782	16813.36
864.103	16862.85
864.424	16757.31
864.745	16740.14
865.065	16720.48
865.386	16600.48
865.707	16686.36
866.027	16695.85
866.348	16606.81
866.668	16620.14
866.989	16555.29
867.309	16564.32
867.63	16600.93
867.95	16574.27
868.27	16489.52
868.59	16556.41
868.91	16600.03
869.23	16563.87
869.55	16471.67
869.87	16587.37
870.19	16414.72
870.51	16467.38
870.83	16430.09
871.15	16285.91
871.469	16353.48
871.789	16324.78
872.109	16295.4
872.428	16200.49
872.748	16278.68
873.067	16248.63
873.386	16200.04
873.706	16224.22
874.025	16055.41
874.344	16082.08
874.663	16061.51
874.982	15994.85
875.301	15927.73
875.62	15881.18
875.939	15769.32
876.258	15775.87
876.577	15744.23
876.896	15664.01
877.214	15644.12
877.533	15678.25
877.852	15524.8
878.17	15567.74
878.489	15550.57
878.807	15502.66
879.125	15454.75
879.444	15400.29
879.762	15394.19
880.08	15368.2
880.398	15241.87
880.716	15285.94
881.034	15160.75
881.352	15189.45
881.67	15088.2
881.988	15112.16
882.306	15026.51
882.624	15007.3
882.941	14973.86
883.259	14940.86
883.577	14850.92
883.894	14878.94
884.212	14883.24
884.529	14875.33
884.846	14873.97
885.164	14823.35
885.481	14752.62
885.798	14794.43
886.115	14750.13
886.432	14720.98
886.75	14765.95
887.067	14766.18
887.383	14663.13
887.7	14707.88
888.017	14707.2
888.334	14736.58
888.651	14636.92
888.967	14685.28
889.284	14689.8
889.6	14654.32
889.917	14535
890.233	14492.29
890.55	14538.61
890.866	14478.05
891.182	14482.35
891.498	14417.49
891.815	14351.5
892.131	14271.73
892.447	14261.33
892.763	14235.35
893.079	14144.05
893.395	14087.1
893.71	14116.03
894.026	14053.88
894.342	14054.56
894.657	13937.27
894.973	13911.06
895.289	13891.17
895.604	13792.42
895.92	13753.32
896.235	13700.44
896.55	13636.72
896.865	13566.21
897.181	13438.08
897.496	13440.79
897.811	13442.6
898.126	13365.76
898.441	13272.21
898.756	13197.63
899.071	13184.07
899.386	13159.89
899.7	12957.19
900.015	12849.85
900.33	12846.23
900.644	12728.94
900.959	12946.57
901.273	12731.66
901.588	12642.85
901.902	12549.97
902.216	12556.52
902.531	12487.37
902.845	12426.13
903.159	12399.01
903.473	12282.63
903.787	12307.26
904.101	12170.09
904.415	12176.87
904.729	12156.98
905.042	12014.39
905.356	12030.21
905.67	12067.27
905.984	12003.54
906.297	11977.55
906.611	11950.66
906.924	11938.68
907.237	11844.45
907.551	11853.49
907.864	11730.1
908.177	11707.28
908.491	11715.86
908.804	11607.84
909.117	11697.33
909.43	11581.86
909.743	11550.67
910.056	11608.75
910.368	11597.22
910.681	11471.12
910.994	11526.94
911.307	11397.91
911.619	11365.14
911.932	11398.58
912.244	11272.94
912.557	11311.36
912.869	11246.05
913.181	11212.37
913.494	11198.59
913.806	11087.63
914.118	11098.93
914.43	11035.43
914.742	11069.1
915.054	10912.27
915.366	10911.82
915.678	10904.59
915.99	10886.73
916.302	10724.7
916.613	10762.67
916.925	10770.58
917.236	10677.93
917.548	10636.8
917.859	10629.57
918.171	10480.87
918.482	10429.12
918.794	10392.28
919.105	10272.74
919.416	10233.19
919.727	10178.73
920.038	10161.33
920.349	10115.91
920.66	10023.71
920.971	9921.34
921.282	9936.7
921.593	9802.47
921.903	9765.41
922.214	9775.58
922.525	9652.87
922.835	9651.29
923.146	9560.67
923.456	9570.16
923.767	9529.93
924.077	9489.03
924.387	9430.73
924.697	9353.21
925.008	9359.99
925.318	9346.66
925.628	9330.62
925.938	9218.3
926.248	9134.24
926.558	9075.03
926.867	9086.33
927.177	9022.6
927.487	9034.58
927.796	8922.49
928.106	8934.92
928.416	8867.13
928.725	8807.69
929.034	8774.92
929.344	8819.44
929.653	8790.74
929.962	8637.98
930.271	8663.97
930.581	8633.01
930.89	8647.02
931.199	8575.16
931.508	8640.46
931.817	8561.14
932.125	8583.07
932.434	8467.36
932.743	8446.35
933.051	8413.13
933.36	8421.94
933.669	8364.31
933.977	8405.89
934.286	8363.18
934.594	8317.99
934.902	8285.67
935.21	8313.02
935.519	8281.15
935.827	8306.46
936.135	8161.61
936.443	8203.64
936.751	8194.37
937.059	8174.04
937.367	8096.3
937.674	8066.02
937.982	8032.35
938.29	8028.73
938.597	8015.4
938.905	7873.71
939.213	7883.42
939.52	7845.46
939.827	7852.69
940.135	7769.75
940.442	7679.81
940.749	7664.67
941.056	7603.66
941.363	7610.66
941.67	7604.56
941.977	7564.79
942.284	7468.29
942.591	7486.6
942.898	7435.98
943.205	7429.88
943.511	7363.66
943.818	7332.7
944.125	7275.3
944.431	7223.55
944.738	7236.43
945.044	7182.65
945.35	7100.17
945.657	7054.07
945.963	7053.39
946.269	6983.11
946.575	6986.5
946.881	6948.53
947.187	6956.67
947.493	6828.54
947.799	6774.07
948.105	6769.33
948.41	6736.79
948.716	6696.56
949.022	6683.45
949.327	6659.05
949.633	6582.67
949.938	6631.48
950.244	6592.16
950.549	6469.45
950.854	6433.52
951.16	6458.38
951.465	6453.86
951.77	6389.22
952.075	6362.11
952.38	6345.16
952.685	6346.74
952.99	6266.29
953.294	6303.58
953.599	6217.03
953.904	6284.14
954.209	6222.68
954.513	6183.58
954.818	6158.04
955.122	6151.94
955.426	6161.66
955.731	6077.37
956.035	6052.96
956.339	6062.91
956.643	6060.19
956.948	5986.98
957.252	6043.7
957.556	5975.22
957.86	5941.33
958.163	5916.69
958.467	5946.75
958.771	5875.79
959.075	5902.23
959.378	5889.8
959.682	5854.1
959.985	5828.79
960.289	5811.16
960.592	5771.16
960.896	5734.33
961.199	5732.07
961.502	5662.92
961.805	5714.67
962.108	5706.53
962.411	5647.32
962.714	5643.48
963.017	5606.19
963.32	5638.51
963.623	5584.27
963.926	5630.6
964.228	5521.9
964.531	5527.78
964.833	5470.38
965.136	5441.45
965.438	5405.75
965.741	5417.05
966.043	5399.87
966.345	5370.95
966.648	5307.9
966.95	5323.49
967.252	5218.86
967.554	5197.84
967.856	5187.9
968.158	5119.88
968.46	5138.41
968.761	5123.95
969.063	5078.3
969.365	5016.38
969.666	5068.58
969.968	4964.86
970.269	4981.35
970.571	4955.59
970.872	4942.94
971.174	4900.9
971.475	4882.6
971.776	4868.36
972.077	4824.07
972.378	4819.1
972.679	4799.66
972.98	4733.67
973.281	4723.51
973.582	4693.45
973.883	4624.98
974.183	4610.06
974.484	4605.77
974.785	4576.84
975.085	4571.19
975.386	4536.39
975.686	4522.61
975.986	4494.59
976.287	4461.82
976.587	4429.05
976.887	4421.14
977.187	4421.37
977.487	4342.95
977.787	4325.55
978.087	4374.14
978.387	4316.51
978.687	4277.19
978.987	4277.87
979.286	4269.96
979.586	4222.05
979.885	4243.07
980.185	4253.24
980.484	4172.11
980.784	4161.49
981.083	4202.62
981.382	4149.51
981.682	4174.59
981.981	4163.52
982.28	4151.09
982.579	4087.14
982.878	4116.74
983.177	4071.09
983.475	4098.89
983.774	4017.08
984.073	4031.09
984.372	4017.08
984.67	4039.23
984.969	4020.25
985.267	4039
985.566	3971.21
985.864	4006.91
986.162	4022.28
986.461	3950.42
986.759	3954.94
987.057	3947.48
987.355	3915.84
987.653	3882.17
987.951	3888.95
988.249	3849.18
988.547	3821.38
988.844	3840.37
989.142	3787.49
989.44	3799.24
989.737	3786.81
990.035	3726.24
990.332	3712.91
990.63	3659.58
990.927	3727.15
991.224	3702.29
991.521	3693.7
991.819	3625.68
992.116	3615.74
992.413	3607.6
992.71	3572.58
993.006	3539.58
993.303	3518.34
993.6	3539.81
993.897	3492.8
994.193	3482.63
994.49	3463.43
994.787	3434.5
995.083	3396.08
995.379	3397.89
995.676	3366.25
995.972	3340.27
996.268	3328.74
996.565	3298.46
996.861	3309.98
997.157	3249.19
997.453	3226.82
997.749	3215.3
998.044	3171.46
998.34	3247.39
998.636	3144.79
998.932	3142.98
999.227	3146.6
999.523	3117.22
999.818	3082.42
1000.114	3062.08
1000.409	3046.26
1000.704	3039.71
1001	3002.2
1001.295	2993.16
1001.59	2988.41
1001.885	2968.3
1002.18	2895.53
1002.475	2943.21
1002.77	2949.77
1003.065	2892.37
1003.359	2899.6
1003.654	2873.38
1003.949	2843.78
1004.243	2807.17
1004.538	2787.06
1004.832	2777.79
1005.127	2780.28
1005.421	2782.99
1005.715	2755.42
1006.009	2732.37
1006.304	2710.68
1006.598	2741.41
1006.892	2690.79
1007.186	2646.72
1007.48	2664.35
1007.773	2612.37
1008.067	2649.44
1008.361	2621.64
1008.655	2586.39
1008.948	2602.66
1009.242	2619.83
1009.535	2591.36
1009.829	2569.89
1010.122	2559.27
1010.415	2503.9
1010.708	2508.42
1011.001	2528.99
1011.295	2470.68
1011.588	2479.95
1011.881	2448.99
1012.173	2517.46
1012.466	2458.93
1012.759	2448.09
1013.052	2451.25
1013.344	2432.72
1013.637	2439.72
1013.93	2426.17
1014.222	2405.37
1014.514	2344.59
1014.807	2383.23
1015.099	2355.21
1015.391	2339.39
1015.683	2313.4
1015.976	2274.98
1016.268	2295.55
1016.56	2260.07
1016.851	2281.54
1017.143	2262.33
1017.435	2227.07
1017.727	2200.18
1018.018	2190.47
1018.31	2207.64
1018.602	2172.61
1018.893	2176.23
1019.185	2149.79
1019.476	2122.44
1019.767	2097.36
1020.058	2098.94
1020.35	2120.18
1020.641	2049.23
1020.932	2063.24
1021.223	2059.85
1021.514	2057.59
1021.804	2023.01
1022.095	2017.14
1022.386	2019.85
1022.677	1988.89
1022.967	1997.93
1023.258	1982.79
1023.548	1954.31
1023.839	1907.99
1024.129	1891.26
1024.419	1921.55
1024.709	1885.39
1025	1837.03
1025.29	1831.83
1025.58	1803.58
1025.87	1823.92
1026.16	1802.45
1026.449	1780.31
1026.739	1767.43
1027.029	1764.94
1027.319	1754.32
1027.608	1719.74
1027.898	1712.51
1028.187	1741.66
1028.477	1678.61
1028.766	1683.13
1029.055	1678.16
1029.344	1677.71
1029.634	1646.75
1029.923	1636.13
1030.212	1622.8
1030.501	1591.38
1030.79	1564.72
1031.078	1581.22
1031.367	1563.14
1031.656	1563.36
1031.945	1555.45
1032.233	1533.31
1032.522	1507.09
1032.81	1527.66
1033.099	1488.56
1033.387	1505.29
1033.675	1505.51
1033.963	1474.78
1034.251	1484.04
1034.54	1464.16
1034.828	1451.05
1035.116	1419.41
1035.403	1466.19
1035.691	1423.03
1035.979	1405.63
1036.267	1388.23
1036.554	1428.68
1036.842	1392.07
1037.129	1385.06
1037.417	1350.26
1037.704	1350.04
1037.992	1335.8
1038.279	1343.93
1038.566	1310.04
1038.853	1310.04
1039.14	1310.04
