Data from blue_surface_keyboard_FLMS001491_009.txt Node
Date: Tue Feb 07 11:12:33 GMT 2017
User: dcchb
Spectrometer: FLMS00149
Trigger mode: 0
Integration Time (sec): 2.000000E-2
Scans to average: 10
Electric dark correction enabled: true
Nonlinearity correction enabled: false
Boxcar width: 0
XAxis mode: Wavelengths
Number of Pixels in Spectrum: 2048
>>>>>Begin Spectral Data<<<<<
341.393	0.56
341.776	0.56
342.16	0.56
342.543	-71.98
342.927	-77.63
343.31	-63.61
343.693	-68.81
344.077	-73.78
344.46	-82.14
344.843	-52.99
345.226	-53.44
345.61	-39.89
345.993	-1.92
346.376	20.45
346.759	20.68
347.142	12.54
347.525	41.92
347.908	65.42
348.291	78.08
348.674	90.73
349.057	106.78
349.44	113.1
349.823	152.2
350.206	165.53
350.588	175.25
350.971	194.46
351.354	198.75
351.737	185.42
352.119	251.18
352.502	253.67
352.884	271.52
353.267	276.04
353.65	287.34
354.032	280.33
354.414	266.55
354.797	309.71
355.179	301.35
355.562	295.02
355.944	293.44
356.326	294.57
356.709	318.52
357.091	318.97
357.473	299.77
357.855	314.68
358.238	319.43
358.62	328.01
359.002	316.04
359.384	311.07
359.766	307.45
360.148	300.22
360.53	322.82
360.912	311.52
361.294	297.05
361.676	309.03
362.057	303.83
362.439	287.11
362.821	295.02
363.203	305.64
363.584	284.85
363.966	263.83
364.348	287.34
364.729	289.6
365.111	304.51
365.493	307.9
365.874	296.15
366.256	269.03
366.637	283.27
367.019	268.13
367.4	284.17
367.781	300.67
368.163	285.76
368.544	281.91
368.925	298.18
369.306	280.56
369.688	271.97
370.069	294.79
370.45	287.79
370.831	278.75
371.212	294.57
371.593	273.33
371.974	288.24
372.355	299.54
372.736	303.38
373.117	291.18
373.498	287.34
373.879	286.66
374.26	291.18
374.641	294.34
375.021	286.66
375.402	311.29
375.783	298.86
376.163	313.33
376.544	295.92
376.925	276.49
377.305	297.05
377.686	306.55
378.066	296.38
378.447	310.61
378.827	295.02
379.208	310.84
379.588	292.99
379.968	293.66
380.349	294.12
380.729	289.6
381.109	323.27
381.489	298.86
381.87	293.21
382.25	309.48
382.63	327.56
383.01	308.81
383.39	301.8
383.77	324.17
384.15	313.55
384.53	314
384.91	319.43
385.29	313.78
385.67	293.21
386.049	305.64
386.429	317.62
386.809	314.91
387.189	325.08
387.568	317.62
387.948	310.39
388.328	314.91
388.707	304.96
389.087	325.08
389.466	303.38
389.846	306.55
390.225	318.07
390.605	318.3
390.984	329.14
391.363	312.87
391.743	321.23
392.122	319.2
392.501	330.5
392.881	309.03
393.26	316.04
393.639	316.04
394.018	328.47
394.397	344.06
394.776	341.35
395.155	324.85
395.534	336.6
395.913	321.23
396.292	332.53
396.671	321.46
397.05	327.11
397.429	319.2
397.808	326.43
398.186	311.97
398.565	333.21
398.944	332.99
399.323	332.08
399.701	329.14
400.08	342.7
400.458	326.66
400.837	355.58
401.215	353.32
401.594	349.26
401.972	337.96
402.351	331.63
402.729	346.54
403.107	349.71
403.486	351.97
403.864	333.21
404.242	331.86
404.62	342.93
404.999	330.95
405.377	345.19
405.755	353.1
406.133	370.05
406.511	339.54
406.889	371.4
407.267	357.62
407.645	358.97
408.023	346.09
408.401	363.49
408.779	356.94
409.156	358.07
409.534	384.74
409.912	353.32
410.29	371.85
410.667	373.21
411.045	372.31
411.422	368.24
411.8	379.09
412.178	377.5
412.555	376.15
412.933	379.99
413.31	378.63
413.687	391.52
414.065	385.64
414.442	396.03
414.819	382.48
415.197	364.85
415.574	394.23
415.951	375.47
416.328	380.44
416.705	379.09
417.082	398.29
417.46	391.52
417.837	391.29
418.214	372.31
418.591	387.45
418.967	399.2
419.344	394
419.721	401.68
420.098	411.18
420.475	387
420.852	396.94
421.228	408.01
421.605	401.46
421.982	420.67
422.358	402.36
422.735	423.6
423.111	434.68
423.488	407.56
423.864	419.76
424.241	391.97
424.617	414.11
424.994	419.54
425.37	415.47
425.746	410.05
426.123	422.02
426.499	430.84
426.875	441.46
427.251	429.03
427.627	418.86
428.003	431.29
428.379	442.14
428.756	425.41
429.132	424.06
429.507	453.21
429.883	437.39
430.259	436.71
430.635	439.42
431.011	431.97
431.387	456.82
431.763	454.79
432.138	438.07
432.514	440.78
432.89	472.87
433.265	468.8
433.641	482.13
434.016	484.85
434.392	459.76
434.767	469.93
435.143	472.87
435.518	465.64
435.894	495.92
436.269	488.24
436.644	493.43
437.02	495.92
437.395	486.65
437.77	490.5
438.145	486.43
438.52	491.63
438.895	493.66
439.271	514.22
439.646	502.7
440.021	508.8
440.395	514.45
440.77	504.96
441.145	506.54
441.52	507.9
441.895	524.39
442.27	528.46
442.645	527.78
443.019	530.95
443.394	510.83
443.769	532.75
444.143	522.13
444.518	532.3
444.892	522.59
445.267	523.26
445.641	561.91
446.016	528.46
446.39	539.99
446.764	540.44
447.139	539.08
447.513	531.62
447.887	548.35
448.262	551.06
448.636	547.44
449.01	566.2
449.384	548.57
449.758	548.8
450.132	561.68
450.506	566.88
450.88	581.11
451.254	555.13
451.628	550.83
452.002	570.27
452.376	590.83
452.75	581.79
453.123	561.91
453.497	590.83
453.871	575.01
454.244	592.41
454.618	582.47
454.992	591.74
455.365	575.92
455.739	588.12
456.112	593.09
456.486	610.27
456.859	611.85
457.232	622.02
457.606	608.91
457.979	642.13
458.352	637.61
458.725	624.73
459.099	636.48
459.472	641.9
459.845	651.85
460.218	628.57
460.591	666.08
460.964	645.52
461.337	666.31
461.71	664.73
462.083	652.98
462.456	660.43
462.829	696.14
463.201	671.96
463.574	682.13
463.947	680.77
464.32	684.61
464.692	685.52
465.065	684.84
465.438	675.12
465.81	698.17
466.183	703.6
466.555	704.28
466.928	707.67
467.3	722.35
467.672	727.78
468.045	736.59
468.417	733.65
468.789	726.87
469.161	723.48
469.534	750.38
469.906	759.19
470.278	765.29
470.65	756.48
471.022	777.95
471.394	785.4
471.766	776.82
472.138	786.76
472.51	809.81
472.882	824.95
473.253	801.67
473.625	822.46
473.997	840.54
474.369	830.37
474.74	838.51
475.112	881.22
475.484	867.89
475.855	863.59
476.227	858.17
476.598	880.77
476.97	886.64
477.341	896.13
477.713	905.63
478.084	913.54
478.455	893.65
478.827	930.26
479.198	946.08
479.569	953.31
479.94	967.55
480.311	956.47
480.682	989.69
481.053	984.49
481.424	1000.54
481.795	1019.07
482.166	1005.74
482.537	1027.88
482.908	1004.83
483.279	1042.12
483.65	1047.54
484.021	1055.45
484.391	1065.17
484.762	1056.36
485.133	1080.99
485.503	1075.11
485.874	1104.94
486.244	1092.06
486.615	1114.21
486.985	1115.11
487.356	1138.84
487.726	1146.52
488.097	1146.75
488.467	1152.4
488.837	1158.95
489.207	1195.56
489.578	1153.98
489.948	1196.24
490.318	1183.58
490.688	1190.14
491.058	1177.94
491.428	1226.75
491.798	1230.36
492.168	1233.75
492.538	1230.14
492.908	1245.73
493.278	1257.48
493.648	1260.87
494.017	1280.08
494.387	1273.75
494.757	1284.15
495.126	1267.88
495.496	1269.23
495.866	1309.46
496.235	1264.94
496.605	1270.81
496.974	1297.71
497.344	1295.67
497.713	1309.01
498.082	1334.32
498.452	1330.7
498.821	1309.68
499.19	1302.68
499.559	1320.3
499.928	1310.14
500.298	1354.65
500.667	1341.55
501.036	1340.42
501.405	1353.75
501.774	1336.35
502.143	1343.13
502.512	1331.83
502.88	1348.78
503.249	1391.94
503.618	1357.59
503.987	1345.39
504.356	1389.91
504.724	1350.13
505.093	1362.11
505.462	1362.56
505.83	1379.96
506.199	1367.99
506.567	1372.73
506.936	1378.16
507.304	1378.83
507.672	1382.45
508.041	1428.1
508.409	1420.41
508.777	1394.2
509.145	1435.33
509.514	1395.1
509.882	1409.34
510.25	1424.48
510.618	1425.61
510.986	1415.22
511.354	1405.95
511.722	1427.65
512.09	1418.83
512.458	1440.98
512.826	1450.02
513.193	1447.08
513.561	1434.2
513.929	1460.19
514.297	1452.05
514.664	1452.73
515.032	1462.45
515.4	1441.21
515.767	1473.97
516.135	1439.62
516.502	1462.45
516.869	1453.86
517.237	1468.32
517.604	1467.42
517.972	1478.04
518.339	1443.92
518.706	1458.15
519.073	1457.93
519.44	1468.77
519.808	1498.38
520.175	1499.96
520.542	1488.89
520.909	1483.46
521.276	1502.45
521.643	1510.36
522.009	1515.55
522.376	1541.54
522.743	1506.74
523.11	1522.11
523.477	1529.34
523.843	1541.09
524.21	1511.03
524.577	1547.87
524.943	1564.37
525.31	1535.44
525.676	1528.89
526.043	1549.9
526.409	1557.36
526.776	1570.24
527.142	1544.48
527.508	1542.9
527.874	1549.68
528.241	1562.33
528.607	1551.71
528.973	1541.99
529.339	1551.26
529.705	1573.4
530.071	1592.16
530.437	1584.7
530.803	1575.89
531.169	1583.35
531.535	1579.96
531.901	1571.82
532.267	1575.66
532.632	1603.91
532.998	1582.44
533.364	1626.51
533.73	1561.43
534.095	1626.51
534.461	1605.95
534.826	1614.53
535.192	1599.84
535.557	1587.64
535.923	1631.26
536.288	1612.73
536.653	1598.72
537.019	1620.64
537.384	1612.27
537.749	1646.4
538.114	1616.57
538.479	1609.34
538.845	1617.25
539.21	1637.58
539.575	1629.9
539.94	1612.05
540.305	1627.87
540.67	1607.08
541.034	1613.18
541.399	1614.08
541.764	1617.02
542.129	1605.04
542.494	1613.63
542.858	1636.23
543.223	1628.77
543.587	1622.67
543.952	1647.3
544.316	1664.7
544.681	1596
545.045	1625.83
545.41	1642.33
545.774	1649.79
546.138	1657.24
546.503	1597.81
546.867	1635.32
547.231	1624.93
547.595	1619.96
547.959	1632.61
548.324	1600.97
548.688	1619.05
549.052	1636.68
549.416	1655.21
549.779	1603.46
550.143	1661.31
550.507	1626.96
550.871	1630.35
551.235	1643.91
551.599	1629.67
551.962	1641.65
552.326	1631.71
552.689	1627.41
553.053	1637.58
553.417	1643.46
553.78	1657.7
554.143	1679.62
554.507	1652.5
554.87	1657.24
555.234	1651.14
555.597	1678.49
555.96	1662.67
556.323	1664.02
556.686	1632.39
557.05	1644.59
557.413	1662.67
557.776	1670.58
558.139	1662.89
558.502	1663.35
558.865	1689.11
559.228	1662.44
559.59	1694.31
559.953	1652.27
560.316	1689.79
560.679	1685.27
561.041	1673.97
561.404	1704.25
561.767	1700.63
562.129	1711.93
562.492	1674.87
562.854	1699.28
563.217	1693.4
563.579	1697.24
563.941	1720.52
564.304	1696.34
564.666	1729.11
565.028	1725.49
565.39	1696.11
565.753	1721.2
566.115	1696.79
566.477	1718.03
566.839	1733.63
567.201	1710.58
567.563	1702.22
567.925	1718.94
568.287	1729.33
568.648	1731.82
569.01	1727.75
569.372	1749.45
569.734	1742.67
570.095	1758.48
570.457	1763.46
570.819	1775.66
571.18	1761.65
571.542	1759.16
571.903	1755.32
572.265	1757.81
572.626	1761.87
572.987	1732.27
573.349	1756.9
573.71	1774.08
574.071	1761.87
574.432	1743.34
574.794	1810.23
575.155	1807.52
575.516	1782.44
575.877	1783.12
576.238	1767.3
576.599	1781.76
576.96	1793.51
577.32	1796.68
577.681	1766.62
578.042	1819.95
578.403	1797.35
578.763	1778.82
579.124	1796.9
579.485	1819.73
579.845	1828.54
580.206	1778.6
580.566	1784.25
580.927	1780.63
581.287	1801.87
581.648	1802.33
582.008	1813.4
582.368	1816.34
582.728	1805.94
583.089	1823.12
583.449	1836.9
583.809	1798.71
584.169	1794.19
584.529	1780.41
584.889	1817.24
585.249	1796.9
585.609	1792.16
585.969	1806.62
586.329	1799.84
586.688	1787.86
587.048	1793.29
587.408	1821.99
587.768	1828.54
588.127	1833.29
588.487	1817.92
588.846	1808.2
589.206	1801.2
589.565	1811.82
589.925	1789.9
590.284	1805.04
590.643	1824.92
591.003	1794.42
591.362	1834.64
591.721	1811.82
592.08	1823.12
592.44	1827.18
592.799	1828.09
593.158	1817.69
593.517	1830.8
593.876	1845.94
594.235	1807.52
594.593	1844.13
594.952	1812.04
595.311	1818.14
595.67	1825.83
596.029	1864.47
596.387	1840.29
596.746	1866.96
597.104	1838.48
597.463	1821.53
597.822	1836.45
598.18	1869.44
598.538	1856.11
598.897	1879.16
599.255	1860.86
599.613	1861.98
599.972	1856.79
600.33	1856.34
600.688	1847.97
601.046	1879.16
601.404	1865.6
601.762	1878.48
602.12	1895.2
602.478	1867.63
602.836	1865.15
603.194	1859.5
603.552	1871.7
603.91	1879.16
604.268	1877.8
604.625	1863.34
604.983	1876.67
605.341	1875.77
605.698	1896.56
606.056	1891.59
606.413	1915.09
606.771	1880.74
607.128	1892.72
607.485	1865.15
607.843	1897.01
608.2	1891.81
608.557	1910.8
608.914	1916.9
609.272	1910.12
609.629	1917.35
609.986	1930.46
610.343	1932.72
610.7	1912.83
611.057	1897.24
611.414	1899.05
611.771	1930.23
612.127	1938.59
612.484	1958.03
612.841	1953.96
613.198	1945.82
613.554	1915.99
613.911	1941.53
614.267	1924.36
614.624	1930.68
614.98	1976.11
615.337	1965.71
615.693	1953.73
616.05	1942.43
616.406	1960.51
616.762	1929.33
617.118	1982.43
617.475	1963.9
617.831	1992.15
618.187	1984.02
618.543	1989.89
618.899	1989.21
619.255	1999.16
619.611	2002.77
619.967	1986.5
620.323	2021.75
620.678	1996.44
621.034	1998.03
621.39	2023.79
621.746	2022.21
622.101	1991.47
622.457	2012.26
622.812	1986.95
623.168	2006.84
623.523	2082.09
623.879	2019.49
624.234	2028.53
624.589	2043.68
624.945	2012.72
625.3	2057.01
625.655	2048.65
626.01	2047.06
626.365	2040.74
626.72	2038.03
627.075	2047.52
627.43	2072.83
627.785	2064.01
628.14	2061.75
628.495	2040.06
628.85	2040.29
629.205	2042.55
629.559	2077.57
629.914	2091.36
630.269	2060.17
630.623	2069.44
630.978	2079.38
631.332	2094.52
631.687	2095.2
632.041	2115.09
632.396	2054.97
632.75	2081.19
633.104	2095.65
633.459	2115.99
633.813	2097.91
634.167	2108.31
634.521	2093.17
634.875	2134.52
635.229	2123.67
635.583	2112.15
635.937	2092.71
636.291	2125.71
636.645	2146.95
636.999	2134.29
637.352	2163.9
637.706	2146.27
638.06	2167.51
638.413	2158.02
638.767	2141.07
639.121	2172.03
639.474	2191.47
639.828	2165.25
640.181	2193.05
640.534	2165.71
640.888	2159.38
641.241	2196.44
641.594	2200.96
641.947	2212.26
642.301	2204.8
642.654	2225.82
643.007	2225.82
643.36	2233.05
643.713	2223.33
644.066	2222.88
644.419	2230.34
644.771	2262.43
645.124	2232.82
645.477	2242.77
645.83	2250.45
646.182	2225.37
646.535	2231.92
646.888	2247.51
647.24	2220.85
647.593	2280.73
647.945	2287.06
648.298	2283.67
648.65	2246.16
649.002	2285.25
649.355	2252.03
649.707	2291.8
650.059	2323.22
650.411	2314.85
650.763	2332.93
651.115	2376.1
651.467	2387.39
651.819	2399.6
652.171	2407.06
652.523	2409.54
652.875	2386.26
653.227	2419.03
653.578	2432.59
653.93	2438.47
654.282	2474.85
654.633	2418.13
654.985	2464.91
655.337	2466.26
655.688	2477.34
656.039	2511.91
656.391	2499.93
656.742	2499.26
657.094	2526.37
657.445	2522.76
657.796	2562.08
658.147	2540.39
658.498	2553.49
658.849	2600.04
659.2	2612.47
659.551	2646.37
659.902	2625.58
660.253	2651.12
660.604	2648.63
660.955	2593.94
661.306	2645.69
661.656	2694.73
662.007	2665.35
662.358	2694.96
662.708	2724.56
663.059	2738.8
663.409	2707.16
663.76	2753.71
664.11	2756.2
664.461	2756.65
664.811	2793.49
665.161	2786.48
665.511	2840.04
665.862	2840.04
666.212	2863.09
666.562	2854.5
666.912	2852.92
667.262	2916.65
667.612	2890.43
667.962	2915.29
668.312	2908.74
668.662	2967.94
669.011	2960.71
669.361	2945.8
669.711	2961.17
670.06	2966.14
670.41	2980.15
670.76	2975.4
671.109	3065.57
671.459	3060.37
671.808	3049.07
672.157	3081.16
672.507	3039.36
672.856	3061.05
673.205	3050.43
673.554	3105.79
673.904	3138.11
674.253	3139.24
674.602	3144.44
674.951	3107.38
675.3	3130.43
675.649	3149.63
675.998	3184.66
676.346	3165.23
676.695	3207.26
677.044	3231.44
677.393	3240.48
677.741	3299.24
678.09	3259.91
678.438	3285
678.787	3240.93
679.135	3291.33
679.484	3284.32
679.832	3324.32
680.181	3291.78
680.529	3301.27
680.877	3313.25
681.225	3315.51
681.573	3377.2
681.922	3364.54
682.27	3347.37
682.618	3396.41
682.966	3393.92
683.314	3415.62
683.661	3384.66
684.009	3416.29
684.357	3399.35
684.705	3393.92
685.053	3420.59
685.4	3439.57
685.748	3405.45
686.095	3462.17
686.443	3429.4
686.79	3454.94
687.138	3486.12
687.485	3494.71
687.832	3493.58
688.18	3494.71
688.527	3514.14
688.874	3498.33
689.221	3500.81
689.568	3503.75
689.915	3503.3
690.262	3524.54
690.609	3506.69
690.956	3474.6
691.303	3474.6
691.65	3523.18
691.997	3526.57
692.344	3531.77
692.69	3548.04
693.037	3564.09
693.383	3543.52
693.73	3543.3
694.077	3506.91
694.423	3519.57
694.769	3527.48
695.116	3532.68
695.462	3532.22
695.808	3571.32
696.155	3565.89
696.501	3514.6
696.847	3534.03
697.193	3497.65
697.539	3521.6
697.885	3486.12
698.231	3515.5
698.577	3554.37
698.923	3536.74
699.269	3496.97
699.614	3552.79
699.96	3553.01
700.306	3497.2
700.651	3488.61
700.997	3487.7
701.342	3553.47
701.688	3531.77
702.033	3505.78
702.379	3508.04
702.724	3490.42
703.069	3490.87
703.415	3492.68
703.76	3471.66
704.105	3460.14
704.45	3476.63
704.795	3440.7
705.14	3462.62
705.485	3436.18
705.83	3417.88
706.175	3463.52
706.52	3420.36
706.865	3433.02
707.209	3440.47
707.554	3439.8
707.899	3443.64
708.243	3430.31
708.588	3426.46
708.932	3430.98
709.277	3397.09
709.621	3420.36
709.966	3381.72
710.31	3419.68
710.654	3384.2
710.998	3390.08
711.342	3400.7
711.687	3378.33
712.031	3370.42
712.375	3400.7
712.719	3393.47
713.063	3374.49
713.407	3414.26
713.75	3420.81
714.094	3389.63
714.438	3379.91
714.782	3364.77
715.125	3366.13
715.469	3375.84
715.812	3379.01
716.156	3399.8
716.499	3356.63
716.843	3407.03
717.186	3366.8
717.53	3394.15
717.873	3331.32
718.216	3372
718.559	3373.13
718.902	3394.6
719.246	3398.67
719.589	3346.92
719.932	3380.59
720.275	3373.58
720.617	3364.77
720.96	3326.35
721.303	3409.74
721.646	3387.14
721.989	3392.34
722.331	3375.62
722.674	3384.2
723.016	3375.17
723.359	3382.62
723.701	3393.92
724.044	3347.82
724.386	3360.25
724.729	3343.08
725.071	3399.12
725.413	3347.82
725.755	3389.85
726.097	3348.27
726.439	3346.24
726.782	3368.39
727.124	3391.44
727.465	3392.34
727.807	3334.26
728.149	3373.13
728.491	3364.77
728.833	3353.47
729.175	3382.17
729.516	3392.79
729.858	3343.3
730.199	3350.53
730.541	3418.55
730.882	3399.35
731.224	3416.52
731.565	3389.85
731.906	3369.52
732.248	3382.62
732.589	3379.91
732.93	3375.84
733.271	3362.74
733.612	3426.01
733.953	3398.44
734.294	3434.6
734.635	3417.88
734.976	3387.37
735.317	3380.82
735.658	3437.31
735.999	3423.07
736.339	3383.53
736.68	3447.93
737.021	3400.48
737.361	3425.56
737.702	3481.38
738.042	3448.38
738.383	3436.63
738.723	3487.7
739.063	3457.2
739.404	3470.53
739.744	3485.45
740.084	3487.7
740.424	3482.28
740.764	3431.66
741.104	3494.48
741.444	3458.78
741.784	3488.16
742.124	3489.96
742.464	3524.99
742.804	3504.88
743.143	3532
743.483	3551.43
743.823	3533.81
744.162	3595.95
744.502	3607.02
744.841	3557.76
745.181	3594.37
745.52	3611.09
745.86	3620.36
746.199	3600.7
746.538	3614.03
746.877	3664.88
747.216	3665.33
747.556	3687.25
747.895	3670.3
748.234	3701.94
748.573	3701.48
748.911	3725.44
749.25	3760.69
749.589	3722.73
749.928	3758.21
750.267	3765.21
750.605	3790.52
750.944	3779
751.283	3836.62
751.621	3860.35
751.96	3861.48
752.298	3853.35
752.636	3908.26
752.975	3906.68
753.313	3962.04
753.651	3983.51
753.989	3980.12
754.327	3951.2
754.666	3983.06
755.004	4070.74
755.342	4095.15
755.679	4099.67
756.017	4045.2
756.355	4096.05
756.693	4134.47
757.031	4115.49
757.368	4105.77
757.706	4167.91
758.044	4174.69
758.381	4186.44
758.719	4171.08
759.056	4189.83
759.394	4229.15
759.731	4200.91
760.068	4282.71
760.405	4247.91
760.743	4244.97
761.08	4282.94
761.417	4301.47
761.754	4308.93
762.091	4312.99
762.428	4328.59
762.765	4321.81
763.102	4356.38
763.438	4337.17
763.775	4315.71
764.112	4336.95
764.449	4431.63
764.785	4385.08
765.122	4436.38
765.458	4403.39
765.795	4399.55
766.131	4397.96
766.467	4415.36
766.804	4395.48
767.14	4392.09
767.476	4397.74
767.812	4439.32
768.148	4390.51
768.485	4402.26
768.821	4357.96
769.157	4453.33
769.492	4418.08
769.828	4410.17
770.164	4373.78
770.5	4371.75
770.836	4407.45
771.171	4419.43
771.507	4352.31
771.842	4398.87
772.178	4341.69
772.513	4357.29
772.849	4333.56
773.184	4324.75
773.519	4347.8
773.855	4261.24
774.19	4289.49
774.525	4284.97
774.86	4328.36
775.195	4339.21
775.53	4263.5
775.865	4310.73
776.2	4245.2
776.535	4247.46
776.87	4259.21
777.205	4281.58
777.539	4288.14
777.874	4227.8
778.209	4189.61
778.543	4220.34
778.878	4204.97
779.212	4206.78
779.547	4146.22
779.881	4198.19
780.215	4161.81
780.55	4167.69
780.884	4146.22
781.218	4137.18
781.552	4160.23
781.886	4175.14
782.22	4127.91
782.554	4083.85
782.888	4036.62
783.222	4031.42
783.556	4059.44
783.889	4041.14
784.223	4044.98
784.557	3981.03
784.89	4050.85
785.224	4036.17
785.557	4033.45
785.891	3958.2
786.224	3959.78
786.558	3966.34
786.891	3979.9
787.224	3912.1
787.557	3923.63
787.891	3894.7
788.224	3902.16
788.557	3909.16
788.89	3877.53
789.223	3861.93
789.556	3858.09
789.888	3882.27
790.221	3846.34
790.554	3830.52
790.887	3785.1
791.219	3819.45
791.552	3795.49
791.884	3781.26
792.217	3783.06
792.549	3765.44
792.882	3746.23
793.214	3737.19
793.546	3739.45
793.879	3725.66
794.211	3696.06
794.543	3711.2
794.875	3703.97
795.207	3660.58
795.539	3658.1
795.871	3691.99
796.203	3659
796.535	3606.12
796.867	3626.91
797.198	3655.16
797.53	3621.71
797.862	3584.43
798.193	3593.92
798.525	3570.19
798.856	3595.5
799.188	3556.18
799.519	3554.37
799.85	3553.47
800.182	3520.02
800.513	3507.37
800.844	3510.53
801.175	3559.79
801.506	3533.35
801.837	3521.38
802.168	3473.69
802.499	3515.5
802.83	3457.65
803.161	3470.76
803.491	3444.99
803.822	3446.58
804.153	3416.29
804.483	3410.19
804.814	3405.67
805.145	3400.02
805.475	3433.24
805.805	3381.49
806.136	3393.92
806.466	3383.07
806.796	3404.54
807.126	3388.27
807.457	3356.63
807.787	3354.38
808.117	3349.86
808.447	3348.95
808.777	3330.65
809.107	3325
809.436	3330.65
809.766	3331.55
810.096	3283.87
810.426	3285.45
810.755	3316.86
811.085	3295.85
811.414	3262.4
811.744	3287.03
812.073	3276.41
812.403	3274.38
812.732	3220.14
813.061	3258.78
813.39	3219.01
813.719	3183.08
814.049	3216.07
814.378	3199.12
814.707	3185.57
815.036	3191.22
815.365	3171.33
815.693	3153.25
816.022	3194.61
816.351	3154.61
816.68	3125.45
817.008	3138.79
817.337	3092.69
817.665	3126.58
817.994	3146.7
818.322	3112.8
818.651	3103.99
818.979	3119.8
819.307	3098.11
819.636	3109.18
819.964	3087.72
820.292	3062.41
820.62	3083.42
820.948	3048.85
821.276	3080.71
821.604	3075.51
821.932	3107.83
822.259	3095.85
822.587	3091.56
822.915	3068.51
823.243	3070.31
823.57	3085.91
823.898	3066.7
824.225	3051.78
824.553	3056.98
824.88	3073.48
825.207	3102.86
825.535	3053.59
825.862	3056.53
826.189	3094.72
826.516	3089.3
826.843	3088.85
827.17	3065.57
827.497	3067.83
827.824	3064.21
828.151	3074.61
828.478	3076.19
828.805	3082.52
829.131	3045.91
829.458	3091.11
829.785	3050.43
830.111	3058.79
830.438	3091.56
830.764	3059.92
831.09	3058.79
831.417	3079.13
831.743	3050.2
832.069	3093.59
832.395	3066.02
832.722	3031.9
833.048	3071.22
833.374	3109.41
833.7	3018.56
834.026	3092.01
834.351	3092.46
834.677	3020.6
835.003	3062.18
835.329	3038.45
835.654	3040.03
835.98	3054.5
836.306	3039.58
836.631	3025.8
836.956	3066.47
837.282	3032.35
837.607	3031.22
837.932	3017.21
838.258	2995.06
838.583	3002.97
838.908	3019.69
839.233	2996.42
839.558	2960.71
839.883	3010.2
840.208	2928.4
840.533	2946.7
840.858	2964.55
841.182	2982.41
841.507	2968.17
841.832	2972.69
842.156	2922.3
842.481	2956.87
842.805	2953.48
843.13	2934.5
843.454	2930.21
843.778	2896.76
844.103	2880.49
844.427	2900.15
844.751	2902.41
845.075	2885.23
845.399	2906.25
845.723	2880.94
846.047	2865.12
846.371	2839.13
846.695	2831.68
847.019	2825.12
847.343	2851.11
847.666	2815.63
847.99	2817.89
848.313	2789.19
848.637	2781.06
848.96	2787.16
849.284	2786.71
849.607	2759.59
849.931	2748.06
850.254	2741.96
850.577	2722.53
850.9	2695.64
851.223	2684.79
851.546	2689.76
851.869	2695.18
852.192	2668.52
852.515	2698.35
852.838	2674.84
853.161	2658.12
853.483	2658.57
853.806	2633.04
854.129	2663.55
854.451	2633.72
854.774	2617.45
855.096	2580.61
855.419	2601.85
855.741	2612.93
856.063	2611.34
856.385	2601.63
856.708	2572.25
857.03	2586.71
857.352	2566.6
857.674	2565.7
857.996	2546.26
858.318	2545.13
858.64	2553.72
858.961	2506.04
859.283	2505.13
859.605	2516.43
859.926	2538.58
860.248	2494.74
860.57	2486.6
860.891	2511.69
861.212	2483.89
861.534	2512.36
861.855	2466.04
862.176	2523.44
862.498	2497.67
862.819	2470.33
863.14	2449.54
863.461	2463.78
863.782	2441.86
864.103	2463.33
864.424	2461.07
864.745	2451.57
865.065	2464.68
865.386	2438.01
865.707	2456.09
866.027	2467.62
866.348	2457.45
866.668	2456.09
866.989	2436.89
867.309	2398.47
867.63	2417
867.95	2427.17
868.27	2401.18
868.59	2438.69
868.91	2402.99
869.23	2417.68
869.55	2402.76
869.87	2396.89
870.19	2414.51
870.51	2382.2
870.83	2409.32
871.15	2383.78
871.469	2376.32
871.789	2391.46
872.109	2373.61
872.428	2354.63
872.748	2363.21
873.067	2348.07
873.386	2374.06
873.706	2378.13
874.025	2369.99
874.344	2349.88
874.663	2344.01
874.982	2353.5
875.301	2347.85
875.62	2332.48
875.939	2321.41
876.258	2346.72
876.577	2349.43
876.896	2361.63
877.214	2314.85
877.533	2329.54
877.852	2293.39
878.17	2337.9
878.489	2320.73
878.807	2324.12
879.125	2276.21
879.444	2283.22
879.762	2260.84
880.08	2298.81
880.398	2267.85
880.716	2286.83
881.034	2285.7
881.352	2288.41
881.67	2318.7
881.988	2259.49
882.306	2278.92
882.624	2278.02
882.941	2269.21
883.259	2268.53
883.577	2260.84
883.894	2295.42
884.212	2238.7
884.529	2259.71
884.846	2246.16
885.164	2201.86
885.481	2227.85
885.798	2253.39
886.115	2220.17
886.432	2195.99
886.75	2176.55
887.067	2192.37
887.383	2206.38
887.7	2195.31
888.017	2178.81
888.334	2219.72
888.651	2197.57
888.967	2180.17
889.284	2201.86
889.6	2164.35
889.917	2141.53
890.233	2159.38
890.55	2160.73
890.866	2135.42
891.182	2153.05
891.498	2139.27
891.815	2126.84
892.131	2141.07
892.447	2146.5
892.763	2095.65
893.079	2106.27
893.395	2122.54
893.71	2106.5
894.026	2106.72
894.342	2096.56
894.657	2100.85
894.973	2083
895.289	2074.18
895.604	2060.85
895.92	2061.3
896.235	2041.64
896.55	2053.39
896.865	2033.96
897.181	2021.53
897.496	2022.88
897.811	2024.47
898.126	2035.54
898.441	2031.7
898.756	2016.56
899.071	1973.39
899.386	2009.78
899.7	2001.64
900.015	1974.07
900.33	1952.83
900.644	1966.84
900.959	1969.55
901.273	1944.47
901.588	1973.39
901.902	1956.67
902.216	1955.32
902.531	1963
902.845	1917.12
903.159	1914.41
903.473	1936.79
903.787	1894.3
904.101	1922.32
904.415	1879.84
904.729	1919.84
905.042	1891.36
905.356	1887.97
905.67	1884.36
905.984	1890.23
906.297	1850.91
906.611	1858.82
906.924	1876.67
907.237	1862.89
907.551	1857.47
907.864	1836.22
908.177	1858.6
908.491	1847.3
908.804	1806.17
909.117	1792.38
909.43	1819.95
909.743	1818.37
910.056	1818.82
910.368	1794.64
910.681	1795.32
910.994	1807.07
911.307	1755.77
911.619	1747.86
911.932	1794.42
912.244	1758.48
912.557	1753.29
912.869	1750.58
913.181	1711.03
913.494	1750.12
913.806	1734.08
914.118	1729.33
914.43	1704.7
914.742	1705.83
915.054	1703.12
915.366	1694.53
915.678	1705.83
915.99	1676.91
916.302	1665.61
916.613	1672.61
916.925	1685.04
917.236	1705.6
917.548	1677.13
917.859	1706.51
918.171	1657.24
918.482	1687.07
918.794	1625.16
919.105	1655.89
919.416	1639.62
919.727	1644.59
920.038	1642.78
920.349	1616.12
920.66	1639.84
920.971	1601.43
921.282	1591.03
921.593	1604.59
921.903	1574.53
922.214	1574.31
922.525	1593.52
922.835	1571.82
923.146	1572.73
923.456	1548.09
923.767	1563.69
924.077	1533.18
924.387	1546.06
924.697	1550.81
925.008	1533.86
925.318	1527.08
925.628	1532.5
925.938	1522.11
926.248	1502.67
926.558	1507.19
926.867	1514.88
927.177	1506.74
927.487	1501.09
927.796	1460.41
928.106	1478.04
928.416	1486.85
928.725	1472.16
929.034	1485.5
929.344	1433.75
929.653	1450.24
929.962	1445.95
930.271	1450.02
930.581	1453.86
930.89	1438.72
931.199	1434.2
931.508	1449.11
931.817	1446.4
932.125	1426.29
932.434	1445.5
932.743	1406.4
933.051	1407.31
933.36	1403.69
933.669	1423.58
933.977	1411.38
934.286	1384.03
934.594	1368.66
934.902	1388.55
935.21	1384.48
935.519	1372.96
935.827	1389.45
936.135	1360.53
936.443	1368.21
936.751	1360.08
937.059	1356.69
937.367	1333.19
937.674	1347.65
937.982	1322.34
938.29	1358.27
938.597	1306.52
938.905	1326.63
939.213	1321.89
939.52	1313.98
939.827	1337.25
940.135	1321.21
940.442	1286.63
940.749	1304.26
941.056	1299.51
941.363	1300.87
941.67	1302.23
941.977	1263.13
942.284	1267.88
942.591	1255.9
942.898	1247.76
943.205	1248.44
943.511	1246.86
943.818	1259.29
944.125	1219.52
944.431	1243.47
944.738	1259.51
945.044	1241.66
945.35	1232.85
945.657	1252.96
945.963	1220.42
946.269	1227.2
946.575	1233.98
946.881	1231.27
947.187	1203.25
947.493	1222
947.799	1188.1
948.105	1192.4
948.41	1184.71
948.716	1172.06
949.022	1190.36
949.327	1181.55
949.633	1167.77
949.938	1168.22
950.244	1188.56
950.549	1163.02
950.854	1168.22
951.16	1153.98
951.465	1162.12
951.77	1160.53
952.075	1132.74
952.38	1149.91
952.685	1138.39
952.99	1098.84
953.294	1133.42
953.599	1123.47
953.904	1126.64
954.209	1141.78
954.513	1137.71
954.818	1117.6
955.122	1096.13
955.426	1106.07
955.731	1120.54
956.035	1091.38
956.339	1115.11
956.643	1109.01
956.948	1074.44
957.252	1083.47
957.556	1084.6
957.86	1093.87
958.163	1059.75
958.467	1062.46
958.771	1088.22
959.075	1062.01
959.378	1045.74
959.682	1075.56
959.985	1064.49
960.289	1066.53
960.592	1052.74
960.896	1035.57
961.199	1034.21
961.502	1057.03
961.805	1019.52
962.108	1050.71
962.411	1025.17
962.714	1027.88
963.017	1024.04
963.32	1010.71
963.623	1013.87
963.926	1027.66
964.228	991.95
964.531	996.02
964.833	1016.13
965.136	998.28
965.438	991.73
965.741	997.37
966.043	962.12
966.345	1010.48
966.648	1003.02
966.95	1018.62
967.252	952.86
967.554	997.37
967.856	996.24
968.158	949.69
968.46	969.13
968.761	956.47
969.063	964.61
969.365	954.21
969.666	938.62
969.968	958.05
970.269	960.31
970.571	927.77
970.872	954.21
971.174	952.4
971.475	936.59
971.776	934.55
972.077	945.62
972.378	919.41
972.679	918.73
972.98	922.12
973.281	922.12
973.582	934.55
973.883	902.69
974.183	910.82
974.484	924.83
974.785	912.86
975.085	926.64
975.386	899.75
975.686	911.95
975.986	905.17
976.287	902.69
976.587	881.9
976.887	872.41
977.187	871.28
977.487	864.27
977.787	866.08
978.087	856.59
978.387	882.35
978.687	873.54
978.987	876.25
979.286	840.09
979.586	869.47
979.885	878.06
980.185	848.23
980.484	875.8
980.784	864.5
981.083	832.63
981.382	840.32
981.682	831.5
981.981	847.55
982.28	837.83
982.579	814.1
982.878	836.7
983.177	840.77
983.475	819.53
983.774	809.13
984.073	832.86
984.372	817.04
984.67	812.75
984.969	828.34
985.267	828.11
985.566	788.79
985.864	822.69
986.162	793.99
986.461	817.94
986.759	809.81
987.057	814.78
987.355	800.77
987.653	796.02
987.951	792.41
988.249	786.76
988.547	821.56
988.844	789.7
989.142	779.75
989.44	795.35
989.737	758.06
990.035	783.14
990.332	769.58
990.63	763.48
990.927	772.97
991.224	775.01
991.521	757.83
991.819	763.93
992.116	756.93
992.413	748.57
992.71	755.8
993.006	750.38
993.303	736.36
993.6	760.09
993.897	749.7
994.193	765.29
994.49	744.05
994.787	753.31
995.083	723.71
995.379	727.1
995.676	716.93
995.972	716.25
996.268	732.52
996.565	725.07
996.861	711.73
997.157	713.54
997.453	740.88
997.749	724.39
998.044	710.15
998.34	708.12
998.636	695.91
998.932	701.56
999.227	692.75
999.523	703.82
999.818	690.04
1000.114	701.56
1000.409	703.82
1000.704	682.35
1001	691.17
1001.295	719.42
1001.59	686.87
1001.885	674.9
1002.18	709.7
1002.475	691.62
1002.77	673.32
1003.065	695.46
1003.359	685.97
1003.654	672.41
1003.949	658.85
1004.243	675.12
1004.538	683.03
1004.832	664.95
1005.127	652.53
1005.421	651.17
1005.715	658.85
1006.009	658.17
1006.304	639.64
1006.598	649.14
1006.892	648.91
1007.186	664.28
1007.48	650.72
1007.773	672.19
1008.067	628.57
1008.361	619.53
1008.655	627.89
1008.948	630.15
1009.242	634.67
1009.535	623.37
1009.829	621.57
1010.122	629.02
1010.415	617.72
1010.708	640.32
1011.001	615.24
1011.295	625.18
1011.588	635.8
1011.881	587.67
1012.173	587.22
1012.466	603.03
1012.759	615.24
1013.052	600.32
1013.344	606.2
1013.637	603.49
1013.93	578.18
1014.222	605.29
1014.514	581.57
1014.807	572.98
1015.099	598.29
1015.391	584.05
1015.683	589.02
1015.976	572.08
1016.268	610.04
1016.56	574.11
1016.851	588.57
1017.143	570.95
1017.435	575.47
1017.727	565.97
1018.018	558.52
1018.31	544.05
1018.602	552.19
1018.893	561.91
1019.185	577.5
1019.476	550.38
1019.767	556.26
1020.058	565.75
1020.35	535.92
1020.641	550.38
1020.932	560.55
1021.223	549.7
1021.514	547.44
1021.804	553.77
1022.095	548.35
1022.386	560.32
1022.677	522.59
1022.967	541.79
1023.258	523.94
1023.548	520.78
1023.839	534.11
1024.129	544.96
1024.419	539.31
1024.709	514
1025	517.61
1025.29	528.91
1025.58	524.17
1025.87	522.81
1026.16	514.9
1026.449	521
1026.739	518.74
1027.029	500.66
1027.319	496.82
1027.608	497.73
1027.898	501.34
1028.187	525.52
1028.477	499.76
1028.766	511.74
1029.055	502.02
1029.344	498.18
1029.634	493.21
1029.923	496.6
1030.212	488.91
1030.501	488.69
1030.79	477.61
1031.078	471.06
1031.367	483.26
1031.656	481.23
1031.945	503.6
1032.233	494.56
1032.522	490.27
1032.81	483.49
1033.099	495.24
1033.387	461.12
1033.675	480.55
1033.963	497.73
1034.251	454.79
1034.54	469.25
1034.828	489.14
1035.116	472.64
1035.403	478.07
1035.691	460.21
1035.979	441.01
1036.267	451.85
1036.554	438.97
1036.842	476.26
1037.129	450.04
1037.417	439.88
1037.704	448.69
1037.992	434.23
1038.279	471.74
1038.566	449.14
1038.853	449.14
1039.14	449.14
