Data from blue_shiny_book_FLMS001491_00015.txt Node
Date: Wed Feb 08 15:26:36 GMT 2017
User: dcchb
Spectrometer: FLMS00149
Trigger mode: 0
Integration Time (sec): 2.000000E-2
Scans to average: 10
Electric dark correction enabled: true
Nonlinearity correction enabled: false
Boxcar width: 0
XAxis mode: Wavelengths
Number of Pixels in Spectrum: 2048
>>>>>Begin Spectral Data<<<<<
341.393	-19.99
341.776	-19.99
342.16	-19.99
342.543	-61.34
342.927	-50.72
343.31	-73.77
343.693	-81.9
344.077	-65.63
344.46	-57.72
344.843	-59.98
345.226	-33.32
345.61	-31.06
345.993	-8.69
346.376	-14.56
346.759	-0.55
347.142	33.57
347.525	53.46
347.908	53.23
348.291	93.91
348.674	89.62
349.057	103.4
349.44	115.6
349.823	146.79
350.206	161.7
350.588	206.68
350.971	230.4
351.354	230.63
351.737	247.58
352.119	264.75
352.502	275.83
352.884	278.31
353.267	279.22
353.65	302.72
354.032	325.09
354.414	327.58
354.797	345.2
355.179	329.38
355.562	339.33
355.944	328.03
356.326	375.71
356.709	351.98
357.091	354.92
357.473	339.1
357.855	358.99
358.238	366.45
358.62	345.88
359.002	355.6
359.384	362.6
359.766	347.01
360.148	377.74
360.53	363.96
360.912	367.58
361.294	368.48
361.676	376.16
362.057	365.99
362.439	359.21
362.821	337.75
363.203	353.11
363.584	361.93
363.966	336.84
364.348	357.63
364.729	361.93
365.111	367.58
365.493	352.43
365.874	357.18
366.256	345.2
366.637	342.04
367.019	358.54
367.4	338.88
367.781	351.53
368.163	347.46
368.544	343.17
368.925	348.59
369.306	353.79
369.688	352.43
370.069	339.55
370.45	360.12
370.831	337.07
371.212	353.11
371.593	363.73
371.974	362.15
372.355	361.25
372.736	357.63
373.117	344.98
373.498	362.15
373.879	368.7
374.26	390.85
374.641	389.04
375.021	371.19
375.402	366.67
375.783	374.81
376.163	367.58
376.544	420.68
376.925	390.4
377.305	377.74
377.686	402.83
378.066	388.14
378.447	405.99
378.827	413.68
379.208	406.9
379.588	396.05
379.968	393.34
380.349	408.03
380.729	418.65
381.109	427.91
381.489	414.58
381.87	414.13
382.25	441.02
382.63	409.38
383.01	430.62
383.39	449.15
383.77	460.91
384.15	469.04
384.53	460.23
384.91	446.44
385.29	450.51
385.67	453.22
386.049	464.52
386.429	483.28
386.809	469.04
387.189	488.25
387.568	467.23
387.948	479.21
388.328	480.57
388.707	514.24
389.087	489.61
389.466	509.27
389.846	527.34
390.225	525.76
390.605	509.49
390.984	521.02
391.363	515.14
391.743	547.46
392.122	537.51
392.501	542.94
392.881	564.86
393.26	556.95
393.639	573.22
394.018	559.89
394.397	574.58
394.776	573.9
395.155	622.94
395.534	611.41
395.913	609.6
396.292	606.89
396.671	636.95
397.05	593.11
397.429	633.33
397.808	621.35
398.186	609.38
398.565	659.54
398.944	651.18
399.323	660.45
399.701	660.67
400.08	668.58
400.458	668.36
400.837	693.67
401.215	695.02
401.594	696.61
401.972	691.63
402.351	709.26
402.729	702.03
403.107	718.98
403.486	712.2
403.864	748.81
404.242	757.17
404.62	764.17
404.999	772.76
405.377	782.25
405.755	794
406.133	794.46
406.511	806.43
406.889	819.99
407.267	853.44
407.645	852.53
408.023	884.85
408.401	893.89
408.779	888.01
409.156	897.28
409.534	885.3
409.912	942.7
410.29	941.8
410.667	964.4
411.045	968.24
411.422	942.7
411.8	989.25
412.178	996.94
412.555	1035.81
412.933	1032.42
413.31	1027.9
413.687	1062.02
414.065	1096.14
414.442	1094.34
414.819	1129.81
415.197	1120.32
415.574	1171.85
415.951	1153.09
416.328	1158.29
416.705	1184.5
417.082	1179.53
417.46	1225.18
417.837	1224.5
418.214	1238.06
418.591	1239.19
418.967	1282.81
419.344	1284.84
419.721	1292.75
420.098	1317.15
420.475	1295.23
420.852	1329.36
421.228	1324.16
421.605	1346.76
421.982	1401.67
422.358	1403.03
422.735	1435.57
423.111	1442.35
423.488	1471.05
423.864	1502.23
424.241	1523.93
424.617	1487.55
424.994	1529.13
425.37	1540.65
425.746	1555.79
426.123	1560.99
426.499	1588.56
426.875	1608.67
427.251	1633.98
427.627	1686.18
428.003	1742.68
428.379	1736.13
428.756	1732.51
429.132	1775.45
429.507	1780.65
429.883	1813.41
430.259	1829.23
430.635	1857.93
431.011	1862
431.387	1936.35
431.763	1970.92
432.138	1987.19
432.514	2011.15
432.89	2026.06
433.265	2094.31
433.641	2161.88
434.016	2117.59
434.392	2167.08
434.767	2193.06
435.143	2207.98
435.518	2256.11
435.894	2264.02
436.269	2288.65
436.644	2386.05
437.02	2347.41
437.395	2412.95
437.77	2433.28
438.145	2443
438.52	2513.51
438.895	2545.6
439.271	2512.83
439.646	2584.01
440.021	2635.99
440.395	2613.39
440.77	2595.99
441.145	2659.04
441.52	2715.08
441.895	2703.11
442.27	2765.03
442.645	2769.77
443.019	2782.43
443.394	2802.77
443.769	2835.76
444.143	2857.91
444.518	2867.17
444.892	2859.03
445.267	2900.62
445.641	2931.12
446.016	2981.52
446.39	3025.81
446.764	3040.73
447.139	3051.57
447.513	3075.53
447.887	3092.93
448.262	3115.98
448.636	3143.77
449.01	3188.97
449.384	3223.55
449.758	3233.04
450.132	3305.8
450.506	3276.2
450.88	3318.01
451.254	3337.67
451.628	3429.42
452.002	3442.3
452.376	3472.13
452.75	3525.68
453.123	3587.6
453.497	3605.23
453.871	3645.45
454.244	3748.73
454.618	3791.67
454.992	3806.81
455.365	3802.51
455.739	3927.71
456.112	3892.68
456.486	3985.79
456.859	4000.47
457.232	4115.05
457.606	4114.82
457.979	4184.65
458.352	4220.36
458.725	4336.06
459.099	4390.97
459.472	4486.56
459.845	4520.69
460.218	4561.82
460.591	4636.16
460.964	4650.85
461.337	4761.81
461.71	4811.98
462.083	4851.07
462.456	4874.35
462.829	4898.3
463.201	5084.29
463.574	5091.97
463.947	5163.38
464.32	5271.85
464.692	5311.85
465.065	5375.8
465.438	5404.28
465.81	5489.93
466.183	5594.78
466.555	5676.81
466.928	5735.34
467.3	5759.75
467.672	5819.18
468.045	5991.61
468.417	6032.06
468.789	6075
469.161	6129.23
469.534	6275.44
469.906	6421.2
470.278	6506.17
470.65	6583.46
471.022	6634.08
471.394	6804.92
471.766	6870.68
472.138	6927.18
472.51	7080.17
472.882	7154.97
473.253	7305.7
473.625	7440.84
473.997	7590.44
474.369	7605.58
474.74	7778.91
475.112	7973.7
475.484	8077.65
475.855	8167.6
476.227	8240.36
476.598	8498.66
476.97	8512.9
477.341	8741.37
477.713	8871.98
478.084	8928.71
478.455	9196.72
478.827	9295.93
479.198	9536.6
479.569	9590.38
479.94	9920.09
480.311	9987.89
480.682	10199.18
481.053	10429.23
481.424	10557.82
481.795	10679.62
482.166	10872.84
482.537	11031.02
482.908	11289.77
483.279	11331.81
483.65	11583.78
484.021	11769.76
484.391	12008.85
484.762	12070.54
485.133	12196.87
485.503	12472.34
485.874	12706.69
486.244	12914.14
486.615	13141.7
486.985	13238.2
487.356	13537.4
487.726	13596.15
488.097	13974.9
488.467	13935.81
488.837	14261
489.207	14393.19
489.578	14635.22
489.948	14742.34
490.318	15030.47
490.688	15098.04
491.058	15399.5
491.428	15698.02
491.798	15741.18
492.168	16076.99
492.538	16251.45
492.908	16431.79
493.278	16602.63
493.648	16664.32
494.017	16888.04
494.387	17022.05
494.757	17173.46
495.126	17338.43
495.496	17394.02
495.866	17508.14
496.235	17767.8
496.605	18020.67
496.974	18057.51
497.344	18248.91
497.713	18468.57
498.082	18636.02
498.452	18884.15
498.821	19015.22
499.19	19123.69
499.559	19283.69
499.928	19463.12
500.298	19441.42
500.667	19608.88
501.036	19746.95
501.405	19923.22
501.774	19947.4
502.143	20255.64
502.512	20194.4
502.88	20468.52
503.249	20477.1
503.618	20711.9
503.987	20786.25
504.356	20888.62
504.724	21119.8
505.093	21337.65
505.462	21471.43
505.83	21569.73
506.199	21757.75
506.567	22087.46
506.936	21914.35
507.304	22231.41
507.672	22339.88
508.041	22409.93
508.409	22512.53
508.777	22722.92
509.145	22946.87
509.514	22919.3
509.882	23084.72
510.25	23319.51
510.618	23604.48
510.986	23637.92
511.354	23990
511.722	24194.29
512.09	24591.57
512.458	24633.83
512.826	24665.47
513.193	24843.32
513.561	24833.6
513.929	24909.53
514.297	25198.33
514.664	25330.08
515.032	25374.6
515.4	25632.9
515.767	25760.13
516.135	25953.12
516.502	25921.71
516.869	26340
517.237	26542.25
517.604	26584.74
517.972	27021.56
518.339	27184.27
518.706	27285.74
519.073	27471.04
519.44	27695.9
519.808	28109.67
520.175	27994.87
520.542	28430.34
520.909	28454.29
521.276	28527.74
521.643	28725.25
522.009	28773.61
522.376	28986.26
522.743	29085.24
523.11	29440.26
523.477	29642.06
523.843	30011.77
524.21	30300.35
524.577	30626.21
524.943	30745.99
525.31	31134.9
525.676	31470.03
526.043	31656.24
526.409	31873.87
526.776	32289.45
527.142	32321.31
527.508	32470.69
527.874	32704.35
528.241	32852.6
528.607	32913.16
528.973	33076.09
529.339	33027.06
529.705	33307.95
530.071	33496.87
530.437	33693.93
530.803	33955.62
531.169	34173.24
531.535	34196.74
531.901	34442.16
532.267	34803.73
532.632	35108.58
532.998	35320.55
533.364	35580.89
533.73	35761.9
534.095	36039.41
534.461	36076.01
534.826	36341.32
535.192	36445.95
535.557	36593.74
535.923	36416.34
536.288	36543.57
536.653	36631.03
537.019	36580.18
537.384	36709.22
537.749	36936.78
538.114	37120.51
538.479	37019.94
538.845	37338.81
539.21	37378.35
539.575	37734.5
539.94	37788.29
540.305	38247.71
540.67	38224.43
541.034	38546.23
541.399	38719.79
541.764	38938.99
542.129	38960.68
542.494	39111.19
542.858	39236.16
543.223	39174.46
543.587	39420.79
543.952	39214.46
544.316	39241.13
544.681	39263.05
545.045	39298.3
545.41	39552.31
545.774	39469.15
546.138	39450.62
546.503	39663.94
546.867	39766.54
547.231	40170.6
547.595	40327.2
547.959	40482
548.324	40757.7
548.688	40941.88
549.052	41111.36
549.416	41309.55
549.779	41456.66
550.143	41364.92
550.507	41637
550.871	41455.08
551.235	41465.25
551.599	41788.86
551.962	41673.16
552.326	41680.61
552.689	41769.88
553.053	41636.77
553.417	41712.25
553.78	42089.42
554.143	42171.22
554.507	42331.22
554.87	42460.03
555.234	42907.02
555.597	42658.21
555.96	43025.89
556.323	43394.69
556.686	43507.23
557.05	43781.35
557.413	43975.92
557.776	44285.52
558.139	44455.46
558.502	44499.97
558.865	44483.7
559.228	44743.36
559.59	44720.76
559.953	44741.78
560.316	44988.55
560.679	44788.55
561.041	44892.73
561.404	45163.23
561.767	45198.94
562.129	45083.91
562.492	45579.27
562.854	45639.61
563.217	45623.33
563.579	46039.37
563.941	46241.62
564.304	46515.51
564.666	46807.71
565.028	46979.46
565.39	47157.31
565.753	47507.13
566.115	47516.84
566.477	47902.82
566.839	47967.45
567.201	48115.47
567.563	48084.51
567.925	48247.45
568.287	48094.46
568.648	48076.6
569.01	48226.2
569.372	48333.09
569.734	48087
570.095	48348.23
570.457	48462.81
570.819	48421
571.18	48468.68
571.542	48711.61
571.903	48807.43
572.265	49071.38
572.626	49245.84
572.987	49435.44
573.349	49729.89
573.71	49995.42
574.071	50013.73
574.432	50109.32
574.794	50422.53
575.155	50418.91
575.516	50241.52
575.877	50505.24
576.238	50412.13
576.599	50586.14
576.96	50537.1
577.32	50565.58
577.681	50527.61
578.042	50573.26
578.403	50583.66
578.763	50584.11
579.124	50619.59
579.485	50663.43
579.845	50758.11
580.206	50685.57
580.566	50714.27
580.927	50800.83
581.287	50976.87
581.648	50975.28
582.008	51244.2
582.368	51280.81
582.728	51405.33
583.089	51485.1
583.449	51438.1
583.809	51522.84
584.169	51732.1
584.529	51626.11
584.889	51804.19
585.249	51547.02
585.609	51500.47
585.969	51607.36
586.329	51602.84
586.688	51442.39
587.048	51428.15
587.408	51383.86
587.768	51304.99
588.127	51266.58
588.487	51138.9
588.846	51377.99
589.206	51177.76
589.565	51128.5
589.925	51323.52
590.284	51250.98
590.643	51366.23
591.003	51441.94
591.362	51676.51
591.721	51667.92
592.08	51648.26
592.44	51869.05
592.799	51880.57
593.158	51862.94
593.517	51975.71
593.876	52014.35
594.235	51993.56
594.593	51983.17
594.952	52024.3
595.311	51791.08
595.67	51920.12
596.029	52000.79
596.387	51916.05
596.746	51964.64
597.104	51789.73
597.463	51671.99
597.822	51891.87
598.18	51689.62
598.538	51692.33
598.897	51829.27
599.255	51627.02
599.613	51988.59
599.972	51867.01
600.33	52063.84
600.688	51998.53
601.046	52210.28
601.404	52308.81
601.762	52180.9
602.12	52432.65
602.478	52523.72
602.836	52551.51
603.194	52430.39
603.552	52547.67
603.91	52422.25
604.268	52649.82
604.625	52478.97
604.983	52596.26
605.341	52330.95
605.698	52449.37
606.056	52456.37
606.413	52403.72
606.771	52572.98
607.128	52461.8
607.485	52321.69
607.843	52393.55
608.2	52516.49
608.557	52699.31
608.914	52477.17
609.272	52660.44
609.629	52635.81
609.986	52737.72
610.343	52511.06
610.7	52879.19
611.057	52898.62
611.414	52847.1
611.771	52978.17
612.127	53210.71
612.484	53181.55
612.841	53264.72
613.198	53167.32
613.554	53310.14
613.911	53338.61
614.267	53518.27
614.624	53424.94
614.98	53482.11
615.337	53526.63
615.693	53470.81
616.05	53418.84
616.406	53581.77
616.762	53454.09
617.118	53456.57
617.475	53327.76
617.831	53460.19
618.187	53436.69
618.543	53455.22
618.899	53522.79
619.255	53500.42
619.611	53462.68
619.967	53532.96
620.323	53559.85
620.678	53359.18
621.034	53460.87
621.39	53531.15
621.746	53364.37
622.101	53865.6
622.457	53600.98
622.812	53738.15
623.168	53796.45
623.523	53820.41
623.879	53998.26
624.234	53790.35
624.589	53900.63
624.945	54014.75
625.3	54005.49
625.655	53966.84
626.01	54019.95
626.365	53954.87
626.72	53942.44
627.075	53855.89
627.43	53795.55
627.785	53796.45
628.14	53821.76
628.495	53703.57
628.85	53658.15
629.205	53583.12
629.559	53681.2
629.914	53424.94
630.269	53452.51
630.623	53399.85
630.978	53304.04
631.332	53440.3
631.687	53518.49
632.041	53481.43
632.396	53563.69
632.75	53430.36
633.104	53484.37
633.459	53385.16
633.813	53479.17
634.167	53411.6
634.521	53404.37
634.875	53469.91
635.229	53436.69
635.583	53417.93
635.937	53399.18
636.291	53363.92
636.645	53437.82
636.999	53389.01
637.352	53358.5
637.706	53258.39
638.06	53338.84
638.413	53138.39
638.767	52998.28
639.121	53082.57
639.474	52789.93
639.828	52734.33
640.181	52749.47
640.534	52706.99
640.888	52441.01
641.241	52376.15
641.594	52471.06
641.947	52468.8
642.301	52349.26
642.654	52392.2
643.007	52379.99
643.36	52341.8
643.713	52303.16
644.066	52447.11
644.419	52357.62
644.771	52376.83
645.124	52294.8
645.477	52297.96
645.83	52090.06
646.182	51763.74
646.535	51551.99
646.888	51438.32
647.24	51159.46
647.593	51362.84
647.945	51427.48
648.298	51133.92
648.65	51188.84
649.002	51202.85
649.355	51242.62
649.707	51239.23
650.059	51356.74
650.411	51771.2
650.763	51833.57
651.115	52036.5
651.467	51732.1
651.819	51656.4
652.171	51561.26
652.523	51466.34
652.875	51594.7
653.227	51318.55
653.578	51640.58
653.93	51511.99
654.282	51293.47
654.633	51105.68
654.985	51303.64
655.337	51270.87
655.688	51295.05
656.039	51421.83
656.391	51272
656.742	51399.45
657.094	51434.93
657.445	51622.5
657.796	51584.53
658.147	51620.24
658.498	51657.07
658.849	51646.23
659.2	51650.52
659.551	51485.33
659.902	51704.76
660.253	51714.93
660.604	51716.51
660.955	51568.94
661.306	51672.67
661.656	51558.55
662.007	51406.01
662.358	51286.69
662.708	51350.64
663.059	51315.39
663.409	51116.98
663.76	51196.75
664.11	51146.13
664.461	50997.66
664.811	50995.4
665.161	50980.71
665.511	50803.54
665.862	50905.46
666.212	50954.95
666.562	50977.54
666.912	50790.2
667.262	50821.39
667.612	50927.83
667.962	51048.5
668.312	50922.86
668.662	51192.68
669.011	51098.67
669.361	51052.12
669.711	51025.9
670.06	51033.36
670.41	51022.06
670.76	51010.09
671.109	51168.27
671.459	51012.8
671.808	51092.79
672.157	51230.87
672.507	51037.2
672.856	50975.06
673.205	51060.25
673.554	51206.92
673.904	51065.45
674.253	51129.63
674.602	50984.55
674.951	50435.64
675.3	50040.39
675.649	50530.55
675.998	50478.12
676.346	50307.5
676.695	50319.26
677.044	49984.8
677.393	50041.75
677.741	50086.72
678.09	49938.48
678.438	49801.3
678.787	49812.38
679.135	49820.96
679.484	49622.78
679.832	49895.09
680.181	49625.94
680.529	49764.02
680.877	49787.52
681.225	49685.37
681.573	49873.62
681.922	49832.72
682.27	49751.59
682.618	49918.14
682.966	49831.59
683.314	49846.27
683.661	49786.84
684.009	49664.36
684.357	49600.86
684.705	49705.26
685.053	49709.55
685.4	49628.43
685.748	49422.33
686.095	49300.53
686.443	49250.36
686.79	49205.61
687.138	49134.65
687.485	49201.09
687.832	48846.53
688.18	48854.66
688.527	48585.97
688.874	48477.72
689.221	48218.75
689.568	48035.93
689.915	47835.03
690.262	47794.35
690.609	47713.9
690.956	47571.08
691.303	47464.87
691.65	47237.3
691.997	47060.13
692.344	46855.17
692.69	46973.81
693.037	46889.29
693.383	46581.05
693.73	46824.21
694.077	46575.4
694.423	46625.57
694.769	46601.84
695.116	46589.64
695.462	46621.05
695.808	46503.54
696.155	46589.18
696.501	46400.71
696.847	46517.32
697.193	46226.71
697.539	46384.44
697.885	46074.85
698.231	46042.53
698.577	46092.47
698.923	45907.62
699.269	45820.62
699.614	45481.19
699.96	45430.35
700.306	45225.15
700.651	45065.16
700.997	44904.03
701.342	44629.46
701.688	44499.07
702.033	44283.93
702.379	44282.8
702.724	43988.35
703.069	44090.27
703.415	43544.07
703.76	43464.3
704.105	43442.37
704.45	43281.93
704.795	42932.78
705.14	42714.94
705.485	42733.01
705.83	42754.94
706.175	42667.93
706.52	42532.79
706.865	42454.15
707.209	42439.46
707.554	42411.67
707.899	42505.45
708.243	42346.36
708.588	42363.98
708.932	42151.34
709.277	42095.07
709.621	42340.26
709.966	42171.67
710.31	42249.86
710.654	41954.5
710.998	42190.43
711.342	42194.05
711.687	42101.39
712.031	42048.74
712.375	41810.1
712.719	41847.39
713.063	41513.84
713.407	41634.06
713.75	41473.84
714.094	41423.22
714.438	41229.55
714.782	41299.61
715.125	41092.38
715.469	40885.61
715.812	40754.31
716.156	40496.46
716.499	40436.35
716.843	40243.14
717.186	39965.4
717.53	40087.21
717.873	40064.84
718.216	39790.95
718.559	39652.64
718.902	39315.03
719.246	39505.08
719.589	39494.91
719.932	39438.41
720.275	39360.45
720.617	39320
720.96	39395.02
721.303	39387.79
721.646	39337.62
721.989	39209.94
722.331	39397.74
722.674	39166.1
723.016	39383.5
723.359	39357.96
723.701	39428.47
724.044	39368.13
724.386	39133.11
724.729	39452.65
725.071	39404.97
725.413	39429.37
725.755	39418.75
726.097	39240.45
726.439	39040.91
726.782	39116.61
727.124	39221.24
727.465	38857.41
727.807	39002.94
728.149	38825.77
728.491	38804.08
728.833	38756.4
729.175	38506.69
729.516	38538.1
729.858	38444.31
730.199	38410.19
730.541	38273.02
730.882	38162.74
731.224	38317.99
731.565	38036.19
731.906	37860.15
732.248	37848.85
732.589	37554.62
732.93	37617.44
733.271	37538.58
733.612	37657.44
733.953	37495.41
734.294	37387.39
734.635	37324.57
734.976	37556.65
735.317	37267.62
735.658	37419.26
735.999	37349.65
736.339	37458.8
736.68	37590.55
737.021	37507.62
737.361	37399.6
737.702	37718.23
738.042	37593.04
738.383	37437.33
738.723	37612.25
739.063	37462.19
739.404	37622.41
739.744	37819.7
740.084	37644.56
740.424	37810.21
740.764	37688.4
741.104	37872.8
741.444	37694.96
741.784	37499.93
742.124	37659.02
742.464	37602.53
742.804	37758.23
743.143	37560.5
743.483	37496.09
743.823	37255.19
744.162	37332.03
744.502	37359.37
744.841	37142.2
745.181	37272.59
745.52	37023.79
745.86	37127.96
746.199	37057.01
746.538	36968.87
746.877	37094.97
747.216	37158.02
747.556	37047.97
747.895	36888.42
748.234	36850.91
748.573	36800.52
748.911	36690.69
749.25	36849.33
749.589	36697.92
749.928	36592.84
750.267	36706.28
750.605	36661.76
750.944	36725.26
751.283	36705.15
751.621	36770.46
751.96	36649.33
752.298	36745.83
752.636	36935.88
752.975	36748.31
753.313	36826.5
753.651	36948.76
753.989	36798.48
754.327	36718.71
754.666	36756
755.004	36989.89
755.342	37005.71
755.679	37001.87
756.017	36899.27
756.355	36984.69
756.693	36924.13
757.031	37148.08
757.368	36917.8
757.706	36977.01
758.044	36913.96
758.381	37020.17
758.719	36791.7
759.056	36976.1
759.394	37007.52
759.731	36726.39
760.068	36805.49
760.405	36552.39
760.743	36517.36
761.08	36648.88
761.417	36327.31
761.754	36189.68
762.091	36262
762.428	36116.47
762.765	35968.9
763.102	36115.34
763.438	35853.87
763.775	35725.97
764.112	35612.3
764.449	35692.07
764.785	35651.62
765.122	35405.3
765.458	35163.95
765.795	35357.62
766.131	35336.6
766.467	35151.52
766.804	34983.16
767.14	34869.94
767.476	35061.13
767.812	34934.8
768.148	35051.18
768.485	34923.28
768.821	34748.59
769.157	34578.2
769.492	34772.55
769.828	34696.84
770.164	34481.71
770.5	34429.73
770.836	34558.77
771.171	34287.81
771.507	34338.21
771.842	34005.56
772.178	34073.13
772.513	34167.82
772.849	33914.04
773.184	33844.89
773.519	33852.34
773.855	33650.99
774.19	33508.62
774.525	33395.63
774.86	33421.62
775.195	33399.02
775.53	33295.97
775.865	33128.75
776.2	33021.18
776.535	32879.94
776.87	32877.68
777.205	32547.75
777.539	32389.56
777.874	32389.11
778.209	32143.69
778.543	32007.87
778.878	31908.21
779.212	31790.93
779.547	31753.87
779.881	31696.02
780.215	31474.78
780.55	31546.42
780.884	31284.28
781.218	31094.9
781.552	31050.61
781.886	30913.44
782.22	30720.45
782.554	30616.5
782.888	30394.58
783.222	30224.87
783.556	30175.15
783.889	30075.95
784.223	29978.77
784.557	29972.45
784.89	29927.93
785.224	29740.36
785.557	29583.08
785.891	29550.76
786.224	29602.96
786.558	29521.38
786.891	29367.94
787.224	29255.18
787.557	29242.07
787.891	29292.92
788.224	29150.55
788.557	29024.67
788.89	28975.64
789.223	29069.87
789.556	28914.85
789.888	28835.75
790.221	28673.72
790.554	28646.83
790.887	28631.92
791.219	28544.91
791.552	28412.26
791.884	28223.34
792.217	28161.87
792.549	28129.78
792.882	28084.59
793.214	27898.83
793.546	27864.25
793.879	27647.99
794.211	27596.92
794.543	27772.73
794.875	27503.58
795.207	27489.12
795.539	27365.96
795.871	27243.25
796.203	27009.13
796.535	26856.6
796.867	26839.2
797.198	26698.41
797.53	26733.66
797.862	26409.83
798.193	26366.44
798.525	26167.12
798.856	26257.06
799.188	25909.05
799.519	25879.45
799.85	25768.94
800.182	25726.91
800.513	25729.17
800.844	25473.13
801.175	25451.66
801.506	25582.28
801.837	25484.43
802.168	25298.67
802.499	25239.01
802.83	25268.62
803.161	25125.34
803.491	25282.63
803.822	25052.58
804.153	25038.56
804.483	24883.31
804.814	24729.87
805.145	24857.78
805.475	24780.72
805.805	24642.42
806.136	24743.88
806.466	24846.03
806.796	24609.42
807.126	24472.25
807.457	24427.96
807.787	24472.93
808.117	24326.95
808.447	24234.07
808.777	24372.37
809.107	24230.45
809.436	24162.43
809.766	24279.49
810.096	24175.54
810.426	23973.06
810.755	24027.29
811.085	24030.68
811.414	23914.53
811.744	23721.76
812.073	23754.98
812.403	23741.42
812.732	23522.22
813.061	23520.19
813.39	23302.11
813.719	23227.31
814.049	23359.51
814.378	23122.23
814.707	23146.64
815.036	23010.14
815.365	23005.4
815.693	22681.56
816.022	22725.18
816.351	22594.11
816.68	22386.66
817.008	22345.08
817.337	22226.66
817.665	22245.42
817.994	22292.42
818.322	22157.06
818.651	22095.14
818.979	21869.38
819.307	22023.5
819.636	21882.49
819.964	21843.85
820.292	21902.6
820.62	21870.74
820.948	21858.31
821.276	21923.39
821.604	21803.4
821.932	21835.71
822.259	21795.26
822.587	21854.69
822.915	21859.89
823.243	21964.07
823.57	21963.39
823.898	21951.87
824.225	21845.88
824.553	21915.48
824.88	22049.94
825.207	21947.8
825.535	22009.49
825.862	22041.36
826.189	21906.44
826.516	22093.78
826.843	22276.83
827.17	22252.42
827.497	22115.03
827.824	22046.1
828.151	22192.99
828.478	22201.58
828.805	22277.06
829.131	22147.34
829.458	22043.62
829.785	22053.56
830.111	22110.51
830.438	22201.8
830.764	22213.55
831.09	22077.51
831.417	21984.41
831.743	22237.73
832.069	22129.26
832.395	22080.68
832.722	21999.1
833.048	21905.09
833.374	21923.39
833.7	21804.53
834.026	21835.49
834.351	21787.35
834.677	21918.65
835.003	21783.74
835.329	21734.02
835.654	21672.1
835.98	21501.03
836.306	21520.01
836.631	21393.69
836.956	21522.95
837.282	21384.2
837.607	21298.55
837.932	21217.65
838.258	21187.37
838.583	21132.68
838.908	20974.72
839.233	20999.57
839.558	20950.08
839.883	20775.17
840.208	20828.96
840.533	20702.41
840.858	20877.09
841.182	20877.32
841.507	20940.59
841.832	20713.48
842.156	20720.71
842.481	20694.27
842.805	20622.64
843.13	20679.13
843.454	20521.85
843.778	20558.68
844.103	20429.19
844.427	20481.62
844.751	20447.27
845.075	20542.64
845.399	20501.96
845.723	20285.24
846.047	20222.65
846.371	20068.98
846.695	20098.13
847.019	20042.31
847.343	20069.43
847.666	19948.98
847.99	19812.71
848.313	19879.38
848.637	19774.97
848.96	19791.7
849.284	19798.25
849.607	19646.62
849.931	19591.93
850.254	19415.66
850.577	19221.09
850.9	19167.76
851.223	19121.88
851.546	18972.28
851.869	18868.56
852.192	18916.69
852.515	18787.88
852.838	18743.82
853.161	18693.87
853.483	18507.21
853.806	18419.98
854.129	18492.75
854.451	18388.34
854.774	18219.31
855.096	18257.73
855.419	18115.13
855.741	17927.34
856.063	17820.45
856.385	17834.01
856.708	17756.04
857.03	17696.38
857.352	17669.04
857.674	17628.82
857.996	17549.72
858.318	17437.86
858.64	17441.25
858.961	17312.21
859.283	17283.29
859.605	17072.67
859.926	17140.92
860.248	17068.15
860.57	16980.02
860.891	16984.77
861.212	16837.65
861.534	16847.59
861.855	16892.34
862.176	17006.69
862.498	16986.12
862.819	16909.06
863.14	16870.87
863.461	16820.93
863.782	16788.39
864.103	16862.73
864.424	16771.21
864.745	16773.7
865.065	16794.04
865.386	16694.6
865.707	16592.23
866.027	16700.48
866.348	16594.04
866.668	16652.12
866.989	16607.6
867.309	16596.3
867.63	16605.34
867.95	16635.85
868.27	16504.55
868.59	16564.21
868.91	16532.8
869.23	16417.77
869.55	16455.51
869.87	16661.38
870.19	16437.89
870.51	16573.02
870.83	16419.58
871.15	16247.84
871.469	16381.17
871.789	16326.25
872.109	16311.56
872.428	16244.45
872.748	16310.88
873.067	16239.7
873.386	16206.93
873.706	16133.26
874.025	16004.45
874.344	16041.29
874.663	16008.52
874.982	15941.18
875.301	15987.5
875.62	15837.9
875.939	15726.27
876.258	15707.28
876.577	15663.67
876.896	15694.86
877.214	15664.12
877.533	15602.88
877.852	15492.15
878.17	15562.43
878.489	15478.36
878.807	15425.94
879.125	15409.89
879.444	15528.08
879.762	15278.82
880.08	15329.44
880.398	15185.26
880.716	15250.35
881.034	15194.53
881.352	15177.81
881.67	15100.75
881.988	15171.71
882.306	15122.89
882.624	15092.39
882.941	15007.87
883.259	14905.95
883.577	14880.41
883.894	14827.99
884.212	14898.94
884.529	14884.93
884.846	14878.61
885.164	14826.86
885.481	14849.68
885.798	14800.42
886.115	14703.7
886.432	14749.57
886.75	14706.41
887.067	14705.28
887.383	14781.89
887.7	14758.16
888.017	14727.2
888.334	14721.77
888.651	14673.64
888.967	14629.12
889.284	14646.3
889.6	14595.22
889.917	14493.98
890.233	14491.05
890.55	14441.78
890.866	14468
891.182	14384.61
891.498	14482.46
891.815	14364.5
892.131	14364.72
892.447	14207.21
892.763	14215.35
893.079	14192.07
893.395	14184.84
893.71	14035.46
894.026	14126.54
894.342	14095.8
894.657	13885.19
894.973	13848.12
895.289	13830.72
895.604	13859.65
895.92	13745.3
896.235	13638.64
896.55	13713.44
896.865	13583.5
897.181	13507.34
897.496	13420.57
897.811	13440.45
898.126	13309.83
898.441	13244.98
898.756	13226.9
899.071	13141.02
899.386	13069.61
899.7	12966.57
900.015	12935.38
900.33	12822.16
900.644	12775.38
900.959	12724.76
901.273	12700.81
901.588	12612.9
901.902	12596.86
902.216	12529.74
902.531	12440.25
902.845	12496.3
903.159	12378.11
903.473	12292.46
903.787	12320.26
904.101	12233.7
904.415	12234.83
904.729	12143.31
905.042	12030.55
905.356	11995.52
905.67	12050.21
905.984	11989.19
906.297	11979.47
906.611	11885.46
906.924	11925.69
907.237	11814.73
907.551	11805.47
907.864	11767.5
908.177	11809.31
908.491	11796.65
908.804	11733.6
909.117	11647.05
909.43	11590.33
909.743	11547.17
910.056	11572.03
910.368	11503.1
910.681	11431.92
910.994	11417.45
911.307	11465.81
911.619	11274.63
911.932	11302.2
912.244	11266.05
912.557	11263.56
912.869	11195.54
913.181	11125.94
913.494	11143.11
913.806	11219.95
914.118	11098.82
914.43	10972.95
914.742	11008.2
915.054	10888.88
915.366	10923.46
915.678	10939.95
915.99	10878.03
916.302	10748.55
916.613	10770.24
916.925	10704.03
917.236	10698.6
917.548	10678.26
917.859	10577.02
918.171	10518.95
918.482	10460.87
918.794	10415.22
919.105	10445.95
919.416	10273.08
919.727	10180.2
920.038	10155.79
920.349	10149.69
920.66	10025.63
920.971	9966.42
921.282	9908.34
921.593	9867.21
921.903	9836.93
922.214	9764.16
922.525	9737.27
922.835	9608.91
923.146	9585.41
923.456	9490.27
923.767	9493.21
924.077	9468.13
924.387	9431.97
924.697	9337.28
925.008	9370.95
925.318	9320.11
925.628	9310.62
925.938	9108.36
926.248	9106.55
926.558	9156.95
926.867	9044.86
927.177	9038.53
927.487	9004.18
927.796	8904.3
928.106	8904.75
928.416	8883.74
928.725	8828.14
929.034	8798.54
929.344	8810.06
929.653	8784.75
929.962	8721.48
930.271	8602.61
930.581	8593.35
930.89	8636.96
931.199	8576.62
931.508	8549.05
931.817	8540.47
932.125	8486.01
932.434	8483.52
932.743	8392.22
933.051	8401.94
933.36	8434.71
933.669	8350.87
933.977	8360.36
934.286	8400.81
934.594	8322.62
934.902	8231.78
935.21	8186.35
935.519	8241.49
935.827	8239.91
936.135	8182.51
936.443	8144.09
936.751	8143.87
937.059	8154.49
937.367	8092.34
937.674	8094.38
937.982	8058.45
938.29	7980.93
938.597	7955.4
938.905	7926.92
939.213	7836.31
939.52	7895.06
939.827	7841.73
940.135	7763.09
940.442	7641.28
940.749	7700.72
941.056	7654.16
941.363	7545.47
941.67	7593.83
941.977	7529.19
942.284	7506.6
942.591	7429.54
942.898	7372.36
943.205	7433.38
943.511	7347.5
943.818	7325.58
944.125	7254.4
944.431	7223.21
944.738	7148.64
945.044	7165.81
945.35	7109.77
945.657	7046.72
945.963	7003.33
946.269	7021.19
946.575	6973.28
946.881	6972.15
947.187	6906.84
947.493	6848.31
947.799	6802.66
948.105	6780.51
948.41	6729.22
948.716	6712.04
949.022	6701.87
949.327	6623.46
949.633	6578.03
949.938	6589.78
950.244	6593.63
950.549	6515.44
950.854	6495.32
951.16	6413.52
951.465	6450.8
951.77	6441.99
952.075	6370.13
952.38	6367.64
952.685	6341.43
952.99	6282.9
953.294	6284.48
953.599	6271.6
953.904	6258.04
954.209	6135.78
954.513	6151.83
954.818	6188.66
955.122	6154.32
955.426	6114.99
955.731	6110.25
956.035	6032.51
956.339	6053.08
956.643	6052.4
956.948	5981.89
957.252	5983.47
957.556	5982.79
957.86	5968.56
958.163	5934.89
958.467	5919.97
958.771	5896.02
959.075	5851.72
959.378	5823.48
959.682	5847.21
959.985	5842.23
960.289	5800.43
960.592	5801.56
960.896	5743.7
961.199	5773.08
961.502	5768.79
961.805	5707.55
962.108	5637.27
962.411	5672.07
962.714	5625.52
963.017	5612.18
963.32	5586.42
963.623	5536.7
963.926	5614.89
964.228	5522.69
964.531	5491.28
964.833	5495.8
965.136	5413.32
965.438	5392.75
965.741	5399.31
966.043	5333.09
966.345	5349.14
966.648	5270.95
966.95	5262.36
967.252	5228.46
967.554	5182.82
967.856	5182.14
968.158	5130.61
968.46	5116.38
968.761	5079.09
969.063	5057.17
969.365	5028.92
969.666	5025.76
969.968	5011.75
970.269	4973.78
970.571	4911.64
970.872	4918.42
971.174	4894.24
971.475	4911.86
971.776	4849.27
972.077	4823.96
972.378	4830.51
972.679	4832.77
972.98	4748.7
973.281	4746.22
973.582	4693.11
973.883	4707.35
974.183	4646.78
974.484	4628.93
974.785	4573.79
975.085	4567.69
975.386	4577.18
975.686	4554.81
975.986	4512.32
976.287	4466.45
976.587	4416.96
976.887	4412.21
977.187	4415.6
977.487	4344.65
977.787	4342.16
978.087	4352.78
978.387	4305.55
978.687	4347.36
978.987	4287.02
979.286	4215.38
979.586	4256.06
979.885	4211.77
980.185	4209.28
980.484	4198.66
980.784	4200.24
981.083	4209.73
981.382	4138.1
981.682	4192.11
981.981	4173.8
982.28	4128.38
982.579	4108.27
982.878	4107.59
983.177	4070.08
983.475	4063.07
983.774	4027.37
984.073	4032.56
984.372	3983.75
984.67	4018.55
984.969	4033.24
985.267	3983.53
985.566	3954.6
985.864	3932
986.162	3980.59
986.461	3943.3
986.759	3921.61
987.057	3898.33
987.355	3912.11
987.653	3896.52
987.951	3915.96
988.249	3840.93
988.547	3805.9
988.844	3810.42
989.142	3751.21
989.44	3767.94
989.737	3721.16
990.035	3759.12
990.332	3727.26
990.63	3713.48
990.927	3671.67
991.224	3630.54
991.521	3645.91
991.819	3625.57
992.116	3639.13
992.413	3602.74
992.71	3567.26
993.006	3555.29
993.303	3522.75
993.6	3533.59
993.897	3458.12
994.193	3467.83
994.49	3495.18
994.787	3421.73
995.083	3411.34
995.379	3408.63
995.676	3381.96
995.972	3352.36
996.268	3310.1
996.565	3316.88
996.861	3265.13
997.157	3297.67
997.453	3231.91
997.749	3268.29
998.044	3202.98
998.34	3197.33
998.636	3157.11
998.932	3110.78
999.227	3138.12
999.523	3122.08
999.818	3128.63
1000.114	3038.47
1000.409	3066.26
1000.704	3023.55
1001	3035.98
1001.295	2993.72
1001.59	3005.7
1001.885	2969.77
1002.18	2927.06
1002.475	2878.92
1002.77	2895.87
1003.065	2888.19
1003.359	2896.32
1003.654	2887.96
1003.949	2845.7
1004.243	2837.57
1004.538	2837.79
1004.832	2809.32
1005.127	2834.4
1005.421	2758.02
1005.715	2737.23
1006.009	2755.08
1006.304	2711.69
1006.598	2671.02
1006.892	2687.74
1007.186	2674.63
1007.48	2644.35
1007.773	2646.16
1008.067	2628.08
1008.361	2658.81
1008.655	2617.23
1008.948	2586.5
1009.242	2608.65
1009.535	2560.96
1009.829	2547.63
1010.122	2536.33
1010.415	2531.13
1010.708	2504.02
1011.001	2507.18
1011.295	2522.32
1011.588	2512.6
1011.881	2462.21
1012.173	2458.59
1012.466	2471.7
1012.759	2442.77
1013.052	2466.28
1013.344	2408.65
1013.637	2395.09
1013.93	2418.59
1014.222	2396
1014.514	2395.54
1014.807	2360.29
1015.099	2313.29
1015.391	2321.42
1015.683	2331.82
1015.976	2280.52
1016.268	2262.67
1016.56	2270.8
1016.851	2265.38
1017.143	2241.2
1017.435	2217.7
1017.727	2202.78
1018.018	2207.98
1018.31	2211.37
1018.602	2181.31
1018.893	2160.75
1019.185	2111.26
1019.476	2116.23
1019.767	2167.98
1020.058	2118.72
1020.35	2105.16
1020.641	2064.71
1020.932	2054.31
1021.223	2050.24
1021.514	2040.75
1021.804	1988.32
1022.095	2026.74
1022.386	1985.39
1022.677	1951.26
1022.967	1937.7
1023.258	1947.87
1023.548	1937.03
1023.839	1917.59
1024.129	1888.21
1024.419	1904.94
1024.709	1855.9
1025	1857.03
1025.29	1843.92
1025.58	1803.24
1025.87	1819.29
1026.16	1793.07
1026.449	1781.1
1026.739	1752.62
1027.029	1773.41
1027.319	1730.93
1027.608	1744.04
1027.898	1737.48
1028.187	1673.76
1028.477	1737.03
1028.766	1668.11
1029.055	1652.97
1029.344	1669.24
1029.634	1633.98
1029.923	1644.15
1030.212	1610.71
1030.501	1597.83
1030.79	1572.52
1031.078	1567.77
1031.367	1555.79
1031.656	1556.7
1031.945	1557.83
1032.233	1543.36
1032.522	1547.43
1032.81	1518.73
1033.099	1521.67
1033.387	1531.61
1033.675	1485.74
1033.963	1488
1034.251	1473.76
1034.54	1457.94
1034.828	1453.87
1035.116	1445.29
1035.403	1459.07
1035.691	1426.08
1035.979	1411.84
1036.267	1420.88
1036.554	1375.23
1036.842	1399.86
1037.129	1351.73
1037.417	1383.59
1037.704	1353.76
1037.992	1382.69
1038.279	1303.14
1038.566	1343.59
1038.853	1343.59
1039.14	1343.59
