Data from blue_chair_FLMS001491_00034.txt Node
Date: Wed Feb 08 10:30:36 GMT 2017
User: dcchb
Spectrometer: FLMS00149
Trigger mode: 0
Integration Time (sec): 2.000000E-2
Scans to average: 10
Electric dark correction enabled: true
Nonlinearity correction enabled: false
Boxcar width: 0
XAxis mode: Wavelengths
Number of Pixels in Spectrum: 2048
>>>>>Begin Spectral Data<<<<<
341.393	-10.08
341.776	-10.08
342.16	-10.08
342.543	-59.35
342.927	-68.61
343.31	-63.64
343.693	-54.15
344.077	-66.13
344.46	-49.63
344.843	-47.37
345.226	-39.01
345.61	-30.87
345.993	-11.89
346.376	-6.24
346.759	12.51
347.142	23.59
347.525	31.72
347.908	45.73
348.291	72.17
348.674	75.34
349.057	107.88
349.44	146.07
349.823	117.14
350.206	147.43
350.588	173.41
350.971	175
351.354	185.39
351.737	206.86
352.119	216.35
352.502	226.75
352.884	229.68
353.267	263.13
353.65	254.54
354.032	269.68
354.414	283.24
354.797	285.5
355.179	278.95
355.562	297.7
355.944	301.55
356.326	303.13
356.709	307.2
357.091	314.88
357.473	298.16
357.855	299.51
358.238	318.04
358.62	311.26
359.002	303.13
359.384	313.75
359.766	307.42
360.148	299.29
360.53	318.95
360.912	302.68
361.294	317.14
361.676	299.51
362.057	283.69
362.439	279.17
362.821	314.88
363.203	282.34
363.584	306.29
363.966	294.77
364.348	307.65
364.729	314.43
365.111	283.47
365.493	314.43
365.874	269.46
366.256	284.82
366.637	283.47
367.019	299.29
367.4	291.6
367.781	269.23
368.163	287.31
368.544	302.22
368.925	287.31
369.306	283.24
369.688	295.44
370.069	281.66
370.45	280.3
370.831	290.7
371.212	271.72
371.593	264.48
371.974	287.99
372.355	288.21
372.736	299.74
373.117	288.89
373.498	282.11
373.879	272.17
374.26	270.59
374.641	296.57
375.021	294.99
375.402	273.52
375.783	273.07
376.163	298.61
376.544	287.31
376.925	286.86
377.305	289.79
377.686	301.09
378.066	309.23
378.447	287.31
378.827	299.51
379.208	298.61
379.588	286.63
379.968	278.04
380.349	302
380.729	303.58
381.109	304.26
381.489	297.93
381.87	306.74
382.25	297.93
382.63	303.58
383.01	273.07
383.39	287.31
383.77	293.64
384.15	294.77
384.53	290.25
384.91	298.16
385.29	286.4
385.67	309.91
386.049	300.42
386.429	298.61
386.809	309
387.189	309.91
387.568	289.12
387.948	310.36
388.328	294.99
388.707	302.22
389.087	295.9
389.466	308.78
389.846	322.34
390.225	301.09
390.605	296.12
390.984	288.66
391.363	289.57
391.743	317.59
392.122	309.68
392.501	308.33
392.881	304.03
393.26	319.62
393.639	309
394.018	309.91
394.397	327.76
394.776	296.57
395.155	315.1
395.534	315.56
395.913	306.07
396.292	322.79
396.671	315.1
397.05	320.98
397.429	316.46
397.808	310.36
398.186	344.26
398.565	333.86
398.944	333.64
399.323	342.9
399.701	336.57
400.08	343.35
400.458	332.05
400.837	314.43
401.215	337.7
401.594	316.91
401.972	336.12
402.351	348.1
402.729	337.25
403.107	336.57
403.486	333.41
403.864	352.62
404.242	356.23
404.62	343.58
404.999	348.55
405.377	343.13
405.755	330.92
406.133	346.06
406.511	352.39
406.889	360.08
407.267	362.79
407.645	337.25
408.023	352.62
408.401	366.85
408.779	385.16
409.156	355.78
409.534	356.91
409.912	394.88
410.29	375.22
410.667	353.52
411.045	374.31
411.422	357.14
411.8	370.47
412.178	334.09
412.555	376.35
412.933	389.45
413.31	383.35
413.687	388.78
414.065	373.86
414.442	382.22
414.819	379.06
415.197	384.93
415.574	377.02
415.951	398.94
416.328	390.81
416.705	392.84
417.082	387.87
417.46	374.31
417.837	391.49
418.214	401.66
418.591	386.52
418.967	396.68
419.344	382.22
419.721	398.72
420.098	385.39
420.475	392.84
420.852	416.57
421.228	392.39
421.605	399.17
421.982	416.57
422.358	409.79
422.735	436.01
423.111	402.56
423.488	405.27
423.864	409.79
424.241	438.04
424.617	409.11
424.994	427.64
425.37	417.02
425.746	425.16
426.123	437.59
426.499	439.17
426.875	443.01
427.251	438.27
427.627	420.41
428.003	432.16
428.379	456.12
428.756	459.06
429.132	453.18
429.507	452.28
429.883	463.35
430.259	460.64
430.635	472.16
431.011	473.07
431.387	462.45
431.763	462.9
432.138	482.78
432.514	498.83
432.89	500.64
433.265	507.42
433.641	496.12
434.016	506.96
434.392	509
434.767	530.69
435.143	516.91
435.518	529.11
435.894	506.51
436.269	515.33
436.644	522.33
437.02	538.6
437.395	531.37
437.77	525.95
438.145	538.15
438.52	572.05
438.895	568.66
439.271	570.24
439.646	560.07
440.021	572.05
440.395	557.58
440.77	586.51
441.145	580.63
441.52	591.03
441.895	603.01
442.27	603.91
442.645	585.15
443.019	587.87
443.394	601.65
443.769	609.56
444.143	602.33
444.518	621.31
444.892	614.31
445.267	623.8
445.641	622.22
446.016	629.67
446.39	625.61
446.764	631.93
447.139	640.75
447.513	628.32
447.887	661.08
448.262	653.4
448.636	638.71
449.01	653.4
449.384	651.82
449.758	666.73
450.132	661.54
450.506	667.86
450.88	678.03
451.254	662.44
451.628	664.02
452.002	680.74
452.376	665.38
452.75	694.98
453.123	710.8
453.497	678.71
453.871	705.15
454.244	725.49
454.618	716.9
454.992	734.3
455.365	723.46
455.739	730.46
456.112	737.47
456.486	738.6
456.859	726.39
457.232	746.73
457.606	755.55
457.979	758.93
458.352	767.97
458.725	796.67
459.099	793.74
459.472	781.53
459.845	780.86
460.218	816.33
460.591	793.96
460.964	802.55
461.337	808.88
461.71	800.74
462.083	825.6
462.456	837.35
462.829	820.18
463.201	839.16
463.574	851.36
463.947	835.32
464.32	847.07
464.692	865.37
465.065	856.11
465.438	860.85
465.81	886.62
466.183	899.04
466.555	885.03
466.928	935.2
467.3	911.25
467.672	912.6
468.045	925.71
468.417	913.06
468.789	947.63
469.161	935.2
469.534	939.04
469.906	964.13
470.278	978.59
470.65	986.73
471.022	978.59
471.394	994.86
471.766	982.21
472.138	1009.1
472.51	1000.51
472.882	1009.78
473.253	1042.32
473.625	1046.61
473.997	1056.78
474.369	1041.41
474.74	1035.76
475.112	1084.12
475.484	1087.51
475.855	1111.47
476.227	1093.84
476.598	1122.32
476.97	1133.39
477.341	1149.43
477.713	1133.39
478.084	1143.33
478.455	1162.09
478.827	1180.39
479.198	1214.52
479.569	1209.54
479.94	1209.54
480.311	1206.15
480.682	1254.52
481.053	1266.49
481.424	1262.65
481.795	1294.51
482.166	1299.03
482.537	1307.62
482.908	1359.6
483.279	1320.95
483.65	1359.6
484.021	1345.81
484.391	1365.7
484.762	1385.81
485.133	1360.73
485.503	1391.69
485.874	1402.31
486.244	1406.15
486.615	1422.42
486.985	1413.38
487.356	1462.42
487.726	1458.13
488.097	1476.43
488.467	1493.15
488.837	1489.09
489.207	1513.27
489.578	1503.32
489.948	1518.46
490.318	1529.99
490.688	1555.98
491.058	1536.32
491.428	1562.76
491.798	1596.43
492.168	1563.21
492.538	1590.55
492.908	1579.7
493.278	1615.41
493.648	1632.36
494.017	1615.18
494.387	1624.22
494.757	1658.8
495.126	1636.43
495.496	1640.04
495.866	1619.03
496.235	1663.54
496.605	1647.5
496.974	1647.27
497.344	1655.41
497.713	1646.82
498.082	1657.44
498.452	1690.89
498.821	1679.36
499.19	1696.54
499.559	1720.04
499.928	1706.48
500.298	1720.94
500.667	1702.86
501.036	1703.99
501.405	1709.19
501.774	1709.19
502.143	1698.35
502.512	1716.88
502.88	1727.72
503.249	1725.69
503.618	1734.28
503.987	1723.88
504.356	1729.76
504.724	1730.43
505.093	1702.41
505.462	1698.12
505.83	1743.09
506.199	1708.29
506.567	1759.81
506.936	1709.42
507.304	1749.42
507.672	1762.07
508.041	1717.55
508.409	1732.47
508.777	1764.56
509.145	1762.98
509.514	1746.48
509.882	1768.63
510.25	1777.89
510.618	1766.37
510.986	1783.09
511.354	1737.67
511.722	1783.77
512.09	1720.94
512.458	1772.24
512.826	1728.63
513.193	1750.77
513.561	1747.84
513.929	1750.55
514.297	1722.53
514.664	1735.86
515.032	1777.89
515.4	1731.56
515.767	1757.33
516.135	1760.04
516.502	1750.32
516.869	1748.06
517.237	1754.39
517.604	1747.38
517.972	1758.23
518.339	1771.34
518.706	1722.07
519.073	1737.89
519.44	1740.6
519.808	1770.21
520.175	1745.35
520.542	1741.73
520.909	1769.08
521.276	1764.56
521.643	1745.58
522.009	1757.1
522.376	1756.65
522.743	1759.36
523.11	1763.88
523.477	1757.33
523.843	1751.23
524.21	1777.44
524.577	1739.02
524.943	1768.85
525.31	1771.56
525.676	1763.43
526.043	1703.77
526.409	1749.87
526.776	1791.22
527.142	1770.43
527.508	1734.73
527.874	1792.81
528.241	1773.82
528.607	1777.89
528.973	1774.28
529.339	1762.52
529.705	1772.92
530.071	1748.51
530.437	1749.42
530.803	1782.86
531.169	1767.27
531.535	1792.35
531.901	1787.61
532.267	1743.77
532.632	1734.5
532.998	1756.87
533.364	1746.03
533.73	1763.2
534.095	1788.51
534.461	1766.37
534.826	1791.45
535.192	1758
535.557	1796.42
535.923	1757.55
536.288	1742.64
536.653	1730.89
537.019	1781.73
537.384	1739.7
537.749	1742.41
538.114	1738.34
538.479	1743.32
538.845	1737.89
539.21	1737.21
539.575	1721.62
539.94	1735.86
540.305	1716.65
540.67	1745.58
541.034	1735.63
541.399	1719.36
541.764	1734.95
542.129	1755.52
542.494	1731.56
542.858	1711
543.223	1712.81
543.587	1696.54
543.952	1730.66
544.316	1718.91
544.681	1707.16
545.045	1676.65
545.41	1701.06
545.774	1689.76
546.138	1679.14
546.503	1679.14
546.867	1676.88
547.231	1683.43
547.595	1692.24
547.959	1682.53
548.324	1672.13
548.688	1680.94
549.052	1667.16
549.416	1658.8
549.779	1678.01
550.143	1675.52
550.507	1643.43
550.871	1671.45
551.235	1678.46
551.599	1668.97
551.962	1670.78
552.326	1649.53
552.689	1649.53
553.053	1634.17
553.417	1684.79
553.78	1662.64
554.143	1622.41
554.507	1667.16
554.87	1639.14
555.234	1646.82
555.597	1619.03
555.96	1639.59
556.323	1627.16
556.686	1604.56
557.05	1637.1
557.413	1611.57
557.776	1631.91
558.139	1591.23
558.502	1648.85
558.865	1635.97
559.228	1644.56
559.59	1635.52
559.953	1623.32
560.316	1647.05
560.679	1631.23
561.041	1622.64
561.404	1670.55
561.767	1663.32
562.129	1624.45
562.492	1659.7
562.854	1650.66
563.217	1632.13
563.579	1632.81
563.941	1643.88
564.304	1682.98
564.666	1635.75
565.028	1637.33
565.39	1631.45
565.753	1651.34
566.115	1680.27
566.477	1645.47
566.839	1643.43
567.201	1672.81
567.563	1666.71
567.925	1681.4
568.287	1664.45
568.648	1690.66
569.01	1671.23
569.372	1686.82
569.734	1679.59
570.095	1692.7
570.457	1694.96
570.819	1723.43
571.18	1722.53
571.542	1707.84
571.903	1707.16
572.265	1703.32
572.626	1719.59
572.987	1723.2
573.349	1703.99
573.71	1721.4
574.071	1699.48
574.432	1701.28
574.794	1764.78
575.155	1741.73
575.516	1735.63
575.877	1739.7
576.238	1741.73
576.599	1752.81
576.96	1734.95
577.32	1739.02
577.681	1753.03
578.042	1748.06
578.403	1741.51
578.763	1756.87
579.124	1761.39
579.485	1767.04
579.845	1805.69
580.206	1748.51
580.566	1768.17
580.927	1758
581.287	1784.22
581.648	1775.86
582.008	1817.21
582.368	1794.84
582.728	1790.32
583.089	1783.77
583.449	1791.22
583.809	1800.49
584.169	1779.02
584.529	1778.57
584.889	1794.16
585.249	1808.4
585.609	1780.6
585.969	1768.17
586.329	1764.33
586.688	1795.07
587.048	1783.31
587.408	1807.72
587.768	1808.4
588.127	1818.57
588.487	1806.36
588.846	1821.28
589.206	1839.58
589.565	1775.41
589.925	1815.63
590.284	1821.73
590.643	1803.43
591.003	1788.96
591.362	1839.13
591.721	1794.61
592.08	1792.35
592.44	1826.48
592.799	1820.6
593.158	1795.29
593.517	1788.29
593.876	1777.89
594.235	1791
594.593	1790.77
594.952	1795.07
595.311	1761.39
595.67	1777.89
596.029	1772.69
596.387	1796.65
596.746	1811.34
597.104	1800.04
597.463	1785.57
597.822	1816.31
598.18	1795.97
598.538	1796.65
598.897	1793.03
599.255	1800.04
599.613	1817.21
599.972	1804.56
600.33	1786.25
600.688	1819.92
601.046	1807.72
601.404	1796.87
601.762	1798.68
602.12	1793.71
602.478	1807.72
602.836	1821.05
603.194	1837.1
603.552	1813.14
603.91	1790.09
604.268	1797.55
604.625	1794.39
604.983	1774.73
605.341	1782.41
605.698	1809.75
606.056	1788.51
606.413	1810.88
606.771	1827.16
607.128	1807.04
607.485	1818.12
607.843	1814.5
608.2	1788.29
608.557	1830.55
608.914	1798
609.272	1801.39
609.629	1793.48
609.986	1834.16
610.343	1834.61
610.7	1824.9
611.057	1817.89
611.414	1794.84
611.771	1827.16
612.127	1875.97
612.484	1853.82
612.841	1824.22
613.198	1814.95
613.554	1817.89
613.911	1840.71
614.267	1840.49
614.624	1854.27
614.98	1845.01
615.337	1843.2
615.693	1854.05
616.05	1847.95
616.406	1833.03
616.762	1846.14
617.118	1856.31
617.475	1835.52
617.831	1847.27
618.187	1859.7
618.543	1844.78
618.899	1864.44
619.255	1873.93
619.611	1873.03
619.967	1884.1
620.323	1866.02
620.678	1862.41
621.034	1872.58
621.39	1880.94
621.746	1826.25
622.101	1872.8
622.457	1915.74
622.812	1854.27
623.168	1858.57
623.523	1867.38
623.879	1875.97
624.234	1885.46
624.589	1828.06
624.945	1840.71
625.3	1877.32
625.655	1848.4
626.01	1837.1
626.365	1842.07
626.72	1848.62
627.075	1864.67
627.43	1902.18
627.785	1832.13
628.14	1892.24
628.495	1889.98
628.85	1843.88
629.205	1873.48
629.559	1860.37
629.914	1847.04
630.269	1852.24
630.623	1836.87
630.978	1840.26
631.332	1878.91
631.687	1869.41
632.041	1899.92
632.396	1840.94
632.75	1856.31
633.104	1866.7
633.459	1882.07
633.813	1849.98
634.167	1831
634.521	1832.58
634.875	1828.74
635.229	1838.23
635.583	1880.94
635.937	1844.56
636.291	1852.69
636.645	1838.68
636.999	1861.5
637.352	1844.33
637.706	1868.51
638.06	1831.45
638.413	1839.58
638.767	1886.14
639.121	1866.25
639.474	1860.37
639.828	1848.62
640.181	1836.42
640.534	1841.84
640.888	1837.55
641.241	1866.25
641.594	1841.39
641.947	1861.73
642.301	1856.53
642.654	1843.65
643.007	1862.18
643.36	1845.46
643.713	1834.16
644.066	1841.39
644.419	1829.87
644.771	1828.06
645.124	1795.07
645.477	1812.01
645.83	1830.32
646.182	1798.23
646.535	1801.17
646.888	1806.14
647.24	1781.73
647.593	1816.99
647.945	1780.38
648.298	1812.92
648.65	1794.16
649.002	1814.27
649.355	1805.69
649.707	1790.09
650.059	1815.4
650.411	1826.48
650.763	1852.69
651.115	1828.96
651.467	1825.57
651.819	1830.09
652.171	1862.86
652.523	1828.51
652.875	1852.01
653.227	1843.43
653.578	1856.31
653.93	1872.13
654.282	1830.55
654.633	1862.86
654.985	1860.15
655.337	1822.41
655.688	1851.79
656.039	1854.5
656.391	1828.96
656.742	1849.08
657.094	1852.69
657.445	1851.79
657.796	1861.96
658.147	1859.92
658.498	1870.54
658.849	1843.2
659.2	1855.4
659.551	1860.83
659.902	1831.9
660.253	1890.43
660.604	1875.06
660.955	1849.08
661.306	1880.94
661.656	1852.01
662.007	1890.88
662.358	1871.45
662.708	1879.58
663.059	1862.18
663.409	1827.16
663.76	1877.32
664.11	1854.73
664.461	1847.27
664.811	1856.31
665.161	1849.3
665.511	1850.21
665.862	1855.4
666.212	1858.79
666.562	1867.38
666.912	1846.36
667.262	1853.37
667.612	1863.54
667.962	1868.74
668.312	1839.81
668.662	1878
669.011	1863.99
669.361	1867.15
669.711	1836.19
670.06	1831.45
670.41	1854.05
670.76	1853.37
671.109	1848.17
671.459	1845.46
671.808	1849.75
672.157	1841.17
672.507	1830.32
672.856	1842.3
673.205	1823.09
673.554	1826.93
673.904	1857.21
674.253	1842.3
674.602	1830.09
674.951	1817.89
675.3	1791.45
675.649	1839.36
675.998	1816.08
676.346	1824.67
676.695	1853.82
677.044	1796.87
677.393	1808.62
677.741	1785.8
678.09	1807.49
678.438	1784.9
678.787	1810.21
679.135	1811.56
679.484	1788.06
679.832	1813.6
680.181	1773.82
680.529	1795.07
680.877	1788.06
681.225	1788.29
681.573	1796.65
681.922	1773.37
682.27	1782.64
682.618	1762.75
682.966	1792.81
683.314	1774.73
683.661	1773.6
684.009	1783.31
684.357	1735.63
684.705	1763.88
685.053	1690.66
685.4	1741.73
685.748	1740.83
686.095	1745.35
686.443	1715.29
686.79	1710.77
687.138	1708.97
687.485	1742.19
687.832	1738.12
688.18	1733.6
688.527	1705.12
688.874	1714.39
689.221	1714.16
689.568	1688.85
689.915	1694.73
690.262	1715.75
690.609	1699.02
690.956	1669.42
691.303	1705.8
691.65	1681.85
691.997	1663.54
692.344	1676.65
692.69	1645.69
693.037	1656.76
693.383	1679.14
693.73	1643.88
694.077	1634.62
694.423	1640.49
694.769	1640.95
695.116	1615.64
695.462	1662.64
695.808	1657.67
696.155	1618.12
696.501	1630.1
696.847	1598.23
697.193	1577.9
697.539	1607.95
697.885	1653.6
698.231	1621.96
698.577	1584.22
698.923	1600.49
699.269	1618.57
699.614	1584.22
699.96	1580.38
700.306	1566.15
700.651	1593.26
700.997	1603.88
701.342	1584.22
701.688	1538.58
702.033	1546.94
702.379	1586.26
702.724	1567.5
703.069	1579.25
703.415	1564.34
703.76	1582.64
704.105	1560.27
704.45	1542.42
704.795	1553.04
705.14	1552.13
705.485	1555.07
705.83	1565.47
706.175	1543.77
706.52	1551.46
706.865	1526.15
707.209	1548.97
707.554	1534.28
707.899	1540.38
708.243	1591.46
708.588	1534.51
708.932	1542.64
709.277	1539.93
709.621	1510.55
709.966	1536.09
710.31	1524.11
710.654	1527.95
710.998	1537.45
711.342	1511.68
711.687	1545.35
712.031	1552.81
712.375	1512.59
712.719	1554.85
713.063	1556.65
713.407	1555.98
713.75	1555.98
714.094	1562.53
714.438	1571.57
714.782	1567.28
715.125	1551.23
715.469	1542.42
715.812	1563.89
716.156	1563.21
716.499	1553.04
716.843	1544
717.186	1550.33
717.53	1575.41
717.873	1559.82
718.216	1584.9
718.559	1537.67
718.902	1526.15
719.246	1573.6
719.589	1539.93
719.932	1565.69
720.275	1564.34
720.617	1576.77
720.96	1603.21
721.303	1551.91
721.646	1602.3
721.989	1601.17
722.331	1585.58
722.674	1580.61
723.016	1597.1
723.359	1606.14
723.701	1583.09
724.044	1598.01
724.386	1591
724.729	1589.87
725.071	1611.12
725.413	1614.96
725.755	1610.21
726.097	1615.18
726.439	1624.67
726.782	1611.79
727.124	1637.1
727.465	1654.05
727.807	1624.67
728.149	1665.35
728.491	1658.35
728.833	1633.26
729.175	1642.3
729.516	1643.21
729.858	1647.73
730.199	1677.78
730.541	1684.11
730.882	1688.4
731.224	1698.8
731.565	1660.61
731.906	1689.76
732.248	1685.92
732.589	1698.57
732.93	1680.49
733.271	1722.07
733.612	1732.92
733.953	1727.72
734.294	1712.81
734.635	1706.93
734.976	1743.32
735.317	1792.81
735.658	1753.94
735.999	1745.8
736.339	1814.27
736.68	1799.81
737.021	1792.35
737.361	1807.49
737.702	1798.23
738.042	1827.16
738.383	1809.75
738.723	1843.88
739.063	1832.35
739.404	1836.87
739.744	1856.53
740.084	1859.92
740.424	1869.19
740.764	1903.76
741.104	1896.53
741.444	1864.22
741.784	1909.87
742.124	1957.77
742.464	1947.38
742.804	1981.05
743.143	1968.39
743.483	1970.43
743.823	1992.57
744.162	2032.35
744.502	2011.33
744.841	2043.87
745.181	2106.92
745.52	2074.15
745.86	2152.8
746.199	2118.45
746.538	2167.94
746.877	2200.7
747.216	2171.33
747.556	2195.73
747.895	2235.73
748.234	2248.39
748.573	2278.89
748.911	2305.11
749.25	2333.81
749.589	2352.34
749.928	2342.62
750.267	2398.44
750.605	2435.05
750.944	2436.18
751.283	2483.86
751.621	2533.13
751.96	2550.75
752.298	2571.54
752.636	2614.71
752.975	2653.12
753.313	2675.27
753.651	2706.23
753.989	2796.17
754.327	2836.17
754.666	2873.68
755.004	2884.3
755.342	2917.3
755.679	2971.98
756.017	2987.12
756.355	3029.38
756.693	3041.36
757.031	3107.57
757.368	3157.97
757.706	3194.13
758.044	3228.47
758.381	3251.98
758.719	3329.26
759.056	3337.85
759.394	3381.01
759.731	3471.63
760.068	3426.21
760.405	3488.58
760.743	3573.55
761.08	3585.3
761.417	3587.11
761.754	3659.65
762.091	3669.82
762.428	3709.37
762.765	3713.66
763.102	3785.97
763.438	3823.49
763.775	3863.03
764.112	3892.19
764.449	3935.12
764.785	3959.53
765.122	3999.53
765.458	4019.64
765.795	4069.58
766.131	4089.92
766.467	4171.27
766.804	4152.97
767.14	4133.76
767.476	4205.85
767.812	4209.69
768.148	4253.76
768.485	4247.66
768.821	4289.24
769.157	4310.71
769.492	4297.82
769.828	4304.83
770.164	4396.58
770.5	4366.52
770.836	4409.69
771.171	4431.83
771.507	4461.89
771.842	4447.88
772.178	4482.9
772.513	4496.92
772.849	4509.34
773.184	4474.77
773.519	4541.43
773.855	4505.5
774.19	4550.7
774.525	4550.02
774.86	4543.47
775.195	4612.62
775.53	4528.55
775.865	4575.56
776.2	4563.13
776.535	4537.82
776.87	4636.8
777.205	4598.61
777.539	4557.71
777.874	4576.24
778.209	4583.92
778.543	4590.25
778.878	4611.04
779.212	4605.39
779.547	4566.29
779.881	4628.89
780.215	4599.74
780.55	4645.84
780.884	4559.74
781.218	4585.95
781.552	4625.95
781.886	4567.65
782.22	4601.55
782.554	4599.74
782.888	4573.3
783.222	4602.45
783.556	4566.97
783.889	4545.28
784.223	4558.83
784.557	4542.56
784.89	4553.19
785.224	4508.89
785.557	4503.7
785.891	4498.05
786.224	4513.86
786.558	4559.29
786.891	4546.41
787.224	4513.64
787.557	4527.2
787.891	4470.93
788.224	4472.28
788.557	4501.44
788.89	4489.46
789.223	4503.7
789.556	4501.89
789.888	4453.3
790.221	4468.44
790.554	4457.37
790.887	4454.43
791.219	4420.76
791.552	4439.06
791.884	4442.45
792.217	4411.95
792.549	4402.45
792.882	4393.64
793.214	4377.37
793.546	4387.77
793.879	4372.85
794.211	4353.42
794.543	4400.65
794.875	4362.46
795.207	4386.86
795.539	4357.71
795.871	4404.04
796.203	4313.19
796.535	4309.35
796.867	4309.58
797.198	4282.91
797.53	4286.98
797.862	4289.92
798.193	4290.37
798.525	4265.96
798.856	4326.07
799.188	4233.87
799.519	4249.24
799.85	4214.21
800.182	4152.29
800.513	4253.76
800.844	4234.32
801.175	4146.42
801.506	4183.48
801.837	4219.41
802.168	4158.17
802.499	4145.06
802.83	4145.06
803.161	4126.98
803.491	4178.05
803.822	4159.98
804.153	4106.64
804.483	4113.42
804.814	4110.49
805.145	4137.15
805.475	4110.49
805.805	4057.15
806.136	4085.85
806.466	4108
806.796	4033.43
807.126	4007.89
807.457	3998.4
807.787	4010.83
808.117	4025.52
808.447	4028
808.777	4031.84
809.107	3999.53
809.436	4009.92
809.766	4003.6
810.096	3973.54
810.426	3988.68
810.755	4023.48
811.085	3939.87
811.414	3960.21
811.744	3934.44
812.073	3943.71
812.403	3953.65
812.732	3921.56
813.061	3899.64
813.39	3927.44
813.719	3893.99
814.049	3929.7
814.378	3894.45
814.707	3872.75
815.036	3873.88
815.365	3875.69
815.693	3862.81
816.022	3829.36
816.351	3798.18
816.68	3839.98
817.008	3798.18
817.337	3826.2
817.665	3785.3
817.994	3811.96
818.322	3809.02
818.651	3819.65
818.979	3785.3
819.307	3837.95
819.636	3787.78
819.964	3755.24
820.292	3780.1
820.62	3787.1
820.948	3773.54
821.276	3813.09
821.604	3754.56
821.932	3783.04
822.259	3830.72
822.587	3762.92
822.915	3775.35
823.243	3761.12
823.57	3763.38
823.898	3785.97
824.225	3750.04
824.553	3748.69
824.88	3753.66
825.207	3789.59
825.535	3792.98
825.862	3803.37
826.189	3761.79
826.516	3806.99
826.843	3794.56
827.17	3774.67
827.497	3774.45
827.824	3787.78
828.151	3785.97
828.478	3752.3
828.805	3798.4
829.131	3767.22
829.458	3821
829.785	3771.96
830.111	3793.43
830.438	3775.35
830.764	3809.7
831.09	3819.87
831.417	3762.02
831.743	3805.86
832.069	3797.73
832.395	3730.38
832.722	3790.72
833.048	3800.66
833.374	3795.47
833.7	3765.86
834.026	3758.4
834.351	3794.56
834.677	3776.26
835.003	3786.2
835.329	3782.58
835.654	3704.39
835.98	3736.71
836.306	3755.24
836.631	3732.87
836.956	3761.12
837.282	3764.05
837.607	3698.07
837.932	3740.33
838.258	3715.92
838.583	3728.57
838.908	3661.68
839.233	3675.02
839.558	3722.47
839.883	3683.38
840.208	3694.68
840.533	3684.06
840.858	3680.89
841.182	3718.63
841.507	3702.59
841.832	3607.67
842.156	3651.29
842.481	3661.68
842.805	3652.42
843.13	3586.66
843.454	3644.51
843.778	3600.44
844.103	3624.4
844.427	3588.92
844.751	3564.74
845.075	3557.51
845.399	3594.34
845.723	3544.17
846.047	3540.78
846.371	3523.38
846.695	3534.23
847.019	3520.9
847.343	3456.49
847.666	3484.74
847.99	3494.91
848.313	3448.13
848.637	3441.35
848.96	3435.47
849.284	3425.98
849.607	3421.24
849.931	3380.33
850.254	3389.37
850.577	3378.98
850.9	3336.04
851.223	3367
851.546	3370.39
851.869	3311.64
852.192	3328.81
852.515	3286.78
852.838	3287
853.161	3304.86
853.483	3263.28
853.806	3246.55
854.129	3260.56
854.451	3247.01
854.774	3237.29
855.096	3205.2
855.419	3230.96
855.741	3232.09
856.063	3219.21
856.385	3189.15
856.708	3188.02
857.03	3191.41
857.352	3156.61
857.674	3187.12
857.996	3185.09
858.318	3179.89
858.64	3145.76
858.961	3147.57
859.283	3160.45
859.605	3129.04
859.926	3121.58
860.248	3116.84
860.57	3081.59
860.891	3089.5
861.212	3109.61
861.534	3070.29
861.855	3094.47
862.176	3064.64
862.498	3060.57
862.819	3065.99
863.14	3030.97
863.461	3028.03
863.782	3024.41
864.103	3046.56
864.424	3026.9
864.745	3041.81
865.065	3048.59
865.386	3000.46
865.707	2992.32
866.027	3011.98
866.348	2999.33
866.668	3021.47
866.989	2995.94
867.309	3003.62
867.63	2960.46
867.95	3002.49
868.27	2967.24
868.59	2995.71
868.91	2998.88
869.23	2967.92
869.55	2969.72
869.87	2978.99
870.19	2956.17
870.51	2947.35
870.83	2940.12
871.15	2922.27
871.469	2896.51
871.789	2958.88
872.109	2927.69
872.428	2908.26
872.748	2939.89
873.067	2928.82
873.386	2937.63
873.706	2901.48
874.025	2925.88
874.344	2869.39
874.663	2888.14
874.982	2894.7
875.301	2930.86
875.62	2873.68
875.939	2857.86
876.258	2904.64
876.577	2870.74
876.896	2863.74
877.214	2836.62
877.533	2875.26
877.852	2870.52
878.17	2852.89
878.489	2894.7
878.807	2823.29
879.125	2824.42
879.444	2852.44
879.762	2806.79
880.08	2830.07
880.398	2794.14
880.716	2823.06
881.034	2821.48
881.352	2796.85
881.67	2801.14
881.988	2786.9
882.306	2802.72
882.624	2817.19
882.941	2763.18
883.259	2775.6
883.577	2750.52
883.894	2742.16
884.212	2725.21
884.529	2729.5
884.846	2731.76
885.164	2758.88
885.481	2725.89
885.798	2740.58
886.115	2691.09
886.432	2703.06
886.75	2713.91
887.067	2685.89
887.383	2676.17
887.7	2696.96
888.017	2677.08
888.334	2690.18
888.651	2651.99
888.967	2669.62
889.284	2646.79
889.6	2674.14
889.917	2626.68
890.233	2629.17
890.55	2660.13
890.866	2635.27
891.182	2581.94
891.498	2612.67
891.815	2620.13
892.131	2595.5
892.447	2571.77
892.763	2597.3
893.079	2576.74
893.395	2586.46
893.71	2541.49
894.026	2572.9
894.342	2545.33
894.657	2548.49
894.973	2538.55
895.289	2502.62
895.604	2512.34
895.92	2485.22
896.235	2513.92
896.55	2491.32
896.865	2489.96
897.181	2481.38
897.496	2455.61
897.811	2438.89
898.126	2472.11
898.441	2467.82
898.756	2458.1
899.071	2420.36
899.386	2444.99
899.7	2409.29
900.015	2396.63
900.33	2412.45
900.644	2385.78
900.959	2379.46
901.273	2354.83
901.588	2346.46
901.902	2384.65
902.216	2365.9
902.531	2308.72
902.845	2337.65
903.159	2330.87
903.473	2312.11
903.787	2317.54
904.101	2321.83
904.415	2290.19
904.729	2322.28
905.042	2233.02
905.356	2254.04
905.67	2281.38
905.984	2286.35
906.297	2250.65
906.611	2236.86
906.924	2255.62
907.237	2227.37
907.551	2226.47
907.864	2223.76
908.177	2228.05
908.491	2219.69
908.804	2216.75
909.117	2181.5
909.43	2153.02
909.743	2165.45
910.056	2117.32
910.368	2137.66
910.681	2150.31
910.994	2131.55
911.307	2109.18
911.619	2122.74
911.932	2133.59
912.244	2098.11
912.557	2080.71
912.869	2105.34
913.181	2070.31
913.494	2087.04
913.806	2055.62
914.118	2065.34
914.43	2059.24
914.742	2034.16
915.054	2030.09
915.366	2032.12
915.678	2011.56
915.99	2000.03
916.302	2003.87
916.613	1998.45
916.925	1995.51
917.236	1999.58
917.548	2002.07
917.859	1991.67
918.171	1959.36
918.482	1976.08
918.794	1933.82
919.105	1961.84
919.416	1934.05
919.727	1932.92
920.038	1932.01
920.349	1922.75
920.66	1898.79
920.971	1890.2
921.282	1927.49
921.593	1888.17
921.903	1893.82
922.214	1872.13
922.525	1841.39
922.835	1894.5
923.146	1839.36
923.456	1851.79
923.767	1850.88
924.077	1833.48
924.387	1812.01
924.697	1843.88
925.008	1831.9
925.318	1831.22
925.628	1805.24
925.938	1815.86
926.248	1767.27
926.558	1788.96
926.867	1775.41
927.177	1782.64
927.487	1761.17
927.796	1761.62
928.106	1755.74
928.416	1767.5
928.725	1760.49
929.034	1701.96
929.344	1732.24
929.653	1736.76
929.962	1717.78
930.271	1739.25
930.581	1729.08
930.89	1710.32
931.199	1702.64
931.508	1694.28
931.817	1680.27
932.125	1719.14
932.434	1670.32
932.743	1662.19
933.051	1685.69
933.36	1648.4
933.669	1650.44
933.977	1634.84
934.286	1626.93
934.594	1614.28
934.902	1616.09
935.21	1629.42
935.519	1629.65
935.827	1645.24
936.135	1603.66
936.443	1600.72
936.751	1560.27
937.059	1602.98
937.367	1599.14
937.674	1595.75
937.982	1567.05
938.29	1548.07
938.597	1578.57
938.905	1561.85
939.213	1537.22
939.52	1559.37
939.827	1553.04
940.135	1532.02
940.442	1547.16
940.749	1522.08
941.056	1512.14
941.363	1496.09
941.67	1486.83
941.977	1534.28
942.284	1491.57
942.591	1492.25
942.898	1467.62
943.205	1464.9
943.511	1473.49
943.818	1477.79
944.125	1464.68
944.431	1466.03
944.738	1476.88
945.044	1459.48
945.35	1436.88
945.657	1450.67
945.963	1438.24
946.269	1405.92
946.575	1447.96
946.881	1433.04
947.187	1427.39
947.493	1433.49
947.799	1395.75
948.105	1390.33
948.41	1401.63
948.716	1402.99
949.022	1377.68
949.327	1369.54
949.633	1389.2
949.938	1377.68
950.244	1361.63
950.549	1367.51
950.854	1353.95
951.16	1372.93
951.465	1349.65
951.77	1313.72
952.075	1334.51
952.38	1325.25
952.685	1329.32
952.99	1339.48
953.294	1308.52
953.599	1331.35
953.904	1310.56
954.209	1306.27
954.513	1340.39
954.818	1287.73
955.122	1314.63
955.426	1293.61
955.731	1306.27
956.035	1267.85
956.339	1269.88
956.643	1262.42
956.948	1281.18
957.252	1283.67
957.556	1240.05
957.86	1250.67
958.163	1241.86
958.467	1254.74
958.771	1262.42
959.075	1253.84
959.378	1249.09
959.682	1246.61
959.985	1237.11
960.289	1220.17
960.592	1225.82
960.896	1195.99
961.199	1228.98
961.502	1208.41
961.805	1187.17
962.108	1165.93
962.411	1184.69
962.714	1186.72
963.017	1167.29
963.32	1174.74
963.623	1182.65
963.926	1189.43
964.228	1164.12
964.531	1129.77
964.833	1176.33
965.136	1168.19
965.438	1150.34
965.741	1122.54
966.043	1158.25
966.345	1169.32
966.648	1139.94
966.95	1151.69
967.252	1130
967.554	1117.8
967.856	1113.95
968.158	1098.13
968.46	1116.21
968.761	1113.05
969.063	1103.56
969.365	1068.98
969.666	1109.66
969.968	1114.18
970.269	1073.05
970.571	1084.35
970.872	1074.63
971.174	1092.03
971.475	1084.8
971.776	1085.71
972.077	1057.01
972.378	1086.61
972.679	1068.98
972.98	1068.98
973.281	1084.58
973.582	1053.84
973.883	1055.88
974.183	1035.99
974.484	1044.8
974.785	1025.82
975.085	1046.16
975.386	1042.77
975.686	1003
975.986	1018.14
976.287	1022.66
976.587	1028.08
976.887	1019.27
977.187	1017.46
977.487	1009.1
977.787	995.76
978.087	1016.1
978.387	1009.1
978.687	1000.96
978.987	1004.35
979.286	988.08
979.586	1006.39
979.885	991.47
980.185	999.61
980.484	965.03
980.784	941.75
981.083	982.66
981.382	978.82
981.682	956.67
981.981	954.86
982.28	962.55
982.579	954.64
982.878	944.47
983.177	948.53
983.475	946.73
983.774	937.24
984.073	935.65
984.372	921.64
984.67	910.8
984.969	936.56
985.267	905.6
985.566	904.47
985.864	914.19
986.162	931.13
986.461	913.73
986.759	929.55
987.057	914.64
987.355	912.6
987.653	917.35
987.951	864.92
988.249	915.31
988.547	883.45
988.844	866.5
989.142	868.99
989.44	898.14
989.737	875.99
990.035	866.73
990.332	869.67
990.63	868.99
990.927	873.96
991.224	862.21
991.521	869.21
991.819	857.24
992.116	841.19
992.413	853.17
992.71	856.79
993.006	834.19
993.303	847.97
993.6	845.03
993.897	835.09
994.193	825.83
994.49	859.72
994.787	834.87
995.083	814.53
995.379	794.41
995.676	827.86
995.972	840.51
996.268	814.98
996.565	811.36
996.861	801.87
997.157	807.52
997.453	826.28
997.749	773.17
998.044	804.81
998.34	809.1
998.636	789.44
998.932	769.1
999.227	784.7
999.523	791.7
999.818	788.99
1000.114	772.95
1000.409	771.14
1000.704	774.3
1001	788.99
1001.295	760.52
1001.59	761.19
1001.885	751.93
1002.18	765.04
1002.475	777.69
1002.77	760.06
1003.065	712.61
1003.359	746.05
1003.654	733.4
1003.949	756.22
1004.243	709.44
1004.538	736.34
1004.832	720.52
1005.127	717.81
1005.421	721.87
1005.715	724.59
1006.009	721.42
1006.304	730.91
1006.598	700.63
1006.892	706.28
1007.186	687.3
1007.48	690.91
1007.773	672.38
1008.067	687.98
1008.361	684.36
1008.655	701.54
1008.948	680.97
1009.242	696.11
1009.535	679.84
1009.829	669.9
1010.122	679.39
1010.415	690.46
1010.708	671.71
1011.001	676
1011.295	692.04
1011.588	661.99
1011.881	687.07
1012.173	652.27
1012.466	674.87
1012.759	665.83
1013.052	671.71
1013.344	638.03
1013.637	660.18
1013.93	659.28
1014.222	644.14
1014.514	646.17
1014.807	639.39
1015.099	630.8
1015.391	633.06
1015.683	629.67
1015.976	640.97
1016.268	615.44
1016.56	635.55
1016.851	619.96
1017.143	631.93
1017.435	624.02
1017.727	607.3
1018.018	629.45
1018.31	604.59
1018.602	624.25
1018.893	624.02
1019.185	601.2
1019.476	592.61
1019.767	584.25
1020.058	586.06
1020.35	600.97
1020.641	578.83
1020.932	610.24
1021.223	590.8
1021.514	566.17
1021.804	598.49
1022.095	596.91
1022.386	580.63
1022.677	577.24
1022.967	567.75
1023.258	574.31
1023.548	583.35
1023.839	551.71
1024.129	586.28
1024.419	552.16
1024.709	574.53
1025	547.64
1025.29	553.74
1025.58	553.97
1025.87	539.28
1026.16	562.78
1026.449	569.34
1026.739	562.1
1027.029	556.91
1027.319	551.26
1027.608	540.41
1027.898	567.3
1028.187	524.36
1028.477	543.57
1028.766	554.19
1029.055	545.61
1029.344	540.86
1029.634	530.24
1029.923	537.7
1030.212	514.65
1030.501	517.36
1030.79	513.07
1031.078	523.23
1031.367	537.25
1031.656	521.88
1031.945	545.83
1032.233	512.39
1032.522	499.96
1032.81	498.6
1033.099	507.42
1033.387	529.79
1033.675	488.21
1033.963	497.7
1034.251	503.57
1034.54	515.1
1034.828	507.64
1035.116	513.07
1035.403	491.82
1035.691	493.63
1035.979	496.79
1036.267	480.3
1036.554	485.04
1036.842	489.79
1037.129	493.41
1037.417	462.45
1037.704	494.08
1037.992	470.35
1038.279	493.18
1038.566	478.26
1038.853	478.26
1039.14	478.26
